Data from White_paper_FLMS001491_058.txt Node
Date: Tue Feb 07 10:35:17 GMT 2017
User: dcchb
Spectrometer: FLMS00149
Trigger mode: 0
Integration Time (sec): 2.000000E-2
Scans to average: 10
Electric dark correction enabled: true
Nonlinearity correction enabled: false
Boxcar width: 0
XAxis mode: Wavelengths
Number of Pixels in Spectrum: 2048
>>>>>Begin Spectral Data<<<<<
341.393	-8.6
341.776	-8.6
342.16	-8.6
342.543	-53.35
342.927	-62.61
343.31	-81.59
343.693	-58.54
344.077	-67.36
344.46	-69.16
344.843	-50.86
345.226	-47.7
345.61	-23.97
345.993	-0.01
346.376	-18.32
346.759	18.29
347.142	22.13
347.525	28.23
347.908	71.4
348.291	74.11
348.674	89.93
349.057	113.43
349.44	134.67
349.823	129.47
350.206	164.73
350.588	231.84
350.971	248.57
351.354	257.38
351.737	257.38
352.119	284.95
352.502	284.5
352.884	293.54
353.267	317.72
353.65	298.51
354.032	332.63
354.414	345.51
354.797	342.58
355.179	340.09
355.562	352.97
355.944	354.33
356.326	379.86
356.709	356.13
357.091	362.69
357.473	370.15
357.855	374.67
358.238	369.92
358.62	360.88
359.002	365.17
359.384	381.22
359.766	367.89
360.148	379.86
360.53	394.33
360.912	374.21
361.294	368.79
361.676	394.33
362.057	393.65
362.439	349.13
362.821	380.31
363.203	361.33
363.584	385.29
363.966	378.96
364.348	366.08
364.729	350.71
365.111	366.53
365.493	369.47
365.874	359.07
366.256	361.56
366.637	350.26
367.019	380.31
367.4	363.82
367.781	366.98
368.163	350.94
368.544	349.13
368.925	364.72
369.306	383.25
369.688	388.9
370.069	357.94
370.45	363.82
370.831	376.25
371.212	379.64
371.593	360.88
371.974	385.06
372.355	376.47
372.736	384.83
373.117	381.67
373.498	353.65
373.879	392.52
374.26	374.44
374.641	382.35
375.021	364.04
375.402	388.68
375.783	382.8
376.163	390.03
376.544	393.2
376.925	390.26
377.305	391.39
377.686	400.2
378.066	394.55
378.447	405.85
378.827	398.62
379.208	393.2
379.588	385.96
379.968	390.71
380.349	422.35
380.729	413.99
381.109	425.74
381.489	418.28
381.87	422.8
382.25	413.99
382.63	440.2
383.01	435.91
383.39	446.08
383.77	418.28
384.15	439.3
384.53	434.1
384.91	455.12
385.29	465.74
385.67	442.91
386.049	436.81
386.429	458.5
386.809	459.18
387.189	469.35
387.568	465.96
387.948	461.89
388.328	459.86
388.707	479.75
389.087	492.18
389.466	505.06
389.846	512.51
390.225	501.89
390.605	506.64
390.984	502.8
391.363	516.13
391.743	508.45
392.122	512.74
392.501	535.79
392.881	527.66
393.26	532.63
393.639	533.08
394.018	548.9
394.397	544.83
394.776	567.65
395.155	559.07
395.534	550.48
395.913	581.44
396.292	594.32
396.671	578.95
397.05	594.09
397.429	602.46
397.808	602.91
398.186	607.65
398.565	620.31
398.944	621.21
399.323	604.94
399.701	643.36
400.08	642.23
400.458	649.46
400.837	676.35
401.215	665.51
401.594	678.39
401.972	686.52
402.351	690.59
402.729	696.92
403.107	705.73
403.486	723.36
403.864	704.83
404.242	737.82
404.62	770.14
404.999	768.33
405.377	786.41
405.755	804.48
406.133	823.02
406.511	810.81
406.889	849
407.267	861.66
407.645	880.41
408.023	895.78
408.401	910.92
408.779	925.39
409.156	963.12
409.534	1000.86
409.912	1015.55
410.29	1027.98
410.667	1060.97
411.045	1105.49
411.422	1105.27
411.8	1146.4
412.178	1169.45
412.555	1177.81
412.933	1206.96
413.31	1230.01
413.687	1268.43
414.065	1307.52
414.442	1331.48
414.819	1355.43
415.197	1390.01
415.574	1442.43
415.951	1453.51
416.328	1511.13
416.705	1524.01
417.082	1501.19
417.46	1572.37
417.837	1597.68
418.214	1592.03
418.591	1660.28
418.967	1625.71
419.344	1699.38
419.721	1689.43
420.098	1715.2
420.475	1757
420.852	1796.77
421.228	1828.19
421.605	1867.96
421.982	1885.36
422.358	1897.11
422.735	1917.45
423.111	1908.86
423.488	2002.87
423.864	1955.87
424.241	2020.27
424.617	2081.29
424.994	2058.01
425.37	2102.76
425.746	2108.63
426.123	2149.99
426.499	2205.13
426.875	2190.89
427.251	2239.48
427.627	2298.46
428.003	2323.31
428.379	2354.73
428.756	2369.42
429.132	2384.78
429.507	2448.28
429.883	2512.69
430.259	2543.65
430.635	2570.54
431.011	2605.79
431.387	2666.58
431.763	2724.43
432.138	2734.38
432.514	2777.99
432.89	2764.43
433.265	2849.63
433.641	2905.45
434.016	2924.43
434.392	2980.92
434.767	3008.04
435.143	3057.08
435.518	3054.82
435.894	3104.76
436.269	3182.73
436.644	3222.95
437.02	3259.56
437.395	3253.23
437.77	3336.85
438.145	3360.8
438.52	3361.48
438.895	3419.33
439.271	3413.68
439.646	3499.1
440.021	3550.4
440.395	3564.41
440.77	3530.51
441.145	3611.87
441.52	3645.54
441.895	3655.03
442.27	3699.78
442.645	3704.97
443.019	3743.16
443.394	3753.79
443.769	3803.05
444.143	3745.42
444.518	3888.7
444.892	3850.73
445.267	3908.81
445.641	3927.11
446.016	3892.76
446.39	3951.97
446.764	3955.81
447.139	3984.74
447.513	3993.1
447.887	4060.67
448.262	4097.96
448.636	4088.24
449.01	4128.92
449.384	4160.78
449.758	4212.08
450.132	4274.45
450.506	4259.08
450.88	4292.53
451.254	4261.57
451.628	4376.14
452.002	4424.73
452.376	4426.08
452.75	4495.91
453.123	4562.8
453.497	4588.57
453.871	4594.67
454.244	4700.43
454.618	4739.52
454.992	4818.62
455.365	4853.42
455.739	4926.41
456.112	5019.06
456.486	5040.53
456.859	5063.13
457.232	5204.82
457.606	5144.26
457.979	5227.42
458.352	5341.31
458.725	5460.41
459.099	5387.41
459.472	5537.69
459.845	5553.74
460.218	5657.92
460.591	5715.54
460.964	5715.09
461.337	5818.82
461.71	5936.33
462.083	6020.39
462.456	6027.62
462.829	6107.4
463.201	6188.98
463.574	6197.11
463.947	6298.8
464.32	6412.25
464.692	6517.33
465.065	6558.23
465.438	6615.86
465.81	6682.97
466.183	6792.8
466.555	6981.05
466.928	6975.4
467.3	7015.39
467.672	7085.22
468.045	7340.58
468.417	7282.28
468.789	7402.05
469.161	7553.23
469.534	7684.76
469.906	7766.34
470.278	7850.4
470.65	7901.7
471.022	8099.43
471.394	8244.74
471.766	8344.17
472.138	8410.39
472.51	8541.68
472.882	8678.85
473.253	8826.87
473.625	8925.17
473.997	9181.44
474.369	9146.86
474.74	9277.03
475.112	9406.29
475.484	9608.55
475.855	9778.03
476.227	9844.7
476.598	10138.7
476.97	10186.84
477.341	10431.58
477.713	10620.05
478.084	10645.13
478.455	10960.83
478.827	11011.67
479.198	11314.49
479.569	11409.18
479.94	11696.4
480.311	11786.34
480.682	12087.8
481.053	12273.79
481.424	12510.62
481.795	12543.61
482.166	12786.99
482.537	12899.99
482.908	13205.29
483.279	13399.18
483.65	13625.16
484.021	13867.42
484.391	14008.21
484.762	14133.85
485.133	14231.25
485.503	14441.41
485.874	14812.25
486.244	14848.41
486.615	15193.71
486.985	15326.81
487.356	15674.15
487.726	15779.01
488.097	16035.72
488.467	16152.78
488.837	16424.64
489.207	16582.37
489.578	16814.23
489.948	17030.27
490.318	17318.17
490.688	17337.16
491.058	17561.56
491.428	17846.07
491.798	17988.89
492.168	18269.79
492.538	18372.61
492.908	18639.72
493.278	18761.98
493.648	18819.6
494.017	19116.77
494.387	19277.9
494.757	19429.76
495.126	19750.65
495.496	19646.02
495.866	19846.7
496.235	20088.27
496.605	20230.87
496.974	20241.94
497.344	20507.24
497.713	20688.93
498.082	20824.3
498.452	21037.62
498.821	21128.92
499.19	21102.48
499.559	21401.01
499.928	21471.96
500.298	21674.44
500.667	21855.68
501.036	21890.03
501.405	22085.28
501.774	22089.35
502.143	22323.69
502.512	22447.98
502.88	22658.83
503.249	22637.36
503.618	22867.86
503.987	23000.29
504.356	23103.56
504.724	23149.21
505.093	23341.97
505.462	23485.47
505.83	23585.58
506.199	23795.74
506.567	24071.44
506.936	24103.08
507.304	24384.2
507.672	24532.22
508.041	24687.25
508.409	24752.56
508.777	24876.17
509.145	25140.12
509.514	25257.17
509.882	25358.87
510.25	25489.26
510.618	25616.71
510.986	25750.27
511.354	25927.89
511.722	26174.66
512.09	26361.55
512.458	26405.39
512.826	26590.7
513.193	26806.51
513.561	26959.28
513.929	27185.03
514.297	27294.18
514.664	27555.65
515.032	27649.43
515.4	27841.06
515.767	27983.2
516.135	27991.79
516.502	27941.4
516.869	28485.56
517.237	28613.47
517.604	28580.7
517.972	28797.42
518.339	29175.04
518.706	29220.69
519.073	29400.34
519.44	29552.43
519.808	29881.46
520.175	29804.17
520.542	30190.6
520.909	30442.35
521.276	30402.12
521.643	30840.08
522.009	30959.62
522.376	31107.87
522.743	31373.4
523.11	31678.93
523.477	32033.95
523.843	32199.37
524.21	32464.44
524.577	32539.7
524.943	32771.78
525.31	32958.44
525.676	33287.47
526.043	33350.52
526.409	33499.9
526.776	33886.55
527.142	34035.25
527.508	34187.11
527.874	34486.31
528.241	34619.87
528.607	34750.26
528.973	35097.37
529.339	35095.56
529.705	35379.39
530.071	35612.38
530.437	35821.19
530.803	36076.33
531.169	36289.43
531.535	36154.97
531.901	36479.25
532.267	36712.69
532.632	36884.89
532.998	37031.55
533.364	37187.26
533.73	37310.42
534.095	37575.27
534.461	37651.43
534.826	37940.01
535.192	38024.3
535.557	38260.9
535.923	38337.96
536.288	38499.54
536.653	38609.14
537.019	38596.94
537.384	38827.67
537.749	39010.94
538.114	39125.06
538.479	39185.17
538.845	39428.55
539.21	39424.03
539.575	39626.29
539.94	39701.77
540.305	39919.16
540.67	40003.91
541.034	40115.54
541.399	40506.49
541.764	40499.49
542.129	40592.36
542.494	40621.74
542.858	40893.37
543.223	40805.01
543.587	41217.21
543.952	41096.08
544.316	41209.52
544.681	41336.07
545.045	41459.23
545.41	41741.26
545.774	41809.51
546.138	41927.25
546.503	42158.43
546.867	42082.95
547.231	42477.74
547.595	42451.75
547.959	42696.94
548.324	42756.6
548.688	42849.71
549.052	42948.69
549.416	43017.84
549.779	43178.74
550.143	43342.12
550.507	43634.54
550.871	43796.12
551.235	43717.03
551.599	44046.96
551.962	44115.66
552.326	44208.54
552.689	44439.04
553.053	44253.51
553.417	44476.33
553.78	44914.74
554.143	44720.39
554.507	44974.62
554.87	45072.25
555.234	45440.15
555.597	45269.76
555.96	45591.78
556.323	45738.9
556.686	45699.35
557.05	45950.42
557.413	46155.61
557.776	46089.62
558.139	46404.42
558.502	46530.51
558.865	46621.13
559.228	46916.94
559.59	47011.41
559.953	47015.7
560.316	47428.57
560.679	47442.58
561.041	47683.25
561.404	47951.04
561.767	48123.24
562.129	48002.34
562.492	48410.24
562.854	48455.89
563.217	48353.29
563.579	48648.2
563.941	48830.57
564.304	48951.47
564.666	49177.22
565.028	49174.51
565.39	49412.02
565.753	49664.89
566.115	49726.81
566.477	49844.32
566.839	50033.92
567.201	50193.92
567.563	50182.17
567.925	50583.06
568.287	50493.57
568.648	50593.01
569.01	50795.49
569.372	51045.88
569.734	50804.53
570.095	51139.43
570.457	51284.97
570.819	51432.31
571.18	51459.65
571.542	51677.5
571.903	51711.17
572.265	51853.76
572.626	51922.91
572.987	52032.97
573.349	51962.01
573.71	52221.89
574.071	52313.19
574.432	52432.28
574.794	52557.02
575.155	52582.33
575.516	52543.01
575.877	52755.66
576.238	52707.3
576.599	52844.7
576.96	52934.64
577.32	52987.07
577.681	53169.21
578.042	53169.21
578.403	53256.44
578.763	53205.37
579.124	53281.52
579.485	53521.52
579.845	53653.72
580.206	53538.01
580.566	53501.4
580.927	53505.92
581.287	53737.56
581.648	53562.65
582.008	53827.72
582.368	53697.78
582.728	53857.33
583.089	53796.76
583.449	53755.41
583.809	53785.01
584.169	53997.89
584.529	53878.57
584.889	54105.23
585.249	53920.83
585.609	53800.61
585.969	54099.35
586.329	54090.77
586.688	54052.8
587.048	54042.18
587.408	54017.77
587.768	54110.2
588.127	54078.79
588.487	54068.39
588.846	54287.37
589.206	54101.84
589.565	54084.21
589.925	54253.02
590.284	54172.57
590.643	54253.93
591.003	54305.68
591.362	54410.53
591.721	54338.9
592.08	54259.8
592.44	54431.77
592.799	54462.96
593.158	54423.19
593.517	54371.21
593.876	54516.07
594.235	54439.68
594.593	54432.45
594.952	54504.09
595.311	54490.53
595.67	54579.79
596.029	54730.75
596.387	54743.41
596.746	54752.44
597.104	54672.45
597.463	54657.08
597.822	54832.89
598.18	54597.19
598.538	54673.12
598.897	54792.44
599.255	54523.52
599.613	55042.15
599.972	54771.65
600.33	54881.25
600.688	54864.31
601.046	54906.34
601.404	55086.45
601.762	54962.83
602.12	55065.43
602.478	55106.56
602.836	55071.76
603.194	54947.02
603.552	55025.88
603.91	55004.42
604.268	55157.63
604.625	55085.54
604.983	55166.44
605.341	55067.46
605.698	55278.08
606.056	55195.6
606.413	55164.86
606.771	55288.7
607.128	55397.4
607.485	55201.02
607.843	55276.27
608.2	55402.14
608.557	55440.56
608.914	55309.72
609.272	55508.13
609.629	55562.82
609.986	55627.9
610.343	55423.84
610.7	55698.41
611.057	55632.87
611.414	55611.86
611.771	55639.2
612.127	55726.43
612.484	55682.14
612.841	55734.79
613.198	55696.37
613.554	55747.67
613.911	55855.47
614.267	55858.18
614.624	55851.85
614.98	55840.1
615.337	55966.42
615.693	55918.74
616.05	55899.31
616.406	56045.07
616.762	55867.9
617.118	56017.72
617.475	55943.15
617.831	56088.45
618.187	56124.84
618.543	56056.82
618.899	56196.02
619.255	56156.7
619.611	56146.31
619.967	56222.69
620.323	56239.64
620.678	56142.01
621.034	56094.1
621.39	56146.76
621.746	56126.42
622.101	56414.32
622.457	56184.05
622.812	56223.14
623.168	56266.3
623.523	56287.32
623.879	56401.67
624.234	56194.67
624.589	56269.01
624.945	56276.47
625.3	56404.6
625.655	56314.44
626.01	56296.81
626.365	56395.57
626.72	56225.85
627.075	56188.56
627.43	56231.28
627.785	56219.52
628.14	56231.05
628.495	56359.86
628.85	56290.26
629.205	56172.75
629.559	56360.31
629.914	56246.87
630.269	56255
630.623	56217.26
630.978	56144.72
631.332	56325.06
631.687	56294.1
632.041	56170.03
632.396	56258.17
632.75	56153.99
633.104	56171.39
633.459	56087.78
633.813	56030.15
634.167	56102.47
634.521	56026.08
634.875	56076.03
635.229	56005.07
635.583	55951.96
635.937	55942.47
636.291	55897.05
636.645	56001
636.999	55928.46
637.352	55963.71
637.706	55793.77
638.06	55943.37
638.413	55894.79
638.767	55803.72
639.121	55912.64
639.474	55697.96
639.828	55816.82
640.181	55830.38
640.534	55798.29
640.888	55674
641.241	55586.32
641.594	55656.83
641.947	55801.68
642.301	55639.43
642.654	55672.87
643.007	55712.65
643.36	55645.98
643.713	55590.16
644.066	55720.1
644.419	55500.22
644.771	55376.16
645.124	55100.68
645.477	55142.72
645.83	54883.97
646.182	54938.88
646.535	54714.93
646.888	54827.92
647.24	54722.39
647.593	54816.17
647.945	54836.06
648.298	54623.18
648.65	54662.05
649.002	54591.54
649.355	54703.18
649.707	54710.64
650.059	54777.53
650.411	55159.44
650.763	55086
651.115	55413.9
651.467	55363.95
651.819	55322.6
652.171	55190.17
652.523	55195.6
652.875	55187.46
653.227	55113.11
653.578	55284.86
653.93	55232.88
654.282	55071.31
654.633	55047.58
654.985	55020.01
655.337	55129.84
655.688	55084.19
656.039	55249.38
656.391	54939.11
656.742	54958.54
657.094	54971.2
657.445	55129.16
657.796	55019.78
658.147	54964.64
658.498	54999.9
658.849	55051.65
659.2	54972.78
659.551	54886.45
659.902	54995.15
660.253	54936.17
660.604	54989.27
660.955	54791.54
661.306	55016.62
661.656	54827.24
662.007	54890.07
662.358	54828.83
662.708	54824.76
663.059	54851.2
663.409	54679.68
663.76	54892.78
664.11	54794.93
664.461	54845.1
664.811	54833.57
665.161	54819.11
665.511	54661.37
665.862	54733.69
666.212	54808.04
666.562	54789.28
666.912	54775.04
667.262	54686.01
667.612	54686.91
667.962	54618.21
668.312	54612.56
668.662	54732.33
669.011	54676.06
669.361	54624.31
669.711	54571.66
670.06	54492.34
670.41	54478.78
670.76	54426.58
671.109	54634.03
671.459	54502.28
671.808	54428.16
672.157	54493.47
672.507	54361.95
672.856	54326.02
673.205	54316.98
673.554	54398.1
673.904	54223.87
674.253	54488.95
674.602	54281.27
674.951	53910.43
675.3	53844.22
675.649	54232.68
675.998	54151.1
676.346	54148.84
676.695	54227.71
677.044	54008.06
677.393	54152.91
677.741	54087.38
678.09	54121.5
678.438	53966.93
678.787	53954.5
679.135	54063.65
679.484	53751.11
679.832	53885.12
680.181	53692.36
680.529	53834.05
680.877	53628.63
681.225	53582.31
681.573	53834.95
681.922	53562.65
682.27	53483.1
682.618	53524.68
682.966	53531.91
683.314	53493.95
683.661	53337.11
684.009	53179.15
684.357	53161.07
684.705	53076.33
685.053	53157.01
685.4	53041.98
685.748	52967.18
686.095	52851.7
686.443	52795.89
686.79	52700.07
687.138	52804.7
687.485	52692.16
687.832	52589.56
688.18	52637.92
688.527	52421.43
688.874	52446.29
689.221	52368.78
689.568	52351.15
689.915	52137.15
690.262	52131.72
690.609	52064.15
690.956	51916.81
691.303	51822.35
691.65	51677.05
691.997	51749.81
692.344	51474.34
692.69	51488.8
693.037	51503.94
693.383	51217.85
693.73	51369.26
694.077	51248.13
694.423	51151.18
694.769	51025.08
695.116	51044.29
695.462	50902.38
695.808	50782.38
696.155	50972.2
696.501	50587.13
696.847	50565.66
697.193	50437.76
697.539	50407.7
697.885	50209.51
698.231	50082.74
698.577	50019.24
698.923	49992.12
699.269	49864.21
699.614	49621.51
699.96	49678.68
700.306	49596.2
700.651	49421.96
700.997	49480.49
701.342	49291.12
701.688	49141.74
702.033	49135.64
702.379	49141.97
702.724	48974.52
703.069	49002.31
703.415	48670.34
703.76	48702.66
704.105	48642.1
704.45	48553.96
704.795	48234.88
705.14	48246.85
705.485	48190.36
705.83	48047.31
706.175	48186.52
706.52	47928.67
706.865	47891.38
707.209	47825.17
707.554	47602.12
707.899	47730.71
708.243	47471.96
708.588	47430.83
708.932	47153.1
709.277	47275.13
709.621	47103.38
709.966	46943.38
710.31	46932.54
710.654	46728.7
710.998	46904.29
711.342	46792.2
711.687	46566.45
712.031	46464.07
712.375	46368.48
712.719	46544.52
713.063	46429.73
713.407	46542.49
713.75	46213.23
714.094	46256.4
714.438	46069.28
714.782	45961.04
715.125	45817.31
715.469	45892.79
715.812	45607.6
716.156	45460.49
716.499	45448.73
716.843	45589.97
717.186	45149.31
717.53	45499.81
717.873	45421.62
718.216	45265.24
718.559	45081.96
718.902	44970.78
719.246	44987.28
719.589	44906.38
719.932	44719.94
720.275	44733.05
720.617	44595.42
720.96	44528.08
721.303	44465.26
721.646	44542.77
721.989	44274.53
722.331	44401.98
722.674	44242.21
723.016	44307.3
723.359	44162.89
723.701	44222.33
724.044	43862.11
724.386	43714.09
724.729	43843.13
725.071	43844.71
725.413	43815.56
725.755	43677.71
726.097	43566.07
726.439	43396.13
726.782	43235.91
727.124	43609.01
727.465	43206.99
727.807	43214.44
728.149	43250.83
728.491	42982.13
728.833	43127.67
729.175	42924.73
729.516	42915.47
729.858	42908.69
730.199	42851.74
730.541	42766.09
730.882	42813.32
731.224	42842.25
731.565	42511.41
731.906	42607.23
732.248	42631.18
732.589	42477.74
732.93	42317.29
733.271	42233.9
733.612	42356.16
733.953	42414.69
734.294	42190.29
734.635	42071.65
734.976	42102.61
735.317	41981.93
735.658	41981.48
735.999	41924.08
736.339	41864.65
736.68	41849.05
737.021	41738.32
737.361	41616.74
737.702	41774.93
738.042	41638.89
738.383	41499.46
738.723	41597.99
739.063	41385.79
739.404	41560.02
739.744	41396.41
740.084	41409.74
740.424	41291.78
740.764	41099.02
741.104	41249.97
741.444	41083.43
741.784	40911.68
742.124	41070.77
742.464	40927.05
742.804	40767.73
743.143	40729.08
743.483	40783.09
743.823	40600.27
744.162	40562.99
744.502	40767.28
744.841	40435.76
745.181	40615.42
745.52	40447.74
745.86	40508.07
746.199	40447.96
746.538	40373.16
746.877	40405.7
747.216	40310.79
747.556	40179.27
747.895	40114.41
748.234	39963.23
748.573	39963.45
748.911	39990.8
749.25	39932.27
749.589	39866.28
749.928	39821.31
750.267	39627.64
750.605	39657.7
750.944	39513.3
751.283	39322.12
751.621	39608.66
751.96	39215.68
752.298	39292.51
752.636	39386.07
752.975	39220.65
753.313	38936.36
753.651	39087.55
753.989	38815.69
754.327	38818.17
754.666	38594.45
755.004	38630.38
755.342	38657.73
755.679	38511.06
756.017	38322.82
756.355	38445.3
756.693	38324.18
757.031	38276.95
757.368	37970.06
757.706	37935.26
758.044	37872.21
758.381	37862.72
758.719	37744.08
759.056	37866.33
759.394	37676.06
759.731	37380.92
760.068	37370.08
760.405	37294.82
760.743	37044.44
761.08	37220.02
761.417	36947.71
761.754	36815.06
762.091	36767.83
762.428	36752.01
762.765	36428.86
763.102	36645.58
763.438	36351.8
763.775	36287.85
764.112	36248.3
764.449	36317.45
764.785	35987.51
765.122	35869.55
765.458	35701.42
765.795	35738.93
766.131	35761.31
766.467	35501.43
766.804	35340.98
767.14	35061.44
767.476	35100.98
767.812	34933.53
768.148	34986.41
768.485	34843.82
768.821	34589.81
769.157	34534.9
769.492	34605.4
769.828	34390.49
770.164	34072.54
770.5	34093.33
770.836	34046.77
771.171	33909.15
771.507	33830.51
771.842	33571.53
772.178	33600.68
772.513	33561.14
772.849	33387.58
773.184	33361.37
773.519	33287.92
773.855	33095.39
774.19	32982.4
774.525	32731.1
774.86	32777.88
775.195	32686.36
775.53	32582.18
775.865	32313.26
776.2	32021.52
776.535	31964.8
776.87	32007.05
777.205	31875.76
777.539	31745.14
777.874	31684.12
778.209	31556.44
778.543	31493.17
778.878	31255.89
779.212	31174.53
779.547	31031.71
779.881	31134.53
780.215	30857.03
780.55	30896.12
780.884	30698.61
781.218	30619.07
781.552	30676.47
781.886	30419.98
782.22	30331.17
782.554	30153.32
782.888	29923.04
783.222	29730.73
783.556	29712.2
783.889	29611.86
784.223	29414.13
784.557	29364.41
784.89	29494.35
785.224	29297.97
785.557	29135.72
785.891	29074.7
786.224	28929.17
786.558	28966.46
786.891	28704.32
787.224	28615.96
787.557	28462.74
787.891	28450.76
788.224	28474.94
788.557	28395.4
788.89	28199.92
789.223	28170.32
789.556	27940.49
789.888	27937.56
790.221	27765.36
790.554	27704.34
790.887	27660.28
791.219	27587.28
791.552	27407.4
791.884	27257.8
792.217	27272.94
792.549	27162.21
792.882	26956.11
793.214	26851.03
793.546	26985.94
793.879	26831.14
794.211	26634.09
794.543	26734.2
794.875	26601.09
795.207	26637.03
795.539	26386.18
795.871	26411.04
796.203	26191.39
796.535	26069.81
796.867	25968.79
797.198	26003.14
797.53	25807.67
797.862	25753.21
798.193	25719.76
798.525	25586.66
798.856	25656.71
799.188	25269.6
799.519	25248.81
799.85	25170.62
800.182	25145.31
800.513	25183.28
800.844	24895.15
801.175	24931.08
801.506	24994.58
801.837	24818.77
802.168	24882.04
802.499	24641.37
802.83	24514.6
803.161	24396.86
803.491	24458.1
803.822	24384.88
804.153	24276.64
804.483	24121.61
804.814	24032.35
805.145	23969.98
805.475	24029.18
805.805	23927.49
806.136	23834.16
806.466	23846.59
806.796	23932.24
807.126	23654.73
807.457	23588.52
807.787	23605.24
808.117	23516.88
808.447	23340.39
808.777	23356.89
809.107	23302.42
809.436	23228.98
809.766	23238.92
810.096	23162.77
810.426	22947.41
810.755	23065.37
811.085	22938.59
811.414	22847.75
811.744	22624.7
812.073	22586.06
812.403	22678.03
812.732	22511.71
813.061	22525.04
813.39	22375.67
813.719	22317.59
814.049	22330.92
814.378	22342.45
814.707	22190.14
815.036	22289.8
815.365	22111.95
815.693	21920.31
816.022	21922.8
816.351	21883.03
816.68	21745.63
817.008	21753.54
817.337	21610.27
817.665	21711.96
817.994	21669.02
818.322	21560.1
818.651	21552.64
818.979	21384.73
819.307	21562.36
819.636	21449.14
819.964	21321.91
820.292	21445.75
820.62	21414.11
820.948	21271.06
821.276	21482.58
821.604	21243.04
821.932	21270.84
822.259	21307
822.587	21358.97
822.915	21166.43
823.243	21212.54
823.57	21079.43
823.898	21190.62
824.225	21061.8
824.553	21123.27
824.88	21213.21
825.207	21216.15
825.535	21093.22
825.862	21229.03
826.189	21013.22
826.516	21211.18
826.843	21171.86
827.17	21264.06
827.497	21130.28
827.824	21105.19
828.151	21168.02
828.478	21125.53
828.805	21230.39
829.131	21112.43
829.458	21113.78
829.785	21034.24
830.111	20968.47
830.438	21059.32
830.764	21121.01
831.09	21137.28
831.417	21001.24
831.743	21029.49
832.069	21116.27
832.395	20928.02
832.722	21081.24
833.048	20834.69
833.374	20869.04
833.7	20915.59
834.026	20832.66
834.351	20872.66
834.677	20878.53
835.003	20972.32
835.329	20798.31
835.654	20702.04
835.98	20714.92
836.306	20649.39
836.631	20628.6
836.956	20719.89
837.282	20702.49
837.607	20621.14
837.932	20641.7
838.258	20489.16
838.583	20594.92
838.908	20297.08
839.233	20366.23
839.558	20308.15
839.883	20255.5
840.208	20296.85
840.533	20236.52
840.858	20187.7
841.182	20327.36
841.507	20280.13
841.832	20070.87
842.156	20102.96
842.481	20058.44
842.805	19990.65
843.13	19922.85
843.454	19846.47
843.778	19802.63
844.103	19743.65
844.427	19746.13
844.751	19782.29
845.075	19735.06
845.399	19683.99
845.723	19510.89
846.047	19569.87
846.371	19308.4
846.695	19392.7
847.019	19214.4
847.343	19194.74
847.666	19036.1
847.99	18840.62
848.313	18989.54
848.637	18768.53
848.96	18776.22
849.284	18763.56
849.607	18606.73
849.931	18508.65
850.254	18383.46
850.577	18376
850.9	18263.01
851.223	18139.4
851.546	18066.86
851.869	18034.77
852.192	18197.47
852.515	18006.97
852.838	17884.04
853.161	17844.71
853.483	17796.13
853.806	17663.93
854.129	17544.61
854.451	17524.72
854.774	17475.23
855.096	17428.68
855.419	17269.14
855.741	17410.15
856.063	17298.29
856.385	17251.51
856.708	17204.96
857.03	17087.9
857.352	17047.67
857.674	16964.29
857.996	16974.23
858.318	16915.25
858.64	16879.99
858.961	16774.23
859.283	16812.43
859.605	16715.7
859.926	16694.01
860.248	16692.65
860.57	16527.23
860.891	16553.22
861.212	16460.12
861.534	16466.67
861.855	16398.42
862.176	16351.42
862.498	16389.84
862.819	16335.83
863.14	16251.99
863.461	16280.24
863.782	16202.95
864.103	16171.09
864.424	16159.11
864.745	16146.23
865.065	16004.31
865.386	16085.44
865.707	15971.77
866.027	16056.29
866.348	15968.15
866.668	15931.09
866.989	15961.83
867.309	15747.37
867.63	15824.65
867.95	15747.59
868.27	15784.2
868.59	15748.72
868.91	15713.25
869.23	15678.44
869.55	15540.37
869.87	15667.14
870.19	15589.63
870.51	15612
870.83	15624.89
871.15	15539.01
871.469	15569.75
871.789	15556.86
872.109	15529.97
872.428	15446.36
872.748	15479.8
873.067	15390.32
873.386	15361.16
873.706	15367.72
874.025	15324.33
874.344	15239.13
874.663	15336.76
874.982	15235.74
875.301	15308.28
875.62	15165.24
875.939	15131.34
876.258	15096.54
876.577	15029.65
876.896	15005.24
877.214	15071.45
877.533	15049.76
877.852	14969.76
878.17	15021.96
878.489	15089.98
878.807	14928.63
879.125	14893.15
879.444	14867.39
879.762	14885.7
880.08	14825.81
880.398	14782.65
880.716	14797.34
881.034	14765.7
881.352	14786.49
881.67	14668.3
881.988	14643.67
882.306	14668.53
882.624	14574.29
882.941	14585.82
883.259	14439.15
883.577	14462.43
883.894	14420.85
884.212	14457.68
884.529	14350.12
884.846	14374.07
885.164	14353.28
885.481	14185.38
885.798	14234.64
886.115	14098.15
886.432	14193.28
886.75	14106.73
887.067	14116.22
887.383	14105.6
887.7	14043.23
888.017	14036.68
888.334	13984.93
888.651	13870.13
888.967	13972.5
889.284	13814.76
889.6	13817.93
889.917	13742.9
890.233	13755.78
890.55	13645.95
890.866	13631.27
891.182	13627.2
891.498	13594.43
891.815	13500.87
892.131	13472.17
892.447	13373.42
892.763	13417.26
893.079	13390.14
893.395	13287.09
893.71	13242.12
894.026	13284.61
894.342	13222.24
894.657	13167.32
894.973	13040.09
895.289	13116.03
895.604	13067.21
895.92	12966.88
896.235	12901.12
896.55	12894.79
896.865	12819.99
897.181	12795.81
897.496	12823.38
897.811	12732.31
898.126	12732.98
898.441	12622.03
898.756	12542.25
899.071	12552.88
899.386	12508.58
899.7	12383.84
900.015	12427.91
900.33	12250.51
900.644	12249.83
900.959	12261.13
901.273	12238.08
901.588	12163.96
901.902	12089.61
902.216	12091.42
902.531	12062.27
902.845	12010.07
903.159	11865.66
903.473	11833.57
903.787	11848.71
904.101	11803.97
904.415	11771.43
904.729	11771.43
905.042	11667.93
905.356	11636.06
905.67	11533.02
905.984	11567.82
906.297	11504.32
906.611	11372.12
906.924	11447.14
907.237	11328.05
907.551	11307.49
907.864	11247.15
908.177	11284.43
908.491	11232.68
908.804	11117.21
909.117	11139.81
909.43	11035.63
909.743	10992.69
910.056	10940.04
910.368	10862.53
910.681	10831.79
910.994	10754.28
911.307	10801.74
911.619	10639.71
911.932	10693.04
912.244	10572.14
912.557	10581.18
912.869	10515.64
913.181	10538.69
913.494	10487.85
913.806	10395.19
914.118	10378.92
914.43	10293.5
914.742	10245.37
915.054	10248.08
915.366	10175.31
915.678	10180.28
915.99	10114.07
916.302	10027.74
916.613	10011.7
916.925	9986.62
917.236	9974.86
917.548	9890.8
917.859	9829.78
918.171	9755.44
918.482	9738.94
918.794	9744.14
919.105	9693.29
919.416	9602.22
919.727	9628.89
920.038	9592.05
920.349	9501.43
920.66	9548.89
920.971	9464.82
921.282	9397.7
921.593	9353.64
921.903	9292.17
922.214	9259.63
922.525	9277.03
922.835	9203.59
923.146	9166.07
923.456	9112.06
923.767	9116.13
924.077	9046.08
924.387	9013.76
924.697	8901.45
925.008	8946.87
925.318	8868.91
925.628	8877.72
925.938	8836.59
926.248	8685.18
926.558	8737.84
926.867	8669.14
927.177	8622.58
927.487	8589.59
927.796	8569.93
928.106	8506.2
928.416	8555.24
928.725	8449.48
929.034	8445.64
929.344	8355.25
929.653	8360.9
929.962	8234.35
930.271	8213.56
930.581	8235.02
930.89	8160.45
931.199	8187.57
931.508	8110.96
931.817	8157.74
932.125	8055.14
932.434	8008.14
932.743	8000.68
933.051	7929.49
933.36	7964.3
933.669	7868.48
933.977	7822.38
934.286	7847.46
934.594	7793
934.902	7753.68
935.21	7667.13
935.519	7658.32
935.827	7638.66
936.135	7631.2
936.443	7570.86
936.751	7528.15
937.059	7545.32
937.367	7467.13
937.674	7438.21
937.982	7401.15
938.29	7325.22
938.597	7395.5
938.905	7272.56
939.213	7210.87
939.52	7197.31
939.827	7284.77
940.135	7119.8
940.442	7124.09
940.749	7143.3
941.056	7109.63
941.363	7049.74
941.67	6992.8
941.977	6967.49
942.284	6917.32
942.591	6892.23
942.898	6888.62
943.205	6940.14
943.511	6850.2
943.818	6773.59
944.125	6678.91
944.431	6695.4
944.738	6680.94
945.044	6643.43
945.35	6678.45
945.657	6602.07
945.963	6582.41
946.269	6527.95
946.575	6546.25
946.881	6468.29
947.187	6453.15
947.493	6392.59
947.799	6431.23
948.105	6419.48
948.41	6336.54
948.716	6325.47
949.022	6317.11
949.327	6268.52
949.633	6248.64
949.938	6219.26
950.244	6185.13
950.549	6174.06
950.854	6118.24
951.16	6096.77
951.465	6023.33
951.77	6040.73
952.075	5993.27
952.38	5943.56
952.685	5963.67
952.99	5901.75
953.294	5887.51
953.599	5842.32
953.904	5842.32
954.209	5836.22
954.513	5785.6
954.818	5768.65
955.122	5764.35
955.426	5682.55
955.731	5718.48
956.035	5622.66
956.339	5622.44
956.643	5640.74
956.948	5587.41
957.252	5589.9
957.556	5521.42
957.86	5496.56
958.163	5489.33
958.467	5468.09
958.771	5420.86
959.075	5455.89
959.378	5351.48
959.682	5387.64
959.985	5370.69
960.289	5318.04
960.592	5285.5
960.896	5271.94
961.199	5272.84
961.502	5234.2
961.805	5156.46
962.108	5168.21
962.411	5143.81
962.714	5116.91
963.017	5024.49
963.32	5080.98
963.623	5070.14
963.926	5015
964.228	5019.97
964.531	4959.4
964.833	4957.37
965.136	4918.27
965.438	4926.64
965.741	4874.43
966.043	4864.49
966.345	4833.53
966.648	4833.53
966.95	4824.72
967.252	4765.51
967.554	4761.67
967.856	4781.78
968.158	4713.76
968.46	4644.61
968.761	4676.25
969.063	4659.3
969.365	4622.46
969.666	4608.23
969.968	4579.3
970.269	4576.81
970.571	4535.46
970.872	4496.59
971.174	4483.94
971.475	4462.92
971.776	4472.18
972.077	4441.68
972.378	4390.15
972.679	4393.99
972.98	4415.24
973.281	4376.14
973.582	4336.6
973.883	4287.56
974.183	4293.66
974.484	4295.47
974.785	4277.61
975.085	4274.22
975.386	4252.76
975.686	4246.88
975.986	4152.19
976.287	4147.45
976.587	4111.97
976.887	4116.94
977.187	4120.1
977.487	4093.44
977.787	4059.31
978.087	4022.7
978.387	4046.43
978.687	4005.98
978.987	4026.55
979.286	3958.3
979.586	3982.93
979.885	3932.09
980.185	3926.66
980.484	3919.66
980.784	3906.55
981.083	3867
981.382	3851.64
981.682	3828.13
981.981	3809.38
982.28	3789.26
982.579	3776.61
982.878	3762.15
983.177	3747.46
983.475	3725.54
983.774	3720.79
984.073	3674.47
984.372	3649.83
984.67	3681.02
984.969	3661.81
985.267	3649.61
985.566	3601.02
985.864	3612.55
986.162	3569.16
986.461	3575.49
986.759	3550.18
987.057	3498.2
987.355	3501.14
987.653	3466.11
987.951	3487.58
988.249	3503.85
988.547	3428.37
988.844	3388.82
989.142	3410.97
989.44	3412.1
989.737	3359.22
990.035	3353.57
990.332	3352.44
990.63	3354.25
990.927	3296.85
991.224	3272.67
991.521	3288.94
991.819	3269.28
992.116	3259.56
992.413	3245.55
992.71	3191.31
993.006	3178.43
993.303	3189.05
993.6	3180.47
993.897	3168.04
994.193	3151.99
994.49	3150.86
994.787	3112.67
995.083	3080.36
995.379	3064.09
995.676	3049.62
995.972	3030.41
996.268	3055.5
996.565	2996.52
996.861	2996.07
997.157	3016.86
997.453	2971.43
997.749	2950.19
998.044	2911.77
998.34	2918.78
998.636	2919.23
998.932	2880.81
999.227	2890.53
999.523	2856.63
999.818	2816.18
1000.114	2843.75
1000.409	2806.24
1000.704	2780.48
1001	2737.32
1001.295	2770.31
1001.59	2745.9
1001.885	2713.13
1002.18	2693.47
1002.475	2693.02
1002.77	2689.18
1003.065	2629.75
1003.359	2642.18
1003.654	2656.87
1003.949	2608.05
1004.243	2606.7
1004.538	2612.57
1004.832	2534.38
1005.127	2575.96
1005.421	2556.08
1005.715	2517.66
1006.009	2516.3
1006.304	2486.25
1006.598	2492.8
1006.892	2464.78
1007.186	2465.46
1007.48	2448.06
1007.773	2433.59
1008.067	2423.65
1008.361	2377.55
1008.655	2366.03
1008.948	2404.44
1009.242	2362.41
1009.535	2302.3
1009.829	2332.35
1010.122	2288.97
1010.415	2319.02
1010.708	2311.11
1011.001	2262.98
1011.295	2257.55
1011.588	2234.96
1011.881	2240.38
1012.173	2230.44
1012.466	2224.56
1012.759	2160.16
1013.052	2184.34
1013.344	2144.56
1013.637	2150.44
1013.93	2140.95
1014.222	2102.53
1014.514	2119.03
1014.807	2092.59
1015.099	2076.99
1015.391	2073.38
1015.683	2040.38
1015.976	2017.11
1016.268	2034.96
1016.56	2011.01
1016.851	2006.71
1017.143	1996.32
1017.435	2019.59
1017.727	1945.7
1018.018	1936.88
1018.31	1943.89
1018.602	1921.74
1018.893	1929.88
1019.185	1913.83
1019.476	1895.98
1019.767	1924.91
1020.058	1847.39
1020.35	1849.88
1020.641	1836.77
1020.932	1864.12
1021.223	1811.01
1021.514	1785.02
1021.804	1772.14
1022.095	1782.76
1022.386	1778.7
1022.677	1741.41
1022.967	1737.34
1023.258	1726.49
1023.548	1700.96
1023.839	1709.77
1024.129	1699.38
1024.419	1691.01
1024.709	1674.29
1025	1650.11
1025.29	1614.18
1025.58	1657.57
1025.87	1614.86
1026.16	1616.67
1026.449	1594.97
1026.739	1593.16
1027.029	1566.95
1027.319	1549.78
1027.608	1543.45
1027.898	1543.67
1028.187	1496.22
1028.477	1526.05
1028.766	1511.81
1029.055	1464.81
1029.344	1509.78
1029.634	1460.96
1029.923	1458.25
1030.212	1470.68
1030.501	1452.15
1030.79	1420.97
1031.078	1409.44
1031.367	1406.05
1031.656	1401.98
1031.945	1410.12
1032.233	1393.85
1032.522	1404.47
1032.81	1350.68
1033.099	1368.09
1033.387	1348.2
1033.675	1346.84
1033.963	1341.87
1034.251	1317.69
1034.54	1279.73
1034.828	1267.52
1035.116	1276.56
1035.403	1284.7
1035.691	1262.33
1035.979	1261.2
1036.267	1268.88
1036.554	1239.05
1036.842	1233.63
1037.129	1220.97
1037.417	1242.21
1037.704	1223
1037.992	1209.9
1038.279	1234.08
1038.566	1218.03
1038.853	1218.03
1039.14	1218.03
