Data from White_paper_FLMS001491_036.txt Node
Date: Tue Feb 07 10:35:00 GMT 2017
User: dcchb
Spectrometer: FLMS00149
Trigger mode: 0
Integration Time (sec): 2.000000E-2
Scans to average: 10
Electric dark correction enabled: true
Nonlinearity correction enabled: false
Boxcar width: 0
XAxis mode: Wavelengths
Number of Pixels in Spectrum: 2048
>>>>>Begin Spectral Data<<<<<
341.393	-20.41
341.776	-20.41
342.16	-20.41
342.543	-40.52
342.927	-51.37
343.31	-85.04
343.693	-65.83
344.077	-74.42
344.46	-44.59
344.843	-62.89
345.226	-51.37
345.61	-28.09
345.993	-11.37
346.376	-4.14
346.759	31.12
347.142	28.63
347.525	34.73
347.908	39.93
348.291	83.32
348.674	95.75
349.057	114.28
349.44	129.42
349.823	144.78
350.206	182.98
350.588	223.88
350.971	235.86
351.354	263.65
351.737	238.34
352.119	277.66
352.502	302.97
352.884	310.43
353.267	305.01
353.65	329.19
354.032	343.42
354.414	335.06
354.797	355.63
355.179	333.71
355.562	350.65
355.944	363.08
356.326	363.76
356.709	360.82
357.091	355.85
357.473	375.51
357.855	370.32
358.238	361.05
358.62	368.96
359.002	359.47
359.384	385.91
359.766	365.57
360.148	383.42
360.53	385.46
360.912	368.96
361.294	383.65
361.676	367.38
362.057	375.29
362.439	362.18
362.821	378.22
363.203	368.73
363.584	393.14
363.966	379.13
364.348	356.53
364.729	348.39
365.111	357.89
365.493	374.38
365.874	357.66
366.256	375.74
366.637	370.09
367.019	340.71
367.4	352.69
367.781	356.76
368.163	379.13
368.544	356.3
368.925	365.8
369.306	365.57
369.688	361.95
370.069	371.22
370.45	362.18
370.831	372.35
371.212	353.59
371.593	369.19
371.974	361.5
372.355	374.83
372.736	384.78
373.117	368.51
373.498	390.2
373.879	353.82
374.26	364.67
374.641	347.49
375.021	388.62
375.402	385
375.783	386.13
376.163	388.62
376.544	405.12
376.925	393.82
377.305	392.91
377.686	400.14
378.066	399.47
378.447	373.03
378.827	389.98
379.208	385.23
379.588	428.17
379.968	410.77
380.349	398.79
380.729	388.85
381.109	424.78
381.489	431.56
381.87	421.39
382.25	418
382.63	411.22
383.01	422.07
383.39	419.58
383.77	407.83
384.15	450.09
384.53	449.41
384.91	431.1
385.29	440.82
385.67	440.6
386.049	450.31
386.429	471.33
386.809	449.86
387.189	456.41
387.568	473.14
387.948	473.36
388.328	474.72
388.707	501.84
389.087	490.09
389.466	494.15
389.846	500.26
390.225	488.28
390.605	489.63
390.984	513.59
391.363	511.55
391.743	532.34
392.122	524.66
392.501	536.19
392.881	516.3
393.26	516.07
393.639	548.16
394.018	563.53
394.397	554.49
394.776	566.24
395.155	568.95
395.534	573.93
395.913	575.96
396.292	593.13
396.671	596.52
397.05	606.47
397.429	632.91
397.808	602.17
398.186	603.76
398.565	620.7
398.944	632.46
399.323	619.57
399.701	634.49
400.08	639.46
400.458	649.86
400.837	671.55
401.215	670.65
401.594	702.06
401.972	686.01
402.351	690.98
402.729	717.42
403.107	717.42
403.486	734.15
403.864	726.46
404.242	745.67
404.62	775.95
404.999	769.85
405.377	774.15
405.755	797.87
406.133	813.47
406.511	824.09
406.889	816.41
407.267	865.22
407.645	884.2
408.023	902.5
408.401	893.47
408.779	926.23
409.156	951.99
409.534	994.48
409.912	988.83
410.29	1011.2
410.667	1032.9
411.045	1095.27
411.422	1110.86
411.8	1139.33
412.178	1176.17
412.555	1221.59
412.933	1194.93
413.31	1265.66
413.687	1282.38
414.065	1280.35
414.442	1315.15
414.819	1374.81
415.197	1381.36
415.574	1418.2
415.951	1430.17
416.328	1465.2
416.705	1481.02
417.082	1511.98
417.46	1554.69
417.837	1551.53
418.214	1570.06
418.591	1629.94
418.967	1634.46
419.344	1672.65
419.721	1708.81
420.098	1723.73
420.475	1753.33
420.852	1751.52
421.228	1821.58
421.605	1838.75
421.982	1815.93
422.358	1867.22
422.735	1899.09
423.111	1914
423.488	1967.34
423.864	1956.71
424.241	1966.88
424.617	2019.76
424.994	2069.25
425.37	2044.85
425.746	2089.14
426.123	2144.28
426.499	2110.16
426.875	2201.91
427.251	2205.07
427.627	2251.85
428.003	2278.29
428.379	2309.02
428.756	2322.58
429.132	2401.67
429.507	2442.8
429.883	2421.33
430.259	2478.51
430.635	2498.62
431.011	2583.82
431.387	2646.87
431.763	2653.42
432.138	2654.77
432.514	2716.02
432.89	2699.75
433.265	2805.51
433.641	2845.96
434.016	2861.32
434.392	2924.82
434.767	3008.21
435.143	3001.88
435.518	3011.83
435.894	3060.19
436.269	3152.16
436.644	3183.8
437.02	3222.9
437.395	3227.19
437.77	3244.82
438.145	3297.92
438.52	3356.45
438.895	3380.18
439.271	3402.33
439.646	3461.08
440.021	3490.01
440.395	3532.72
440.77	3470.8
441.145	3496.79
441.52	3607.97
441.895	3570.46
442.27	3630.57
442.645	3625.82
443.019	3714.86
443.394	3672.38
443.769	3730.9
444.143	3728.42
444.518	3789.21
444.892	3735.42
445.267	3819.72
445.641	3817.46
446.016	3851.81
446.39	3873.5
446.764	3909.66
447.139	3919.37
447.513	3965.25
447.887	3948.75
448.262	3986.49
448.636	4020.61
449.01	4063.55
449.384	4099.03
449.758	4186.94
450.132	4169.76
450.506	4176.32
450.88	4238.01
451.254	4238.01
451.628	4305.8
452.002	4318.01
452.376	4393.71
452.75	4416.99
453.123	4484.11
453.497	4519.36
453.871	4548.96
454.244	4643.88
454.618	4676.19
454.992	4740.37
455.365	4744.21
455.739	4858.78
456.112	4919.57
456.486	4948.95
456.859	5011.32
457.232	5087.93
457.606	5030.98
457.979	5096.52
458.352	5259.68
458.725	5303.97
459.099	5363.63
459.472	5494.7
459.845	5575.83
460.218	5567.01
460.591	5627.35
460.964	5591.42
461.337	5775.14
461.71	5858.98
462.083	5948.47
462.456	5993.9
462.829	5986.44
463.201	6059.43
463.574	6111.18
463.947	6214.68
464.32	6326.54
464.692	6387.33
465.065	6493.77
465.438	6541.68
465.81	6585.97
466.183	6675.46
466.555	6823.48
466.928	6853.76
467.3	6920.2
467.672	6996.58
468.045	7173.07
468.417	7169.68
468.789	7242.22
469.161	7373.29
469.534	7470.02
469.906	7657.58
470.278	7668.2
470.65	7794.3
471.022	7928.08
471.394	8042.2
471.766	8181.41
472.138	8271.58
472.51	8461.85
472.882	8586.14
473.253	8690.32
473.625	8749.76
473.997	8962.86
474.369	8975.74
474.74	9119.69
475.112	9239.01
475.484	9439.23
475.855	9599.9
476.227	9699.11
476.598	9894.13
476.97	10021.36
477.341	10275.14
477.713	10431.75
478.084	10456.38
478.455	10712.42
478.827	10835.35
479.198	11152.18
479.569	11136.81
479.94	11482.57
480.311	11596.23
480.682	11766.85
481.053	12043
481.424	12220.63
481.795	12448.19
482.166	12528.41
482.537	12769.76
482.908	12970.44
483.279	13006.37
483.65	13339.24
484.021	13652.9
484.391	13769.74
484.762	13894.71
485.133	14022.16
485.503	14266.22
485.874	14581.24
486.244	14578.53
486.615	14930.61
486.985	15042.47
487.356	15416.02
487.726	15464.16
488.097	15799.97
488.467	15800.64
488.837	16226.17
489.207	16326.96
489.578	16605.59
489.948	16695.08
490.318	16930.78
490.688	16961.07
491.058	17310.21
491.428	17477.89
491.798	17574.38
492.168	17966.69
492.538	17949.97
492.908	18208.49
493.278	18559.22
493.648	18465.43
494.017	18880.56
494.387	18975.93
494.757	18978.19
495.126	19212.53
495.496	19258.41
495.866	19536.14
496.235	19681.45
496.605	19925.51
496.974	19948.11
497.344	20105.39
497.713	20253.63
498.082	20436.45
498.452	20706.96
498.821	20763.23
499.19	20783.79
499.559	20955.31
499.928	21169.32
500.298	21197.11
500.667	21503.09
501.036	21498.8
501.405	21687.27
501.774	21703.77
502.143	21972.91
502.512	21992.8
502.88	22277.31
503.249	22240.7
503.618	22422.62
503.987	22454.03
504.356	22642.5
504.724	22875.94
505.093	22993.22
505.462	23005.65
505.83	23281.8
506.199	23452.87
506.567	23624.84
506.936	23709.14
507.304	24006.53
507.672	24131.27
508.041	24129.01
508.409	24317.48
508.777	24463.69
509.145	24724.48
509.514	24681.77
509.882	24864.13
510.25	25027.75
510.618	25202.2
510.986	25312.94
511.354	25519.71
511.722	25652.36
512.09	25886.03
512.458	25865.69
512.826	26091.22
513.193	26268.39
513.561	26453.92
513.929	26653.01
514.297	26850.52
514.664	27080.12
515.032	27121.02
515.4	27261.36
515.767	27558.98
516.135	27603.05
516.502	27499.55
516.869	28049.36
517.237	28129.81
517.604	28055.01
517.972	28461.78
518.339	28620.42
518.706	28725.5
519.073	28834.2
519.44	28998.94
519.808	29365.71
520.175	29422.21
520.542	29723.89
520.909	29810.44
521.276	29829.43
521.643	30184.45
522.009	30523.65
522.376	30646.58
522.743	30940.58
523.11	31153.01
523.477	31453.79
523.843	31536.73
524.21	31867.57
524.577	32031.86
524.943	32156.15
525.31	32249.02
525.676	32690.82
526.043	32822.57
526.409	32869.12
526.776	33274.08
527.142	33418.03
527.508	33511.36
527.874	33887.85
528.241	34069.77
528.607	34219.37
528.973	34564.67
529.339	34421.4
529.705	34973.25
530.071	35085.33
530.437	35138.21
530.803	35436.51
531.169	35684.41
531.535	35667.92
531.901	35813.9
532.267	36018.64
532.632	36269.03
532.998	36347
533.364	36551.51
533.73	36635.12
534.095	36928.68
534.461	36927.09
534.826	37209.8
535.192	37311.04
535.557	37611.82
535.923	37662.44
536.288	37817.01
536.653	38042.32
537.019	37983.11
537.384	38143.33
537.749	38325.93
538.114	38423.55
538.479	38546.94
538.845	38733.6
539.21	38701.74
539.575	38994.38
539.94	39091.1
540.305	39333.13
540.67	39286.81
541.034	39461.94
541.399	39621.26
541.764	39839.56
542.129	39830.07
542.494	40070.06
542.858	40169.72
543.223	40231.87
543.587	40557.28
543.952	40516.38
544.316	40584.17
544.681	40635.25
545.045	40870.72
545.41	41098.28
545.774	41168.11
546.138	41235.91
546.503	41490.14
546.867	41479.74
547.231	41714.54
547.595	41743.24
547.959	42122.44
548.324	41980.97
548.688	42129.22
549.052	42308.87
549.416	42386.61
549.779	42466.84
550.143	42592.26
550.507	42958.12
550.871	43018.01
551.235	42992.02
551.599	43283.54
551.962	43392.91
552.326	43516.07
552.689	43680.14
553.053	43637.43
553.417	43761.94
553.78	44203.29
554.143	44148.15
554.507	44302.72
554.87	44442.15
555.234	44809.37
555.597	44641.69
555.96	44877.62
556.323	44951.97
556.686	44973.44
557.05	45385.85
557.413	45429.24
557.776	45508.56
558.139	45809.12
558.502	45767.77
558.865	45975.67
559.228	46352.61
559.59	46428.31
559.953	46521.19
560.316	46828.08
560.679	46793.28
561.041	47052.93
561.404	47105.81
561.767	47508.74
562.129	47303.32
562.492	47770.42
562.854	47761.84
563.217	47790.09
563.579	48001.61
563.941	48259
564.304	48349.84
564.666	48634.36
565.028	48650.85
565.39	48835.03
565.753	48921.35
566.115	49105.53
566.477	49255.36
566.839	49463.04
567.201	49565.63
567.563	49667.32
567.925	49817.15
568.287	49872.29
568.648	49996.35
569.01	50258.49
569.372	50512.95
569.734	50352.28
570.095	50683.57
570.457	50763.79
570.819	50793.4
571.18	50834.98
571.542	51045.37
571.903	51112.94
572.265	51316.55
572.626	51376.88
572.987	51489.42
573.349	51575.07
573.71	51742.98
574.071	51795.4
574.432	51920.15
574.794	52024.32
575.155	52037.66
575.516	51997.66
575.877	52234.04
576.238	52264.77
576.599	52395.61
576.96	52425.67
577.32	52503.41
577.681	52646.68
578.042	52805.32
578.403	52713.8
578.763	52765.32
579.124	52831.76
579.485	52993.56
579.845	53063.62
580.206	53003.28
580.566	53002.38
580.927	53114.69
581.287	53230.85
581.648	53103.39
582.008	53238.53
582.368	53236.95
582.728	53295.25
583.089	53294.57
583.449	53255.03
583.809	53360.11
584.169	53462.93
584.529	53416.38
584.889	53657.95
585.249	53380.45
585.609	53382.48
585.969	53635.36
586.329	53517.17
586.688	53570.95
587.048	53557.39
587.408	53528.24
587.768	53534.11
588.127	53649.59
588.487	53565.98
588.846	53791.28
589.206	53574.57
589.565	53721.45
589.925	53765.52
590.284	53663.15
590.643	53765.3
591.003	53842.81
591.362	53953.09
591.721	53937.04
592.08	53788.8
592.44	53911.05
592.799	53993.31
593.158	53885.07
593.517	53930.94
593.876	54052.97
594.235	54022.46
594.593	53967.55
594.952	54040.09
595.311	53976.82
595.67	54029.7
596.029	54177.26
596.387	54239.41
596.746	54353.08
597.104	54085.51
597.463	54156.92
597.822	54377.03
598.18	54099.52
598.538	54213.87
598.897	54330.93
599.255	54151.73
599.613	54574.99
599.972	54346.07
600.33	54388.78
600.688	54299.52
601.046	54485.05
601.404	54549.23
601.762	54446.18
602.12	54556.01
602.478	54551.04
602.836	54579.74
603.194	54424.49
603.552	54599.62
603.91	54561.66
604.268	54563.24
604.625	54568.44
604.983	54699.73
605.341	54654.31
605.698	54746.29
606.056	54683.92
606.413	54706.06
606.771	54876.45
607.128	54856.79
607.485	54778.38
607.843	54757.36
608.2	54932.72
608.557	55020.4
608.914	54915.1
609.272	55059.95
609.629	55063.79
609.986	55172.04
610.343	55013.4
610.7	55247.74
611.057	55173.85
611.414	55149.67
611.771	55223.56
612.127	55254.75
612.484	55256.1
612.841	55261.3
613.198	55264.01
613.554	55262.66
613.911	55476.66
614.267	55444.8
614.624	55370.45
614.98	55351.69
615.337	55541.29
615.693	55478.24
616.05	55412.94
616.406	55604.8
616.762	55498.81
617.118	55476.89
617.475	55515.98
617.831	55605.7
618.187	55568.86
618.543	55559.37
618.899	55741.06
619.255	55682.08
619.611	55695.19
619.967	55755.53
620.323	55822.19
620.678	55699.26
621.034	55666.26
621.39	55636.88
621.746	55652.25
622.101	55933.15
622.457	55708.3
622.812	55738.58
623.168	55812.7
623.523	55910.78
623.879	55905.8
624.234	55701.06
624.589	55851.57
624.945	55861.96
625.3	55861.51
625.655	55793.72
626.01	55794.62
626.365	55883.43
626.72	55805.47
627.075	55851.57
627.43	55800.04
627.785	55738.35
628.14	55823.77
628.495	55799.37
628.85	55899.48
629.205	55714.85
629.559	55875.3
629.914	55742.64
630.269	55861.74
630.623	55731.57
630.978	55747.62
631.332	55869.42
631.687	55817.9
632.041	55755.07
632.396	55777.22
632.75	55686.37
633.104	55589.65
633.459	55647.96
633.813	55636.66
634.167	55743.55
634.521	55672.36
634.875	55630.33
635.229	55617
635.583	55505.36
635.937	55512.14
636.291	55524.35
636.645	55548.75
636.999	55466.27
637.352	55558.02
637.706	55364.12
638.06	55509.2
638.413	55425.14
638.767	55341.98
639.121	55402.99
639.474	55232.15
639.828	55281.19
640.181	55361.86
640.534	55428.3
640.888	55284.58
641.241	55144.92
641.594	55231.25
641.947	55376.1
642.301	55172.49
642.654	55207.74
643.007	55228.99
643.36	55166.84
643.713	55135.65
644.066	55208.65
644.419	54991.7
644.771	54892.95
645.124	54582.45
645.477	54530.02
645.83	54433.98
646.182	54371.16
646.535	54189.46
646.888	54324.15
647.24	54190.82
647.593	54412.96
647.945	54297.48
648.298	54168.22
648.65	54120.54
649.002	54014.55
649.355	54141.1
649.707	54117.83
650.059	54226.98
650.411	54602.11
650.763	54567.53
651.115	54835.55
651.467	54789.9
651.819	54789.68
652.171	54680.07
652.523	54758.49
652.875	54677.81
653.227	54628.1
653.578	54801.65
653.93	54680.07
654.282	54604.14
654.633	54551.94
654.985	54591.26
655.337	54551.72
655.688	54504.03
656.039	54621.54
656.391	54422.68
656.742	54487.31
657.094	54459.74
657.445	54587.19
657.796	54546.97
658.147	54523.02
658.498	54499.97
658.849	54521.43
659.2	54488.89
659.551	54393.98
659.902	54443.02
660.253	54444.6
660.604	54475.79
660.955	54344.04
661.306	54494.77
661.656	54357.6
662.007	54361.66
662.358	54410.25
662.708	54362.79
663.059	54301.1
663.409	54153.76
663.76	54281.67
664.11	54355.56
664.461	54331.83
664.811	54365.73
665.161	54334.09
665.511	54258.16
665.862	54240.09
666.212	54279.86
666.562	54251.61
666.912	54178.39
667.262	54079.86
667.612	54129.13
667.962	54161.9
668.312	54121.22
668.662	54214.78
669.011	54140.2
669.361	54113.31
669.711	54117.6
670.06	54044.38
670.41	53985.4
670.76	53987.89
671.109	54090.71
671.459	54022.01
671.808	53880.55
672.157	53978.85
672.507	53756.48
672.856	53772.07
673.205	53862.69
673.554	53829.7
673.904	53846.42
674.253	53939.3
674.602	53820.89
674.951	53346.32
675.3	53183.39
675.649	53652.3
675.998	53622.93
676.346	53596.26
676.695	53757.39
677.044	53452.99
677.393	53604.62
677.741	53627.22
678.09	53546.77
678.438	53430.61
678.787	53470.61
679.135	53468.58
679.484	53258.64
679.832	53295.7
680.181	53062.94
680.529	53296.38
680.877	53154.92
681.225	53113.34
681.573	53248.25
681.922	52978.88
682.27	52990.17
682.618	52978.42
682.966	52949.95
683.314	52879.22
683.661	52788.37
684.009	52754.25
684.357	52648.04
684.705	52614.82
685.053	52598.32
685.4	52516.74
685.748	52476.74
686.095	52356.74
686.443	52279.68
686.79	52153.36
687.138	52182.96
687.485	52099.58
687.832	52060.03
688.18	52121.95
688.527	51779.81
688.874	51845.35
689.221	51785.69
689.568	51729.64
689.915	51533.94
690.262	51551.34
690.609	51442.87
690.956	51388.86
691.303	51422.76
691.65	51123.33
691.997	51115.42
692.344	50905.03
692.69	50894.18
693.037	50889.89
693.383	50620.07
693.73	50726.28
694.077	50527.41
694.423	50519.73
694.769	50449.22
695.116	50301.88
695.462	50290.58
695.808	50118.16
696.155	50178.5
696.501	49839.75
696.847	49839.3
697.193	49719.98
697.539	49750.71
697.885	49542.13
698.231	49524.5
698.577	49468.23
698.923	49359.08
699.269	49087.68
699.614	48950.28
699.96	48934.69
700.306	48880.23
700.651	48666.9
700.997	48590.74
701.342	48644.07
701.688	48580.12
702.033	48406.11
702.379	48381.26
702.724	48245.67
703.069	48459.45
703.415	47883.42
703.76	47823.98
704.105	47925.9
704.45	47757.09
704.795	47564.78
705.14	47536.08
705.485	47444.11
705.83	47350.1
706.175	47425.35
706.52	47225.13
706.865	46983.1
707.209	47014.51
707.554	46854.52
707.899	47033.49
708.243	46687.29
708.588	46702.2
708.932	46439.39
709.277	46417.92
709.621	46477.8
709.966	46109.9
710.31	46210.01
710.654	45908.55
710.998	45955.78
711.342	46035.1
711.687	45869.46
712.031	45726.18
712.375	45595.57
712.719	45722.12
713.063	45486.64
713.407	45670.82
713.75	45386.08
714.094	45409.81
714.438	45197.16
714.782	45221.11
715.125	44958.07
715.469	45035.58
715.812	44920.56
716.156	44774.57
716.499	44686.66
716.843	44713.1
717.186	44517.63
717.53	44684.18
717.873	44574.35
718.216	44410.51
718.559	44306.79
718.902	43967.36
719.246	44205.32
719.589	43941.15
719.932	43935.95
720.275	44014.82
720.617	43858.44
720.96	43750.19
721.303	43695.5
721.646	43863.86
721.989	43501.84
722.331	43656.41
722.674	43462.29
723.016	43555.85
723.359	43372.12
723.701	43445.34
724.044	43034.96
724.386	43038.12
724.729	43172.58
725.071	42992.25
725.413	43077.44
725.755	42940.95
726.097	42810.33
726.439	42475.87
726.782	42645.81
727.124	42784.12
727.465	42533.5
727.807	42449.89
728.149	42460.96
728.491	42278.37
728.833	42424.12
729.175	42256.67
729.516	42161.53
729.858	42122.21
730.199	42183.23
730.541	42092.83
730.882	41844.48
731.224	42067.07
731.565	41804.93
731.906	41784.82
732.248	41874.99
732.589	41671.15
732.93	41469.35
733.271	41511.61
733.612	41602
733.953	41526.3
734.294	41412.4
734.635	41255.57
734.976	41356.13
735.317	41161.33
735.658	41134.44
735.999	41082.69
736.339	41053.09
736.68	41061.22
737.021	40873.43
737.361	40781.91
737.702	40934.45
738.042	40828.46
738.383	40619.43
738.723	40783.26
739.063	40644.06
739.404	40666.66
739.744	40556.38
740.084	40410.84
740.424	40506.66
740.764	40310.51
741.104	40317.74
741.444	40219.66
741.784	40203.62
742.124	40158.87
742.464	40227.57
742.804	40104.64
743.143	40033.45
743.483	40045.66
743.823	39697.87
744.162	39797.98
744.502	39949.84
744.841	39774.48
745.181	39822.16
745.52	39636.4
745.86	39837.07
746.199	39483.19
746.538	39562.5
746.877	39767.47
747.216	39543.97
747.556	39386.69
747.895	39404.77
748.234	39237.54
748.573	39161.16
748.911	39192.35
749.25	39015.4
749.589	39041.16
749.928	38943.09
750.267	39043.65
750.605	38930.43
750.944	38715.3
751.283	38607.5
751.621	38713.71
751.96	38436.21
752.298	38445.02
752.636	38400.28
752.975	38334.29
753.313	38258.81
753.651	38320.96
753.989	38064.92
754.327	38087.74
754.666	37809.56
755.004	37884.36
755.342	37882.32
755.679	37839.61
756.017	37624.93
756.355	37768.65
756.693	37525.27
757.031	37504.03
757.368	37260.87
757.706	37262.68
758.044	37014.32
758.381	37136.81
758.719	36994.44
759.056	37057.03
759.394	36908.79
759.731	36738.4
760.068	36535.01
760.405	36483.94
760.743	36433.55
761.08	36352.42
761.417	36177.74
761.754	36165.76
762.091	36069.04
762.428	35922.15
762.765	35758.09
763.102	35786.56
763.438	35582.04
763.775	35563.29
764.112	35510.86
764.449	35518.09
764.785	35397.87
765.122	35097.99
765.458	35003.75
765.795	35026.81
766.131	34938.22
766.467	34782.74
766.804	34556.31
767.14	34368.74
767.476	34480.15
767.812	34259.14
768.148	34384.56
768.485	34088.3
768.821	34038.81
769.157	33775.76
769.492	33818.93
769.828	33818.25
770.164	33562.21
770.5	33391.82
770.836	33409.22
771.171	33060.08
771.507	33078.61
771.842	32846.07
772.178	32867.99
772.513	32673.87
772.849	32721.55
773.184	32395.69
773.519	32509.36
773.855	32413.77
774.19	32206.77
774.525	32118.18
774.86	32180.78
775.195	32027.11
775.53	31829.37
775.865	31841.58
776.2	31505.54
776.535	31446.56
776.87	31343.06
777.205	31258.99
777.539	31065.33
777.874	31159.11
778.209	30896.97
778.543	30824.2
778.878	30677.31
779.212	30607.71
779.547	30396.19
779.881	30518
780.215	30195.75
780.55	30364.1
780.884	30055.41
781.218	30018.8
781.552	29989.88
781.886	29835.08
782.22	29654.74
782.554	29538.59
782.888	29401.87
783.222	29250.23
783.556	29079.62
783.889	29192.61
784.223	28900.19
784.557	28746.74
784.89	28760.76
785.224	28597.82
785.557	28535.45
785.891	28409.58
786.224	28392.63
786.558	28336.59
786.891	28055.46
787.224	28066.54
787.557	27889.37
787.891	27842.59
788.224	27734.79
788.557	27760.56
788.89	27720.1
789.223	27620.45
789.556	27344.3
789.888	27361.02
790.221	27308.14
790.554	27105.88
790.887	27189.27
791.219	26972.1
791.552	26896.85
791.884	26838.09
792.217	26660.92
792.549	26569.4
792.882	26389.29
793.214	26396.3
793.546	26365.56
793.879	26165.34
794.211	26112.69
794.543	26159.69
794.875	25956.31
795.207	25919.47
795.539	25783.88
795.871	25865.24
796.203	25611.23
796.535	25575.53
796.867	25542.99
797.198	25492.59
797.53	25355.42
797.862	25148.65
798.193	25115.88
798.525	25108.42
798.856	25076.33
799.188	24846.06
799.519	24765.38
799.85	24630.24
800.182	24721.77
800.513	24595.89
800.844	24431.6
801.175	24502.79
801.506	24398.38
801.837	24229.35
802.168	24280.42
802.499	24260.53
802.83	23982.12
803.161	24002.46
803.491	23997.26
803.822	24004.04
804.153	23839.53
804.483	23707.78
804.814	23591.85
805.145	23639.99
805.475	23528.8
805.805	23461.46
806.136	23381.24
806.466	23431.86
806.796	23385.3
807.126	23104.18
807.457	23200.9
807.787	23191.41
808.117	22915.94
808.447	22862.15
808.777	22921.59
809.107	22812.89
809.436	22764.75
809.766	22727.69
810.096	22677.07
810.426	22491.77
810.755	22545.33
811.085	22413.35
811.414	22515.04
811.744	22147.14
812.073	22269.4
812.403	22197.31
812.732	22100.82
813.061	22078.9
813.39	22055.85
813.719	21901.27
814.049	22032.34
814.378	21883.87
814.707	21688.17
815.036	21758.68
815.365	21661.28
815.693	21431.23
816.022	21418.35
816.351	21435.52
816.68	21300.16
817.008	21432.81
817.337	21206.15
817.665	21130.45
817.994	21225.59
818.322	21220.16
818.651	21125.7
818.979	21019.26
819.307	21017.68
819.636	20955.08
819.964	20928.64
820.292	20934.97
820.62	20885.93
820.948	20794.41
821.276	20838.93
821.604	20831.47
821.932	20815.65
822.259	20826.05
822.587	20709.89
822.915	20681.42
823.243	20795.54
823.57	20718.03
823.898	20783.79
824.225	20721.87
824.553	20661.98
824.88	20702.21
825.207	20810.68
825.535	20608.43
825.862	20703.11
826.189	20715.77
826.516	20694.3
826.843	20789.89
827.17	20722.1
827.497	20828.99
827.824	20801.42
828.151	20702.44
828.478	20696.79
828.805	20757.35
829.131	20659.05
829.458	20725.26
829.785	20615.66
830.111	20552.38
830.438	20675.09
830.764	20654.08
831.09	20561.65
831.417	20542.44
831.743	20591.25
832.069	20611.82
832.395	20525.94
832.722	20507.86
833.048	20534.76
833.374	20458.83
833.7	20428.54
834.026	20538.82
834.351	20414.08
834.677	20414.99
835.003	20483.01
835.329	20400.75
835.654	20372.28
835.98	20277.36
836.306	20274.88
836.631	20189
836.956	20217.25
837.282	20277.59
837.607	20046.63
837.932	20133.41
838.258	20108.33
838.583	19994.43
838.908	19916.92
839.233	19951.72
839.558	19918.05
839.883	19923.02
840.208	19867.88
840.533	19860.2
840.858	19781.56
841.182	19884.38
841.507	19669.24
841.832	19643.93
842.156	19631.5
842.481	19733.65
842.805	19541.56
843.13	19498.4
843.454	19557.38
843.778	19426.31
844.103	19290.5
844.427	19349.7
844.751	19356.48
845.075	19352.64
845.399	19121.23
845.723	19056.15
846.047	19161.23
846.371	19013.67
846.695	18881.01
847.019	18837.85
847.343	18608.25
847.666	18586.33
847.99	18506.34
848.313	18558.09
848.637	18396.73
848.96	18474.92
849.284	18295.04
849.607	18163.97
849.931	18076.29
850.254	17993.13
850.577	17941.38
850.9	17789.97
851.223	17765.11
851.546	17695.28
851.869	17584.55
852.192	17698.9
852.515	17565.12
852.838	17443.09
853.161	17337.33
853.483	17371
853.806	17221.17
854.129	17278.57
854.451	17206.93
854.774	17050.55
855.096	17116.32
855.419	17039.71
855.741	16924.23
856.063	16917
856.385	16831.35
856.708	16805.14
857.03	16757.23
857.352	16715.65
857.674	16722.2
857.996	16679.26
858.318	16566.73
858.64	16609.21
858.961	16491.7
859.283	16449.67
859.605	16334.64
859.926	16393.85
860.248	16261.42
860.57	16130.13
860.891	16239.73
861.212	16130.8
861.534	16124.93
861.855	16062.78
862.176	16131.26
862.498	16004.25
862.819	16115.66
863.14	15991.15
863.461	15878.61
863.782	15834.99
864.103	15909.12
864.424	15804.03
864.745	15888.33
865.065	15777.14
865.386	15736.46
865.707	15665.73
866.027	15764.26
866.348	15621.89
866.668	15651.5
866.989	15590.93
867.309	15435
867.63	15501.89
867.95	15448.34
868.27	15331.28
868.59	15334.67
868.91	15398.39
869.23	15381.9
869.55	15291.96
869.87	15378.28
870.19	15244.95
870.51	15380.99
870.83	15289.24
871.15	15158.4
871.469	15148.68
871.789	15231.85
872.109	15256.7
872.428	15200.43
872.748	15129.02
873.067	15153.43
873.386	15105.52
873.706	15109.14
874.025	15007.44
874.344	14964.06
874.663	14983.26
874.982	14875.02
875.301	14885.41
875.62	14942.14
875.939	14778.75
876.258	14885.64
876.577	14761.12
876.896	14814
877.214	14734.68
877.533	14789.37
877.852	14693.1
878.17	14700.11
878.489	14614.01
878.807	14673.67
879.125	14559.55
879.444	14624.18
879.762	14639.09
880.08	14552.77
880.398	14472.54
880.716	14446.78
881.034	14425.99
881.352	14406.1
881.67	14340.8
881.988	14421.47
882.306	14345.09
882.624	14312.1
882.941	14200.91
883.259	14174.47
883.577	14148.71
883.894	14101.93
884.212	14126.34
884.529	14098.99
884.846	14078.2
885.164	14056.51
885.481	13967.7
885.798	13921.6
886.115	13870.07
886.432	13864.42
886.75	13799.79
887.067	13801.37
887.383	13747.82
887.7	13738.78
888.017	13666.46
888.334	13662.17
888.651	13618.55
888.967	13665.33
889.284	13531.55
889.6	13540.82
889.917	13425.79
890.233	13475.28
890.55	13348.28
890.866	13386.92
891.182	13374.04
891.498	13255.4
891.815	13286.81
892.131	13222.18
892.447	13157.55
892.763	13121.84
893.079	13051.34
893.395	13019.25
893.71	12975.41
894.026	13000.04
894.342	12852.25
894.657	12860.83
894.973	12838.01
895.289	12879.14
895.604	12826.03
895.92	12663.55
896.235	12708.07
896.55	12663.78
896.865	12644.79
897.181	12580.84
897.496	12568.41
897.811	12453.61
898.126	12444.12
898.441	12393.28
898.756	12314.63
899.071	12317.57
899.386	12295.2
899.7	12229.89
900.015	12208.2
900.33	12026.51
900.644	12065.83
900.959	11987.86
901.273	11979.73
901.588	11946.28
901.902	11920.07
902.216	11817.47
902.531	11808.21
902.845	11830.8
903.159	11695.89
903.473	11713.29
903.787	11577.48
904.101	11555.78
904.415	11561.89
904.729	11495.9
905.042	11480.31
905.356	11434.21
905.67	11323.47
905.984	11292.51
906.297	11239.18
906.611	11184.72
906.924	11184.04
907.237	11102.46
907.551	11117.15
907.864	11057.72
908.177	10974.1
908.491	10965.52
908.804	10912.41
909.117	10917.38
909.43	10877.84
909.743	10879.64
910.056	10714
910.368	10729.82
910.681	10664.51
910.994	10650.27
911.307	10564.85
911.619	10429.03
911.932	10436.94
912.244	10435.36
912.557	10416.38
912.869	10257.74
913.181	10356.72
913.494	10252.54
913.806	10220
914.118	10150.17
914.43	10080.57
914.742	10120.79
915.054	10072.21
915.366	9992.89
915.678	10018.2
915.99	9887.13
916.302	9868.82
916.613	9851.42
916.925	9808.71
917.236	9781.82
917.548	9680.8
917.859	9750.41
918.171	9624.31
918.482	9576.85
918.794	9534.82
919.105	9459.12
919.416	9446.69
919.727	9399.91
920.038	9392
920.349	9352.9
920.66	9300.93
920.971	9260.48
921.282	9219.57
921.593	9231.78
921.903	9132.8
922.214	9140.25
922.525	9105.9
922.835	9013.48
923.146	8960.15
923.456	8936.87
923.767	8911.79
924.077	8835.86
924.387	8879.7
924.697	8752.47
925.008	8731
925.318	8784.56
925.628	8697.33
925.938	8663.2
926.248	8572.13
926.558	8549.31
926.867	8571.46
927.177	8441.29
927.487	8398.13
927.796	8377.34
928.106	8314.96
928.416	8330.33
928.725	8338.24
929.034	8265.47
929.344	8271.35
929.653	8159.94
929.962	8207.17
930.271	8102.54
930.581	8112.48
930.89	8073.16
931.199	7970.79
931.508	7968.99
931.817	7962.43
932.125	7923.79
932.434	7873.85
932.743	7808.76
933.051	7773.51
933.36	7757.01
933.669	7752.27
933.977	7671.59
934.286	7706.85
934.594	7650.8
934.902	7549.56
935.21	7590.46
935.519	7542.78
935.827	7533.29
936.135	7484.03
936.443	7379.62
936.751	7408.77
937.059	7344.37
937.367	7342.79
937.674	7354.31
937.982	7275.67
938.29	7247.65
938.597	7253.3
938.905	7119.97
939.213	7136.92
939.52	7064.83
939.827	7087.65
940.135	7037.48
940.442	7050.82
940.749	6971.05
941.056	6963.59
941.363	6933.98
941.67	6869.13
941.977	6845.4
942.284	6838.85
942.591	6777.38
942.898	6722.01
943.205	6752.97
943.511	6702.13
943.818	6663.03
944.125	6615.8
944.431	6591.39
944.738	6577.61
945.044	6553.88
945.35	6498.29
945.657	6440.89
945.963	6414.45
946.269	6436.6
946.575	6413.32
946.881	6308.69
947.187	6368.35
947.493	6335.36
947.799	6254.23
948.105	6292.65
948.41	6209.94
948.716	6178.75
949.022	6169.71
949.327	6115.25
949.633	6068.7
949.938	6081.35
950.244	6044.97
950.549	6073.89
950.854	6035.93
951.16	5995.03
951.465	5974.24
951.77	5895.59
952.075	5892.43
952.38	5814.92
952.685	5829.83
952.99	5790.96
953.294	5795.26
953.599	5772.66
953.904	5693.56
954.209	5700.57
954.513	5687.92
954.818	5640.46
955.122	5640.46
955.426	5620.8
955.731	5568.37
956.035	5564.08
956.339	5564.08
956.643	5474.14
956.948	5455.15
957.252	5479.11
957.556	5456.06
957.86	5436.17
958.163	5415.83
958.467	5359.79
958.771	5349.62
959.075	5335.38
959.378	5279.79
959.682	5282.05
959.985	5249.96
960.289	5233.69
960.592	5167.7
960.896	5166.35
961.199	5159.12
961.502	5161.83
961.805	5058.55
962.108	5032.57
962.411	5009.97
962.714	5006.13
963.017	5025.79
963.32	4935.84
963.623	4979.01
963.926	4971.32
964.228	4925.22
964.531	4897.2
964.833	4899.91
965.136	4831.67
965.438	4839.12
965.741	4827.15
966.043	4769.75
966.345	4751.89
966.648	4737.66
966.95	4743.53
967.252	4650.88
967.554	4705.57
967.856	4687.49
968.158	4635.97
968.46	4621.28
968.761	4576.76
969.063	4563.2
969.365	4540.15
969.666	4537.44
969.968	4506.7
970.269	4485.01
970.571	4489.3
970.872	4442.3
971.174	4413.6
971.475	4397.33
971.776	4393.26
972.077	4365.92
972.378	4362.07
972.679	4312.81
972.98	4249.08
973.281	4320.95
973.582	4231.91
973.883	4276.88
974.183	4226.94
974.484	4248.63
974.785	4188.97
975.085	4181.06
975.386	4160.5
975.686	4113.49
975.986	4107.84
976.287	4074.17
976.587	4038.92
976.887	4047.51
977.187	4064
977.487	3993.5
977.787	4014.97
978.087	3972.25
978.387	3912.59
978.687	3969.09
978.987	3912.37
979.286	3906.04
979.586	3918.92
979.885	3863.56
980.185	3862.65
980.484	3823.56
980.784	3834.63
981.083	3818.81
981.382	3791.47
981.682	3758.47
981.981	3756.44
982.28	3741.53
982.579	3693.62
982.878	3712.6
983.177	3685.03
983.475	3683.45
983.774	3631.47
984.073	3624.69
984.372	3585.6
984.67	3593.73
984.969	3603.22
985.267	3587.18
985.566	3584.92
985.864	3514.41
986.162	3511.93
986.461	3465.83
986.759	3473.06
987.057	3426.51
987.355	3446.84
987.653	3419.73
987.951	3403.91
988.249	3428.09
988.547	3386.73
988.844	3359.39
989.142	3329.56
989.44	3316.68
989.737	3301.76
990.035	3327.75
990.332	3256.79
990.63	3275.32
990.927	3281.65
991.224	3243.69
991.521	3260.86
991.819	3225.16
992.116	3201.2
992.413	3179.96
992.71	3157.81
993.006	3140.64
993.303	3126.17
993.6	3105.61
993.897	3115.1
994.193	3062.22
994.49	3073.97
994.787	3049.34
995.083	3032.84
995.379	3021.77
995.676	3038.27
995.972	3031.04
996.268	2958.95
996.565	2954.2
996.861	2919.17
997.157	2909.68
997.453	2931.15
997.749	2932.51
998.044	2855.67
998.34	2873.3
998.636	2852.51
998.932	2841.66
999.227	2835.79
999.523	2812.28
999.818	2774.32
1000.114	2789.91
1000.409	2748.78
1000.704	2763.7
1001	2731.38
1001.295	2738.39
1001.59	2684.83
1001.885	2673.76
1002.18	2713.08
1002.475	2629.69
1002.77	2666.75
1003.065	2622.91
1003.359	2623.14
1003.654	2610.71
1003.949	2579.97
1004.243	2546.3
1004.538	2520.09
1004.832	2532.52
1005.127	2526.64
1005.421	2538.39
1005.715	2498.62
1006.009	2475.12
1006.304	2477.83
1006.598	2389.02
1006.892	2424.72
1007.186	2463.14
1007.48	2363.71
1007.773	2361.22
1008.067	2388.12
1008.361	2346.53
1008.655	2313.77
1008.948	2311.96
1009.242	2319.87
1009.535	2299.08
1009.829	2272.41
1010.122	2277.61
1010.415	2279.87
1010.708	2225.63
1011.001	2226.31
1011.295	2241
1011.588	2205.97
1011.881	2191.96
1012.173	2188.57
1012.466	2158.74
1012.759	2165.07
1013.052	2165.3
1013.344	2137.73
1013.637	2133.66
1013.93	2124.85
1014.222	2096.15
1014.514	2084.62
1014.807	2076.94
1015.099	2025.86
1015.391	2047.79
1015.683	2009.59
1015.976	2037.84
1016.268	1988.13
1016.56	1965.98
1016.851	1978.18
1017.143	1944.74
1017.435	1946.54
1017.727	1935.02
1018.018	1924.4
1018.31	1924.17
1018.602	1888.02
1018.893	1887.79
1019.185	1864.29
1019.476	1856.6
1019.767	1855.25
1020.058	1835.81
1020.35	1812.76
1020.641	1807.11
1020.932	1781.58
1021.223	1766.44
1021.514	1763.95
1021.804	1729.6
1022.095	1718.98
1022.386	1735.03
1022.677	1721.69
1022.967	1686.66
1023.258	1716.27
1023.548	1706.78
1023.839	1681.02
1024.129	1667.23
1024.419	1639.89
1024.709	1645.99
1025	1630.85
1025.29	1604.63
1025.58	1575.48
1025.87	1566.89
1026.16	1561.7
1026.449	1564.86
1026.739	1564.86
1027.029	1556.95
1027.319	1555.82
1027.608	1525.76
1027.898	1493.68
1028.187	1511.08
1028.477	1499.78
1028.766	1481.25
1029.055	1469.27
1029.344	1427.24
1029.634	1482.38
1029.923	1436.5
1030.212	1412.77
1030.501	1417.75
1030.79	1409.38
1031.078	1412.77
1031.367	1393.79
1031.656	1372.77
1031.945	1352.44
1032.233	1349.5
1032.522	1350.18
1032.81	1338.2
1033.099	1333.68
1033.387	1333.23
1033.675	1326.22
1033.963	1308.82
1034.251	1313.12
1034.54	1310.86
1034.828	1285.77
1035.116	1265.43
1035.403	1282.16
1035.691	1239.67
1035.979	1257.75
1036.267	1230.18
1036.554	1223.63
1036.842	1210.97
1037.129	1228.6
1037.417	1202.38
1037.704	1217.75
1037.992	1186.11
1038.279	1185.89
1038.566	1188.82
1038.853	1188.82
1039.14	1188.82
