Data from white_wall_FLMS001491_086.txt Node
Date: Tue Feb 07 11:06:02 GMT 2017
User: dcchb
Spectrometer: FLMS00149
Trigger mode: 0
Integration Time (sec): 2.000000E-2
Scans to average: 10
Electric dark correction enabled: true
Nonlinearity correction enabled: false
Boxcar width: 0
XAxis mode: Wavelengths
Number of Pixels in Spectrum: 2048
>>>>>Begin Spectral Data<<<<<
341.393	-26.09
341.776	-26.09
342.16	-26.09
342.543	-43.71
342.927	-49.82
343.31	-79.19
343.693	-80.1
344.077	-88.46
344.46	-51.4
344.843	-48.69
345.226	-30.61
345.61	-39.87
345.993	-12.53
346.376	7.13
346.759	11.65
347.142	19.34
347.525	62.72
347.908	45.32
348.291	74.02
348.674	93.46
349.057	117.19
349.44	137.3
349.823	156.28
350.206	147.47
350.588	226.56
350.971	227.47
351.354	231.99
351.737	259.78
352.119	275.15
352.502	284.64
352.884	300.91
353.267	308.59
353.65	315.6
354.032	335.26
354.414	331.87
354.797	334.36
355.179	348.14
355.562	345.2
355.944	347.24
356.326	357.86
356.709	357.63
357.091	344.98
357.473	374.35
357.855	375.71
358.238	379.33
358.62	378.42
359.002	380.46
359.384	359.67
359.766	368.48
360.148	351.98
360.53	369.61
360.912	344.3
361.294	373.9
361.676	370.74
362.057	382.26
362.439	365.77
362.821	361.02
363.203	375.94
363.584	362.83
363.966	388.14
364.348	359.67
364.729	370.51
365.111	361.02
365.493	360.34
365.874	375.48
366.256	344.07
366.637	346.78
367.019	351.76
367.4	331.64
367.781	357.86
368.163	358.54
368.544	333.68
368.925	335.03
369.306	356.95
369.688	351.08
370.069	345.2
370.45	351.76
370.831	330.51
371.212	366.45
371.593	372.55
371.974	362.83
372.355	356.28
372.736	356.73
373.117	386.56
373.498	343.62
373.879	344.75
374.26	355.82
374.641	360.12
375.021	357.63
375.402	354.69
375.783	347.91
376.163	381.81
376.544	366.22
376.925	363.28
377.305	361.47
377.686	373.68
378.066	381.36
378.447	379.55
378.827	363.73
379.208	389.04
379.588	391.53
379.968	385.2
380.349	402.6
380.729	399.89
381.109	404.18
381.489	368.7
381.87	397.86
382.25	389.5
382.63	402.83
383.01	402.6
383.39	393.56
383.77	393.11
384.15	392.89
384.53	411.64
384.91	423.39
385.29	416.84
385.67	410.96
386.049	406.67
386.429	423.17
386.809	441.7
387.189	427.23
387.568	444.86
387.948	449.61
388.328	453.22
388.707	447.57
389.087	462.26
389.466	460.68
389.846	458.42
390.225	440.12
390.605	473.56
390.984	467.69
391.363	468.14
391.743	490.96
392.122	514.69
392.501	518.76
392.881	514.92
393.26	512.2
393.639	526.21
394.018	524.18
394.397	549.72
394.776	528.47
395.155	564.63
395.534	543.62
395.913	565.54
396.292	585.2
396.671	583.39
397.05	611.18
397.429	598.98
397.808	615.93
398.186	646.44
398.565	628.36
398.944	638.53
399.323	653.9
399.701	666.32
400.08	680.11
400.458	692.99
400.837	691.18
401.215	695.25
401.594	711.29
401.972	731.63
402.351	748.36
402.729	754.46
403.107	773.89
403.486	770.95
403.864	782.25
404.242	810.95
404.62	832.42
404.999	842.59
405.377	865.64
405.755	877.62
406.133	902.25
406.511	918.07
406.889	929.37
407.267	920.33
407.645	943.15
408.023	979.08
408.401	1016.6
408.779	1018.63
409.156	1030.16
409.534	1062.02
409.912	1082.36
410.29	1075.13
410.667	1109.93
411.045	1113.54
411.422	1170.49
411.8	1152.19
412.178	1182.69
412.555	1188.8
412.933	1230.38
413.31	1245.97
413.687	1263.37
414.065	1247.55
414.442	1290.49
414.819	1271.05
415.197	1332.3
415.574	1345.18
415.951	1357.15
416.328	1374.55
416.705	1389.47
417.082	1393.08
417.46	1409.81
417.837	1447.55
418.214	1469.47
418.591	1460.65
418.967	1480.31
419.344	1484.38
419.721	1501.1
420.098	1540.65
420.475	1545.85
420.852	1571.39
421.228	1594.66
421.605	1617.26
421.982	1617.26
422.358	1650.71
422.735	1646.41
423.111	1672.4
423.488	1707.88
423.864	1697.71
424.241	1702.91
424.617	1755.79
424.994	1802.11
425.37	1795.11
425.746	1791.27
426.123	1842.11
426.499	1835.56
426.875	1862.9
427.251	1922.11
427.627	1936.8
428.003	1960.08
428.379	2024.25
428.756	2016.35
429.132	2054.99
429.507	2078.04
429.883	2109.9
430.259	2148.09
430.635	2135.21
431.011	2147.19
431.387	2245.04
431.763	2265.6
432.138	2260.18
432.514	2291.82
432.89	2343.12
433.265	2379.73
433.641	2386.51
434.016	2413.85
434.392	2471.25
434.767	2506.05
435.143	2529.1
435.518	2556.9
435.894	2577.23
436.269	2637.8
436.644	2659.04
437.02	2665.82
437.395	2692.94
437.77	2728.19
438.145	2760.28
438.52	2784.69
438.895	2776.33
439.271	2846.83
439.646	2898.81
440.021	2925.93
440.395	2909.43
440.77	2932.25
441.145	2939.94
441.52	3009.99
441.895	3042.08
442.27	3074.62
442.645	3102.19
443.019	3077.79
443.394	3127.28
443.769	3155.07
444.143	3165.02
444.518	3259.93
444.892	3211.34
445.267	3227.61
445.641	3292.7
446.016	3286.37
446.39	3341.96
446.764	3331.11
447.139	3306.03
447.513	3397.78
447.887	3394.61
448.262	3423.77
448.636	3447.04
449.01	3482.97
449.384	3544.89
449.758	3554.61
450.132	3613.14
450.506	3636.19
450.88	3685
451.254	3674.61
451.628	3695.62
452.002	3757.32
452.376	3817.43
452.75	3840.25
453.123	3890.42
453.497	3983.98
453.871	4009.74
454.244	4025.78
454.618	4093.58
454.992	4136.06
455.365	4186.01
455.739	4291.31
456.112	4303.52
456.486	4360.92
456.859	4371.99
457.232	4451.31
457.606	4444.3
457.979	4536.51
458.352	4655.82
458.725	4695.14
459.099	4790.28
459.472	4832.09
459.845	4874.8
460.218	4901.69
460.591	4985.31
460.964	5020.11
461.337	5139.65
461.71	5239.09
462.083	5262.36
462.456	5301
462.829	5341.23
463.201	5421.68
463.574	5451.96
463.947	5558.63
464.32	5705.97
464.692	5730.15
465.065	5727.21
465.438	5830.48
465.81	5954.55
466.183	5979.18
466.555	6152.96
466.928	6136.01
467.3	6210.81
467.672	6329.9
468.045	6461.65
468.417	6441.77
468.789	6539.16
469.161	6640.18
469.534	6775.32
469.906	6931.24
470.278	6998.36
470.65	7046.72
471.022	7191.8
471.394	7346.15
471.766	7367.62
472.138	7542.53
472.51	7638.8
472.882	7771.45
473.253	7831.33
473.625	7966.7
473.997	8169.63
474.369	8243.3
474.74	8393.35
475.112	8530.3
475.484	8627.47
475.855	8816.84
476.227	8857.97
476.598	9157.85
476.97	9204.4
477.341	9447.56
477.713	9580.44
478.084	9645.75
478.455	9857.72
478.827	10009.13
479.198	10283.92
479.569	10312.85
479.94	10622.67
480.311	10720.75
480.682	10969.56
481.053	11178.36
481.424	11396.89
481.795	11514.63
482.166	11758.91
482.537	11931.79
482.908	12115.06
483.279	12330.2
483.65	12550.31
484.021	12699
484.391	12888.38
484.762	13056.28
485.133	13148.48
485.503	13357.74
485.874	13636.83
486.244	13730.61
486.615	14062.36
486.985	14226.87
487.356	14533.08
487.726	14589.57
488.097	14871.37
488.467	14968.1
488.837	15349.33
489.207	15583.22
489.578	15750.22
489.948	15887.17
490.318	16167.61
490.688	16227.27
491.058	16436.53
491.428	16658.67
491.798	16927.82
492.168	17243.52
492.538	17300.01
492.908	17659.1
493.278	17718.76
493.648	17829.04
494.017	18140.44
494.387	18301.57
494.757	18481.9
495.126	18642.57
495.496	18669.24
495.866	18867.65
496.235	19092.51
496.605	19250.92
496.974	19377.24
497.344	19629.44
497.713	19653.62
498.082	19859.94
498.452	20030.79
498.821	20193.27
499.19	20269.65
499.559	20581.51
499.928	20663.99
500.298	20880.26
500.667	20987.15
501.036	21146.24
501.405	21230.08
501.774	21235.5
502.143	21507.81
502.512	21795.03
502.88	21933.34
503.249	21974.24
503.618	22235.25
503.987	22366.77
504.356	22444.06
504.724	22682.92
505.093	22744.61
505.462	22822.58
505.83	23096.02
506.199	23330.14
506.567	23552.5
506.936	23502.79
507.304	23839.73
507.672	23931.93
508.041	24092.83
508.409	24378.7
508.777	24551.12
509.145	24668.41
509.514	24822.98
509.882	25065
510.25	25200.37
510.618	25248.28
510.986	25462.06
511.354	25769.85
511.722	25998.09
512.09	26144.07
512.458	26148.37
512.826	26438.98
513.193	26685.08
513.561	26644.62
513.929	26963.94
514.297	27217.26
514.664	27449.8
515.032	27558.27
515.4	27672.39
515.767	27843.24
516.135	28080.07
516.502	27971.6
516.869	28500.17
517.237	28635.08
517.604	28614.97
517.972	29034.84
518.339	29171.34
518.706	29236.42
519.073	29463.53
519.44	29816.29
519.808	30015.16
520.175	30068.49
520.542	30350.74
520.909	30577.18
521.276	30621.69
521.643	31027.56
522.009	31312.98
522.376	31473.88
522.743	31627.54
523.11	32032.73
523.477	32176.91
523.843	32394.08
524.21	32938.24
524.577	32835.42
524.943	33165.13
525.31	33280.61
525.676	33642.86
526.043	33887.6
526.409	33948.39
526.776	34350.41
527.142	34500.69
527.508	34654.13
527.874	34992.65
528.241	35199.88
528.607	35353.1
528.973	35733.2
529.339	35671.51
529.705	35981.78
530.071	36317.82
530.437	36517.36
530.803	36723.46
531.169	36894.3
531.535	36812.04
531.901	37095.2
532.267	37190.79
532.632	37443.66
532.998	37576.99
533.364	37780.6
533.73	37893.14
534.095	38334.26
534.461	38416.07
534.826	38425.56
535.192	38754.14
535.557	38987.8
535.923	38968.59
536.288	39162.94
536.653	39404.06
537.019	39311.86
537.384	39513.44
537.749	39638.86
538.114	39811.74
538.479	39954.1
538.845	40112.07
539.21	40100.54
539.575	40423.47
539.94	40509.12
540.305	40735.78
540.67	40759.06
541.034	40985.26
541.399	41166.05
541.764	41246.73
542.129	41584.34
542.494	41559.26
542.858	41731.01
543.223	41887.84
543.587	42169.41
543.952	42193.14
544.316	42286.7
544.681	42408.05
545.045	42632.45
545.41	42881.94
545.774	42936.63
546.138	43058.88
546.503	43166.45
546.867	43155.6
547.231	43596.72
547.595	43717.17
547.959	43740.67
548.324	43874
548.688	44059.76
549.052	44269.02
549.416	44414.78
549.779	44493.87
550.143	44749.01
550.507	44945.39
550.871	45056.34
551.235	44975.44
551.599	45374.75
551.962	45497.46
552.326	45568.42
552.689	45824.46
553.053	45760.73
553.417	45959.6
553.78	46418.57
554.143	46358.91
554.507	46686.58
554.87	46727.71
555.234	47241.82
555.597	46997.54
555.96	47183.75
556.323	47419.22
556.686	47496.28
557.05	47851.52
557.413	47977.85
557.776	47985.53
558.139	48323.38
558.502	48519.98
558.865	48598.4
559.228	48856.7
559.59	48938.5
559.953	48971.04
560.316	49413.52
560.679	49347.98
561.041	49639.27
561.404	49853.96
561.767	50010.79
562.129	49825.03
562.492	50413.49
562.854	50383.89
563.217	50436.09
563.579	50569.19
563.941	50867.94
564.304	50992.01
564.666	51185.45
565.028	51305.67
565.39	51485.33
565.753	51667.24
566.115	51618.2
566.477	51901.36
566.839	51954.47
567.201	52194.46
567.563	52151.52
567.925	52358.75
568.287	52447.56
568.648	52510.84
569.01	52728.91
569.372	52902.01
569.734	52884.39
570.095	53072.18
570.457	53184.72
570.819	53237.82
571.18	53194.21
571.542	53410.47
571.903	53478.04
572.265	53595.1
572.626	53645.95
572.987	53696.12
573.349	53819.95
573.71	53898.82
574.071	53988.09
574.432	54036.9
574.794	54354.63
575.155	54272.15
575.516	54205.03
575.877	54355.08
576.238	54354.86
576.599	54468.75
576.96	54588.07
577.32	54515.53
577.681	54517.79
578.042	54633.04
578.403	54701.74
578.763	54677.56
579.124	54706.49
579.485	54836.88
579.845	54902.41
580.206	54934.73
580.566	54837.56
580.927	54912.81
581.287	54969.76
581.648	54959.81
582.008	55082.97
582.368	54975.4
582.728	55099.47
583.089	54968.4
583.449	55120.49
583.809	55072.13
584.169	55152.58
584.529	55090.43
584.889	55272.57
585.249	55024.89
585.609	55042.07
585.969	55219.24
586.329	55151.22
586.688	55271.67
587.048	55252.23
587.408	55149.86
587.768	55139.69
588.127	55183.76
588.487	55128.4
588.846	55368.61
589.206	55186.7
589.565	55207.49
589.925	55279.35
590.284	55259.01
590.643	55304.89
591.003	55360.25
591.362	55402.06
591.721	55361.16
592.08	55325
592.44	55458.33
592.799	55444.32
593.158	55316.41
593.517	55363.64
593.876	55409.29
594.235	55420.36
594.593	55427.37
594.952	55445.45
595.311	55288.16
595.67	55465.34
596.029	55551.89
596.387	55460.14
596.746	55627.37
597.104	55474.15
597.463	55485.67
597.822	55522.51
598.18	55523.19
598.538	55470.53
598.897	55636.18
599.255	55428.95
599.613	55838.43
599.972	55732.9
600.33	55787.36
600.688	55649.74
601.046	55775.84
601.404	55904.42
601.762	55794.14
602.12	55914.59
602.478	55835.04
602.836	55870.75
603.194	55732.67
603.552	55822.39
603.91	55795.04
604.268	55922.05
604.625	55886.79
604.983	56002.72
605.341	55877.75
605.698	56009.05
606.056	56064.42
606.413	56016.06
606.771	56106
607.128	56098.31
607.485	56071.42
607.843	56109.39
608.2	56292.43
608.557	56288.59
608.914	56295.14
609.272	56329.49
609.629	56359.55
609.986	56502.14
610.343	56274.58
610.7	56636.15
611.057	56441.35
611.414	56464.18
611.771	56455.37
612.127	56595.7
612.484	56576.04
612.841	56695.36
613.198	56619.66
613.554	56654.23
613.911	56715.7
614.267	56761.12
614.624	56613.55
614.98	56769.71
615.337	56854.9
615.693	56823.72
616.05	56732.87
616.406	56891.06
616.762	56825.3
617.118	56829.37
617.475	56852.42
617.831	56903.04
618.187	56975.13
618.543	57012.87
618.899	57117.95
619.255	57067.33
619.611	57067.55
619.967	57243.14
620.323	57179.87
620.678	57077.5
621.034	57075.69
621.39	57085.18
621.746	57039.08
622.101	57317.04
622.457	57147.55
622.812	57196.14
623.168	57225.52
623.523	57209.02
623.879	57339.86
624.234	57139.87
624.589	57254.89
624.945	57184.39
625.3	57229.13
625.655	57243.37
626.01	57258.06
626.365	57245.18
626.72	57230.03
627.075	57220.32
627.43	57172.86
627.785	57106.42
628.14	57162.01
628.495	57182.8
628.85	57193.43
629.205	57115.69
629.559	57222.58
629.914	57117.27
630.269	57097.83
630.623	57134.67
630.978	57051.96
631.332	57115.46
631.687	57159.75
632.041	57001.79
632.396	57080.43
632.75	56990.72
633.104	56968.35
633.459	56829.59
633.813	56923.38
634.167	56882.93
634.521	56871.17
634.875	56840.89
635.229	56834.79
635.583	56636.15
635.937	56720.9
636.291	56725.42
636.645	56695.81
636.999	56680.9
637.352	56776.04
637.706	56568.36
638.06	56732.42
638.413	56618.53
638.767	56522.71
639.121	56561.35
639.474	56396.61
639.828	56519.32
640.181	56439.1
640.534	56463.28
640.888	56381.47
641.241	56240.46
641.594	56287.01
641.947	56437.97
642.301	56224.19
642.654	56256.5
643.007	56315.26
643.36	56176.73
643.713	56216.73
644.066	56299.66
644.419	56014.93
644.771	55917.07
645.124	55656.06
645.477	55595.95
645.83	55445.45
646.182	55359.35
646.535	55307.6
646.888	55302.4
647.24	55148.51
647.593	55297.88
647.945	55202.52
648.298	55110.32
648.65	54966.37
649.002	54868.06
649.355	55044.56
649.707	55074.39
650.059	55160.26
650.411	55440.7
650.763	55471.89
651.115	55749.62
651.467	55701.26
651.819	55657.19
652.171	55473.47
652.523	55518.67
652.875	55525.45
653.227	55364.55
653.578	55540.59
653.93	55415.39
654.282	55282.29
654.633	55287.49
654.985	55326.81
655.337	55316.41
655.688	55374.04
656.039	55362.97
656.391	55159.58
656.742	55156.64
657.094	55206.13
657.445	55252.46
657.796	55146.47
658.147	55137.89
658.498	55170.88
658.849	55154.84
659.2	55170.43
659.551	55043.65
659.902	55188.28
660.253	55095.18
660.604	55168.17
660.955	54983.09
661.306	55168.62
661.656	54997.33
662.007	54979.47
662.358	55023.77
662.708	54963.2
663.059	54879.81
663.409	54716.2
663.76	54989.42
664.11	54941.51
664.461	54987.61
664.811	54982.18
665.161	54872.58
665.511	54745.13
665.862	54816.31
666.212	54881.62
666.562	54943.09
666.912	54838.01
667.262	54762.3
667.612	54769.31
667.962	54779.93
668.312	54693.6
668.662	54906.25
669.011	54790.32
669.361	54706.49
669.711	54668.07
670.06	54687.28
670.41	54605.02
670.76	54532.25
671.109	54603.21
671.459	54602.08
671.808	54498.36
672.157	54591.91
672.507	54358.02
672.856	54360.51
673.205	54414.29
673.554	54389.66
673.904	54330.45
674.253	54449.32
674.602	54350.34
674.951	54016.79
675.3	53809.11
675.649	54292.71
675.998	54198.48
676.346	54238.25
676.695	54292.94
677.044	54079.84
677.393	54133.39
677.741	54224.69
678.09	54044.58
678.438	53981.31
678.787	54037.12
679.135	54033.73
679.484	53845.49
679.832	53913.29
680.181	53793.97
680.529	53957.13
680.877	53866.28
681.225	53694.08
681.573	53947.86
681.922	53680.75
682.27	53629.9
682.618	53653.86
682.966	53494.09
683.314	53530.25
683.661	53498.38
684.009	53339.06
684.357	53271.72
684.705	53183.59
685.053	53299.06
685.4	53235.34
685.748	53012.52
686.095	53030.37
686.443	52906.76
686.79	52771.62
687.138	52895.23
687.485	52852.97
687.832	52648.46
688.18	52795.58
688.527	52584.06
688.874	52465.19
689.221	52388.13
689.568	52335.7
689.915	52252.76
690.262	52268.36
690.609	52176.38
690.956	51991.75
691.303	52032.21
691.65	51914.24
691.997	51835.15
692.344	51638.77
692.69	51622.95
693.037	51741.37
693.383	51394.26
693.73	51516.74
694.077	51196.07
694.423	51227.71
694.769	51126.92
695.116	51046.02
695.462	51100.93
695.808	50835.17
696.155	50985
696.501	50738
696.847	50742.97
697.193	50413.94
697.539	50584.56
697.885	50374.85
698.231	50234.51
698.577	50267.96
698.923	50204.23
699.269	49924.24
699.614	49797.91
699.96	49712.04
700.306	49636.11
700.651	49486.06
700.997	49484.02
701.342	49419.39
701.688	49329.23
702.033	49281.32
702.379	49207.19
702.724	49079.97
703.069	49196.35
703.415	48738.05
703.76	48718.85
704.105	48633.42
704.45	48487.89
704.795	48431.17
705.14	48358.86
705.485	48264.85
705.83	48199.54
706.175	48216.94
706.52	48177.17
706.865	47893.33
707.209	47995.7
707.554	47772.88
707.899	47789.38
708.243	47600.68
708.588	47559.78
708.932	47345.1
709.277	47348.49
709.621	47411.99
709.966	47013.81
710.31	47213.57
710.654	46868.05
710.998	46895.17
711.342	46878.89
711.687	46863.3
712.031	46680.71
712.375	46379.25
712.719	46639.13
713.063	46409.53
713.407	46422.18
713.75	46242.98
714.094	46244.33
714.438	46185.81
714.782	46150.1
715.125	45911.46
715.469	45977.68
715.812	45667.63
716.156	45452.27
716.499	45569.1
716.843	45674.41
717.186	45346.28
717.53	45588.53
717.873	45403.91
718.216	45341.99
718.559	45243.91
718.902	44944.26
719.246	45034.2
719.589	44847.99
719.932	44682.57
720.275	44735.67
720.617	44730.7
720.96	44593.3
721.303	44661.78
721.646	44513.53
721.989	44423.37
722.331	44278.51
722.674	44319.64
723.016	44284.84
723.359	44191.28
723.701	44135.92
724.044	43991.29
724.386	43832.65
724.729	44069.25
725.071	43860.22
725.413	43861.8
725.755	43862.25
726.097	43654.35
726.439	43435.37
726.782	43513.11
727.124	43688.47
727.465	43402.83
727.807	43397.63
728.149	43369.61
728.491	43055.94
728.833	43318.99
729.175	43066.34
729.516	42848.72
729.858	42958.55
730.199	42907.93
730.541	42769.4
730.882	42699.12
731.224	42891.43
731.565	42513.59
731.906	42560.14
732.248	42513.59
732.589	42220.03
732.93	42152.01
733.271	42294.61
733.612	42281.28
733.953	42263.2
734.294	41913.38
734.635	41828.41
734.976	41966.93
735.317	41723.1
735.658	41770.1
735.999	41766.03
736.339	41589.54
736.68	41738.24
737.021	41496.21
737.361	41323.56
737.702	41600.62
738.042	41517.45
738.383	41337.35
738.723	41394.52
739.063	41133.96
739.404	41278.36
739.744	41180.97
740.084	40955.66
740.424	41153.4
740.764	40807.42
741.104	41006.73
741.444	40761.99
741.784	40756.34
742.124	40771.48
742.464	40725.16
742.804	40692.84
743.143	40581.21
743.483	40466.63
743.823	40292.63
744.162	40265.51
744.502	40492.17
744.841	40177.83
745.181	40263.25
745.52	40110.71
745.86	40156.13
746.199	40044.72
746.538	39949.59
746.877	39994.33
747.216	39920.66
747.556	39813.09
747.895	39860.55
748.234	39467.34
748.573	39487.9
748.911	39498.3
749.25	39575.58
749.589	39283.39
749.928	39393.22
750.267	39368.36
750.605	39305.76
750.944	39216.27
751.283	39028.48
751.621	39187.12
751.96	38849.5
752.298	38841.14
752.636	38905.32
752.975	38605.67
753.313	38456.52
753.651	38803.85
753.989	38428.72
754.327	38398.21
754.666	38334.26
755.004	38419.46
755.342	38309.18
755.679	38028.96
756.017	37860.6
756.355	38059.01
756.693	37762.52
757.031	37831.67
757.368	37579.03
757.706	37543.77
758.044	37508.07
758.381	37400.95
758.719	37243.89
759.056	37352.59
759.394	37332.25
759.731	37042.99
760.068	36861.76
760.405	36674.19
760.743	36739.5
761.08	36697.24
761.417	36481.65
761.754	36414.99
762.091	36348.1
762.428	36146.75
762.765	36044.38
763.102	36169.8
763.438	35818.17
763.775	35793.31
764.112	35737.72
764.449	35724.39
764.785	35521.9
765.122	35282.36
765.458	35223.61
765.795	35190.16
766.131	35146.1
766.467	35080.33
766.804	34900.45
767.14	34730.29
767.476	34715.6
767.812	34534.36
768.148	34479.45
768.485	34317.42
768.821	34238.77
769.157	34146.57
769.492	33983.64
769.828	33976.18
770.164	33570.77
770.5	33579.58
770.836	33579.36
771.171	33344.56
771.507	33239.03
771.842	32996.55
772.178	33113.61
772.513	32980.28
772.849	32833.61
773.184	32767.18
773.519	32727.63
773.855	32434.08
774.19	32411.03
774.525	32406.05
774.86	32290.35
775.195	32234.31
775.53	31991.15
775.865	31844.71
776.2	31581.67
776.535	31524.5
776.87	31496.02
777.205	31309.13
777.539	31216.48
777.874	31194.34
778.209	31005.41
778.543	30933.78
778.878	30779.2
779.212	30768.81
779.547	30536.73
779.881	30723.16
780.215	30456.05
780.55	30422.15
780.884	30165.66
781.218	30045.44
781.552	30065.33
781.886	30008.6
782.22	29793.69
782.554	29677.54
782.888	29388.28
783.222	29367.94
783.556	29278.45
783.889	29058.57
784.223	28944.22
784.557	28890.67
784.89	28859.26
785.224	28789.2
785.557	28554.4
785.891	28562.77
786.224	28502.65
786.558	28468.31
786.891	28210.68
787.224	28271.93
787.557	27968.66
787.891	27907.42
788.224	27881.2
788.557	27908.32
788.89	27609.12
789.223	27801.66
789.556	27540.19
789.888	27491.83
790.221	27317.15
790.554	27146.08
790.887	27182.69
791.219	27061.34
791.552	26984.95
791.884	26874.45
792.217	26860.44
792.549	26680.56
792.882	26533.21
793.214	26410.28
793.546	26448.7
793.879	26250.96
794.211	26130.51
794.543	26241.47
794.875	26100.46
795.207	26040.57
795.539	25947.24
795.871	25898.43
796.203	25636.97
796.535	25595.39
796.867	25573.47
797.198	25344.77
797.53	25403.75
797.862	25207.15
798.193	25236.07
798.525	25104.55
798.856	25086.25
799.188	24811.23
799.519	24821.85
799.85	24629.31
800.182	24700.95
800.513	24642.19
800.844	24453.72
801.175	24597.67
801.506	24383.67
801.837	24419.15
802.168	24333.5
802.499	24125.59
802.83	24093.05
803.161	24037.91
803.491	24012.6
803.822	23988.87
804.153	23938.48
804.483	23687.41
804.814	23662.78
805.145	23539.17
805.475	23643.57
805.805	23488.32
806.136	23420.3
806.466	23431.38
806.796	23295.11
807.126	23049.01
807.457	23168.33
807.787	23247.2
808.117	23106.64
808.447	22927.21
808.777	22982.12
809.107	22836.36
809.436	22743.26
809.766	22657.61
810.096	22645.63
810.426	22630.49
810.755	22572.19
811.085	22471.17
811.414	22531.51
811.744	22241.58
812.073	22235.7
812.403	22351.4
812.732	22039.32
813.061	22188.47
813.39	21970.62
813.719	21889.5
814.049	22008.81
814.378	21946.89
814.707	21883.85
815.036	21854.92
815.365	21734.47
815.693	21644.53
816.022	21562.27
816.351	21466.23
816.68	21364.99
817.008	21407.47
817.337	21217.2
817.665	21214.26
817.994	21331.54
818.322	21223.07
818.651	21104.66
818.979	21013.59
819.307	21132.68
819.636	21036.18
819.964	20893.36
820.292	21003.64
820.62	20899.69
820.948	20840.48
821.276	20971.1
821.604	20884.78
821.932	20841.39
822.259	20934.04
822.587	20812.69
822.915	20766.81
823.243	20773.14
823.57	20723.42
823.898	20783.54
824.225	20703.99
824.553	20700.6
824.88	20727.49
825.207	20780.15
825.535	20681.17
825.862	20797.09
826.189	20775.85
826.516	20799.58
826.843	20788.96
827.17	20776.08
827.497	20755.06
827.824	20688.4
828.151	20802.29
828.478	20692.01
828.805	20823.53
829.131	20654.05
829.458	20704.22
829.785	20634.84
830.111	20576.31
830.438	20802.74
830.764	20730.2
831.09	20707.38
831.417	20508.51
831.743	20689.98
832.069	20652.69
832.395	20482.98
832.722	20643.2
833.048	20527.5
833.374	20618.57
833.7	20336.32
834.026	20531.11
834.351	20437.78
834.677	20472.13
835.003	20547.61
835.329	20475.97
835.654	20357.78
835.98	20355.3
836.306	20344.9
836.631	20284.34
836.956	20358.24
837.282	20300.16
837.607	20097.68
837.932	20161.4
838.258	20132.48
838.583	20053.39
838.908	20067.85
839.233	20038.02
839.558	19945.14
839.883	19910.79
840.208	19893.39
840.533	19955.76
840.858	19921.86
841.182	19805.71
841.507	19849.1
841.832	19655.43
842.156	19698.37
842.481	19664.92
842.805	19599.16
843.13	19540.18
843.454	19479.39
843.778	19486.85
844.103	19452.05
844.427	19398.04
844.751	19338.83
845.075	19329.56
845.399	19199.62
845.723	19076.24
846.047	19095.67
846.371	18874.66
846.695	18949.91
847.019	18767.32
847.343	18736.36
847.666	18551.73
847.99	18495.69
848.313	18554.67
848.637	18419.98
848.96	18399.87
849.284	18357.38
849.607	18276.93
849.931	18074
850.254	18063.83
850.577	17929.37
850.9	17898.19
851.223	17787.68
851.546	17758.76
851.869	17616.61
852.192	17712.2
852.515	17525.99
852.838	17450.06
853.161	17417.75
853.483	17392.21
853.806	17403.74
854.129	17364.87
854.451	17212.33
854.774	17159.45
855.096	17045.1
855.419	17075.38
855.741	17017.31
856.063	16921.26
856.385	16895.28
856.708	16750.65
857.03	16752.68
857.352	16772.34
857.674	16648.73
857.996	16608.5
858.318	16454.84
858.64	16570.31
858.961	16531.67
859.283	16509.07
859.605	16356.31
859.926	16307.72
860.248	16206.48
860.57	16190.44
860.891	16174.39
861.212	16109.99
861.534	16044.45
861.855	16060.5
862.176	16166.26
862.498	16070.21
862.819	16194.28
863.14	15935.53
863.461	15911.8
863.782	15862.31
864.103	15895.3
864.424	15795.42
864.745	15913.16
865.065	15667.51
865.386	15662.31
865.707	15614.41
866.027	15612.37
866.348	15657.12
866.668	15631.58
866.989	15472.94
867.309	15401.98
867.63	15563.11
867.95	15441.53
868.27	15402.89
868.59	15382.77
868.91	15399.04
869.23	15305.26
869.55	15285.6
869.87	15300.97
870.19	15265.04
870.51	15346.84
870.83	15333.28
871.15	15137.36
871.469	15198.15
871.789	15246.05
872.109	15130.12
872.428	15090.58
872.748	15076.34
873.067	15093.52
873.386	15046.74
873.706	15042.9
874.025	14975.78
874.344	14926.51
874.663	14926.06
874.982	14926.51
875.301	14887.42
875.62	14893.29
875.939	14853.07
876.258	14877.48
876.577	14792.96
876.896	14713.86
877.214	14733.3
877.533	14725.84
877.852	14712.28
878.17	14722.68
878.489	14645.62
878.807	14681.32
879.125	14717.48
879.444	14586.41
879.762	14500.76
880.08	14601.78
880.398	14584.6
880.716	14495.11
881.034	14489.46
881.352	14385.74
881.67	14357.04
881.988	14408.79
882.306	14443.36
882.624	14397.26
882.941	14293.76
883.259	14228.45
883.577	14222.13
883.894	14245.63
884.212	14086.99
884.529	14128.8
884.846	14056.93
885.164	13985.52
885.481	13904.17
885.798	14012.19
886.115	13926.31
886.432	13848.8
886.75	13852.19
887.067	13962.7
887.383	13849.71
887.7	13806.09
888.017	13711.18
888.334	13687
888.651	13650.62
888.967	13647.9
889.284	13618.98
889.6	13588.02
889.917	13544.86
890.233	13512.31
890.55	13397.97
890.866	13478.87
891.182	13357.06
891.498	13306.22
891.815	13240.68
892.131	13211.76
892.447	13198.88
892.763	13149.16
893.079	13094.02
893.395	13057.64
893.71	13073.23
894.026	12960.92
894.342	12949.84
894.657	12944.87
894.973	12847.92
895.289	12909.17
895.604	12817.42
895.92	12750.53
896.235	12711.88
896.55	12634.6
896.865	12617.65
897.181	12523.19
897.496	12583.98
897.811	12433.25
898.126	12498.56
898.441	12419.24
898.756	12373.14
899.071	12362.97
899.386	12309.18
899.7	12217.88
900.015	12173.59
900.33	12114.38
900.644	12129.07
900.959	12144.67
901.273	12058.79
901.588	11960.49
901.902	11865.13
902.216	11829.42
902.531	11886.82
902.845	11750.55
903.159	11674.62
903.473	11707.62
903.787	11622.87
904.101	11624.91
904.415	11518.47
904.729	11558.24
905.042	11450
905.356	11449.54
905.67	11379.26
905.984	11347.63
906.297	11308.08
906.611	11251.13
906.924	11295.65
907.237	11229.66
907.551	11121.87
907.864	11071.47
908.177	11046.62
908.491	11020.85
908.804	10940.18
909.117	10894.98
909.43	10806.62
909.743	10794.19
910.056	10768.88
910.368	10755.32
910.681	10697.02
910.994	10650.24
911.307	10704.25
911.619	10517.36
911.932	10546.29
912.244	10453.86
912.557	10433.3
912.869	10302.91
913.181	10329.8
913.494	10273.98
913.806	10214.1
914.118	10227.43
914.43	10156.24
914.742	10077.15
915.054	10036.02
915.366	10015.91
915.678	10016.36
915.99	9905.63
916.302	9858.4
916.613	9820.43
916.925	9795.12
917.236	9825.63
917.548	9788.8
917.859	9699.08
918.171	9623.83
918.482	9590.16
918.794	9517.17
919.105	9502.7
919.416	9453.89
919.727	9398.52
920.038	9418.86
920.349	9341.12
920.66	9336.6
920.971	9295.02
921.282	9223.61
921.593	9181.35
921.903	9115.59
922.214	9146.78
922.525	9044.64
922.835	9008.93
923.146	8965.09
923.456	8969.61
923.767	8886.45
924.077	8927.12
924.387	8857.3
924.697	8818.2
925.008	8805.09
925.318	8745.89
925.628	8698.88
925.938	8727.58
926.248	8670.41
926.558	8570.98
926.867	8624.31
927.177	8543.41
927.487	8545.89
927.796	8424.31
928.106	8466.35
928.416	8446.23
928.725	8267.03
929.034	8277.88
929.344	8261.38
929.653	8283.3
929.962	8197.88
930.271	8174.38
930.581	8141.83
930.89	8104.32
931.199	8026.81
931.508	7959.69
931.817	7958.79
932.125	7963.53
932.434	7951.1
932.743	7850.09
933.051	7843.99
933.36	7824.1
933.669	7752.92
933.977	7783.88
934.286	7749.75
934.594	7677.44
934.902	7625.46
935.21	7583.43
935.519	7575.07
935.827	7531.68
936.135	7504.56
936.443	7468.86
936.751	7385.24
937.059	7343.44
937.367	7277.22
937.674	7378.01
937.982	7234.51
938.29	7263.66
938.597	7239.26
938.905	7127.62
939.213	7119.49
939.52	7123.78
939.827	7084.01
940.135	7087.85
940.442	7022.77
940.749	7059.83
941.056	6986.84
941.363	6962.66
941.67	6889.66
941.977	6903
942.284	6807.86
942.591	6810.12
942.898	6765.82
943.205	6699.61
943.511	6726.28
943.818	6708.88
944.125	6635.43
944.431	6609.22
944.738	6659.39
945.044	6553.63
945.35	6543.23
945.657	6454.87
945.963	6513.4
946.269	6472.95
946.575	6434.99
946.881	6386.85
947.187	6355.44
947.493	6355.89
947.799	6364.48
948.105	6312.28
948.41	6275.89
948.716	6240.64
949.022	6200.42
949.327	6174.88
949.633	6115.45
949.938	6064.83
950.244	6087.88
950.549	6053.75
950.854	6056.92
951.16	5978.28
951.465	5973.53
951.77	5927.65
952.075	5941.67
952.38	5867.32
952.685	5921.33
952.99	5803.59
953.294	5843.59
953.599	5758.62
953.904	5739.19
954.209	5746.87
954.513	5697.83
954.818	5658.96
955.122	5624.39
955.426	5678.62
955.731	5615.57
956.035	5587.1
956.339	5548
956.643	5540.77
956.948	5442.02
957.252	5493.99
957.556	5466.88
957.86	5425.3
958.163	5437.5
958.467	5439.08
958.771	5325.18
959.075	5359.08
959.378	5325.64
959.682	5335.81
959.985	5240.44
960.289	5248.35
960.592	5220.55
960.896	5169.71
961.199	5197.5
961.502	5171.29
961.805	5163.83
962.108	5089.94
962.411	5089.71
962.714	5017.62
963.017	5067.56
963.32	5039.32
963.623	5023.27
963.926	5031.18
964.228	4940.79
964.531	4920.22
964.833	4894.01
965.136	4868.02
965.438	4825.54
965.741	4847.68
966.043	4801.81
966.345	4793.9
966.648	4803.84
966.95	4751.64
967.252	4738.53
967.554	4712.09
967.856	4665.09
968.158	4696.95
968.46	4655.82
968.761	4689.27
969.063	4622.6
969.365	4626.67
969.666	4586.9
969.968	4516.84
970.269	4527.24
970.571	4506
970.872	4531.08
971.174	4452.89
971.475	4445.43
971.776	4438.43
972.077	4437.75
972.378	4421.93
972.679	4397.98
972.98	4337.64
973.281	4329.96
973.582	4346.68
973.883	4305.32
974.183	4249.05
974.484	4221.26
974.785	4206.57
975.085	4243.41
975.386	4208.6
975.686	4158.89
975.986	4095.61
976.287	4143.97
976.587	4086.8
976.887	4111.21
977.187	4108.04
977.487	4115.95
977.787	4012.45
978.087	4011.77
978.387	3986.91
978.687	4000.7
978.987	3991.43
979.286	3945.11
979.586	3977.2
979.885	3880.93
980.185	3935.62
980.484	3892.68
980.784	3851.33
981.083	3854.26
981.382	3851.55
981.682	3838.9
981.981	3783.53
982.28	3762.06
982.579	3739.24
982.878	3771.33
983.177	3738.11
983.475	3707.37
983.774	3678
984.073	3668.96
984.372	3601.61
984.67	3662.86
984.969	3625.12
985.267	3619.47
985.566	3596.42
985.864	3564.55
986.162	3584.67
986.461	3508.51
986.759	3538.11
987.057	3496.53
987.355	3511.22
987.653	3437.32
987.951	3425.57
988.249	3482.3
988.547	3443.43
988.844	3409.75
989.142	3441.62
989.44	3355.97
989.737	3349.64
990.035	3338.57
990.332	3362.52
990.63	3326.14
990.927	3322.07
991.224	3281.62
991.521	3255.63
991.819	3263.09
992.116	3233.49
992.413	3236.65
992.71	3197.78
993.006	3239.14
993.303	3174.05
993.6	3136.32
993.897	3151.23
994.193	3133.15
994.49	3101.06
994.787	3094.28
995.083	3039.82
995.379	3073.94
995.676	3046.83
995.972	3052.48
996.268	3039.6
996.565	2990.78
996.861	2970.22
997.157	2963.21
997.453	2979.71
997.749	2946.49
998.044	2926.6
998.34	2894.74
998.636	2864.46
998.932	2851.13
999.227	2835.53
999.523	2864.46
999.818	2821.97
1000.114	2805.03
1000.409	2807.51
1000.704	2796.66
1001	2763.9
1001.295	2749.43
1001.59	2748.3
1001.885	2713.73
1002.18	2746.72
1002.475	2715.99
1002.77	2692.94
1003.065	2649.1
1003.359	2677.12
1003.654	2633.73
1003.949	2609.1
1004.243	2598.25
1004.538	2570.91
1004.832	2555.09
1005.127	2575.65
1005.421	2545.14
1005.715	2531.59
1006.009	2486.39
1006.304	2501.08
1006.598	2494.75
1006.892	2489.55
1007.186	2445.71
1007.48	2465.15
1007.773	2410.23
1008.067	2449.78
1008.361	2388.76
1008.655	2395.54
1008.948	2378.6
1009.242	2367.97
1009.535	2363
1009.829	2341.76
1010.122	2322.78
1010.415	2285.94
1010.708	2294.53
1011.001	2298.82
1011.295	2275.55
1011.588	2260.41
1011.881	2267.19
1012.173	2223.35
1012.466	2237.13
1012.759	2190.58
1013.052	2229
1013.344	2215.66
1013.637	2148.09
1013.93	2155.78
1014.222	2116.91
1014.514	2118.04
1014.807	2075.1
1015.099	2100.18
1015.391	2087.98
1015.683	2041.66
1015.976	2048.43
1016.268	2041.43
1016.56	2017.7
1016.851	2022.45
1017.143	1983.13
1017.435	2001.43
1017.727	1958.95
1018.018	1979.96
1018.31	1959.85
1018.602	1947.42
1018.893	1900.42
1019.185	1913.52
1019.476	1900.87
1019.767	1883.24
1020.058	1860.42
1020.35	1847.76
1020.641	1848.89
1020.932	1792.85
1021.223	1801.44
1021.514	1796.24
1021.804	1778.84
1022.095	1784.49
1022.386	1796.01
1022.677	1760.08
1022.967	1760.98
1023.258	1718.73
1023.548	1742
1023.839	1708.1
1024.129	1701.1
1024.419	1691.38
1024.709	1632.63
1025	1664.94
1025.29	1634.43
1025.58	1634.66
1025.87	1633.08
1026.16	1597.83
1026.449	1596.24
1026.739	1589.01
1027.029	1563.02
1027.319	1575.45
1027.608	1555.11
1027.898	1568.22
1028.187	1560.31
1028.477	1532.52
1028.766	1519.41
1029.055	1481.9
1029.344	1486.64
1029.634	1467.21
1029.923	1460.88
1030.212	1471.27
1030.501	1451.84
1030.79	1456.81
1031.078	1460.88
1031.367	1425.63
1031.656	1407.55
1031.945	1392.41
1032.233	1391.5
1032.522	1393.54
1032.81	1361.9
1033.099	1351.28
1033.387	1322.58
1033.675	1320.77
1033.963	1350.15
1034.251	1320.54
1034.54	1329.13
1034.828	1319.41
1035.116	1285.07
1035.403	1306.08
1035.691	1268.12
1035.979	1295.69
1036.267	1282.58
1036.554	1220.89
1036.842	1239.42
1037.129	1233.09
1037.417	1204.16
1037.704	1235.35
1037.992	1199.19
1038.279	1187.21
1038.566	1209.81
1038.853	1209.81
1039.14	1209.81
