Data from white_poster_card_FLMS001491_00045.txt Node
Date: Wed Feb 08 11:51:34 GMT 2017
User: dcchb
Spectrometer: FLMS00149
Trigger mode: 0
Integration Time (sec): 2.000000E-2
Scans to average: 10
Electric dark correction enabled: true
Nonlinearity correction enabled: false
Boxcar width: 0
XAxis mode: Wavelengths
Number of Pixels in Spectrum: 2048
>>>>>Begin Spectral Data<<<<<
341.393	-23.83
341.776	-23.83
342.16	-23.83
342.543	-48.01
342.927	-78.51
343.31	-88.23
343.693	-55.01
344.077	-82.81
344.46	-66.09
344.843	-56.59
345.226	-39.65
345.61	-30.38
345.993	-32.64
346.376	-8.01
346.759	15.27
347.142	39.22
347.525	48.49
347.908	68.6
348.291	66.11
348.674	103.63
349.057	118.09
349.44	120.8
349.823	140.01
350.206	165.55
350.588	189.95
350.971	229.05
351.354	235.38
351.737	231.08
352.119	239.89
352.502	252.55
352.884	286.67
353.267	295.94
353.65	284.19
354.032	297.97
354.414	304.75
354.797	305.66
355.179	322.38
355.562	301.14
355.944	345.88
356.326	340.01
356.709	331.19
357.091	322.38
357.473	330.29
357.855	325.54
358.238	330.74
358.62	336.84
359.002	332.77
359.384	334.58
359.766	361.02
360.148	343.62
360.53	343.17
360.912	331.42
361.294	333.23
361.676	334.58
362.057	328.25
362.439	341.81
362.821	322.15
363.203	317.18
363.584	306.11
363.966	344.98
364.348	321.93
364.729	324.64
365.111	314.92
365.493	325.09
365.874	311.31
366.256	314.47
366.637	306.79
367.019	319.44
367.4	321.93
367.781	331.19
368.163	306.33
368.544	317.41
368.925	307.01
369.306	325.77
369.688	317.41
370.069	313.34
370.45	305.2
370.831	315.15
371.212	298.65
371.593	306.79
371.974	306.56
372.355	315.83
372.736	338.42
373.117	331.42
373.498	327.58
373.879	295.71
374.26	303.62
374.641	312.44
375.021	326.22
375.402	330.97
375.783	341.14
376.163	353.56
376.544	310.63
376.925	326.45
377.305	314.92
377.686	329.61
378.066	336.84
378.447	326.45
378.827	326.67
379.208	332.77
379.588	342.49
379.968	336.62
380.349	336.39
380.729	340.01
381.109	333.23
381.489	330.06
381.87	337.29
382.25	343.39
382.63	336.62
383.01	346.56
383.39	354.24
383.77	361.47
384.15	350.17
384.53	351.98
384.91	351.76
385.29	364.19
385.67	332.55
386.049	360.34
386.429	382.94
386.809	385.88
387.189	360.12
387.568	365.77
387.948	364.19
388.328	345.88
388.707	357.63
389.087	368.25
389.466	372.32
389.846	385.65
390.225	361.25
390.605	383.17
390.984	382.26
391.363	389.04
391.743	357.63
392.122	403.28
392.501	414.58
392.881	398.76
393.26	417.52
393.639	403.28
394.018	392.43
394.397	393.79
394.776	394.92
395.155	403.28
395.534	406.67
395.913	395.14
396.292	428.59
396.671	420.23
397.05	438.08
397.429	411.42
397.808	437.86
398.186	440.34
398.565	417.97
398.944	440.79
399.323	430.17
399.701	420.68
400.08	419.78
400.458	447.8
400.837	427.91
401.215	448.48
401.594	432.43
401.972	443.96
402.351	448.93
402.729	457.74
403.107	466.33
403.486	473.79
403.864	471.75
404.242	486.22
404.62	476.95
404.999	483.28
405.377	478.76
405.755	490.06
406.133	476.05
406.511	495.03
406.889	521.47
407.267	514.24
407.645	513.79
408.023	527.57
408.401	531.86
408.779	546.55
409.156	580.9
409.534	559.89
409.912	560.56
410.29	567.12
410.667	580.45
411.045	619.77
411.422	623.61
411.8	618.42
412.178	606.21
412.555	665.42
412.933	660
413.31	678.3
413.687	654.8
414.065	688.47
414.442	695.7
414.819	733.22
415.197	714.91
415.574	748.81
415.951	778.19
416.328	766.89
416.705	792.42
417.082	809.82
417.46	805.98
417.837	852.53
418.214	829.94
418.591	864.51
418.967	878.52
419.344	873.32
419.721	928.46
420.098	909.48
420.475	926.2
420.852	943.61
421.228	960.55
421.605	980.21
421.982	997.84
422.358	988.12
422.735	1027.22
423.111	1036.26
423.488	1065.64
423.864	1055.69
424.241	1080.55
424.617	1078.97
424.994	1100.89
425.37	1131.85
425.746	1126.2
426.123	1127.78
426.499	1164.16
426.875	1154.22
427.251	1195.35
427.627	1233.54
428.003	1231.96
428.379	1228.8
428.756	1265.18
429.132	1288.91
429.507	1285.07
429.883	1308.34
430.259	1328
430.635	1358.74
431.011	1383.59
431.387	1397.15
431.763	1444.38
432.138	1423.82
432.514	1450.94
432.89	1460.2
433.265	1460.88
433.641	1516.7
434.016	1523.93
434.392	1570.03
434.767	1585.4
435.143	1578.84
435.518	1610.71
435.894	1628.33
436.269	1650.25
436.644	1666.07
437.02	1684.6
437.395	1685.51
437.77	1729.12
438.145	1755.34
438.52	1744.04
438.895	1751.04
439.271	1783.81
439.646	1817.03
440.021	1843.02
440.395	1839.17
440.77	1846.86
441.145	1874.88
441.52	1914.2
441.895	1879.17
442.27	1917.82
442.645	1927.53
443.019	1942.67
443.394	1914.88
443.769	1971.15
444.143	1949.91
444.518	1944.93
444.892	1987.19
445.267	1979.06
445.641	1986.52
446.016	2034.65
446.39	2023.35
446.764	2058.15
447.139	2031.94
447.513	2070.13
447.887	2082.56
448.262	2126.85
448.636	2092.05
449.01	2137.92
449.384	2141.31
449.758	2172.27
450.132	2212.72
450.506	2236
450.88	2223.12
451.254	2210.92
451.628	2255.21
452.002	2265.6
452.376	2282.1
452.75	2312.16
453.123	2346.51
453.497	2349.67
453.871	2372.95
454.244	2429.89
454.618	2443
454.992	2500.17
455.365	2490.91
455.739	2515.99
456.112	2549.21
456.486	2594.86
456.859	2631.7
457.232	2642.54
457.606	2640.96
457.979	2670.11
458.352	2730.22
458.725	2747.85
459.099	2797.57
459.472	2828.53
459.845	2858.58
460.218	2870.11
460.591	2906.04
460.964	2856.1
461.337	2971.8
461.71	3033.95
462.083	3024.91
462.456	3112.59
462.829	3088.18
463.201	3113.49
463.574	3168.41
463.947	3198.91
464.32	3243.66
464.692	3277.78
465.065	3300.38
465.438	3337.21
465.81	3374.95
466.183	3392.13
466.555	3470.77
466.928	3477.78
467.3	3508.28
467.672	3532.01
468.045	3671.89
468.417	3619.24
468.789	3656.75
469.161	3739.92
469.534	3806.13
469.906	3871.21
470.278	3915.73
470.65	3958.67
471.022	4030.3
471.394	4107.59
471.766	4099.68
472.138	4182.16
472.51	4237.3
472.882	4335.83
473.253	4366.79
473.625	4414.47
473.997	4510.29
474.369	4573.57
474.74	4579.67
475.112	4687.69
475.484	4696.05
475.855	4796.16
476.227	4790.74
476.598	5002.71
476.97	4995.25
477.341	5129.26
477.713	5191.63
478.084	5215.58
478.455	5369.03
478.827	5361.57
479.198	5519.53
479.569	5538.74
479.94	5667.77
480.311	5750.03
480.682	5876.13
481.053	5990.7
481.424	6082
481.795	6187.08
482.166	6277.02
482.537	6354.54
482.908	6430.47
483.279	6450.35
483.65	6667.52
484.021	6734.41
484.391	6806.28
484.762	6885.6
485.133	6945.71
485.503	7005.59
485.874	7237.9
486.244	7264.79
486.615	7389.09
486.985	7490.55
487.356	7605.12
487.726	7692.35
488.097	7855.06
488.467	7865.23
488.837	8079.69
489.207	8127.6
489.578	8248.72
489.948	8370.53
490.318	8469.28
490.688	8496.63
491.058	8604.42
491.428	8728.71
491.798	8803.29
492.168	9055.93
492.538	9069.49
492.908	9110.62
493.278	9346.1
493.648	9261.8
494.017	9354.23
494.387	9512.65
494.757	9601.91
495.126	9631.51
495.496	9690.27
495.866	9809.13
496.235	9898.4
496.605	9998.28
496.974	10027.89
497.344	10237.15
497.713	10163.7
498.082	10291.16
498.452	10436.46
498.821	10406.86
499.19	10514.43
499.559	10652.95
499.928	10698.83
500.298	10732.05
500.667	10842.33
501.036	10879.39
501.405	11028.99
501.774	10971.36
502.143	11114.41
502.512	11163
502.88	11326.61
503.249	11324.8
503.618	11378.36
503.987	11457.68
504.356	11517.79
504.724	11622.65
505.093	11685.24
505.462	11813.83
505.83	11818.12
506.199	11929.98
506.567	12104.22
506.936	12044.1
507.304	12370.42
507.672	12283.65
508.041	12366.36
508.409	12482.28
508.777	12588.72
509.145	12689.74
509.514	12660.13
509.882	12755.72
510.25	12793.46
510.618	12997.98
510.986	13001.82
511.354	13127.24
511.722	13251.53
512.09	13358.87
512.458	13392.32
512.826	13547.57
513.193	13620.79
513.561	13687.45
513.929	13824.62
514.297	13980.55
514.664	14076.82
515.032	14028.23
515.4	14296.02
515.767	14311.16
516.135	14366.76
516.502	14417.15
516.869	14618.95
517.237	14612.85
517.604	14688.78
517.972	14930.58
518.339	14954.54
518.706	14960.86
519.073	15056.68
519.44	15188.65
519.808	15399.95
520.175	15380.97
520.542	15492.38
520.909	15762.88
521.276	15773.5
521.643	15866.83
522.009	15988.86
522.376	16045.35
522.743	16286.93
523.11	16429.75
523.477	16603.98
523.843	16672.91
524.21	16827.26
524.577	16956.97
524.943	17090.75
525.31	17128.49
525.676	17324.87
526.043	17454.81
526.409	17576.61
526.776	17755.14
527.142	17853.22
527.508	17977.96
527.874	18008.47
528.241	18174.34
528.607	18152.42
528.973	18401.45
529.339	18491.17
529.705	18648.9
530.071	18761.22
530.437	18898.39
530.803	19015.9
531.169	19064.71
531.535	19082.11
531.901	19167.08
532.267	19310.13
532.632	19399.39
532.998	19504.47
533.364	19604.81
533.73	19671.02
534.095	19827.18
534.461	19892.71
534.826	20093.16
535.192	20090.67
535.557	20233.72
535.923	20279.59
536.288	20325.24
536.653	20433.04
537.019	20305.36
537.384	20618.34
537.749	20666.48
538.114	20690.2
538.479	20820.82
538.845	20827.6
539.21	20941.72
539.575	21046.13
539.94	21145.56
540.305	21148.5
540.67	21309.4
541.034	21390.53
541.399	21381.71
541.764	21468.04
542.129	21531.31
542.494	21677.3
542.858	21763.17
543.223	21769.95
543.587	21949.61
543.952	21883.17
544.316	21964.3
544.681	22126.55
545.045	22123.39
545.41	22307.56
545.774	22344.17
546.138	22363.61
546.503	22335.81
546.867	22534.9
547.231	22702.13
547.595	22749.59
547.959	22868.9
548.324	22779.87
548.688	23082.23
549.052	23054.44
549.416	23104.15
549.779	23185.05
550.143	23161.33
550.507	23412.84
550.871	23505.5
551.235	23465.72
551.599	23597.02
551.962	23726.73
552.326	23862.55
552.689	23923.79
553.053	23874.98
553.417	23921.08
553.78	24298.47
554.143	24168.76
554.507	24364.01
554.87	24440.16
555.234	24650.78
555.597	24586.37
555.96	24667.95
556.323	24763.77
556.686	24892.58
557.05	24989.07
557.413	25148.17
557.776	25088.51
558.139	25265.68
558.502	25426.8
558.865	25399.69
559.228	25724.87
559.59	25793.57
559.953	25814.82
560.316	26029.27
560.679	26169.83
561.041	26220.91
561.404	26291.19
561.767	26511.07
562.129	26514.68
562.492	26795.81
562.854	26761.23
563.217	26716.03
563.579	26886.65
563.941	27125.74
564.304	27228.34
564.666	27403.47
565.028	27394.89
565.39	27575.22
565.753	27694.09
566.115	27891.37
566.477	27878.94
566.839	27992.84
567.201	28172.49
567.563	28307.86
567.925	28394.18
568.287	28470.56
568.648	28526.16
569.01	28599.38
569.372	28915.75
569.734	28741.07
570.095	29035.3
570.457	29051.34
570.819	29099.25
571.18	29192.35
571.542	29358.9
571.903	29376.3
572.265	29563.87
572.626	29556.19
572.987	29683.19
573.349	29856.29
573.71	29987.14
574.071	30056.96
574.432	30021.94
574.794	30280.91
575.155	30224.87
575.516	30186.9
575.877	30270.07
576.238	30353
576.599	30374.02
576.96	30377.18
577.32	30575.59
577.681	30653.56
578.042	30811.75
578.403	30779.88
578.763	30824.85
579.124	30794.57
579.485	30984.4
579.845	31066.43
580.206	30970.61
580.566	30948.69
580.927	30990.95
581.287	31106.65
581.648	31102.36
582.008	31235.92
582.368	31140.33
582.728	31224.16
583.089	31209.48
583.449	31178.06
583.809	31309.59
584.169	31310.72
584.529	31170.38
584.889	31542.35
585.249	31347.33
585.609	31202.24
585.969	31577.83
586.329	31332.64
586.688	31374.22
587.048	31353.88
587.408	31359.08
587.768	31384.39
588.127	31283.15
588.487	31404.5
588.846	31589.35
589.206	31343.94
589.565	31451.5
589.925	31592.97
590.284	31348.68
590.643	31388
591.003	31395.23
591.362	31593.65
591.721	31481.79
592.08	31472.75
592.44	31562.24
592.799	31713.64
593.158	31543.25
593.517	31665.96
593.876	31658.28
594.235	31617.6
594.593	31581.44
594.952	31660.09
595.311	31511.84
595.67	31642.91
596.029	31740.99
596.387	31849.01
596.746	31876.58
597.104	31789.35
597.463	31730.37
597.822	31799.52
598.18	31842.68
598.538	31800.19
598.897	31938.04
599.255	31616.92
599.613	32218.71
599.972	31771.72
600.33	31934.88
600.688	31957.25
601.046	31934.65
601.404	32017.14
601.762	32090.36
602.12	32276.57
602.478	32336.9
602.836	32253.74
603.194	32017.36
603.552	32226.62
603.91	32044.93
604.268	32257.36
604.625	32070.24
604.983	32263.23
605.341	32237.25
605.698	32286.06
606.056	32481.53
606.413	32337.58
606.771	32491.25
607.128	32385.94
607.485	32363.12
607.843	32456.22
608.2	32575.32
608.557	32721.3
608.914	32576.22
609.272	32708.42
609.629	32724.01
609.986	32848.75
610.343	32663
610.7	32927.85
611.057	32882.65
611.414	32883.78
611.771	32911.8
612.127	32951.58
612.484	32916.78
612.841	33075.42
613.198	32944.12
613.554	33001.97
613.911	33225.02
614.267	33256.2
614.624	33144.57
614.98	33241.51
615.337	33340.04
615.693	33357.22
616.05	33281.06
616.406	33377.55
616.762	33353.6
617.118	33383.43
617.475	33235.41
617.831	33449.64
618.187	33530.32
618.543	33457.33
618.899	33653.48
619.255	33597.21
619.611	33481.51
619.967	33699.35
620.323	33604.67
620.678	33533.71
621.034	33552.01
621.39	33536.65
621.746	33513.37
622.101	33859.35
622.457	33627.04
622.812	33754.49
623.168	33795.62
623.523	33689.86
623.879	33875.17
624.234	33638.56
624.589	33712.69
624.945	33811.89
625.3	33696.19
625.655	33729.64
626.01	33739.8
626.365	33844.21
626.72	33704.55
627.075	33604.67
627.43	33671.33
627.785	33518.57
628.14	33654.61
628.495	33600.83
628.85	33496.65
629.205	33509.53
629.559	33777.32
629.914	33446.48
630.269	33586.14
630.623	33498.68
630.978	33379.14
631.332	33436.54
631.687	33596.08
632.041	33435.86
632.396	33391.57
632.75	33237.67
633.104	33212.59
633.459	33124.91
633.813	33095.53
634.167	33184.11
634.521	33131.23
634.875	33131.01
635.229	33064.79
635.583	32968.53
635.937	33048.98
636.291	32804.69
636.645	32917.91
636.999	32861.18
637.352	33015.98
637.706	32771.24
638.06	32923.33
638.413	32755.65
638.767	32595.43
639.121	32702.09
639.474	32464.13
639.828	32565.82
640.181	32559.95
640.534	32468.43
640.888	32402.89
641.241	32263.69
641.594	32333.51
641.947	32440.86
642.301	32244.25
642.654	32170.35
643.007	32264.59
643.36	32297.58
643.713	32016.23
644.066	32267.98
644.419	32058.49
644.771	31706.64
645.124	31557.04
645.477	31435.91
645.83	31263.26
646.182	31122.02
646.535	31128.8
646.888	31082.02
647.24	30865.3
647.593	31064.85
647.945	30980.33
648.298	30790.05
648.65	30817.17
649.002	30771.97
649.355	30847.45
649.707	30633.45
650.059	30803.84
650.411	31307.78
650.763	31263.94
651.115	31591.61
651.467	31429.81
651.819	31365.86
652.171	31391.84
652.523	31244.96
652.875	31305.52
653.227	31235.24
653.578	31310.49
653.93	31316.59
654.282	30979.43
654.633	31064.62
654.985	31222.36
655.337	31039.54
655.688	31065.07
656.039	31264.62
656.391	30826.44
656.742	31027.11
657.094	30906.43
657.445	31055.81
657.796	31037.73
658.147	30850.16
658.498	30855.81
658.849	30944.4
659.2	30836.38
659.551	30921.57
659.902	30961.57
660.253	30816.94
660.604	30847.9
660.955	30722.26
661.306	30675.03
661.656	30700.56
662.007	30710.28
662.358	30692.2
662.708	30674.8
663.059	30534.92
663.409	30509.16
663.76	30735.82
664.11	30610.17
664.461	30607.68
664.811	30601.58
665.161	30502.6
665.511	30480.46
665.862	30603.84
666.212	30494.92
666.562	30659.89
666.912	30551.41
667.262	30402.27
667.612	30409.72
667.962	30568.81
668.312	30388.03
668.662	30419.89
669.011	30432.32
669.361	30444.98
669.711	30419.89
670.06	30163.4
670.41	30273.68
670.76	30228.94
671.109	30353.68
671.459	30218.99
671.808	30158.66
672.157	30244.3
672.507	30022.39
672.856	30103.74
673.205	30121.59
673.554	30286.34
673.904	29973.58
674.253	30267.35
674.602	30073.91
674.951	29678.89
675.3	29509.18
675.649	29877.08
675.998	29888.38
676.346	30004.99
676.695	29969.51
677.044	29694.71
677.393	29838.89
677.741	29825.33
678.09	29643.64
678.438	29736.07
678.787	29833.92
679.135	29715.5
679.484	29448.62
679.832	29647.71
680.181	29635.05
680.529	29570.65
680.877	29632.12
681.225	29465.12
681.573	29494.49
681.922	29405.68
682.27	29216.99
682.618	29208.85
682.966	29177.89
683.314	29258.79
683.661	29150.77
684.009	29099.47
684.357	29053.6
684.705	28980.38
685.053	28951
685.4	28924.56
685.748	28734.29
686.095	28768.86
686.443	28676.44
686.79	28548.08
687.138	28711.69
687.485	28673.27
687.832	28454.97
688.18	28508.3
688.527	28339.04
688.874	28221.76
689.221	28217.46
689.568	28188.76
689.915	28091.59
690.262	28124.13
690.609	27990.8
690.956	27972.95
691.303	27888.89
691.65	27779.96
691.997	27804.14
692.344	27797.81
692.69	27682.34
693.037	27725.27
693.383	27381.33
693.73	27500.87
694.077	27321.89
694.423	27389.69
694.769	27276.47
695.116	27122.13
695.462	27181.79
695.808	27056.14
696.155	26912.64
696.501	26794.45
696.847	26736.37
697.193	26521.69
697.539	26708.13
697.885	26629.71
698.231	26413.9
698.577	26406.44
698.923	26354.91
699.269	26196.73
699.614	26074.7
699.96	26154.69
700.306	26089.38
700.651	25933.68
700.997	25897.98
701.342	25833.35
701.688	25877.64
702.033	25663.86
702.379	25690.07
702.724	25701.15
703.069	25719.68
703.415	25336.18
703.76	25413.47
704.105	25329.18
704.45	25374.6
704.795	25138.45
705.14	25183.65
705.485	25048.06
705.83	24950.66
706.175	24978.68
706.52	24939.58
706.865	24846.25
707.209	24806.25
707.554	24694.62
707.899	24716.99
708.243	24477.68
708.588	24550.89
708.932	24268.19
709.277	24289.21
709.621	24374.63
709.966	24197.01
710.31	24314.29
710.654	24030
710.998	24064.13
711.342	24051.25
711.687	23994.52
712.031	23954.75
712.375	23939.16
712.719	23838.6
713.063	23846.96
713.407	23853.29
713.75	23786.39
714.094	23602.22
714.438	23620.75
714.782	23663.01
715.125	23504.14
715.469	23539.85
715.812	23385.73
716.156	23391.6
716.499	23254.66
716.843	23275.9
717.186	23144.83
717.53	23271.61
717.873	23228.67
718.216	23195.68
718.559	23040.88
718.902	22832.52
719.246	23088.11
719.589	22888.56
719.932	22677.95
720.275	22919.3
720.617	22780.32
720.96	22669.36
721.303	22736.03
721.646	22660.55
721.989	22588.69
722.331	22642.24
722.674	22580.32
723.016	22652.19
723.359	22480.21
723.701	22455.58
724.044	22361.57
724.386	22228.24
724.729	22311.4
725.071	22259.65
725.413	22273.67
725.755	22185.98
726.097	22068.47
726.439	22051.75
726.782	22009.04
727.124	22081.81
727.465	21952.09
727.807	21929.27
728.149	21885.43
728.491	21858.08
728.833	21876.39
729.175	21744.19
729.516	21793.68
729.858	21586.68
730.199	21756.17
730.541	21573.12
730.882	21687.92
731.224	21645.21
731.565	21443.18
731.906	21475.95
732.248	21547.58
732.589	21424.87
732.93	21253.58
733.271	21283.41
733.612	21321.15
733.953	21306.69
734.294	21229.17
734.635	21286.12
734.976	21199.8
735.317	21197.54
735.658	21089.97
735.999	21116.86
736.339	21000.25
736.68	21136.97
737.021	21019.46
737.361	20852.91
737.702	21116.18
738.042	20944.21
738.383	20800.94
738.723	20857.21
739.063	20868.5
739.404	20874.61
739.744	20787.83
740.084	20554.39
740.424	20699.24
740.764	20680.04
741.104	20692.69
741.444	20600.04
741.784	20589.87
742.124	20604.11
742.464	20436.88
742.804	20550.1
743.143	20253.61
743.483	20428.29
743.823	20282.31
744.162	20308.29
744.502	20221.29
744.841	20141.52
745.181	20219.71
745.52	20112.37
745.86	20227.39
746.199	20099.94
746.538	20164.79
746.877	20117.11
747.216	20036.89
747.556	19986.04
747.895	20100.39
748.234	20001.64
748.573	19863.56
748.911	19880.06
749.25	19868.76
749.589	19690.46
749.928	19762.32
750.267	19713.51
750.605	19675.77
750.944	19615.88
751.283	19625.6
751.621	19569.78
751.96	19475.32
752.298	19475.55
752.636	19470.35
752.975	19414.76
753.313	19243.01
753.651	19378.15
753.989	19279.62
754.327	19217.25
754.666	19167.76
755.004	19220.64
755.342	19130.92
755.679	19129.57
756.017	19025.62
756.355	18992.85
756.693	18924.83
757.031	18886.41
757.368	18850.93
757.706	18867.2
758.044	18815.68
758.381	18789.69
758.719	18731.16
759.056	18673.31
759.394	18585.85
759.731	18490.49
760.068	18450.26
760.405	18312.87
760.743	18320.78
761.08	18381.11
761.417	18290.72
761.754	18127.56
762.091	18111.06
762.428	18074.91
762.765	18029.03
763.102	18057.73
763.438	17999.43
763.775	17835.36
764.112	17855.48
764.449	17835.59
764.785	17777.29
765.122	17618.42
765.458	17505.88
765.795	17470.18
766.131	17557.18
766.467	17476.28
766.804	17309.05
767.14	17316.06
767.476	17330.07
767.812	17192.9
768.148	17272.67
768.485	17175.27
768.821	16918.1
769.157	16932.79
769.492	16974.82
769.828	16888.95
770.164	16746.81
770.5	16625.23
770.836	16668.62
771.171	16690.54
771.507	16575.74
771.842	16521.95
772.178	16348.4
772.513	16433.37
772.849	16353.37
773.184	16300.94
773.519	16279.25
773.855	16262.98
774.19	16124.22
774.525	16064.11
774.86	16104.79
775.195	15962.65
775.53	15847.85
775.865	15855.3
776.2	15655.76
776.535	15672.48
776.87	15694.4
777.205	15611.24
777.539	15482.43
777.874	15590
778.209	15282.21
778.543	15447.18
778.878	15352.72
779.212	15272.72
779.547	15110.69
779.881	15257.58
780.215	15052.39
780.55	15079.5
780.884	14973.29
781.218	14966.06
781.552	15009.9
781.886	14830.02
782.22	14745.05
782.554	14783.24
782.888	14577.6
783.222	14585.51
783.556	14486.98
783.889	14503.7
784.223	14336.93
784.557	14432.52
784.89	14384.16
785.224	14275.46
785.557	14268.23
785.891	14152.52
786.224	14102.36
786.558	14103.71
786.891	13922.7
787.224	14009.02
787.557	13931.74
787.891	13883.6
788.224	13918.86
788.557	13889.93
788.89	13736.26
789.223	13828.92
789.556	13595.25
789.888	13609.94
790.221	13495.59
790.554	13395.48
790.887	13473.9
791.219	13409.72
791.552	13357.06
791.884	13292.66
792.217	13273.22
792.549	13239.1
792.882	13063.96
793.214	12946.91
793.546	13058.31
793.879	12962.5
794.211	12905.78
794.543	12911.2
794.875	12891.31
795.207	12976.74
795.539	12850.18
795.871	12831.65
796.203	12726.12
796.535	12643.41
796.867	12625.33
797.198	12615.61
797.53	12565.45
797.862	12534.03
798.193	12503.75
798.525	12396.64
798.856	12440.93
799.188	12312.57
799.519	12274.61
799.85	12223.99
800.182	12195.96
800.513	12221.27
800.844	12056.76
801.175	12149.64
801.506	12140.37
801.837	12066.48
802.168	12021.73
802.499	11968.17
802.83	11970.89
803.161	11895.41
803.491	11877.55
803.822	11850.89
804.153	11854.05
804.483	11761.4
804.814	11666.49
805.145	11687.05
805.475	11680.05
805.805	11605.92
806.136	11686.6
806.466	11629.2
806.796	11569.99
807.126	11513.5
807.457	11504.91
807.787	11486.83
808.117	11306.5
808.447	11361.41
808.777	11350.34
809.107	11409.77
809.436	11355.76
809.766	11263.11
810.096	11240.28
810.426	11253.39
810.755	11188.31
811.085	11244.35
811.414	11144.01
811.744	11113.06
812.073	11089.55
812.403	11111.02
812.732	11035.77
813.061	11035.77
813.39	10887.98
813.719	10877.36
814.049	10870.58
814.378	10897.02
814.707	10811.59
815.036	10874.42
815.365	10735.66
815.693	10592.16
816.022	10774.99
816.351	10585.39
816.68	10556.46
817.008	10595.55
817.337	10504.71
817.665	10481.89
817.994	10519.4
818.322	10550.36
818.651	10457.25
818.979	10476.91
819.307	10443.02
819.636	10432.85
819.964	10375
820.292	10428.33
820.62	10400.08
820.948	10323.7
821.276	10310.14
821.604	10293.64
821.932	10292.06
822.259	10321.44
822.587	10334.32
822.915	10256.35
823.243	10313.98
823.57	10279.86
823.898	10271.95
824.225	10239.41
824.553	10224.72
824.88	10278.73
825.207	10301.55
825.535	10205.51
825.862	10273.98
826.189	10243.93
826.516	10288.44
826.843	10308.56
827.17	10276.69
827.497	10292.06
827.824	10299.29
828.151	10282.57
828.478	10322.79
828.805	10349.91
829.131	10215.9
829.458	10211.84
829.785	10227.2
830.111	10228.11
830.438	10311.49
830.764	10279.4
831.09	10251.83
831.417	10243.47
831.743	10228.11
832.069	10265.17
832.395	10221.55
832.722	10253.19
833.048	10102.23
833.374	10243.25
833.7	10134.78
834.026	10126.64
834.351	10152.85
834.677	10174.32
835.003	10152.85
835.329	10166.64
835.654	10180.65
835.98	10097.49
836.306	10116.7
836.631	10064.27
836.956	10057.49
837.282	10029.69
837.607	10004.61
837.932	10000.09
838.258	10033.99
838.583	9980.2
838.908	9901.11
839.233	9940.43
839.558	9892.52
839.883	9836.48
840.208	9850.04
840.533	9811.85
840.858	9839.87
841.182	9858.85
841.507	9835.35
841.832	9788.57
842.156	9810.04
842.481	9742.47
842.805	9709.25
843.13	9705.41
843.454	9635.81
843.778	9696.37
844.103	9620.44
844.427	9593.32
844.751	9624.28
845.075	9590.38
845.399	9535.47
845.723	9490.5
846.047	9495.02
846.371	9428.13
846.695	9457.96
847.019	9368.47
847.343	9329.6
847.666	9290.5
847.99	9240.34
848.313	9231.75
848.637	9222.48
848.96	9221.81
849.284	9132.99
849.607	9050.06
849.931	9055.48
850.254	9017.97
850.577	8931.42
850.9	8914.02
851.223	8869.05
851.546	8749.28
851.869	8738.65
852.192	8851.65
852.515	8718.09
852.838	8675.61
853.161	8677.41
853.483	8571.88
853.806	8646.23
854.129	8620.92
854.451	8535.04
854.774	8494.14
855.096	8491.43
855.419	8498.21
855.741	8533.46
856.063	8378.21
856.385	8418.21
856.708	8371.66
857.03	8343.41
857.352	8346.8
857.674	8285.78
857.996	8302.28
858.318	8189.06
858.64	8265.22
858.961	8253.92
859.283	8205.79
859.605	8090.76
859.926	8200.36
860.248	8155.17
860.57	8128.05
860.891	8032.91
861.212	8094.83
861.534	8009.18
861.855	8052.12
862.176	8053.47
862.498	8057.09
862.819	8008.96
863.14	8000.14
863.461	7973.25
863.782	7922.18
864.103	7949.3
864.424	7930.77
864.745	7919.47
865.065	7818.23
865.386	7858.9
865.707	7841.05
866.027	7844.89
866.348	7816.42
866.668	7836.31
866.989	7781.39
867.309	7724.22
867.63	7820.71
867.95	7716.76
868.27	7738.45
868.59	7689.42
868.91	7655.29
869.23	7697.78
869.55	7661.39
869.87	7656.65
870.19	7660.49
870.51	7664.78
870.83	7613.49
871.15	7601.06
871.469	7565.13
871.789	7622.98
872.109	7582.3
872.428	7499.14
872.748	7531.91
873.067	7528.97
873.386	7520.83
873.706	7496.2
874.025	7512.92
874.344	7446.71
874.663	7443.77
874.982	7419.14
875.301	7433.38
875.62	7439.71
875.939	7320.16
876.258	7424.56
876.577	7377.56
876.896	7359.48
877.214	7363.32
877.533	7339.82
877.852	7332.59
878.17	7366.49
878.489	7338.01
878.807	7300.73
879.125	7316.77
879.444	7340.5
879.762	7295.98
880.08	7331.01
880.398	7226.15
880.716	7288.07
881.034	7168.53
881.352	7209.88
881.67	7111.8
881.988	7139.15
882.306	7192.03
882.624	7142.54
882.941	7159.71
883.259	7126.95
883.577	7032.48
883.894	7051.69
884.212	7052.82
884.529	7000.4
884.846	6978.7
885.164	7014.18
885.481	6994.29
885.798	6993.16
886.115	6999.27
886.432	6925.82
886.75	6909.1
887.067	6947.97
887.383	6879.95
887.7	6859.38
888.017	6824.58
888.334	6820.29
888.651	6833.39
888.967	6773.28
889.284	6756.79
889.6	6757.46
889.917	6775.77
890.233	6720.4
890.55	6686.73
890.866	6725.83
891.182	6699.16
891.498	6679.73
891.815	6604.93
892.131	6617.13
892.447	6605.38
892.763	6610.12
893.079	6516.57
893.395	6571.48
893.71	6500.75
894.026	6488.77
894.342	6516.79
894.657	6422.11
894.973	6446.06
895.289	6408.09
895.604	6349.11
895.92	6417.36
896.235	6359.06
896.55	6393.63
896.865	6334.2
897.181	6318.38
897.496	6296.23
897.811	6255.56
898.126	6203.35
898.441	6185.95
898.756	6134.43
899.071	6168.78
899.386	6149.34
899.7	6075.67
900.015	6078.84
900.33	6081.78
900.644	6014.88
900.959	6077.48
901.273	6014.88
901.588	5982.34
901.902	5946.86
902.216	5948.67
902.531	5854.21
902.845	5973.53
903.159	5907.09
903.473	5820.31
903.787	5820.09
904.101	5783.03
904.415	5822.12
904.729	5797.49
905.042	5727.66
905.356	5726.53
905.67	5702.58
905.984	5715.91
906.297	5704.84
906.611	5640.66
906.924	5624.84
907.237	5644.05
907.551	5604.27
907.864	5615.35
908.177	5637.94
908.491	5578.74
908.804	5542.13
909.117	5516.59
909.43	5510.72
909.743	5484.28
910.056	5467.1
910.368	5444.05
910.681	5407.22
910.994	5380.1
911.307	5395.69
911.619	5307.56
911.932	5320.44
912.244	5291.51
912.557	5333.32
912.869	5280.44
913.181	5266.88
913.494	5256.49
913.806	5220.55
914.118	5171.74
914.43	5127.45
914.742	5126.32
915.054	5093.55
915.366	5073.67
915.678	5110.95
915.99	5054.23
916.302	5028.02
916.613	4991.63
916.925	4989.6
917.236	4990.5
917.548	4943.5
917.859	4934.01
918.171	4912.09
918.482	4868.93
918.794	4893.11
919.105	4869.83
919.416	4791.87
919.727	4812.43
920.038	4762.26
920.349	4748.48
920.66	4721.13
920.971	4707.12
921.282	4723.84
921.593	4633
921.903	4657.63
922.214	4631.42
922.525	4647.24
922.835	4599.33
923.146	4550.52
923.456	4588.03
923.767	4527.01
924.077	4561.36
924.387	4559.33
924.697	4488.6
925.008	4485.66
925.318	4446.11
925.628	4420.58
925.938	4410.63
926.248	4452.21
926.558	4408.37
926.867	4357.98
927.177	4348.04
927.487	4338.09
927.796	4296.06
928.106	4323.86
928.416	4248.15
928.725	4286.34
929.034	4275.95
929.344	4292.67
929.653	4213.35
929.962	4183.07
930.271	4215.16
930.581	4188.49
930.89	4186.68
931.199	4122.28
931.508	4094.93
931.817	4091.09
932.125	4094.26
932.434	4082.05
932.743	4078.21
933.051	4013.35
933.36	3973.81
933.669	4027.82
933.977	3975.84
934.286	3980.36
934.594	4006.8
934.902	3960.02
935.21	3901.95
935.519	3950.53
935.827	3874.38
936.135	3848.39
936.443	3859.69
936.751	3861.04
937.059	3833.92
937.367	3773.14
937.674	3774.49
937.982	3760.25
938.29	3746.92
938.597	3748.5
938.905	3700.37
939.213	3652.69
939.52	3718.67
939.827	3714.38
940.135	3643.2
940.442	3653.14
940.749	3642.07
941.056	3626.47
941.363	3597.55
941.67	3586.47
941.977	3543.76
942.284	3524.78
942.591	3526.14
942.898	3500.83
943.205	3525.46
943.511	3480.49
943.818	3470.77
944.125	3455.18
944.431	3490.43
944.738	3422.41
945.044	3466.7
945.35	3425.35
945.657	3402.75
945.963	3403.65
946.269	3369.08
946.575	3356.88
946.881	3352.81
947.187	3328.85
947.493	3299.48
947.799	3322.07
948.105	3325.69
948.41	3298.57
948.716	3268.74
949.022	3274.62
949.327	3231.91
949.633	3177.44
949.938	3189.87
950.244	3214.05
950.549	3195.3
950.854	3174.96
951.16	3180.16
951.465	3164.79
951.77	3157.78
952.075	3101.51
952.38	3122.53
952.685	3131.12
952.99	3066.04
953.294	3089.54
953.599	3075.07
953.904	3034.17
954.209	3011.57
954.513	3007.96
954.818	3031.91
955.122	2997.56
955.426	2960.05
955.731	2960.95
956.035	2944.91
956.339	2932.48
956.643	2934.06
956.948	2899.26
957.252	2885.25
957.556	2856.55
957.86	2860.62
958.163	2854.06
958.467	2851.58
958.771	2838.47
959.075	2800.73
959.378	2800.96
959.682	2808.41
959.985	2744.01
960.289	2781.97
960.592	2777.23
960.896	2738.36
961.199	2760.96
961.502	2733.16
961.805	2708.76
962.108	2696.55
962.411	2691.58
962.714	2663.33
963.017	2694.29
963.32	2691.81
963.623	2647.29
963.926	2658.36
964.228	2637.12
964.531	2616.33
964.833	2602.09
965.136	2603
965.438	2569.55
965.741	2564.13
966.043	2574.52
966.345	2559.38
966.648	2553.05
966.95	2565.94
967.252	2537.01
967.554	2539.5
967.856	2540.85
968.158	2501.08
968.46	2450.91
968.761	2489.33
969.063	2515.32
969.365	2442.32
969.666	2455.66
969.968	2422.89
970.269	2398.93
970.571	2404.81
970.872	2421.31
971.174	2379.95
971.475	2393.96
971.776	2350.12
972.077	2375.88
972.378	2353.51
972.679	2351.25
972.98	2351.03
973.281	2348.77
973.582	2311.93
973.883	2290.01
974.183	2297.92
974.484	2329.33
974.785	2280.52
975.085	2287.07
975.386	2287.98
975.686	2250.24
975.986	2230.58
976.287	2255.21
976.587	2231.25
976.887	2216.11
977.187	2204.14
977.487	2225.83
977.787	2192.16
978.087	2188.09
978.387	2198.71
978.687	2140.18
978.987	2156.68
979.286	2153.97
979.586	2123.46
979.885	2140.86
980.185	2150.58
980.484	2118.49
980.784	2130.01
981.083	2085.72
981.382	2064.25
981.682	2099.96
981.981	2094.31
982.28	2055.21
982.579	2029
982.878	2039.62
983.177	2008.21
983.475	2012.28
983.774	1991.94
984.073	2026.29
984.372	1994.65
984.67	1974.99
984.969	1981.54
985.267	1970.24
985.566	1946.97
985.864	1955.78
986.162	1932.28
986.461	1923.24
986.759	1927.99
987.057	1909.23
987.355	1925.95
987.653	1885.5
987.951	1903.81
988.249	1876.46
988.547	1873.07
988.844	1886.63
989.142	1861.77
989.44	1842.79
989.737	1823.81
990.035	1833.75
990.332	1864.26
990.63	1837.37
990.927	1816.12
991.224	1806.41
991.521	1809.35
991.819	1824.26
992.116	1777.26
992.413	1798.5
992.71	1728.44
993.006	1745.39
993.303	1753.08
993.6	1758.27
993.897	1732.51
994.193	1732.51
994.49	1701.33
994.787	1697.48
995.083	1702.46
995.379	1710.82
995.676	1670.82
995.972	1667.88
996.268	1669.69
996.565	1680.99
996.861	1641.44
997.157	1653.87
997.453	1626.75
997.749	1624.04
998.044	1638.05
998.34	1601.89
998.636	1624.27
998.932	1606.86
999.227	1613.19
999.523	1607.99
999.818	1589.92
1000.114	1583.81
1000.409	1575.45
1000.704	1547.43
1001	1573.42
1001.295	1542.46
1001.59	1557.37
1001.885	1524.15
1002.18	1527.32
1002.475	1495.46
1002.77	1490.71
1003.065	1486.87
1003.359	1503.14
1003.654	1483.93
1003.949	1475.34
1004.243	1480.99
1004.538	1486.19
1004.832	1466.76
1005.127	1441.22
1005.421	1434.21
1005.715	1432.86
1006.009	1448.22
1006.304	1420.88
1006.598	1432.86
1006.892	1382.69
1007.186	1393.99
1007.48	1381.79
1007.773	1379.98
1008.067	1369.58
1008.361	1362.8
1008.655	1361.22
1008.948	1355.12
1009.242	1342.46
1009.535	1343.59
1009.829	1333.88
1010.122	1331.62
1010.415	1320.09
1010.708	1291.84
1011.001	1300.88
1011.295	1287.32
1011.588	1304.95
1011.881	1297.72
1012.173	1288.23
1012.466	1287.55
1012.759	1288
1013.052	1271.96
1013.344	1239.42
1013.637	1226.99
1013.93	1232.64
1014.222	1260.66
1014.514	1228.12
1014.807	1203.26
1015.099	1186.31
1015.391	1198.74
1015.683	1203.26
1015.976	1200.55
1016.268	1186.08
1016.56	1205.52
1016.851	1162.13
1017.143	1172.07
1017.435	1149.93
1017.727	1165.97
1018.018	1163.49
1018.31	1116.03
1018.602	1138.18
1018.893	1131.62
1019.185	1120.32
1019.476	1117.39
1019.767	1120.78
1020.058	1110.61
1020.35	1104.28
1020.641	1108.8
1020.932	1095.92
1021.223	1069.03
1021.514	1061.57
1021.804	1076.26
1022.095	1051.4
1022.386	1043.04
1022.677	1057.27
1022.967	1037.39
1023.258	1037.39
1023.548	1018.41
1023.839	1006.65
1024.129	1019.99
1024.419	1015.69
1024.709	998.07
1025	1013.21
1025.29	1017.28
1025.58	985.64
1025.87	978.18
1026.16	958.29
1026.449	987.9
1026.739	975.47
1027.029	947.22
1027.319	950.38
1027.608	935.7
1027.898	944.96
1028.187	939.54
1028.477	919.88
1028.766	934.79
1029.055	918.07
1029.344	909.03
1029.634	916.04
1029.923	898.18
1030.212	881.01
1030.501	917.39
1030.79	865.19
1031.078	881.46
1031.367	862.48
1031.656	836.94
1031.945	863.16
1032.233	854.57
1032.522	848.69
1032.81	860.22
1033.099	851.63
1033.387	827.45
1033.675	835.81
1033.963	836.72
1034.251	822.7
1034.54	813.67
1034.828	823.61
1035.116	798.98
1035.403	806.21
1035.691	800.56
1035.979	806.66
1036.267	807.34
1036.554	796.94
1036.842	784.74
1037.129	758.07
1037.417	767.56
1037.704	791.29
1037.992	754.68
1038.279	747
1038.566	742.48
1038.853	742.48
1039.14	742.48
