Data from whiteboard_FLMS001491_00024.txt Node
Date: Wed Feb 08 11:25:50 GMT 2017
User: dcchb
Spectrometer: FLMS00149
Trigger mode: 0
Integration Time (sec): 2.000000E-2
Scans to average: 10
Electric dark correction enabled: true
Nonlinearity correction enabled: false
Boxcar width: 0
XAxis mode: Wavelengths
Number of Pixels in Spectrum: 2048
>>>>>Begin Spectral Data<<<<<
341.393	0.47
341.776	0.47
342.16	0.47
342.543	-50.15
342.927	-70.27
343.31	-66.65
343.693	-70.27
344.077	-63.94
344.46	-55.35
344.843	-37.5
345.226	-34.56
345.61	-34.79
345.993	-33.21
346.376	-2.7
346.759	21.93
347.142	26
347.525	32.56
347.908	52.89
348.291	66.68
348.674	79.79
349.057	119.11
349.44	148.48
349.823	136.96
350.206	165.89
350.588	229.61
350.971	262.15
351.354	257.18
351.737	265.32
352.119	273.68
352.502	293.34
352.884	324.53
353.267	331.53
353.65	310.97
354.032	320.23
354.414	363.62
354.797	365.88
355.179	355.49
355.562	345.77
355.944	364.3
356.326	370.4
356.709	356.61
357.091	373.11
357.473	384.86
357.855	387.8
358.238	367.69
358.62	395.71
359.002	388.93
359.384	376.05
359.766	384.18
360.148	381.47
360.53	392.55
360.912	362.49
361.294	365.2
361.676	353.45
362.057	356.16
362.439	398.87
362.821	386.44
363.203	371.3
363.584	367.01
363.966	364.07
364.348	404.3
364.729	388.7
365.111	369.72
365.493	378.08
365.874	382.38
366.256	380.12
366.637	363.39
367.019	381.92
367.4	367.69
367.781	394.81
368.163	360.46
368.544	387.12
368.925	369.95
369.306	363.85
369.688	381.47
370.069	372.21
370.45	389.61
370.831	386.67
371.212	372.43
371.593	376.73
371.974	382.6
372.355	414.24
372.736	410.4
373.117	404.07
373.498	404.3
373.879	390.06
374.26	402.26
374.641	360.23
375.021	379.44
375.402	393.68
375.783	405.2
376.163	457.18
376.544	415.14
376.925	406.78
377.305	405.43
377.686	441.81
378.066	428.25
378.447	428.93
378.827	464.63
379.208	428.25
379.588	430.96
379.968	435.48
380.349	465.54
380.729	434.13
381.109	463.5
381.489	446.78
381.87	454.24
382.25	465.54
382.63	470.51
383.01	462.6
383.39	454.47
383.77	475.93
384.15	485.65
384.53	476.39
384.91	471.19
385.29	495.59
385.67	503.73
386.049	476.84
386.429	487.46
386.809	500.34
387.189	498.31
387.568	524.29
387.948	507.8
388.328	532.2
388.707	553.45
389.087	543.73
389.466	547.34
389.846	561.58
390.225	538.08
390.605	554.35
390.984	580.56
391.363	551.19
391.743	588.7
392.122	601.58
392.501	599.32
392.881	600.45
393.26	622.6
393.639	609.26
394.018	610.85
394.397	629.38
394.776	644.97
395.155	668.7
395.534	647.91
395.913	671.86
396.292	666.89
396.671	686.55
397.05	698.53
397.429	698.07
397.808	710.73
398.186	710.05
398.565	720.67
398.944	736.04
399.323	750.73
399.701	757.51
400.08	728.13
400.458	791.63
400.837	793.44
401.215	813.55
401.594	793.44
401.972	823.04
402.351	804.51
402.729	833.89
403.107	851.97
403.486	902.14
403.864	884.96
404.242	893.78
404.62	912.08
404.999	943.04
405.377	946.43
405.755	942.81
406.133	991.85
406.511	983.72
406.889	995.69
407.267	1031.85
407.645	1025.52
408.023	1069.14
408.401	1066.43
408.779	1086.31
409.156	1131.06
409.534	1138.97
409.912	1180.55
410.29	1186.65
410.667	1202.24
411.045	1218.74
411.422	1246.08
411.8	1247.89
412.178	1261.9
412.555	1305.97
412.933	1332.86
413.31	1327.21
413.687	1378.28
414.065	1398.85
414.442	1436.36
414.819	1446.98
415.197	1452.63
415.574	1473.65
415.951	1528.34
416.328	1519.75
416.705	1552.74
417.082	1563.59
417.46	1581.89
417.837	1622.8
418.214	1620.08
418.591	1654.21
418.967	1630.25
419.344	1667.54
419.721	1699.18
420.098	1689.01
420.475	1736.69
420.852	1762.91
421.228	1771.72
421.605	1774.2
421.982	1822.34
422.358	1850.36
422.735	1874.99
423.111	1872.06
423.488	1903.69
423.864	1916.12
424.241	1912.73
424.617	1965.39
424.994	2023.01
425.37	2021.2
425.746	2040.41
426.123	2042.9
426.499	2086.74
426.875	2108.89
427.251	2154.76
427.627	2194.76
428.003	2224.81
428.379	2254.87
428.756	2305.49
429.132	2315.89
429.507	2337.13
429.883	2393.17
430.259	2403.34
430.635	2415.77
431.011	2447.86
431.387	2526.05
431.763	2580.74
432.138	2574.41
432.514	2594.3
432.89	2638.81
433.265	2696.67
433.641	2753.39
434.016	2775.99
434.392	2824.8
434.767	2848.3
435.143	2869.77
435.518	2878.81
435.894	2921.52
436.269	3013.04
436.644	3069.99
437.02	3047.17
437.395	3117.45
437.77	3145.69
438.145	3188.63
438.52	3215.97
438.895	3257.33
439.271	3263.21
439.646	3314.96
440.021	3348.63
440.395	3389.3
440.77	3342.3
441.145	3399.47
441.52	3503.42
441.895	3505.91
442.27	3466.36
442.645	3553.14
443.019	3554.27
443.394	3566.25
443.769	3639.92
444.143	3608.51
444.518	3678.56
444.892	3640.14
445.267	3707.94
445.641	3741.38
446.016	3802.63
446.39	3854.38
446.764	3864.32
447.139	3827.26
447.513	3907.26
447.887	3919.46
448.262	3954.71
448.636	3966.01
449.01	4037.2
449.384	4092.79
449.758	4086.91
450.132	4149.06
450.506	4181.15
450.88	4225.89
451.254	4230.86
451.628	4289.17
452.002	4316.28
452.376	4411.2
452.75	4437.19
453.123	4470.63
453.497	4567.58
453.871	4587.92
454.244	4665.88
454.618	4704.98
454.992	4726.67
455.365	4740.45
455.739	4939.09
456.112	4975.7
456.486	5027.23
456.859	5034.01
457.232	5183.38
457.606	5125.98
457.979	5229.93
458.352	5332.08
458.725	5411.17
459.099	5459.53
459.472	5570.49
459.845	5620.66
460.218	5707.43
460.591	5746.76
460.964	5806.19
461.337	5881.22
461.71	5978.16
462.083	6132.51
462.456	6085.73
462.829	6156.24
463.201	6270.58
463.574	6290.92
463.947	6379.51
464.32	6535.89
464.692	6603.91
465.065	6636.68
465.438	6737.24
465.81	6841.19
466.183	6924.8
466.555	7006.38
466.928	7091.35
467.3	7075.53
467.672	7191.01
468.045	7389.88
468.417	7431.01
468.789	7457.9
469.161	7586.03
469.534	7741.96
469.906	7805.91
470.278	7931.11
470.65	8117.99
471.022	8198.67
471.394	8396.4
471.766	8454.03
472.138	8642.5
472.51	8779.9
472.882	8881.81
473.253	9062.37
473.625	9125.42
473.997	9269.83
474.369	9352.76
474.74	9502.82
475.112	9731.51
475.484	9843.6
475.855	10091.27
476.227	10120.2
476.598	10441.1
476.97	10529.68
477.341	10763.57
477.713	10916.79
478.084	10993.62
478.455	11257.8
478.827	11353.39
479.198	11708.18
479.569	11749.54
479.94	12089.41
480.311	12188.17
480.682	12512
481.053	12770.53
481.424	12935.27
481.795	13123.51
482.166	13260
482.537	13461.13
482.908	13718.07
483.279	13904.51
483.65	14209.36
484.021	14377.04
484.391	14604.83
484.762	14817.25
485.133	14894.09
485.503	15103.57
485.874	15350.34
486.244	15574.07
486.615	15961.85
486.985	16113.94
487.356	16423.54
487.726	16536.08
488.097	16929.06
488.467	17032.79
488.837	17346.9
489.207	17573.79
489.578	17854.01
489.948	18015.81
490.318	18250.38
490.688	18312.53
491.058	18735.11
491.428	19001.1
491.798	19121.09
492.168	19494.64
492.538	19596.11
492.908	19830.45
493.278	20069.09
493.648	20006.04
494.017	20347.73
494.387	20516.31
494.757	20622.3
495.126	20953.36
495.496	21113.36
495.866	21113.81
496.235	21370.07
496.605	21501.37
496.974	21680.35
497.344	21876.28
497.713	21958.31
498.082	22119.66
498.452	22417.96
498.821	22420.89
499.19	22700.21
499.559	22851.39
499.928	23056.58
500.298	23192.85
500.667	23519.62
501.036	23363.69
501.405	23729.56
501.774	23680.3
502.143	23972.49
502.512	24122.54
502.88	24391.46
503.249	24426.94
503.618	24631.23
503.987	24733.6
504.356	25089.98
504.724	25106.02
505.093	25278.22
505.462	25318.22
505.83	25577.65
506.199	25883.63
506.567	26202.49
506.936	26262.6
507.304	26503.95
507.672	26631.18
508.041	26692.42
508.409	27016.25
508.777	27195.01
509.145	27413.3
509.514	27303.48
509.882	27580.08
510.25	27760.64
510.618	27865.72
510.986	27933.52
511.354	28326.73
511.722	28489.89
512.09	28792.93
512.458	28735.98
512.826	28986.14
513.193	29164.9
513.561	29225.91
513.929	29451.67
514.297	29828.61
514.664	30207.36
515.032	30196.96
515.4	30387.24
515.767	30516.05
516.135	30724.63
516.502	30721.69
516.869	31210.27
517.237	31320.77
517.604	31241
517.972	31733.42
518.339	31927.99
518.706	32012.73
519.073	32345.83
519.44	32590.12
519.808	32998.47
520.175	32880.28
520.542	33425.8
520.909	33587.83
521.276	33651.56
521.643	34063.3
522.009	34374.7
522.376	34598.2
522.743	34673.23
523.11	35098.75
523.477	35404.73
523.843	35611.73
524.21	36121.78
524.577	36320.42
524.943	36408.1
525.31	36645.83
525.676	37009.66
526.043	37200.62
526.409	37255.76
526.776	37587.05
527.142	37801.96
527.508	37980.48
527.874	38269.29
528.241	38508.61
528.607	38642.16
528.973	39052.09
529.339	39079.89
529.705	39428.81
530.071	39559.65
530.437	39850.49
530.803	40059.3
531.169	40349.69
531.535	40189.01
531.901	40488.67
532.267	40622.45
532.632	40887.98
532.998	41121.19
533.364	41318.48
533.73	41369.32
534.095	41611.8
534.461	41893.83
534.826	42028.51
535.192	42212.92
535.557	42338.11
535.923	42527.48
536.288	42735.39
536.653	42983.74
537.019	43018.09
537.384	43168.14
537.749	43515.93
538.114	43546.44
538.479	43792.31
538.845	43812.2
539.21	43893.1
539.575	44027.33
539.94	44149.81
540.305	44495.34
540.67	44483.14
541.034	44706.86
541.399	44808.33
541.764	44920.41
542.129	45248.32
542.494	45189.33
542.858	45343.68
543.223	45330.35
543.587	45794.52
543.952	45651.24
544.316	45782.31
544.681	45712.48
545.045	46056.88
545.41	46327.16
545.774	46242.64
546.138	46361.73
546.503	46653.25
546.867	46643.08
547.231	47042.84
547.595	46994.94
547.959	47086.23
548.324	47139.34
548.688	47204.87
549.052	47439.44
549.416	47548.82
549.779	47591.31
550.143	47669.72
550.507	47941.8
550.871	48046.43
551.235	48109.26
551.599	48436.71
551.962	48496.14
552.326	48508.57
552.689	48900.2
553.053	48781.33
553.417	48815.23
553.78	49424.7
554.143	49257.25
554.507	49447.08
554.87	49594.64
555.234	49818.82
555.597	49659.27
555.96	49894.97
556.323	50073.95
556.686	50182.42
557.05	50542.19
557.413	50477.33
557.776	50545.58
558.139	50689.08
558.502	50906.92
558.865	50920.71
559.228	51184.43
559.59	51357.31
559.953	51185.56
560.316	51656.28
560.679	51621.03
561.041	51887.46
561.404	51833.91
561.767	52144.86
562.129	52033
562.492	52412.65
562.854	52371.07
563.217	52446.32
563.579	52617.61
563.941	52803.37
564.304	52981.9
564.666	53161.33
565.028	53218.95
565.39	53339.85
565.753	53454.65
566.115	53542.56
566.477	53682.44
566.839	53693.52
567.201	54023.45
567.563	53993.4
567.925	54250.79
568.287	54234.07
568.648	54278.13
569.01	54451.01
569.372	54711.34
569.734	54581.63
570.095	54721.74
570.457	54914.5
570.819	54978.68
571.18	55035.63
571.542	55224.55
571.903	55162.18
572.265	55314.27
572.626	55385.68
572.987	55431.55
573.349	55508.16
573.71	55566.46
574.071	55689.85
574.432	55780.24
574.794	55951.76
575.155	55895.04
575.516	55812.33
575.877	55977.3
576.238	56080.35
576.599	56218.65
576.96	56207.8
577.32	56294.13
577.681	56343.17
578.042	56378.19
578.403	56411.86
578.763	56400.57
579.124	56417.29
579.485	56552.2
579.845	56544.52
580.206	56622.93
580.566	56610.73
580.927	56619.99
581.287	56623.16
581.648	56564.4
582.008	56631.52
582.368	56723.04
582.728	56707.45
583.089	56709.94
583.449	56685.08
583.809	56777.05
584.169	56874.45
584.529	56784.51
584.889	56911.51
585.249	56717.17
585.609	56739.09
585.969	56876.26
586.329	56803.27
586.688	56750.61
587.048	56833.55
587.408	56802.81
587.768	56810.05
588.127	56790.39
588.487	56774.79
588.846	56882.13
589.206	56783.83
589.565	56806.43
589.925	56955.13
590.284	56901.57
590.643	56903.15
591.003	57016.59
591.362	57079.19
591.721	56977.5
592.08	56960.78
592.44	57051.62
592.799	57124.61
593.158	57040.77
593.517	57051.4
593.876	57128.91
594.235	57039.64
594.593	57060.43
594.952	57157.16
595.311	57055.69
595.67	57201.45
596.029	57268.34
596.387	57287.55
596.746	57337.49
597.104	57229.47
597.463	57256.81
597.822	57360.54
598.18	57275.57
598.538	57177.27
598.897	57414.1
599.255	57147.89
599.613	57565.28
599.972	57393.08
600.33	57409.13
600.688	57276.93
601.046	57414.1
601.404	57491.16
601.762	57411.61
602.12	57486.19
602.478	57443.93
602.836	57446.41
603.194	57309.47
603.552	57331.84
603.91	57286.19
604.268	57475.57
604.625	57341.33
604.983	57437.6
605.341	57267.66
605.698	57467.43
606.056	57548.78
606.413	57525.73
606.771	57623.13
607.128	57511.95
607.485	57521.89
607.843	57488.45
608.2	57657.71
608.557	57718.72
608.914	57618.16
609.272	57787.65
609.629	57786.97
609.986	57884.82
610.343	57824.26
610.7	57948.32
611.057	57899.51
611.414	57920.75
611.771	57917.81
612.127	58056.11
612.484	58006.17
612.841	58059.5
613.198	58059.05
613.554	58102.89
613.911	58181.54
614.267	58200.52
614.624	58141.08
614.98	58197.58
615.337	58340.4
615.693	58263.79
616.05	58223.79
616.406	58456.56
616.762	58353.28
617.118	58361.19
617.475	58379.95
617.831	58491.58
618.187	58479.83
618.543	58484.8
618.899	58548.31
619.255	58565.93
619.611	58524.35
619.967	58625.14
620.323	58751.01
620.678	58546.05
621.034	58524.35
621.39	58482.54
621.746	58462.21
622.101	58724.8
622.457	58531.58
622.812	58567.74
623.168	58700.17
623.523	58666.72
623.879	58685.02
624.234	58541.3
624.589	58596.44
624.945	58627.17
625.3	58647.29
625.655	58589.66
626.01	58573.62
626.365	58501.53
626.72	58488.19
627.075	58432.15
627.43	58456.56
627.785	58363.68
628.14	58435.31
628.495	58414.3
628.85	58329.78
629.205	58246.62
629.559	58416.33
629.914	58313.74
630.269	58293.85
630.623	58175.43
630.978	58150.12
631.332	58295.43
631.687	58280.74
632.041	58106.73
632.396	58212.49
632.75	58054.53
633.104	58083.23
633.459	57980.86
633.813	58001.43
634.167	58000.07
634.521	57998.72
634.875	58024.7
635.229	57944.03
635.583	57838.72
635.937	57857.02
636.291	57905.16
636.645	57826.29
636.999	57855.89
637.352	57845.95
637.706	57746.97
638.06	57881.2
638.413	57759.85
638.767	57706.52
639.121	57779.96
639.474	57623.36
639.828	57683.47
640.181	57667.42
640.534	57670.14
640.888	57572.74
641.241	57539.52
641.594	57610.48
641.947	57666.29
642.301	57544.49
642.654	57586.07
643.007	57655.45
643.36	57575.45
643.713	57460.65
644.066	57603.02
644.419	57483.47
644.771	57262.92
645.124	56981.11
645.477	57059.98
645.83	56794.9
646.182	56650.5
646.535	56530.28
646.888	56680.11
647.24	56476.72
647.593	56665.64
647.945	56582.93
648.298	56467.91
648.65	56325.76
649.002	56303.62
649.355	56382.71
649.707	56350.17
650.059	56502.94
650.411	56720.78
650.763	56668.81
651.115	57025.18
651.467	56852.98
651.819	56718.97
652.171	56755.81
652.523	56730.95
652.875	56692.31
653.227	56664.29
653.578	56723.72
653.93	56667.22
654.282	56489.83
654.633	56455.93
654.985	56423.62
655.337	56449.83
655.688	56502.03
656.039	56511.3
656.391	56323.05
656.742	56352.43
657.094	56334.58
657.445	56415.71
657.796	56304.52
658.147	56244.86
658.498	56209.61
658.849	56271.75
659.2	56175.94
659.551	56123.74
659.902	56195.15
660.253	56128.71
660.604	56134.13
660.955	56020.46
661.306	56088.03
661.656	56023.17
662.007	56092.1
662.358	56083.74
662.708	55982.27
663.059	55989.28
663.409	55874.25
663.76	55957.86
664.11	55952.22
664.461	56034.7
664.811	56040.12
665.161	55994.02
665.511	55888.26
665.862	55977.53
666.212	56094.81
666.562	55994.7
666.912	56048.48
667.262	55948.37
667.612	55988.37
667.962	55999.22
668.312	55966.45
668.662	56040.35
669.011	55990.86
669.361	55975.72
669.711	55928.71
670.06	55810.75
670.41	55831.99
670.76	55806.23
671.109	55899.34
671.459	55857.08
671.808	55814.59
672.157	55822.28
672.507	55604.43
672.856	55670.64
673.205	55703.86
673.554	55796.29
673.904	55652.34
674.253	55704.99
674.602	55660.47
674.951	55213.48
675.3	55096.87
675.649	55516.75
675.998	55466.58
676.346	55484.66
676.695	55480.36
677.044	55289.18
677.393	55397.43
677.741	55362.85
678.09	55298.9
678.438	55192.24
678.787	55265.91
679.135	55248.5
679.484	55088.06
679.832	55173.48
680.181	54940.49
680.529	54984.11
680.877	54918.34
681.225	54840.38
681.573	54986.36
681.922	54701.63
682.27	54663.66
682.618	54629.09
682.966	54628.86
683.314	54728.97
683.661	54574.4
684.009	54540.5
684.357	54349.09
684.705	54274.07
685.053	54317.68
685.4	54272.49
685.748	54114.52
686.095	54089.89
686.443	53954.98
686.79	53967.18
687.138	54047.63
687.485	53987.52
687.832	53884.47
688.18	53860.74
688.527	53705.04
688.874	53672.95
689.221	53546.18
689.568	53600.64
689.915	53399.74
690.262	53366.52
690.609	53303.02
690.956	53191.16
691.303	53187.77
691.65	53106.19
691.997	53074.55
692.344	52849.02
692.69	52811.28
693.037	52927.21
693.383	52533.32
693.73	52740.32
694.077	52630.72
694.423	52578.52
694.769	52369.48
695.116	52447.45
695.462	52303.27
695.808	52242.48
696.155	52177.63
696.501	52069.61
696.847	52039.32
697.193	51802.04
697.539	51927.91
697.885	51640.92
698.231	51620.58
698.577	51637.75
698.923	51576.29
699.269	51435.72
699.614	51255.16
699.96	51202.06
700.306	51251.77
700.651	51176.97
700.997	50982.85
701.342	50893.59
701.688	50873.25
702.033	50843.87
702.379	50842.29
702.724	50630.32
703.069	50617.89
703.415	50195.76
703.76	50235.98
704.105	50325.92
704.45	50168.41
704.795	49927.74
705.14	49816.78
705.485	49790.57
705.83	49621.53
706.175	49735.2
706.52	49658.37
706.865	49434.65
707.209	49473.29
707.554	49341.09
707.899	49350.58
708.243	49015.67
708.588	49098.84
708.932	48633.99
709.277	48710.6
709.621	48789.01
709.966	48495.69
710.31	48507.89
710.654	48012.76
710.998	48364.62
711.342	48244.4
711.687	48069.71
712.031	47950.17
712.375	47862.71
712.719	47852.54
713.063	47678.76
713.407	47837.17
713.75	47543.85
714.094	47488.71
714.438	47311.54
714.782	47367.58
715.125	47162.62
715.469	47185.21
715.812	46908.39
716.156	46745.9
716.499	46823.87
716.843	46672.69
717.186	46539.58
717.53	46619.35
717.873	46539.58
718.216	46363.77
718.559	46315.18
718.902	46114.96
719.246	46013.27
719.589	45937.34
719.932	45836.32
720.275	45791.13
720.617	45801.52
720.96	45671.36
721.303	45517.01
721.646	45573.73
721.989	45364.7
722.331	45569.89
722.674	45489.67
723.016	45455.32
723.359	45376.9
723.701	45293.74
724.044	45127.19
724.386	44917.03
724.729	44996.12
725.071	44858.72
725.413	44690.59
725.755	44712.96
726.097	44625.73
726.439	44529.69
726.782	44480.43
727.124	44668.22
727.465	44451.5
727.807	44445.17
728.149	44186.2
728.491	44189.13
728.833	44286.53
729.175	44125.86
729.516	44066.43
729.858	43990.72
730.199	43981.68
730.541	43819.65
730.882	43865.98
731.224	44068.23
731.565	43689.71
731.906	43719.77
732.248	43740.56
732.589	43481.81
732.93	43514.35
733.271	43510.06
733.612	43608.59
733.953	43413.56
734.294	43356.84
734.635	43260.35
734.976	43231.42
735.317	43129.73
735.658	43076.17
735.999	42999.34
736.339	42939.9
736.68	43082.5
737.021	42814.48
737.361	42755.27
737.702	42792.11
738.042	42630.76
738.383	42621.72
738.723	42577.2
739.063	42337.66
739.404	42583.98
739.744	42491.55
740.084	42159.81
740.424	42175.4
740.764	41989.87
741.104	42136.99
741.444	41871.91
741.784	41873.26
742.124	41858.12
742.464	41744
742.804	41642.08
743.143	41460.39
743.483	41514.18
743.823	41287.52
744.162	41391.02
744.502	41289.32
744.841	41094.3
745.181	41196.45
745.52	41023.34
745.86	40961.87
746.199	40840.75
746.538	40802.33
746.877	40826.74
747.216	40698.38
747.556	40605.73
747.895	40514.66
748.234	40293.64
748.573	40225.17
748.911	40130.71
749.25	40093.88
749.589	40057.72
749.928	40133.65
750.267	39973.43
750.605	39782.92
750.944	39755.13
751.283	39411.18
751.621	39628.58
751.96	39351.52
752.298	39369.15
752.636	39316.27
752.975	39051.87
753.313	38959.89
753.651	39192.66
753.989	38867.24
754.327	38874.92
754.666	38867.24
755.004	38665.66
755.342	38624.31
755.679	38492.34
756.017	38442.85
756.355	38445.33
756.693	38335.73
757.031	38425.44
757.368	38145.68
757.706	38040.82
758.044	37768.06
758.381	37905.23
758.719	37834.95
759.056	37752.47
759.394	37634.73
759.731	37468.86
760.068	37363.55
760.405	37412.82
760.743	37123.78
761.08	37253.95
761.417	36979.15
761.754	36859.61
762.091	36898.03
762.428	36664.81
762.765	36469.34
763.102	36701.65
763.438	36592.5
763.775	36398.15
764.112	36390.7
764.449	36363.13
764.785	36163.58
765.122	35987.09
765.458	35699.19
765.795	35821.9
766.131	35759.75
766.467	35588.91
766.804	35382.81
767.14	35342.36
767.476	35325.86
767.812	35240.67
768.148	35184.4
768.485	34976.95
768.821	34913.22
769.157	34655.6
769.492	34644.75
769.828	34766.78
770.164	34405.66
770.5	34351.88
770.836	34401.37
771.171	34026.46
771.507	34007.71
771.842	33786.92
772.178	33863.53
772.513	33703.53
772.849	33496.53
773.184	33506.03
773.519	33555.29
773.855	33306.26
774.19	33108.97
774.525	32925.02
774.86	32995.76
775.195	32860.85
775.53	32666.05
775.865	32559.61
776.2	32242.56
776.535	32078.72
776.87	32087.31
777.205	31885.28
777.539	31778.61
777.874	31890.7
778.209	31519.41
778.543	31597.83
778.878	31354.44
779.212	31268.12
779.547	31098.18
779.881	31069.03
780.215	30886.21
780.55	30999.88
780.884	30645.99
781.218	30622.49
781.552	30454.58
781.886	30264.76
782.22	30050.3
782.554	30102.73
782.888	29772.79
783.222	29563.08
783.556	29540.48
783.889	29438.11
784.223	29213.26
784.557	29050.78
784.89	29170.32
785.224	28984.11
785.557	28832.48
785.891	28720.16
786.224	28602.88
786.558	28652.37
786.891	28360.62
787.224	28338.93
787.557	28148.43
787.891	28074.98
788.224	28122.66
788.557	28095.77
788.89	27871.6
789.223	27853.97
789.556	27670.7
789.888	27605.39
790.221	27508.67
790.554	27292.86
790.887	27208.34
791.219	27172.86
791.552	27065.52
791.884	26877.73
792.217	26931.96
792.549	26654.68
792.882	26585.08
793.214	26432.77
793.546	26486.78
793.879	26203.39
794.211	26150.06
794.543	26235.71
794.875	26253.79
795.207	26109.16
795.539	26005.88
795.871	26052.44
796.203	25704.65
796.535	25619.91
796.867	25646.57
797.198	25515.28
797.53	25593.47
797.862	25391.89
798.193	25399.35
798.525	25277.99
798.856	25337.2
799.188	25001.16
799.519	24961.62
799.85	24853.6
800.182	24867.83
800.513	24769.31
800.844	24667.61
801.175	24823.54
801.506	24848.4
801.837	24580.84
802.168	24560.95
802.499	24447.05
802.83	24330.45
803.161	24329.54
803.491	24323.44
803.822	24374.97
804.153	24113.73
804.483	24083.9
804.814	23944.47
805.145	23828.77
805.475	23918.71
805.805	23801.87
806.136	23838.03
806.466	23832.16
806.796	23752.61
807.126	23662.22
807.457	23521.2
807.787	23479.4
808.117	23367.76
808.447	23322.34
808.777	23390.13
809.107	23285.73
809.436	23140.65
809.766	23211.61
810.096	23225.17
810.426	22981.56
810.755	23014.78
811.085	22964.16
811.414	22905.4
811.744	22820.66
812.073	22759.42
812.403	22618.85
812.732	22559.65
813.061	22429.48
813.39	22317.85
813.719	22360.33
814.049	22511.06
814.378	22402.14
814.707	22307.22
815.036	22279.43
815.365	22234.68
815.693	21988.14
816.022	22095.93
816.351	21868.59
816.68	21805.99
817.008	21780.23
817.337	21660.91
817.665	21638.77
817.994	21660.69
818.322	21606
818.651	21454.14
818.979	21402.16
819.307	21513.57
819.636	21380.69
819.964	21192
820.292	21255.05
820.62	21209.85
820.948	21170.08
821.276	21287.36
821.604	21157.2
821.932	21178.44
822.259	21059.12
822.587	21157.2
822.915	21032.23
823.243	21090.08
823.57	21067.93
823.898	21095.96
824.225	20979.58
824.553	20842.18
824.88	20987.03
825.207	20908.62
825.535	20852.12
825.862	21001.27
826.189	20898.45
826.516	20937.99
826.843	20939.8
827.17	20902.97
827.497	20890.31
827.824	20777.32
828.151	20820.03
828.478	20646.48
828.805	20740.94
829.131	20666.36
829.458	20688.28
829.785	20501.17
830.111	20694.84
830.438	20669.98
830.764	20670.88
831.09	20642.18
831.417	20561.96
831.743	20596.31
832.069	20643.99
832.395	20468.18
832.722	20505.69
833.048	20429.53
833.374	20389.76
833.7	20411.68
834.026	20319.93
834.351	20457.78
834.677	20415.97
835.003	20398.35
835.329	20391.12
835.654	20340.04
835.98	20294.85
836.306	20337.11
836.631	20289.42
836.956	20223.44
837.282	20275.19
837.607	20197.68
837.932	20016.44
838.258	20006.95
838.583	20054.18
838.908	20043.78
839.233	19982.77
839.558	20055.31
839.883	19887.17
840.208	19837.01
840.533	19919.72
840.858	19849.89
841.182	19879.49
841.507	19731.7
841.832	19794.07
842.156	19663
842.481	19702.77
842.805	19698.93
843.13	19738.7
843.454	19663
843.778	19652.38
844.103	19631.14
844.427	19498.71
844.751	19623
845.075	19461.65
845.399	19462.33
845.723	19291.94
846.047	19390.01
846.371	19228.66
846.695	19307.76
847.019	19013.98
847.343	19050.13
847.666	18980.76
847.99	18890.14
848.313	18922.45
848.637	18687.88
848.96	18779.41
849.284	18700.54
849.607	18534.22
849.931	18429.13
850.254	18410.6
850.577	18332.64
850.9	18127
851.223	18143.72
851.546	18182.36
851.869	18009.48
852.192	18060.56
852.515	17941.92
852.838	17881.8
853.161	17827.57
853.483	17692.2
853.806	17636.61
854.129	17690.85
854.451	17592.77
854.774	17580.34
855.096	17492.44
855.419	17433.91
855.741	17336.06
856.063	17238.88
856.385	17247.47
856.708	17123.63
857.03	17147.13
857.352	17080.92
857.674	17044.09
857.996	16925.44
858.318	16897.42
858.64	16812.91
858.961	16730.87
859.283	16776.97
859.605	16729.52
859.926	16718.44
860.248	16607.26
860.57	16508.73
860.891	16489.75
861.212	16433.25
861.534	16479.58
861.855	16429.64
862.176	16376.53
862.498	16370.43
862.819	16315.29
863.14	16202.07
863.461	16181.06
863.782	16063.32
864.103	16059.25
864.424	16136.76
864.745	16062.42
865.065	15963.21
865.386	15835.53
865.707	15916.21
866.027	15960.95
866.348	15817.68
866.668	15846.15
866.989	15807.28
867.309	15696.1
867.63	15733.61
867.95	15803.44
868.27	15548.98
868.59	15631.02
868.91	15522.32
869.23	15512.6
869.55	15527.52
869.87	15491.58
870.19	15448.2
870.51	15352.38
870.83	15286.62
871.15	15302.66
871.469	15233.96
871.789	15408.42
872.109	15309.22
872.428	15170.91
872.748	15094.98
873.067	15103.35
873.386	15035.78
873.706	15072.16
874.025	15042.78
874.344	15021.54
874.663	15058.15
874.982	15043.91
875.301	14934.99
875.62	14907.19
875.939	14855.22
876.258	14789
876.577	14783.35
876.896	14823.13
877.214	14734.77
877.533	14785.84
877.852	14685.5
878.17	14680.76
878.489	14691.61
878.807	14668.33
879.125	14563.92
879.444	14682.34
879.762	14526.86
880.08	14510.14
880.398	14420.88
880.716	14533.19
881.034	14437.6
881.352	14440.99
881.67	14360.31
881.988	14385.4
882.306	14289.13
882.624	14261.79
882.941	14260.2
883.259	14214.78
883.577	14220.21
883.894	14112.64
884.212	14092.3
884.529	14237.15
884.846	14202.8
885.164	14075.8
885.481	14041.45
885.798	14049.36
886.115	13947.44
886.432	14047.33
886.75	13930.95
887.067	13928.69
887.383	13945.64
887.7	13911.96
888.017	13782.93
888.334	13827.67
888.651	13721.91
888.967	13822.25
889.284	13773.21
889.6	13699.54
889.917	13622.25
890.233	13582.71
890.55	13643.5
890.866	13598.07
891.182	13552.65
891.498	13470.17
891.815	13454.8
892.131	13384.75
892.447	13378.19
892.763	13339.1
893.079	13345.65
893.395	13268.37
893.71	13237.63
894.026	13179.1
894.342	13150.4
894.657	13145.43
894.973	13114.02
895.289	12992.67
895.604	13019.56
895.92	12993.57
896.235	12911.09
896.55	12878.09
896.865	12931.43
897.181	12844.2
897.496	12794.71
897.811	12714.03
898.126	12742.96
898.441	12731.2
898.756	12608.5
899.071	12610.98
899.386	12597.87
899.7	12479.69
900.015	12512.91
900.33	12418.67
900.644	12452.79
900.959	12469.52
901.273	12319.24
901.588	12264.55
901.902	12203.54
902.216	12256.42
902.531	12239.01
902.845	12171.22
903.159	12050.09
903.473	12060.26
903.787	11991.79
904.101	11902.07
904.415	11926.25
904.729	11879.48
905.042	11850.55
905.356	11870.21
905.67	11840.83
905.984	11775.07
906.297	11710.89
906.611	11535.53
906.924	11578.92
907.237	11556.55
907.551	11534.85
907.864	11421.63
908.177	11384.12
908.491	11349.09
908.804	11358.59
909.117	11280.17
909.43	11163.34
909.743	11092.38
910.056	11119.95
910.368	11100.06
910.681	11036.56
910.994	10972.61
911.307	10879.95
911.619	10820.29
911.932	10877.02
912.244	10862.55
912.557	10788.21
912.869	10676.34
913.181	10666.17
913.494	10623.69
913.806	10543.01
914.118	10552.73
914.43	10418.5
914.742	10467.99
915.054	10403.13
915.366	10297.6
915.678	10275.68
915.99	10240.2
916.302	10177.37
916.613	10110.93
916.925	10086.75
917.236	9988.9
917.548	10002.69
917.859	10011.95
918.171	9926.98
918.482	9946.19
918.794	9769.47
919.105	9710.72
919.416	9677.5
919.727	9649.93
920.038	9622.59
920.349	9530.61
920.66	9462.82
920.971	9471.86
921.282	9393.21
921.593	9313.22
921.903	9260.79
922.214	9251.07
922.525	9130.4
922.835	9186.89
923.146	9061.02
923.456	9093.79
923.767	8964.07
924.077	8987.8
924.387	8923.4
924.697	8880.46
925.008	8856.28
925.318	8798.88
925.628	8753
925.938	8748.94
926.248	8648.15
926.558	8674.36
926.867	8581.94
927.177	8584.65
927.487	8524.08
927.796	8418.55
928.106	8431.88
928.416	8350.98
928.725	8383.52
929.034	8295.16
929.344	8300.59
929.653	8245
929.962	8188.5
930.271	8106.02
930.581	8089.29
930.89	8058.56
931.199	7953.25
931.508	8043.64
931.817	7929.3
932.125	7920.94
932.434	7875.97
932.743	7856.3
933.051	7859.47
933.36	7771.56
933.669	7730.21
933.977	7727.04
934.286	7741.05
934.594	7682.75
934.902	7594.39
935.21	7551.45
935.519	7537.22
935.827	7491.12
936.135	7503.32
936.443	7400.27
936.751	7365.7
937.059	7387.16
937.367	7313.49
937.674	7396.2
937.982	7264
938.29	7269.43
938.597	7258.13
938.905	7194.63
939.213	7142.43
939.52	7127.28
939.827	7184.46
940.135	7058.81
940.442	7061.07
940.749	7042.99
941.056	7034.18
941.363	6988.3
941.67	6966.38
941.977	6900.4
942.284	6896.56
942.591	6864.69
942.898	6827.18
943.205	6844.58
943.511	6724.58
943.818	6768.2
944.125	6698.14
944.431	6742.21
944.738	6676.22
945.044	6655.43
945.35	6636
945.657	6598.94
945.963	6607.75
946.269	6546.96
946.575	6615.66
946.881	6497.47
947.187	6509.45
947.493	6504.7
947.799	6444.82
948.105	6421.54
948.41	6359.39
948.716	6419.73
949.022	6346.97
949.327	6356.46
949.633	6276.91
949.938	6347.87
950.244	6286.85
950.549	6208.44
950.854	6214.99
951.16	6193.75
951.465	6191.26
951.77	6104.49
952.075	6166.63
952.38	6154.43
952.685	6105.39
952.99	6023.36
953.294	6029.69
953.599	6035.11
953.904	6017.93
954.209	5950.37
954.513	5990.14
954.818	5948.11
955.122	5946.75
955.426	5925.06
955.731	5890.48
956.035	5861.33
956.339	5819.97
956.643	5799.18
956.948	5754.89
957.252	5756.02
957.556	5753.08
957.86	5759.41
958.163	5712.41
958.467	5682.35
958.771	5663.59
959.075	5607.78
959.378	5600.77
959.682	5611.17
959.985	5572.3
960.289	5510.6
960.592	5495.01
960.896	5439.65
961.199	5452.75
961.502	5429.25
961.805	5427.67
962.108	5353.09
962.411	5386.77
962.714	5289.82
963.017	5349.25
963.32	5318.74
963.623	5267.9
963.926	5257.05
964.228	5237.39
964.531	5161.91
964.833	5194.68
965.136	5121.01
965.438	5100.44
965.741	5025.19
966.043	5080.33
966.345	5049.37
966.648	5012.54
966.95	5065.87
967.252	5019.54
967.554	4938.42
967.856	4909.26
968.158	4847.12
968.46	4859.77
968.761	4826.33
969.063	4802.6
969.365	4794.46
969.666	4802.37
969.968	4702.04
970.269	4672.66
970.571	4681.47
970.872	4723.05
971.174	4631.53
971.475	4584.3
971.776	4566
972.077	4564.87
972.378	4548.6
972.679	4601.93
972.98	4525.09
973.281	4482.16
973.582	4480.35
973.883	4432.89
974.183	4397.64
974.484	4422.72
974.785	4408.26
975.085	4369.62
975.386	4338.21
975.686	4258.66
975.986	4274.03
976.287	4276.51
976.587	4224.31
976.887	4241.03
977.187	4197.19
977.487	4235.16
977.787	4202.84
978.087	4096.18
978.387	4106.35
978.687	4114.03
978.987	4082.62
979.286	4033.13
979.586	4017.99
979.885	3996.29
980.185	3960.14
980.484	3968.72
980.784	3954.26
981.083	3916.97
981.382	3879.01
981.682	3871.1
981.981	3822.29
982.28	3861.61
982.579	3789.97
982.878	3809.86
983.177	3810.08
983.475	3751.78
983.774	3702.29
984.073	3697.09
984.372	3676.98
984.67	3703.19
984.969	3669.07
985.267	3643.53
985.566	3595.85
985.864	3613.48
986.162	3609.64
986.461	3540.26
986.759	3552.24
987.057	3551.56
987.355	3496.42
987.653	3483.99
987.951	3446.93
988.249	3436.76
988.547	3440.6
988.844	3409.87
989.142	3438.34
989.44	3380.49
989.737	3378.46
990.035	3401.28
990.332	3368.97
990.63	3321.96
990.927	3314.05
991.224	3313.37
991.521	3281.28
991.819	3283.54
992.116	3249.87
992.413	3267.72
992.71	3192.7
993.006	3218.91
993.303	3177.56
993.6	3167.16
993.897	3127.16
994.193	3125.81
994.49	3168.07
994.787	3111.34
995.083	3064.34
995.379	3064.79
995.676	3051.01
995.972	3015.08
996.268	3020.73
996.565	2978.92
996.861	3017.11
997.157	2984.34
997.453	3001.52
997.749	2982.53
998.044	2945.93
998.34	2908.64
998.636	2925.81
998.932	2923.33
999.227	2866.38
999.523	2877
999.818	2864.35
1000.114	2881.52
1000.409	2829.32
1000.704	2799.26
1001	2804.01
1001.295	2780.51
1001.59	2806.72
1001.885	2759.94
1002.18	2752.26
1002.475	2730.79
1002.77	2692.15
1003.065	2698.47
1003.359	2688.08
1003.654	2690.34
1003.949	2639.94
1004.243	2630.68
1004.538	2594.75
1004.832	2626.61
1005.127	2638.81
1005.421	2604.69
1005.715	2572.38
1006.009	2581.64
1006.304	2577.8
1006.598	2525.37
1006.892	2530.8
1007.186	2532.38
1007.48	2519.04
1007.773	2498.93
1008.067	2448.99
1008.361	2422.32
1008.655	2442.21
1008.948	2441.08
1009.242	2422.55
1009.535	2378.71
1009.829	2385.71
1010.122	2393.62
1010.415	2368.54
1010.708	2373.74
1011.001	2359.5
1011.295	2340.52
1011.588	2324.02
1011.881	2329.44
1012.173	2300.97
1012.466	2250.12
1012.759	2290.8
1013.052	2291.03
1013.344	2265.04
1013.637	2235.21
1013.93	2220.52
1014.222	2196.34
1014.514	2207.64
1014.807	2184.82
1015.099	2192.27
1015.391	2151.14
1015.683	2171.48
1015.976	2148.43
1016.268	2145.72
1016.56	2121.99
1016.851	2083.8
1017.143	2067.08
1017.435	2093.74
1017.727	2082.67
1018.018	2050.13
1018.31	2045.38
1018.602	2032.28
1018.893	2020.98
1019.185	1983.01
1019.476	1974.2
1019.767	1974.2
1020.058	1951.15
1020.35	1905.5
1020.641	1901.43
1020.932	1905.95
1021.223	1916.8
1021.514	1887.42
1021.804	1865.73
1022.095	1885.39
1022.386	1864.82
1022.677	1840.42
1022.967	1813.07
1023.258	1808.33
1023.548	1771.72
1023.839	1766.52
1024.129	1778.27
1024.419	1757.03
1024.709	1734.21
1025	1733.08
1025.29	1716.81
1025.58	1742.79
1025.87	1683.36
1026.16	1700.53
1026.449	1665.28
1026.739	1693.08
1027.029	1633.42
1027.319	1660.54
1027.608	1599.97
1027.898	1604.04
1028.187	1582.8
1028.477	1583.93
1028.766	1576.92
1029.055	1554.32
1029.344	1558.39
1029.634	1526.75
1029.923	1547.54
1030.212	1530.37
1030.501	1500.31
1030.79	1499.86
1031.078	1473.65
1031.367	1497.38
1031.656	1467.09
1031.945	1458.51
1032.233	1430.48
1032.522	1454.89
1032.81	1421.67
1033.099	1408.11
1033.387	1412.63
1033.675	1381.45
1033.963	1388.45
1034.251	1397.94
1034.54	1389.81
1034.828	1369.7
1035.116	1344.61
1035.403	1316.59
1035.691	1354.33
1035.979	1325.18
1036.267	1306.19
1036.554	1305.74
1036.842	1285.63
1037.129	1272.98
1037.417	1278.85
1037.704	1255.35
1037.992	1236.37
1038.279	1235.46
1038.566	1227.55
1038.853	1227.55
1039.14	1227.55
