Data from white_wall_FLMS001491_022.txt Node
Date: Tue Feb 07 11:04:00 GMT 2017
User: dcchb
Spectrometer: FLMS00149
Trigger mode: 0
Integration Time (sec): 2.000000E-2
Scans to average: 10
Electric dark correction enabled: true
Nonlinearity correction enabled: false
Boxcar width: 0
XAxis mode: Wavelengths
Number of Pixels in Spectrum: 2048
>>>>>Begin Spectral Data<<<<<
341.393	-12.68
341.776	-12.68
342.16	-12.68
342.543	-50.42
342.927	-68.95
343.31	-71.89
343.693	-68.5
344.077	-50.42
344.46	-63.3
344.843	-32.57
345.226	-30.76
345.61	-50.2
345.993	-30.99
346.376	-4.77
346.759	-4.1
347.142	15.11
347.525	50.14
347.908	59.63
348.291	73.87
348.674	86.98
349.057	121.78
349.44	127.2
349.823	131.27
350.206	170.59
350.588	219.4
350.971	232.28
351.354	253.75
351.737	249.23
352.119	278.61
352.502	271.83
352.884	301.66
353.267	282.9
353.65	315.9
354.032	323.35
354.414	329
354.797	330.81
355.179	352.73
355.562	334.2
355.944	345.73
356.326	361.32
356.709	323.81
357.091	351.6
357.473	344.82
357.855	364.03
358.238	356.35
358.62	358.61
359.002	366.29
359.384	357.93
359.766	345.5
360.148	345.5
360.53	354.76
360.912	381.2
361.294	340.08
361.676	357.02
362.057	346.18
362.439	352.73
362.821	348.66
363.203	357.7
363.584	336.91
363.966	338.95
364.348	355.44
364.729	350.47
365.111	341.43
365.493	340.98
365.874	351.6
366.256	319.29
366.637	333.97
367.019	333.52
367.4	334.65
367.781	323.58
368.163	328.32
368.544	337.36
368.925	317.48
369.306	331.04
369.688	323.81
370.069	328.78
370.45	335.33
370.831	327.42
371.212	339.85
371.593	341.21
371.974	340.98
372.355	349.79
372.736	333.3
373.117	333.3
373.498	337.14
373.879	326.97
374.26	334.88
374.641	340.08
375.021	326.74
375.402	332.84
375.783	361.77
376.163	340.53
376.544	354.76
376.925	343.69
377.305	348.89
377.686	337.36
378.066	353.18
378.447	378.94
378.827	336.69
379.208	356.8
379.588	373.3
379.968	350.92
380.349	352.28
380.729	363.58
381.109	362
381.489	371.26
381.87	368.55
382.25	364.48
382.63	362
383.01	385.95
383.39	370.58
383.77	388.66
384.15	368.55
384.53	390.92
384.91	401.77
385.29	398.38
385.67	378.27
386.049	399.06
386.429	401.54
386.809	388.66
387.189	385.05
387.568	406.97
387.948	412.62
388.328	416.68
388.707	393.41
389.087	413.52
389.466	412.16
389.846	432.28
390.225	433.18
390.605	431.15
390.984	447.87
391.363	459.17
391.743	433.41
392.122	466.17
392.501	465.95
392.881	465.27
393.26	474.31
393.639	478.38
394.018	472.5
394.397	494.65
394.776	480.64
395.155	486.96
395.534	507.76
395.913	517.25
396.292	538.49
396.671	514.53
397.05	524.93
397.429	538.49
397.808	559.28
398.186	537.13
398.565	578.04
398.944	576
399.323	572.16
399.701	584.82
400.08	586.85
400.458	608.77
400.837	601.76
401.215	601.54
401.594	659.16
401.972	646.73
402.351	637.47
402.729	660.07
403.107	674.98
403.486	687.19
403.864	693.51
404.242	691.25
404.62	675.89
404.999	731.03
405.377	736.9
405.755	741.42
406.133	763.12
406.511	780.74
406.889	775.09
407.267	799.27
407.645	792.72
408.023	827.75
408.401	840.4
408.779	878.37
409.156	869.55
409.534	872.27
409.912	921.98
410.29	938.25
410.667	935.54
411.045	975.09
411.422	970.34
411.8	972.83
412.178	1013.5
412.555	1012.15
412.933	999.04
413.31	1018.93
413.687	1041.98
414.065	1046.95
414.442	1080.85
414.819	1091.69
415.197	1088.3
415.574	1145.93
415.951	1148.42
416.328	1125.82
416.705	1160.39
417.082	1154.29
417.46	1171.47
417.837	1221.18
418.214	1207.62
418.591	1222.76
418.967	1203.78
419.344	1239.26
419.721	1263.44
420.098	1269.54
420.475	1279.26
420.852	1285.36
421.228	1333.95
421.605	1333.5
421.982	1351.57
422.358	1342.08
422.735	1351.12
423.111	1353.38
423.488	1397.9
423.864	1410.33
424.241	1409.65
424.617	1436.09
424.994	1425.7
425.37	1497.11
425.746	1456.43
426.123	1506.82
426.499	1502.98
426.875	1521.29
427.251	1534.85
427.627	1594.28
428.003	1607.39
428.379	1605.81
428.756	1641.96
429.132	1652.81
429.507	1680.83
429.883	1686.93
430.259	1752.24
430.635	1738.01
431.011	1761.96
431.387	1794.5
431.763	1832.69
432.138	1851.9
432.514	1837.66
432.89	1895.52
433.265	1936.87
433.641	1934.84
434.016	1945.46
434.392	1989.52
434.767	2019.13
435.143	2019.81
435.518	2050.77
435.894	2089.63
436.269	2111.1
436.644	2136.64
437.02	2169.41
437.395	2145.45
437.77	2206.24
438.145	2252.12
438.52	2260.48
438.895	2263.42
439.271	2288.05
439.646	2331.66
440.021	2354.26
440.395	2373.92
440.77	2316.3
441.145	2391.1
441.52	2432.22
441.895	2424.99
442.27	2441.94
442.645	2441.49
443.019	2478.1
443.394	2458.66
443.769	2542.28
444.143	2525.33
444.518	2558.32
444.892	2604.42
445.267	2606.91
445.641	2589.96
446.016	2641.48
446.39	2655.04
446.764	2659.79
447.139	2695.49
447.513	2755.61
447.887	2743.4
448.262	2744.98
448.636	2743.18
449.01	2851.2
449.384	2817.52
449.758	2821.37
450.132	2885.77
450.506	2900.69
450.88	2948.59
451.254	2966.22
451.628	2975.94
452.002	3031.98
452.376	3059.33
452.75	3059.78
453.123	3108.14
453.497	3165.54
453.871	3160.79
454.244	3247.57
454.618	3264.07
454.992	3304.74
455.365	3334.12
455.739	3408.7
456.112	3417.51
456.486	3461.12
456.859	3471.52
457.232	3573.21
457.606	3567.34
457.979	3595.58
458.352	3691.17
458.725	3727.11
459.099	3731.4
459.472	3828.35
459.845	3874.67
460.218	3918.51
460.591	3989.7
460.964	4004.39
461.337	4066.31
461.71	4127.55
462.083	4202.35
462.456	4184.72
462.829	4214.32
463.201	4287.77
463.574	4317.15
463.947	4339.52
464.32	4464.49
464.692	4518.05
465.065	4534.77
465.438	4659.74
465.81	4702.45
466.183	4718.94
466.555	4852.5
466.928	4866.74
467.3	4859.96
467.672	4950.35
468.045	5109.44
468.417	5090.23
468.789	5109.22
469.161	5225.82
469.534	5323
469.906	5459.04
470.278	5473.95
470.65	5540.39
471.022	5642.54
471.394	5759.14
471.766	5803.43
472.138	5842.3
472.51	5956.2
472.882	6093.82
473.253	6143.77
473.625	6259.02
473.997	6400.03
474.369	6397.54
474.74	6506.47
475.112	6659.68
475.484	6729.51
475.855	6859
476.227	6942.39
476.598	7133.8
476.97	7175.38
477.341	7333.56
477.713	7418.76
478.084	7498.31
478.455	7729.26
478.827	7846.77
479.198	8048.35
479.569	8098.97
479.94	8288.79
480.311	8386.42
480.682	8592.97
481.053	8718.84
481.424	8917.48
481.795	8992.05
482.166	9105.72
482.537	9242.21
482.908	9463.23
483.279	9571.7
483.65	9673.84
484.021	9865.25
484.391	10058.01
484.762	10073.38
485.133	10278.35
485.503	10417.32
485.874	10605.34
486.244	10699.8
486.615	10967.82
486.985	10983.41
487.356	11273.57
487.726	11397.41
488.097	11628.37
488.467	11692.55
488.837	11940.67
489.207	12053.89
489.578	12220.89
489.948	12364.62
490.318	12549.02
490.688	12591.28
491.058	12788.34
491.428	12965.73
491.798	13140.19
492.168	13421.54
492.538	13425.38
492.908	13601.2
493.278	13765.71
493.648	13819.04
494.017	14017
494.387	14121.18
494.757	14325.7
495.126	14466.94
495.496	14581.74
495.866	14606.59
496.235	14760.94
496.605	15000.03
496.974	14993.7
497.344	15241.15
497.713	15240.47
498.082	15485.89
498.452	15564.76
498.821	15733.34
499.19	15758.2
499.559	15892.66
499.928	16157.29
500.298	16194.57
500.667	16347.79
501.036	16307.11
501.405	16564.96
501.774	16574.68
502.143	16738.74
502.512	16910.71
502.88	17062.35
503.249	17085.17
503.618	17176.7
503.987	17216.24
504.356	17425.05
504.724	17503.24
505.093	17693.97
505.462	17784.36
505.83	17898.48
506.199	18107.29
506.567	18284.01
506.936	18257.57
507.304	18609.65
507.672	18645.36
508.041	18734.17
508.409	18939.59
508.777	18987.72
509.145	19207.15
509.514	19128.96
509.882	19410.31
510.25	19465.45
510.618	19667.03
510.986	19762.39
511.354	19914.02
511.722	20269.72
512.09	20372.32
512.458	20367.57
512.826	20529.6
513.193	20688.47
513.561	20711.97
513.929	20989.7
514.297	21142.92
514.664	21281.22
515.032	21331.84
515.4	21611.15
515.767	21687.54
516.135	21812.28
516.502	21810.25
516.869	22179.73
517.237	22300.4
517.604	22245.94
517.972	22526.16
518.339	22724.8
518.706	22795.3
519.073	22900.84
519.44	23091.34
519.808	23361.17
520.175	23396.42
520.542	23724.09
520.909	23759.57
521.276	23997.53
521.643	24188.49
522.009	24272.55
522.376	24537.63
522.743	24630.74
523.11	24888.58
523.477	25147.11
523.843	25257.84
524.21	25587.32
524.577	25751.16
524.943	25749.13
525.31	26019.4
525.676	26244.48
526.043	26449.45
526.409	26458.71
526.776	26780.28
527.142	26950.9
527.508	27027.28
527.874	27330.1
528.241	27422.53
528.607	27527.16
528.973	27904.77
529.339	27874.72
529.705	28187.71
530.071	28317.65
530.437	28444.65
530.803	28657.75
531.169	28825.65
531.535	28745.43
531.901	28914.01
532.267	29099.09
532.632	29155.36
532.998	29394.68
533.364	29475.13
533.73	29735.24
534.095	29838.74
534.461	29964.61
534.826	30170.93
535.192	30236.01
535.557	30537.7
535.923	30463.8
536.288	30619.73
536.653	30720.29
537.019	30765.72
537.384	30995.31
537.749	31142.2
538.114	31215.87
538.479	31362.99
538.845	31491.35
539.21	31434.4
539.575	31609.99
539.94	31866.48
540.305	32073.48
540.67	31948.28
541.034	32061.05
541.399	32303.98
541.764	32350.08
542.129	32457.42
542.494	32562.51
542.858	32654.25
543.223	32706.23
543.587	33082.72
543.952	33062.38
544.316	33152.77
544.681	33182.6
545.045	33353.9
545.41	33504.85
545.774	33655.13
546.138	33639.54
546.503	33852.19
546.867	33871.17
547.231	34268
547.595	34266.19
547.959	34419.63
548.324	34500.08
548.688	34669.34
549.052	34731.71
549.416	34853.52
549.779	34993.63
550.143	35118.37
550.507	35352.04
550.871	35513.39
551.235	35426.38
551.599	35777.34
551.962	35830.22
552.326	36081.06
552.689	36263.65
553.053	36185.46
553.417	36252.35
553.78	36768.72
554.143	36817.31
554.507	37013.69
554.87	36895.5
555.234	37369.38
555.597	37151.76
555.96	37349.95
556.323	37614.8
556.686	37887.56
557.05	37974.11
557.413	37970.72
557.776	38290.94
558.139	38395.35
558.502	38682.57
558.865	38732.74
559.228	38993.3
559.59	39171.15
559.953	39107.42
560.316	39685.71
560.679	39677.8
561.041	39817.46
561.404	40071.46
561.767	40299.93
562.129	40160.95
562.492	40608.17
562.854	40613.14
563.217	40718
563.579	40946.69
563.941	41133.81
564.304	41382.16
564.666	41700.34
565.028	41608.6
565.39	41801.36
565.753	41942.37
566.115	42065.53
566.477	42357.95
566.839	42433.66
567.201	42630.49
567.563	42575.35
567.925	43020.08
568.287	43059.86
568.648	43302.11
569.01	43446.74
569.372	43628.66
569.734	43498.49
570.095	43725.15
570.457	43921.53
570.819	43970.12
571.18	44071.13
571.542	44421.18
571.903	44530.1
572.265	44527.16
572.626	44636.54
572.987	44839.02
573.349	44928.51
573.71	45011.67
574.071	45160.14
574.432	45387.7
574.794	45637.42
575.155	45549.73
575.516	45515.39
575.877	45671.09
576.238	45816.85
576.599	45974.58
576.96	46076.27
577.32	45942.27
577.681	46156.05
578.042	46275.14
578.403	46254.35
578.763	46268.59
579.124	46254.57
579.485	46456.6
579.845	46563.04
580.206	46481.24
580.566	46495.47
580.927	46546.54
581.287	46777.27
581.648	46511.97
582.008	46873.32
582.368	46636.26
582.728	46737.27
583.089	46720.33
583.449	46745.41
583.809	46753.09
584.169	46849.14
584.529	46830.15
584.889	47115.12
585.249	46775.69
585.609	46730.49
585.969	46906.99
586.329	46839.42
586.688	46944.95
587.048	46768.91
587.408	46942.47
587.768	46822.7
588.127	46828.12
588.487	46877.61
588.846	47184.72
589.206	46842.81
589.565	46945.18
589.925	46939.08
590.284	46869.93
590.643	47020.2
591.003	47003.48
591.362	47108.34
591.721	47019.98
592.08	47071.05
592.44	47209.58
592.799	47096.36
593.158	47017.04
593.517	47149.01
593.876	47119.18
594.235	47113.08
594.593	47163.48
594.952	47255.23
595.311	47134.78
595.67	47224.04
596.029	47434.88
596.387	47390.36
596.746	47469.68
597.104	47292.74
597.463	47379.97
597.822	47473.53
598.18	47295.68
598.538	47302.46
598.897	47531.38
599.255	47295.45
599.613	47694.54
599.972	47533.19
600.33	47597.14
600.688	47464.71
601.046	47662.9
601.404	47782.44
601.762	47647.08
602.12	47805.72
602.478	47842.56
602.836	47851.59
603.194	47668.55
603.552	47781.54
603.91	47552.17
604.268	47853.63
604.625	47753.74
604.983	47951.71
605.341	47740.86
605.698	47938.15
606.056	48125.26
606.413	48088.2
606.771	48133.62
607.128	48311.92
607.485	47993.29
607.843	48158.48
608.2	48297.91
608.557	48518.92
608.914	48269.66
609.272	48355.99
609.629	48527.96
609.986	48542.65
610.343	48343.79
610.7	48703.78
611.057	48603.89
611.414	48612.7
611.771	48654.51
612.127	48874.17
612.484	48820.83
612.841	48878.01
613.198	48819.03
613.554	48860.83
613.911	49013.15
614.267	49004.78
614.624	49024.67
614.98	48964.33
615.337	49228.28
615.693	49149.19
616.05	49132.92
616.406	49326.81
616.762	49230.54
617.118	49359.58
617.475	49214.27
617.831	49415.85
618.187	49407.71
618.543	49415.85
618.899	49459.01
619.255	49470.54
619.611	49501.27
619.967	49655.84
620.323	49649.74
620.678	49537.65
621.034	49508.5
621.39	49443.19
621.746	49402.29
622.101	49885.44
622.457	49595.05
622.812	49535.17
623.168	49689.51
623.523	49736.52
623.879	49733.58
624.234	49626.92
624.589	49604.77
624.945	49740.13
625.3	49830.75
625.655	49680.7
626.01	49600.93
626.365	49695.16
626.72	49620.36
627.075	49563.19
627.43	49596.63
627.785	49514.6
628.14	49677.76
628.495	49577.43
628.85	49610.19
629.205	49506.24
629.559	49708.5
629.914	49421.72
630.269	49538.78
630.623	49350.31
630.978	49222.63
631.332	49457.43
631.687	49640.93
632.041	49263.31
632.396	49427.82
632.75	49170.2
633.104	49309.64
633.459	49204.33
633.813	49122.97
634.167	49113.03
634.521	49233.93
634.875	49266.47
635.229	49137.89
635.583	48915.52
635.937	49062.64
636.291	49101.96
636.645	49009.3
636.999	48748.07
637.352	49016.31
637.706	48790.33
638.06	48827.84
638.413	48818.12
638.767	48713.72
639.121	48726.6
639.474	48540.84
639.828	48531.35
640.181	48626.94
640.534	48608.86
640.888	48470.11
641.241	48316.89
641.594	48377
641.947	48450
642.301	48375.65
642.654	48345.82
643.007	48305.37
643.36	48379.72
643.713	48238.48
644.066	48438.02
644.419	48049.78
644.771	47936.56
645.124	47476.24
645.477	47426.07
645.83	47258.84
646.182	47094.33
646.535	46861.11
646.888	47098.62
647.24	46822.7
647.593	47124.16
647.945	46840.77
648.298	46645.07
648.65	46631.97
649.002	46578.86
649.355	46511.07
649.707	46488.69
650.059	46693.66
650.411	47189.47
650.763	47197.15
651.115	47559.17
651.467	47378.16
651.819	47353.75
652.171	47302
652.523	47173.19
652.875	47146.98
653.227	47017.27
653.578	47384.49
653.93	47132.07
654.282	47131.61
654.633	46925.74
654.985	47065.17
655.337	46942.69
655.688	47083.48
656.039	47080.99
656.391	46820.21
656.742	46872.86
657.094	46866.99
657.445	47019.98
657.796	46754.22
658.147	46783.6
658.498	46712.87
658.849	46900.66
659.2	46663.6
659.551	46757.16
659.902	46795.8
660.253	46699.76
660.604	46753.54
660.955	46507.45
661.306	46683.94
661.656	46539.54
662.007	46592.87
662.358	46626.32
662.708	46490.73
663.059	46487.11
663.409	46217.29
663.76	46546.32
664.11	46385.87
664.461	46410.28
664.811	46506.77
665.161	46469.48
665.511	46184.97
665.862	46320.11
666.212	46466.55
666.562	46422.48
666.912	46287.12
667.262	46144.52
667.612	46257.06
667.962	46197.85
668.312	46102.49
668.662	46237.17
669.011	46205.54
669.361	46058.87
669.711	46149.49
670.06	46081.02
670.41	45918.09
670.76	45997.63
671.109	46007.12
671.459	45929.39
671.808	45792.89
672.157	46052.77
672.507	45840.12
672.856	45722.39
673.205	45719.45
673.554	45890.06
673.904	45752.44
674.253	45907.92
674.602	45759.9
674.951	45116.07
675.3	45019.58
675.649	45768.26
675.998	45589.51
676.346	45529.4
676.695	45579.11
677.044	45348.38
677.393	45408.72
677.741	45419.34
678.09	45323.53
678.438	45199.91
678.787	45289.63
679.135	45178.22
679.484	44926.02
679.832	45213.92
680.181	44950.65
680.529	45084.66
680.877	45087.15
681.225	44834.95
681.573	45021.61
681.922	44721.28
682.27	44587.05
682.618	44614.62
682.966	44577.33
683.314	44672.24
683.661	44406.94
684.009	44331.24
684.357	44200.39
684.705	44141.18
685.053	44202.88
685.4	43930.57
685.748	43888.76
686.095	43930.79
686.443	43704.81
686.79	43655.32
687.138	43713.85
687.485	43595.21
687.832	43499.39
688.18	43619.39
688.527	43377.36
688.874	43264.6
689.221	43134.66
689.568	43025.28
689.915	42913.65
690.262	42886.53
690.609	42841.33
690.956	42705.29
691.303	42687.66
691.65	42402.92
691.997	42464.62
692.344	42145.98
692.69	42112.99
693.037	42244.51
693.383	41830.28
693.73	41870.28
694.077	41709.61
694.423	41548.71
694.769	41530.41
695.116	41417.19
695.462	41334.25
695.808	41205.89
696.155	41276.85
696.501	41046.58
696.847	41000.02
697.193	40811.33
697.539	40846.36
697.885	40701.95
698.231	40410.43
698.577	40361.62
698.923	40511.22
699.269	40214.28
699.614	40067.62
699.96	39967.73
700.306	40122.76
700.651	39739.27
700.997	39663.11
701.342	39666.95
701.688	39542.89
702.033	39418.37
702.379	39419.73
702.724	39376.34
703.069	39455.21
703.415	39036.01
703.76	38897.48
704.105	38925.95
704.45	38808.89
704.795	38600.31
705.14	38520.77
705.485	38544.04
705.83	38372.07
706.175	38368.23
706.52	38135.24
706.865	38091.85
707.209	38107.44
707.554	37972.76
707.899	38123.26
708.243	37846.66
708.588	37860.45
708.932	37567.8
709.277	37555.14
709.621	37511.3
709.966	37282.38
710.31	37328.71
710.654	37010.52
710.998	37103.4
711.342	37241.48
711.687	37124.65
712.031	36972.56
712.375	36847.36
712.719	36877.19
713.063	36847.59
713.407	36795.61
713.75	36695.5
714.094	36710.42
714.438	36440.37
714.782	36540.71
715.125	36229.08
715.469	36404.44
715.812	36194.05
716.156	35960.16
716.499	35995.64
716.843	36034.96
717.186	35780.27
717.53	35933.49
717.873	35933.72
718.216	35744.34
718.559	35640.39
718.902	35449.21
719.246	35552.48
719.589	35260.06
719.932	35234.53
720.275	35293.51
720.617	35208.09
720.96	35099.61
721.303	35153.62
721.646	35116.79
721.989	34882.9
722.331	35022.33
722.674	34648.78
723.016	34842.9
723.359	34764.03
723.701	34785.72
724.044	34543.24
724.386	34426.86
724.729	34650.13
725.071	34546.86
725.413	34578.72
725.755	34498.95
726.097	34198.39
726.439	34150.26
726.782	34213.76
727.124	34173.54
727.465	34042.69
727.807	34079.3
728.149	34085.63
728.491	34008.12
728.833	33937.61
729.175	33806.31
729.516	33891.96
729.858	33706.66
730.199	33793.89
730.541	33627.56
730.882	33569.71
731.224	33587.56
731.565	33442.03
731.906	33417.17
732.248	33425.31
732.589	33298.76
732.93	33244.97
733.271	33209.04
733.612	33231.41
733.953	33335.37
734.294	33143.73
734.635	32962.04
734.976	33062.38
735.317	32804.08
735.658	32820.35
735.999	32840.24
736.339	32635.05
736.68	32761.82
737.021	32629.4
737.361	32500.59
737.702	32664.88
738.042	32608.61
738.383	32514.6
738.723	32607.93
739.063	32482.73
739.404	32560.47
739.744	32379.01
740.084	32174.27
740.424	32308.5
740.764	32188.5
741.104	32355.05
741.444	32158.45
741.784	32050.2
742.124	32178.79
742.464	32002.52
742.804	31885.69
743.143	31797.1
743.483	31807.5
743.823	31671.68
744.162	31659.25
744.502	31694.05
744.841	31448.18
745.181	31608.18
745.52	31430.33
745.86	31470.1
746.199	31477.79
746.538	31331.58
746.877	31449.54
747.216	31289.54
747.556	31257
747.895	31323.89
748.234	31050
748.573	31049.32
748.911	30916
749.25	30980.17
749.589	30924.13
749.928	30831.48
750.267	30857.69
750.605	30724.14
750.944	30629.67
751.283	30477.81
751.621	30558.49
751.96	30356.46
752.298	30408.21
752.636	30445.95
752.975	30354.43
753.313	30051.16
753.651	30290.25
753.989	30090.48
754.327	30021.33
754.666	29812.07
755.004	29864.72
755.342	29918.51
755.679	29850.26
756.017	29549.93
756.355	29726.65
756.693	29533.66
757.031	29590.83
757.368	29415.02
757.706	29419.99
758.044	29336.15
758.381	29259.77
758.719	29031.52
759.056	29119.21
759.394	29203.72
759.731	28757.41
760.068	28767.8
760.405	28824.52
760.743	28570.29
761.08	28712.89
761.417	28526.45
761.754	28407.59
762.091	28389.96
762.428	28364.88
762.765	28167.37
763.102	28269.51
763.438	27965.34
763.775	27996.52
764.112	27923.76
764.449	27962.17
764.785	27729.41
765.122	27545.91
765.458	27502.98
765.795	27522.86
766.131	27508.85
766.467	27446.71
766.804	27224.79
767.14	27069.54
767.476	27140.5
767.812	27013.72
768.148	26990.22
768.485	26818.25
768.821	26770.79
769.157	26619.61
769.492	26537.13
769.828	26574.64
770.164	26278.6
770.5	26239.28
770.836	26210.13
771.171	26070.02
771.507	25975.11
771.842	25712.52
772.178	25872.06
772.513	25739.63
772.849	25670.94
773.184	25519.98
773.519	25564.72
773.855	25324.5
774.19	25143.72
774.525	25221.68
774.86	25114.34
775.195	24978.07
775.53	24937.17
775.865	24776.04
776.2	24663.73
776.535	24438.43
776.87	24537.41
777.205	24358.88
777.539	24254.7
777.874	24350.74
778.209	24101.03
778.543	24118.21
778.878	23982.17
779.212	23953.01
779.547	23832.79
779.881	23886.58
780.215	23621.27
780.55	23694.04
780.884	23518.68
781.218	23457.43
781.552	23447.49
781.886	23300.38
782.22	23254.28
782.554	23160.94
782.888	22965.7
783.222	22912.82
783.556	22831.46
783.889	22716.66
784.223	22462.88
784.557	22561.64
784.89	22495.65
785.224	22373.39
785.557	22404.35
785.891	22239.16
786.224	22251.14
786.558	22194.64
786.891	21893.63
787.224	21951.03
787.557	21840.53
787.891	21818.83
788.224	21842.34
788.557	21713.75
788.89	21574.55
789.223	21649.35
789.556	21461.1
789.888	21301.78
790.221	21317.38
790.554	21133.88
790.887	21165.74
791.219	20916.71
791.552	20991.51
791.884	20860.21
792.217	20927.11
792.549	20839.88
792.882	20656.38
793.214	20607.79
793.546	20648.92
793.879	20492.77
794.211	20331.64
794.543	20402.37
794.875	20257.07
795.207	20387.68
795.539	20161.25
795.871	20252.09
796.203	20080.8
796.535	19925.55
796.867	19841.03
797.198	19817.3
797.53	19762.16
797.862	19668.83
798.193	19784.54
798.525	19626.12
798.856	19585.22
799.188	19410.76
799.519	19343.87
799.85	19225.68
800.182	19260.26
800.513	19211.22
800.844	19119.47
801.175	19103.88
801.506	19065.46
801.837	18998.79
802.168	18946.37
802.499	18898.68
802.83	18781.85
803.161	18731.46
803.491	18661.85
803.822	18695.98
804.153	18572.59
804.483	18394.29
804.814	18401.75
805.145	18313.39
805.475	18366.95
805.805	18273.16
806.136	18302.09
806.466	18260.51
806.796	18198.36
807.126	18068.65
807.457	18003.34
807.787	18022.55
808.117	17907.07
808.447	17824.81
808.777	17853.51
809.107	17819.39
809.436	17693.97
809.766	17657.59
810.096	17634.99
810.426	17655.55
810.755	17563.58
811.085	17498.04
811.414	17485.61
811.744	17368.33
812.073	17347.09
812.403	17290.36
812.732	17133.98
813.061	17270.93
813.39	17151.39
813.719	17122.69
814.049	17175.57
814.378	17104.61
814.707	16995.91
815.036	16970.6
815.365	16873.2
815.693	16699.42
816.022	16668.23
816.351	16707.1
816.68	16567.22
817.008	16715.92
817.337	16552.08
817.665	16473.44
817.994	16582.36
818.322	16512.31
818.651	16396.6
818.979	16440.9
819.307	16399.31
819.636	16425.08
819.964	16255.82
820.292	16317.28
820.62	16318.19
820.948	16210.39
821.276	16304.85
821.604	16186.21
821.932	16185.31
822.259	16278.87
822.587	16141.24
822.915	16124.97
823.243	16183.28
823.57	16100.79
823.898	16137.4
824.225	16084.07
824.553	16120.45
824.88	16063.73
825.207	16136.04
825.535	16046.78
825.862	16149.38
826.189	16004.75
826.516	16134.46
826.843	16102.37
827.17	16145.99
827.497	16104.41
827.824	16178.98
828.151	16198.42
828.478	16127.01
828.805	16091.07
829.131	16032.09
829.458	16087.68
829.785	15990.51
830.111	16057.85
830.438	16116.61
830.764	16051.98
831.09	16069.61
831.417	15952.55
831.743	16089.94
832.069	16053.56
832.395	15965.88
832.722	15933.34
833.048	15921.81
833.374	15939.44
833.7	15880.91
834.026	15795.49
834.351	15945.77
834.677	15857.18
835.003	15951.19
835.329	15891.31
835.654	15817.18
835.98	15739.22
836.306	15720.01
836.631	15722.27
836.956	15732.44
837.282	15775.15
837.607	15672.55
837.932	15530.64
838.258	15579
838.583	15551.88
838.908	15445.67
839.233	15550.3
839.558	15516.4
839.883	15459.9
840.208	15439.57
840.533	15455.84
840.858	15408.15
841.182	15419.23
841.507	15351.21
841.832	15302.62
842.156	15251.1
842.481	15176.97
842.805	15240.25
843.13	15147.82
843.454	15131.1
843.778	15167.26
844.103	15094.04
844.427	14996.87
844.751	14931.78
845.075	14890.43
845.399	14905.57
845.723	14802.52
846.047	14843.2
846.371	14764.33
846.695	14685.69
847.019	14664.44
847.343	14504.68
847.666	14469.87
847.99	14406.82
848.313	14321.63
848.637	14264.46
848.96	14221.97
849.284	14225.81
849.607	14120.73
849.931	14120.96
850.254	13974.75
850.577	13954.86
850.9	13939.94
851.223	13802.32
851.546	13858.36
851.869	13681.19
852.192	13789.89
852.515	13563.23
852.838	13530.69
853.161	13511.03
853.483	13501.09
853.806	13433.74
854.129	13365.5
854.451	13301.32
854.774	13282.79
855.096	13196.69
855.419	13216.12
855.741	13184.71
856.063	13111.72
856.385	13068.78
856.708	13019.06
857.03	12994.43
857.352	13005.73
857.674	12944.94
857.996	12906.75
858.318	12884.15
858.64	12805.51
858.961	12813.65
859.283	12739.07
859.605	12665.63
859.926	12743.82
860.248	12717.6
860.57	12645.97
860.891	12660.43
861.212	12490.26
861.534	12469.47
861.855	12502.47
862.176	12452.53
862.498	12467.44
862.819	12441
863.14	12356.03
863.461	12327.56
863.782	12358.97
864.103	12339.53
864.424	12288.91
864.745	12404.39
865.065	12292.3
865.386	12202.81
865.707	12142.03
866.027	12184.74
866.348	12172.99
866.668	12146.55
866.989	12144.74
867.309	12071.52
867.63	12085.98
867.95	12101.35
868.27	11902.26
868.59	11993.33
868.91	11911.97
869.23	11971.63
869.55	11921.92
869.87	11903.61
870.19	11911.52
870.51	11954.46
870.83	11912.88
871.15	11770.06
871.469	11868.13
871.789	11861.81
872.109	11809.83
872.428	11708.59
872.748	11775.03
873.067	11726.44
873.386	11730.96
873.706	11667.24
874.025	11604.19
874.344	11619.1
874.663	11653.22
874.982	11593.11
875.301	11642.15
875.62	11564.19
875.939	11547.46
876.258	11501.59
876.577	11489.61
876.896	11523.74
877.214	11420.46
877.533	11469.27
877.852	11466.79
878.17	11410.52
878.489	11387.92
878.807	11450.29
879.125	11355.38
879.444	11384.31
879.762	11288.94
880.08	11351.54
880.398	11279.22
880.716	11308.15
881.034	11204.2
881.352	11238.55
881.67	11191.32
881.988	11213.24
882.306	11196.29
882.624	11132.56
882.941	11057.08
883.259	11033.13
883.577	11004.65
883.894	10998.55
884.212	10988.16
884.529	10973.92
884.846	10976.18
885.164	10923.75
885.481	10892.57
885.798	10965.56
886.115	10832.46
886.432	10791.78
886.75	10739.35
887.067	10752.68
887.383	10718.79
887.7	10728.28
888.017	10686.02
888.334	10685.11
888.651	10673.59
888.967	10626.81
889.284	10564.21
889.6	10530.54
889.917	10459.81
890.233	10348.4
890.55	10425.69
890.866	10387.95
891.182	10310.66
891.498	10299.14
891.815	10272.24
892.131	10280.83
892.447	10258.01
892.763	10287.16
893.079	10232.25
893.395	10136.43
893.71	10136.65
894.026	10127.16
894.342	10057.56
894.657	10077.45
894.973	10000.61
895.289	9905.7
895.604	9939.37
895.92	9905.47
896.235	9889.43
896.55	9780.51
896.865	9833.39
897.181	9779.15
897.496	9766.72
897.811	9709.32
898.126	9659.83
898.441	9663.22
898.756	9669.1
899.071	9551.59
899.386	9503.22
899.7	9525.37
900.015	9437.92
900.33	9458.03
900.644	9422.32
900.959	9418.93
901.273	9329.9
901.588	9288.99
901.902	9256
902.216	9295.77
902.531	9267.52
902.845	9238.6
903.159	9169.67
903.473	9109.79
903.787	9001.32
904.101	8978.04
904.415	9012.16
904.729	9017.59
905.042	8978.04
905.356	8958.15
905.67	8866.41
905.984	8841.77
906.297	8778.72
906.611	8737.6
906.924	8725.62
907.237	8720.42
907.551	8711.38
907.864	8662.12
908.177	8602.68
908.491	8594.77
908.804	8488.79
909.117	8491.05
909.43	8403.82
909.743	8328.79
910.056	8396.36
910.368	8313.2
910.681	8342.13
910.994	8325.4
911.307	8320.88
911.619	8216.48
911.932	8209.25
912.244	8181
912.557	8140.32
912.869	8040.89
913.181	8081.79
913.494	8004.51
913.806	8038.4
914.118	7956.6
914.43	7943.04
914.742	7879.54
915.054	7889.03
915.366	7818.3
915.678	7802.7
915.99	7717.51
916.302	7673.89
916.613	7642.93
916.925	7655.82
917.236	7672.54
917.548	7632.77
917.859	7525.88
918.171	7528.14
918.482	7505.99
918.794	7445.43
919.105	7460.57
919.416	7442.94
919.727	7368.37
920.038	7333.56
920.349	7325.88
920.66	7291.53
920.971	7338.76
921.282	7275.49
921.593	7162.27
921.903	7132.89
922.214	7087.02
922.525	7080.69
922.835	7089.5
923.146	7067.81
923.456	7004.08
923.767	6981.48
924.077	6924.76
924.387	7007.25
924.697	6876.18
925.008	6896.51
925.318	6842.73
925.628	6869.17
925.938	6777.65
926.248	6723.41
926.558	6708.5
926.867	6687.03
927.177	6696.52
927.487	6604.32
927.796	6589.18
928.106	6561.16
928.416	6579.46
928.725	6522.29
929.034	6471.44
929.344	6449.07
929.653	6473.7
929.962	6365.91
930.271	6362.29
930.581	6364.78
930.89	6279.58
931.199	6277.55
931.508	6287.94
931.817	6242.97
932.125	6249.52
932.434	6209.07
932.743	6170.43
933.051	6117.1
933.36	6059.02
933.669	6106.03
933.977	6067.61
934.286	5986.26
934.594	5970.89
934.902	5923.43
935.21	5937.22
935.519	5892.47
935.827	5922.53
936.135	5841.63
936.443	5820.84
936.751	5791.01
937.059	5818.8
937.367	5737
937.674	5730.67
937.982	5743.55
938.29	5657.45
938.597	5688.18
938.905	5601.86
939.213	5606.6
939.52	5520.28
939.827	5553.05
940.135	5527.28
940.442	5497.68
940.749	5473.73
941.056	5553.05
941.363	5427.4
941.67	5434.63
941.977	5375.2
942.284	5345.37
942.591	5354.18
942.898	5321.41
943.205	5300.62
943.511	5275.99
943.818	5278.93
944.125	5181.76
944.431	5203.45
944.738	5202.55
945.044	5184.24
945.35	5156.67
945.657	5112.61
945.963	5105.37
946.269	5072.83
946.575	5042.33
946.881	5010.46
947.187	5064.92
947.493	4975.66
947.799	4963.23
948.105	4956.23
948.41	4940.41
948.716	4923.68
949.022	4900.18
949.327	4882.33
949.633	4780.19
949.938	4789.68
950.244	4785.16
950.549	4762.11
950.854	4764.37
951.16	4755.55
951.465	4720.98
951.77	4674.65
952.075	4599.17
952.38	4676.23
952.685	4654.76
952.99	4600.08
953.294	4627.19
953.599	4583.13
953.904	4510.14
954.209	4502.45
954.513	4533.19
954.818	4466.29
955.122	4480.08
955.426	4471.72
955.731	4452.51
956.035	4414.32
956.339	4389.91
956.643	4401.21
956.948	4353.98
957.252	4328.22
957.556	4312.4
957.86	4324.38
958.163	4290.25
958.467	4319.86
958.771	4245.51
959.075	4218.84
959.378	4202.12
959.682	4203.93
959.985	4172.52
960.289	4149.02
960.592	4104.95
960.896	4094.1
961.199	4100.65
961.502	4076.02
961.805	4053.2
962.108	4023.59
962.411	3998.06
962.714	4007.55
963.017	4006.42
963.32	3961.45
963.623	3948.34
963.926	3955.57
964.228	3892.75
964.531	3886.88
964.833	3880.77
965.136	3890.04
965.438	3848.91
965.741	3845.52
966.043	3839.87
966.345	3823.83
966.648	3794.22
966.95	3836.71
967.252	3739.31
967.554	3739.08
967.856	3761.45
968.158	3675.13
968.46	3668.58
968.761	3674
969.063	3635.13
969.365	3624.06
969.666	3633.1
969.968	3569.37
970.269	3603.72
970.571	3581.8
970.872	3563.49
971.174	3553.1
971.475	3517.62
971.776	3520.56
972.077	3484.85
972.378	3489.82
972.679	3456.38
972.98	3463.84
973.281	3479.2
973.582	3440.56
973.883	3432.42
974.183	3405.31
974.484	3387.45
974.785	3380.9
975.085	3370.05
975.386	3335.93
975.686	3358.08
975.986	3302.48
976.287	3331.41
976.587	3270.39
976.887	3238.53
977.187	3300.22
977.487	3288.25
977.787	3207.35
978.087	3206.89
978.387	3201.47
978.687	3192.88
978.987	3114.01
979.286	3146.78
979.586	3136.16
979.885	3089.61
980.185	3107.46
980.484	3062.49
980.784	3084.18
981.083	3104.52
981.382	3068.59
981.682	3036.5
981.981	3072.66
982.28	3009.61
982.579	3048.03
982.878	2990.85
983.177	2978.2
983.475	2969.39
983.774	2938.43
984.073	2948.14
984.372	2923.51
984.67	2892.55
984.969	2894.13
985.267	2879.67
985.566	2874.02
985.864	2862.95
986.162	2857.75
986.461	2815.04
986.759	2842.16
987.057	2793.34
987.355	2786.57
987.653	2801.25
987.951	2757.87
988.249	2750.63
988.547	2740.69
988.844	2727.13
989.142	2742.05
989.44	2709.73
989.737	2696.4
990.035	2675.38
990.332	2652.33
990.63	2642.16
990.927	2634.93
991.224	2626.34
991.521	2611.43
991.819	2594.48
992.116	2613.01
992.413	2532.11
992.71	2574.37
993.006	2549.96
993.303	2542.96
993.6	2548.61
993.897	2523.52
994.193	2491.21
994.49	2486.69
994.787	2453.24
995.083	2436.29
995.379	2473.81
995.676	2443.98
995.972	2448.27
996.268	2439
996.565	2398.55
996.861	2386.12
997.157	2356.75
997.453	2389.97
997.749	2358.78
998.044	2352.23
998.34	2320.36
998.636	2325.33
998.932	2300.02
999.227	2285.11
999.523	2262.06
999.818	2268.16
1000.114	2241.49
1000.409	2229.97
1000.704	2238.1
1001	2243.75
1001.295	2230.87
1001.59	2199.69
1001.885	2196.07
1002.18	2196.07
1002.475	2139.12
1002.77	2159.24
1003.065	2134.6
1003.359	2121.95
1003.654	2092.35
1003.949	2088.73
1004.243	2123.31
1004.538	2087.83
1004.832	2079.24
1005.127	2062.52
1005.421	2022.52
1005.715	2048.96
1006.009	2016.87
1006.304	2017.55
1006.598	1999.02
1006.892	1981.16
1007.186	1980.03
1007.48	1982.07
1007.773	1957.66
1008.067	1957.66
1008.361	1931.22
1008.655	1907.04
1008.948	1907.94
1009.242	1906.81
1009.535	1909.75
1009.829	1900.71
1010.122	1869.98
1010.415	1890.54
1010.708	1820.26
1011.001	1845.57
1011.295	1815.74
1011.588	1846.7
1011.881	1787.95
1012.173	1793.14
1012.466	1789.08
1012.759	1774.16
1013.052	1787.95
1013.344	1770.55
1013.637	1758.34
1013.93	1721.51
1014.222	1771
1014.514	1762.64
1014.807	1743.65
1015.099	1708.18
1015.391	1693.26
1015.683	1637.67
1015.976	1659.36
1016.268	1654.39
1016.56	1626.6
1016.851	1638.35
1017.143	1634.05
1017.435	1617.33
1017.727	1610.78
1018.018	1572.36
1018.31	1594.51
1018.602	1581.17
1018.893	1540.72
1019.185	1524.45
1019.476	1547.5
1019.767	1532.81
1020.058	1501.18
1020.35	1512.47
1020.641	1494.85
1020.932	1482.87
1021.223	1482.19
1021.514	1472.25
1021.804	1478.35
1022.095	1457.11
1022.386	1446.49
1022.677	1430.67
1022.967	1422.76
1023.258	1423.66
1023.548	1416.66
1023.839	1372.59
1024.129	1362.87
1024.419	1378.92
1024.709	1361.29
1025	1364
1025.29	1320.84
1025.58	1352.03
1025.87	1336.43
1026.16	1304.8
1026.449	1319.26
1026.739	1293.5
1027.029	1324
1027.319	1300.28
1027.608	1267.06
1027.898	1280.62
1028.187	1267.51
1028.477	1260.05
1028.766	1249.43
1029.055	1241.97
1029.344	1237.68
1029.634	1213.95
1029.923	1231.35
1030.212	1192.03
1030.501	1187.29
1030.79	1199.49
1031.078	1206.49
1031.367	1181.86
1031.656	1147.06
1031.945	1165.59
1032.233	1142.31
1032.522	1137.12
1032.81	1121.3
1033.099	1142.77
1033.387	1119.94
1033.675	1126.95
1033.963	1110
1034.251	1122.88
1034.54	1072.49
1034.828	1063.45
1035.116	1084.46
1035.403	1083.79
1035.691	1054.86
1035.979	1068.42
1036.267	1042.2
1036.554	1021.19
1036.842	1048.31
1037.129	1000.62
1037.417	1037.91
1037.704	1019.38
1037.992	973.73
1038.279	988.87
1038.566	959.04
1038.853	959.04
1039.14	959.04
