Data from White_paper_FLMS001491_064.txt Node
Date: Tue Feb 07 10:35:24 GMT 2017
User: dcchb
Spectrometer: FLMS00149
Trigger mode: 0
Integration Time (sec): 2.000000E-2
Scans to average: 10
Electric dark correction enabled: true
Nonlinearity correction enabled: false
Boxcar width: 0
XAxis mode: Wavelengths
Number of Pixels in Spectrum: 2048
>>>>>Begin Spectral Data<<<<<
341.393	-15.23
341.776	-15.23
342.16	-15.23
342.543	-57.26
342.927	-62.23
343.31	-65.17
343.693	-60.87
344.077	-71.04
344.46	-53.42
344.843	-56.58
345.226	-42.57
345.61	-32.4
345.993	-15.45
346.376	-9.12
346.759	-10.71
347.142	26.58
347.525	34.72
347.908	72.46
348.291	86.01
348.674	81.27
349.057	116.3
349.44	111.78
349.823	140.48
350.206	180.25
350.588	220.7
350.971	250.76
351.354	248.72
351.737	289.63
352.119	279.68
352.502	290.3
352.884	314.94
353.267	326.01
353.65	312.22
354.032	349.06
354.414	325.78
354.797	344.31
355.179	327.14
355.562	365.1
355.944	352.45
356.326	372.79
356.709	383.86
357.091	375.95
357.473	370.08
357.855	361.04
358.238	387.7
358.62	379.79
359.002	380.92
359.384	387.25
359.766	383.86
360.148	368.04
360.53	377.76
360.912	364.2
361.294	375.05
361.676	360.36
362.057	384.31
362.439	373.92
362.821	368.95
363.203	377.31
363.584	369.4
363.966	362.84
364.348	362.84
364.729	356.52
365.111	372.11
365.493	344.76
365.874	374.14
366.256	356.74
366.637	364.65
367.019	359.91
367.4	376.85
367.781	350.19
368.163	371.88
368.544	375.27
368.925	349.28
369.306	362.17
369.688	364.88
370.069	381.6
370.45	366.23
370.831	362.62
371.212	349.74
371.593	353.58
371.974	387.25
372.355	367.14
372.736	365.56
373.117	384.31
373.498	373.92
373.879	365.1
374.26	363.75
374.641	370.98
375.021	359.68
375.402	359.45
375.783	391.54
376.163	402.62
376.544	401.94
376.925	397.42
377.305	395.39
377.686	392.9
378.066	399.9
378.447	412.79
378.827	401.71
379.208	420.24
379.588	406.46
379.968	402.62
380.349	418.21
380.729	418.21
381.109	433.58
381.489	424.54
381.87	419.34
382.25	437.87
382.63	429.96
383.01	413.24
383.39	411.66
383.77	431.32
384.15	423.63
384.53	431.54
384.91	446.91
385.29	445.1
385.67	455.95
386.049	451.43
386.429	453.91
386.809	463.41
387.189	471.54
387.568	467.7
387.948	482.61
388.328	489.39
388.707	486
389.087	484.42
389.466	478.32
389.846	488.49
390.225	500.92
390.605	507.7
390.984	534.14
391.363	519.45
391.743	507.92
392.122	536.4
392.501	530.97
392.881	508.83
393.26	533.01
393.639	528.94
394.018	541.37
394.397	541.37
394.776	561.93
395.155	568.26
395.534	564.65
395.913	563.29
396.292	585.89
396.671	594.93
397.05	578.21
397.429	576.62
397.808	612.55
398.186	613.01
398.565	627.92
398.944	638.99
399.323	637.19
399.701	628.15
400.08	645.55
400.458	637.64
400.837	638.77
401.215	670.18
401.594	673.12
401.972	688.48
402.351	667.02
402.729	688.48
403.107	699.11
403.486	711.53
403.864	717.41
404.242	733.46
404.62	739.33
404.999	755.6
405.377	804.41
405.755	787.47
406.133	809.39
406.511	819.78
406.889	821.81
407.267	855.26
407.645	871.08
408.023	897.29
408.401	918.54
408.779	952.66
409.156	975.93
409.534	985.88
409.912	989.95
410.29	1003.28
410.667	1043.5
411.045	1060.23
411.422	1106.55
411.8	1122.82
412.178	1168.7
412.555	1190.84
412.933	1215.93
413.31	1230.84
413.687	1266.32
414.065	1289.6
414.442	1311.07
414.819	1358.52
415.197	1381.12
415.574	1403.49
415.951	1420.67
416.328	1433.55
416.705	1481.01
417.082	1503.83
417.46	1536.15
417.837	1567.78
418.214	1595.13
418.591	1597.39
418.967	1647.56
419.344	1685.52
419.721	1694.56
420.098	1731.62
420.475	1778.85
420.852	1770.94
421.228	1796.48
421.605	1812.97
421.982	1836.25
422.358	1836.25
422.735	1896.59
423.111	1909.47
423.488	1927.77
423.864	1991.95
424.241	2005.06
424.617	2020.65
424.994	2012.29
425.37	2058.62
425.746	2097.04
426.123	2124.61
426.499	2141.33
426.875	2194.43
427.251	2228.78
427.627	2280.08
428.003	2291.38
428.379	2329.8
428.756	2343.58
429.132	2372.73
429.507	2420.42
429.883	2439.85
430.259	2513.07
430.635	2507.42
431.011	2596.01
431.387	2588.32
431.763	2707.87
432.138	2663.8
432.514	2688.88
432.89	2730.92
433.265	2847.75
433.641	2863.34
434.016	2877.58
434.392	2920.74
434.767	3012.27
435.143	2984.47
435.518	3059.04
435.894	3064.24
436.269	3082.55
436.644	3165.71
437.02	3165.26
437.395	3206.61
437.77	3249.77
438.145	3269.43
438.52	3368.19
438.895	3354.63
439.271	3385.36
439.646	3462.65
440.021	3510.11
440.395	3507.17
440.77	3498.81
441.145	3526.15
441.52	3608.41
441.895	3576.32
442.27	3660.61
442.645	3624.45
443.019	3692.25
443.394	3708.07
443.769	3699.25
444.143	3719.59
444.518	3715.07
444.892	3791
445.267	3834.16
445.641	3845.92
446.016	3848.4
446.39	3908.74
446.764	3972.01
447.139	3899.47
447.513	3973.82
447.887	3975.86
448.262	3990.32
448.636	4027.61
449.01	4078
449.384	4087.72
449.758	4109.64
450.132	4187.15
450.506	4215.62
450.88	4267.15
451.254	4220.6
451.628	4302.18
452.002	4305.56
452.376	4353.93
452.75	4402.29
453.123	4482.06
453.497	4513.47
453.871	4528.38
454.244	4670.53
454.618	4664.2
454.992	4723.86
455.365	4702.62
455.739	4863.52
456.112	4934.25
456.486	4943.51
456.859	4994.13
457.232	5033.46
457.606	5044.53
457.979	5179.67
458.352	5270.96
458.725	5279.78
459.099	5332.88
459.472	5437.96
459.845	5475.25
460.218	5567.23
460.591	5635.93
460.964	5627.11
461.337	5793.44
461.71	5863.72
462.083	5914.79
462.456	5971.74
462.829	6010.83
463.201	6124.73
463.574	6141.67
463.947	6199.53
464.32	6365.17
464.692	6419.63
465.065	6441.33
465.438	6507.54
465.81	6663.92
466.183	6696.91
466.555	6846.06
466.928	6839.74
467.3	6881.99
467.672	7037.24
468.045	7147.07
468.417	7230.69
468.789	7247.18
469.161	7414.86
469.534	7504.58
469.906	7603.78
470.278	7697.11
470.65	7839.94
471.022	7958.8
471.394	8082.64
471.766	8138.01
472.138	8226.82
472.51	8472.46
472.882	8508.62
473.253	8623.42
473.625	8765.79
473.997	8920.13
474.369	9009.62
474.74	9128.26
475.112	9219.11
475.484	9443.51
475.855	9597.4
476.227	9660.23
476.598	9902.25
476.97	10046.88
477.341	10261.11
477.713	10457.04
478.084	10372.98
478.455	10787.2
478.827	10808.22
479.198	11156.01
479.569	11207.76
479.94	11450.24
480.311	11595.09
480.682	11760.74
481.053	12120.73
481.424	12291.34
481.795	12327.73
482.166	12482.52
482.537	12758.68
482.908	12993.47
483.279	13112.11
483.65	13424.2
484.021	13621.25
484.391	13763.17
484.762	13776.28
485.133	14024.18
485.503	14179.2
485.874	14531.28
486.244	14617.61
486.615	14827.1
486.985	15072.97
487.356	15398.61
487.726	15489
488.097	15804.92
488.467	15803.12
488.837	16186.38
489.207	16382.99
489.578	16581.85
489.948	16759.93
490.318	16913.59
490.688	17034.95
491.058	17183.19
491.428	17461.6
491.798	17681.94
492.168	17978.65
492.538	18095.03
492.908	18256.16
493.278	18422.26
493.648	18492.76
494.017	18739.08
494.387	18968.91
494.757	19050.04
495.126	19329.35
495.496	19319.63
495.866	19486.63
496.235	19679.17
496.605	19843.01
496.974	20054.08
497.344	20167.07
497.713	20358.25
498.082	20470.34
498.452	20641.18
498.821	20817.22
499.19	20766.15
499.559	21056.31
499.928	21170.21
500.298	21373.82
500.667	21489.29
501.036	21483.42
501.405	21758.67
501.774	21698.78
502.143	21949.85
502.512	21982.39
502.88	22251.08
503.249	22272.78
503.618	22457.18
503.987	22461.25
504.356	22703.5
504.724	22815.13
505.093	22917.96
505.462	22960.44
505.83	23223.71
506.199	23482.24
506.567	23719.97
506.936	23684.04
507.304	23942.11
507.672	24054.2
508.041	24135.78
508.409	24339.84
508.777	24439.95
509.145	24607.18
509.514	24653.05
509.882	24886.27
510.25	25011.24
510.618	25220.5
510.986	25240.38
511.354	25498.23
511.722	25746.81
512.09	26029.51
512.458	25911.1
512.826	26165.55
513.193	26326.68
513.561	26414.36
513.929	26653.68
514.297	26885.76
514.664	27063.84
515.032	27104.97
515.4	27339.99
515.767	27533.43
516.135	27582.69
516.502	27601.9
516.869	28031.04
517.237	28019.97
517.604	28149.68
517.972	28493.86
518.339	28592.61
518.706	28602.33
519.073	28806.62
519.44	29030.34
519.808	29288.86
520.175	29222.2
520.542	29690.21
520.909	29830.32
521.276	29869.64
521.643	30134.04
522.009	30446.57
522.376	30618.32
522.743	30827.58
523.11	31094.01
523.477	31389.82
523.843	31486.54
524.21	31850.83
524.577	31948.23
524.943	32179.86
525.31	32227.09
525.676	32601.09
526.043	32743.46
526.409	32906.17
526.776	33311.81
527.142	33394.29
527.508	33686.04
527.874	33932.58
528.241	34095.97
528.607	34075.4
528.973	34398.56
529.339	34490.53
529.705	34841.94
530.071	35121.93
530.437	35209.16
530.803	35435.14
531.169	35648.02
531.535	35683.5
531.901	35838.52
532.267	35985.18
532.632	36188.12
532.998	36351.5
533.364	36610.7
533.73	36709.23
534.095	36981.09
534.461	37140.86
534.826	37235.77
535.192	37465.6
535.557	37649.77
535.923	37606.84
536.288	37864
536.653	38076.88
537.019	37933.83
537.384	38108.29
537.749	38391.67
538.114	38408.17
538.479	38588.73
538.845	38796.41
539.21	38675.51
539.575	38959.12
539.94	39133.58
540.305	39324.98
540.67	39351.42
541.034	39489.05
541.399	39691.08
541.764	39828.02
542.129	39942.82
542.494	40038.64
542.858	40275.92
543.223	40277.27
543.587	40591.84
543.952	40391.62
544.316	40803.14
544.681	40696.7
545.045	40817.6
545.41	41036.8
545.774	41236.12
546.138	41346.4
546.503	41460.97
546.867	41403.35
547.231	41894.18
547.595	41872.03
547.959	41932.37
548.324	42050.34
548.688	42264.11
549.052	42416.2
549.416	42401.96
549.779	42403.09
550.143	42571
550.507	42930.31
550.871	43008.95
551.235	42969.63
551.599	43413.91
551.962	43334.37
552.326	43585.89
552.689	43813
553.053	43736.39
553.417	43771.42
553.78	44227.23
554.143	44182.71
554.507	44428.35
554.87	44391.06
555.234	44822.24
555.597	44580.66
555.96	44753.31
556.323	45023.14
556.686	45155.11
557.05	45410.47
557.413	45365.95
557.776	45548.77
558.139	45701.99
558.502	45914.19
558.865	45968.65
559.228	46312.37
559.59	46323.67
559.953	46432.59
560.316	46840.49
560.679	46939.25
561.041	47020.37
561.404	47235.06
561.767	47577.65
562.129	47347.14
562.492	47800.47
562.854	47835.72
563.217	47806.12
563.579	47989.16
563.941	48100.12
564.304	48309.38
564.666	48562.25
565.028	48687.45
565.39	48932.19
565.753	49000.21
566.115	49089.7
566.477	49402.91
566.839	49448.11
567.201	49693.3
567.563	49802.9
567.925	49897.13
568.287	49987.53
568.648	50019.84
569.01	50254.64
569.372	50491.24
569.734	50407.4
570.095	50566.27
570.457	50704.12
570.819	50908.86
571.18	50909.54
571.542	51067.73
571.903	51174.16
572.265	51255.74
572.626	51492.8
572.987	51416.64
573.349	51653.7
573.71	51726.46
574.071	51736.86
574.432	51843.75
574.794	52187.47
575.155	52108.15
575.516	52073.57
575.877	52206.68
576.238	52236.73
576.599	52311.31
576.96	52373.68
577.32	52482.38
577.681	52594.46
578.042	52705.65
578.403	52765.99
578.763	52784.74
579.124	52777.51
579.485	53073.55
579.845	53080.55
580.206	52987.45
580.566	53096.15
580.927	53147.67
581.287	53214.56
581.648	53053.44
582.008	53254.79
582.368	53146.77
582.728	53302.02
583.089	53258.85
583.449	53322.13
583.809	53381.34
584.169	53513.31
584.529	53429.92
584.889	53633.53
585.249	53428.79
585.609	53386.76
585.969	53607.77
586.329	53516.47
586.688	53575
587.048	53620.65
587.408	53523.25
587.768	53538.62
588.127	53675.57
588.487	53594.44
588.846	53748.33
589.206	53554.89
589.565	53713.98
589.925	53814.55
590.284	53653.19
590.643	53763.02
591.003	53923.92
591.362	53930.25
591.721	53854.54
592.08	53857.03
592.44	53993.75
592.799	53985.39
593.158	53932.51
593.517	54038.04
593.876	54026.97
594.235	53909.46
594.593	54050.7
594.952	54069.23
595.311	53863.36
595.67	54033.07
596.029	54220.18
596.387	54249.56
596.746	54207.76
597.104	54165.72
597.463	54114.88
597.822	54259.51
598.18	54200.75
598.538	54205.27
598.897	54342.44
599.255	54130.47
599.613	54499.05
599.972	54355.1
600.33	54457.92
600.688	54287.53
601.046	54496.56
601.404	54606.84
601.762	54424.7
602.12	54644.81
602.478	54638.48
602.836	54631.02
603.194	54447.3
603.552	54524.58
603.91	54519.16
604.268	54693.39
604.625	54502.21
604.983	54748.53
605.341	54510.12
605.698	54669.44
606.056	54733.17
606.413	54661.08
606.771	54799.15
607.128	54844.8
607.485	54719.38
607.843	54783.11
608.2	55015.19
608.557	54981.97
608.914	54870.34
609.272	55056.77
609.629	55095.64
609.986	55112.14
610.343	55033.5
610.7	55214.51
611.057	55097.68
611.414	55155.98
611.771	55139.48
612.127	55280.5
612.484	55212.25
612.841	55346.48
613.198	55173.83
613.554	55224.68
613.911	55351.23
614.267	55447.5
614.624	55350.32
614.98	55362.98
615.337	55471.9
615.693	55418.35
616.05	55406.37
616.406	55598.91
616.762	55518.91
617.118	55475.52
617.475	55524.56
617.831	55638.68
618.187	55606.36
618.543	55675.74
618.899	55805.91
619.255	55707.38
619.611	55653.59
619.967	55810.65
620.323	55763.19
620.678	55748.96
621.034	55611.11
621.39	55680.94
621.746	55632.12
622.101	55938.11
622.457	55724.1
622.812	55794.15
623.168	55809.52
623.523	55818.33
623.879	55934.72
624.234	55724.55
624.589	55732.91
624.945	55860.14
625.3	55880.71
625.655	55899.01
626.01	55904.66
626.365	55824.21
626.72	55839.35
627.075	55741.05
627.43	55835.74
627.785	55804.32
628.14	55830.99
628.495	55889.52
628.85	55798.45
629.205	55715.51
629.559	55877.99
629.914	55798.45
630.269	55779.47
630.623	55784.44
630.978	55709.86
631.332	55862.18
631.687	55841.16
632.041	55770.65
632.396	55830.31
632.75	55656.3
633.104	55697.66
633.459	55633.48
633.813	55674.16
634.167	55647.72
634.521	55646.36
634.875	55673.93
635.229	55522.3
635.583	55525.01
635.937	55456.99
636.291	55477.78
636.645	55501.28
636.999	55464.45
637.352	55553.48
637.706	55421.73
638.06	55485.69
638.413	55398.23
638.767	55326.82
639.121	55448.85
639.474	55328.86
639.828	55364.11
640.181	55340.16
640.534	55358.46
640.888	55195.98
641.241	55141.74
641.594	55256.99
641.947	55353.26
642.301	55173.83
642.654	55308.07
643.007	55172.02
643.36	55203.21
643.713	55187.62
644.066	55253.38
644.419	55080.27
644.771	54946.49
645.124	54668.08
645.477	54619.5
645.83	54463.12
646.182	54398.26
646.535	54239.85
646.888	54366.17
647.24	54278.94
647.593	54408.65
647.945	54289.34
648.298	54209.34
648.65	54134.99
649.002	54014.77
649.355	54207.53
649.707	54192.84
650.059	54268.32
650.411	54633.96
650.763	54624.47
651.115	54950.79
651.467	54833.05
651.819	54779.04
652.171	54688.65
652.523	54787.4
652.875	54760.96
653.227	54590.8
653.578	54788.31
653.93	54738.36
654.282	54621.3
654.633	54509.89
654.985	54624.02
655.337	54714.63
655.688	54651.13
656.039	54692.71
656.391	54437.58
656.742	54496.34
657.094	54451.82
657.445	54632.6
657.796	54547.63
658.147	54519.39
658.498	54492.49
658.849	54549.44
659.2	54494.53
659.551	54430.57
659.902	54626.73
660.253	54388.09
660.604	54508.31
660.955	54350.8
661.306	54503.34
661.656	54509.22
662.007	54338.15
662.358	54421.08
662.708	54353.29
663.059	54324.59
663.409	54139.28
663.76	54378.6
664.11	54351.93
664.461	54323.23
664.811	54345.15
665.161	54317.81
665.511	54198.49
665.862	54218.83
666.212	54359.16
666.562	54337.47
666.912	54266.51
667.262	54200.98
667.612	54225.38
667.962	54258.6
668.312	54199.17
668.662	54257.25
669.011	54185.61
669.361	54121.88
669.711	54156.68
670.06	54098.83
670.41	54033.3
670.76	54048.66
671.109	54083.24
671.459	54025.61
671.808	53940.87
672.157	53989.91
672.507	53845.28
672.856	53856.8
673.205	53821.78
673.554	53880.31
673.904	53738.84
674.253	53909.23
674.602	53807.99
674.951	53372.98
675.3	53238.74
675.649	53710.82
675.998	53706.98
676.346	53758.28
676.695	53750.14
677.044	53514.89
677.393	53602.35
677.741	53634.21
678.09	53497.27
678.438	53443.93
678.787	53524.61
679.135	53452.52
679.484	53263.37
679.832	53375.01
680.181	53189.48
680.529	53247.78
680.877	53085.07
681.225	53136.37
681.573	53335.46
681.922	52999.88
682.27	52967.11
682.618	53028.35
682.966	52942.03
683.314	52975.25
683.661	52844.18
684.009	52666.78
684.357	52639.89
684.705	52657.06
685.053	52573.9
685.4	52579.1
685.748	52380.46
686.095	52446.22
686.443	52371.19
686.79	52231.31
687.138	52181.82
687.485	52137.75
687.832	52043.29
688.18	52081.03
688.527	51982.96
688.874	51872.22
689.221	51832.68
689.568	51639.01
689.915	51606.02
690.262	51676.97
690.609	51546.58
690.956	51385.23
691.303	51368.28
691.65	51303.88
691.997	51208.06
692.344	50973.94
692.69	50962.42
693.037	51027.5
693.383	50621.86
693.73	50698.92
694.077	50542.32
694.423	50534.63
694.769	50525.14
695.116	50414.18
695.462	50357.01
695.808	50249.89
696.155	50297.58
696.501	49985.72
696.847	50059.84
697.193	49820.98
697.539	49894.65
697.885	49597.93
698.231	49524.71
698.577	49522
698.923	49349.13
699.269	49252.86
699.614	49093.77
699.96	48984.62
700.306	49053.77
700.651	48862.59
700.997	48889.48
701.342	48727.67
701.688	48546.21
702.033	48527.45
702.379	48482.93
702.724	48423.73
703.069	48480.9
703.415	47959.33
703.76	48070.06
704.105	48122.72
704.45	47859.67
704.795	47662.16
705.14	47671.2
705.485	47607.7
705.83	47477.31
706.175	47463.3
706.52	47357.99
706.865	47221.95
707.209	47182.18
707.554	47070.54
707.899	47123.42
708.243	46842.75
708.588	46717.1
708.932	46599.14
709.277	46580.39
709.621	46653.6
709.966	46264.24
710.31	46489.54
710.654	46004.58
710.998	46179.27
711.342	46084.81
711.687	45924.36
712.031	45733.18
712.375	45776.11
712.719	45843.23
713.063	45856.56
713.407	45777.24
713.75	45568.43
714.094	45568.66
714.438	45160.76
714.782	45262.45
715.125	45226.3
715.469	45136.81
715.812	44939.3
716.156	44810.04
716.499	44747.21
716.843	44953.54
717.186	44625.86
717.53	44798.74
717.873	44801
718.216	44607.56
718.559	44433.55
718.902	44307.22
719.246	44366.88
719.589	44220.22
719.932	44093.67
720.275	44046.89
720.617	43987.91
720.96	43877.41
721.303	43788.14
721.646	43842.83
721.989	43653
722.331	43677.86
722.674	43438.55
723.016	43586.11
723.359	43480.81
723.701	43544.98
724.044	43275.61
724.386	43135.28
724.729	43334.14
725.071	43145
725.413	43059.35
725.755	43127.14
726.097	42883.76
726.439	42743.42
726.782	42600.6
727.124	42947.49
727.465	42691.45
727.807	42627.95
728.149	42527.16
728.491	42429.76
728.833	42601.05
729.175	42345.02
729.516	42370.1
729.858	42195.42
730.199	42230.9
730.541	42224.34
730.882	42024.12
731.224	42244.45
731.565	41911.58
731.906	41933.5
732.248	41966.5
732.589	41901.64
732.93	41678.82
733.271	41785.48
733.612	41785.94
733.953	41688.31
734.294	41542.78
734.635	41444.25
734.976	41599.73
735.317	41406.96
735.658	41153.64
735.999	41298.72
736.339	41267.3
736.68	41140.53
737.021	41199.28
737.361	41016.92
737.702	41112.28
738.042	40938.73
738.383	40901.44
738.723	40922.68
739.063	40846.3
739.404	40760.65
739.744	40779.41
740.084	40658.73
740.424	40676.59
740.764	40362.92
741.104	40709.35
741.444	40427.33
741.784	40328.35
742.124	40430.49
742.464	40456.7
742.804	40120.67
743.143	40259.65
743.483	40203.6
743.823	40047.22
744.162	39904.85
744.502	40141.68
744.841	39887.68
745.181	40152.76
745.52	39833.22
745.86	39931.75
746.199	39849.04
746.538	39606.33
746.877	39811.07
747.216	39696.05
747.556	39513.9
747.895	39644.97
748.234	39351.42
748.573	39310.97
748.911	39413.34
749.25	39261.03
749.589	39052.9
749.928	39167.7
750.267	39173.35
750.605	39006.35
750.944	38966.57
751.283	38781.95
751.621	38840.02
751.96	38642.52
752.298	38564.78
752.636	38667.15
752.975	38472.8
753.313	38310.09
753.651	38543.53
753.989	38232.13
754.327	38112.36
754.666	37998.24
755.004	38060.61
755.342	38121.62
755.679	37920.5
756.017	37769.32
756.355	37912.36
756.693	37647.74
757.031	37685.7
757.368	37427.86
757.706	37388.31
758.044	37132.95
758.381	37296.11
758.719	37083.69
759.056	37169.56
759.394	36954.88
759.731	36722.79
760.068	36780.19
760.405	36678.95
760.743	36285.29
761.08	36474.66
761.417	36192.64
761.754	36376.59
762.091	36274.89
762.428	36040.32
762.765	35851.4
763.102	35972.3
763.438	35708.13
763.775	35674.46
764.112	35666.55
764.449	35683.04
764.785	35487.34
765.122	35272.66
765.458	35124.87
765.795	35253.45
766.131	35108.6
766.467	34990.63
766.804	34741.6
767.14	34654.15
767.476	34587.25
767.812	34464.32
768.148	34539.12
768.485	34159.92
768.821	33975.52
769.157	34021.17
769.492	33980.04
769.828	33905.92
770.164	33564.23
770.5	33536.43
770.836	33409.66
771.171	33294.63
771.507	33078.59
771.842	33042.89
772.178	33054.41
772.513	32887.86
772.849	32879.5
773.184	32714.31
773.519	32698.26
773.855	32507.54
774.19	32232.51
774.525	32106.87
774.86	32265.06
775.195	32097.38
775.53	31963.59
775.865	31754.33
776.2	31647.22
776.535	31459.88
776.87	31425.98
777.205	31293.56
777.539	31241.13
777.874	31174.46
778.209	31054.01
778.543	30877.52
778.878	30656.74
779.212	30626.68
779.547	30471.66
779.881	30699.67
780.215	30460.81
780.55	30431.43
780.884	30313.92
781.218	30295.16
781.552	30239.57
781.886	29830.32
782.22	29756.19
782.554	29875.74
782.888	29443.21
783.222	29393.94
783.556	29195.53
783.889	29297.9
784.223	28949.89
784.557	28967.52
784.89	29031.47
785.224	28934.52
785.557	28660.4
785.891	28756
786.224	28532.27
786.558	28515.55
786.891	28297.93
787.224	28099.06
787.557	28160.08
787.891	28057.03
788.224	28026.07
788.557	28002.57
788.89	27784.72
789.223	27762.8
789.556	27555.12
789.888	27475.35
790.221	27353.09
790.554	27284.4
790.887	27187.9
791.219	27090.05
791.552	26965.76
791.884	26876.72
792.217	26815.26
792.549	26667.24
792.882	26477.64
793.214	26494.81
793.546	26469.73
793.879	26434.7
794.211	26137.31
794.543	26300.01
794.875	26126.91
795.207	26069.74
795.539	25948.39
795.871	26051.43
796.203	25765.34
796.535	25566.47
796.867	25618.68
797.198	25624.33
797.53	25547.04
797.862	25246.26
798.193	25396.76
798.525	25145.02
798.856	25281.06
799.188	24927.4
799.519	24897.34
799.85	24687.4
800.182	24747.29
800.513	24816.89
800.844	24525.82
801.175	24684.01
801.506	24543
801.837	24406.73
802.168	24397.92
802.499	24284.7
802.83	24079.73
803.161	24151.6
803.491	24142.78
803.822	23938.72
804.153	23902.79
804.483	23760.19
804.814	23675.68
805.145	23638.62
805.475	23700.31
805.805	23540.31
806.136	23536.92
806.466	23457.15
806.796	23437.94
807.126	23280.43
807.457	23157.05
807.787	23186.65
808.117	23046.31
808.447	23100.32
808.777	23058.74
809.107	22868.24
809.436	22906.88
809.766	22844.29
810.096	22849.71
810.426	22548.47
810.755	22672.31
811.085	22583.28
811.414	22523.84
811.744	22423.51
812.073	22350.97
812.403	22294.24
812.732	22265.32
813.061	22255.38
813.39	22093.35
813.719	22016.51
814.049	22076.4
814.378	21995.5
814.707	21918.43
815.036	21831.66
815.365	21786.91
815.693	21624.88
816.022	21662.62
816.351	21527.03
816.68	21370.2
817.008	21594.15
817.337	21293.37
817.665	21168.17
817.994	21261.96
818.322	21296.76
818.651	21317.55
818.979	21119.59
819.307	21220.6
819.636	21066.03
819.964	21012.7
820.292	20959.14
820.62	21002.98
820.948	20970.89
821.276	21031.23
821.604	20927.05
821.932	21039.36
822.259	20996.65
822.587	20923.43
822.915	20796.88
823.243	20882.53
823.57	20967.05
823.898	20928.4
824.225	20809.09
824.553	20757.34
824.88	20859.48
825.207	20807.5
825.535	20792.36
825.862	20811.35
826.189	20725.7
826.516	20842.98
826.843	20883.21
827.17	20852.93
827.497	20772.48
827.824	20860.16
828.151	20842.08
828.478	20825.81
828.805	20912.36
829.131	20718.69
829.458	20607.51
829.785	20669.2
830.111	20698.81
830.438	20703.33
830.764	20777.9
831.09	20767.73
831.417	20627.4
831.743	20680.05
832.069	20606.61
832.395	20604.35
832.722	20637.34
833.048	20672.14
833.374	20608.64
833.7	20431.47
834.026	20546.72
834.351	20640.95
834.677	20613.16
835.003	20577
835.329	20461.3
835.654	20480.73
835.98	20388.31
836.306	20471.69
836.631	20309.44
836.956	20308.53
837.282	20437.34
837.607	20217.69
837.932	20195.77
838.258	20140.18
838.583	20101.99
838.908	20011.82
839.233	20049.78
839.558	20035.09
839.883	19844.14
840.208	19848.43
840.533	19975.66
840.858	19912.84
841.182	19894.76
841.507	19874.87
841.832	19699.74
842.156	19714.2
842.481	19640.75
842.805	19679.4
843.13	19587.42
843.454	19673.07
843.778	19546.97
844.103	19492.96
844.427	19404.6
844.751	19439.86
845.075	19346.98
845.399	19342.01
845.723	19153.31
846.047	19304.27
846.371	19075.57
846.695	19093.2
847.019	18808.91
847.343	18843.94
847.666	18756.26
847.99	18574.34
848.313	18648.24
848.637	18459.54
848.96	18515.36
849.284	18329.15
849.607	18317.63
849.931	18265.2
850.254	18067.91
850.577	18091.87
850.9	17848.03
851.223	17932.1
851.546	17812.33
851.869	17600.81
852.192	17781.14
852.515	17588.38
852.838	17669.51
853.161	17598.32
853.483	17432
853.806	17271.78
854.129	17333.7
854.451	17327.6
854.774	17209.18
855.096	17125.34
855.419	17063.87
855.741	17037.43
856.063	16918.11
856.385	16942.75
856.708	16912.46
857.03	16743.66
857.352	16722.64
857.674	16683.09
857.996	16705.01
858.318	16574.62
858.64	16650.1
858.961	16505.7
859.283	16461.4
859.605	16357.23
859.926	16519.71
860.248	16416.43
860.57	16233.61
860.891	16300.96
861.212	16260.96
861.534	16261.63
861.855	16130.34
862.176	16098.48
862.498	16131.69
862.819	16089.44
863.14	16024.13
863.461	16018.48
863.782	15946.39
864.103	16016.22
864.424	15825.49
864.745	15956.33
865.065	15782.78
865.386	15809.9
865.707	15770.35
866.027	15807.41
866.348	15716.34
866.668	15697.13
866.989	15630.24
867.309	15567.64
867.63	15587.08
867.95	15627.98
868.27	15474.76
868.59	15462.56
868.91	15521.54
869.23	15485.38
869.55	15405.84
869.87	15521.09
870.19	15369.23
870.51	15438.83
870.83	15497.59
871.15	15257.14
871.469	15223.92
871.789	15256.92
872.109	15356.12
872.428	15177.6
872.748	15177.6
873.067	15257.14
873.386	15166.52
873.706	15136.69
874.025	15005.62
874.344	15023.7
874.663	15041.55
874.982	15037.26
875.301	15059.63
875.62	14923.14
875.939	14909.58
876.258	14932.18
876.577	14796.14
876.896	14818.06
877.214	14749.81
877.533	14833.88
877.852	14759.3
878.17	14725.4
878.489	14811.5
878.807	14709.36
879.125	14586.65
879.444	14692.64
879.762	14759.53
880.08	14573.09
880.398	14533.54
880.716	14522.25
881.034	14420.55
881.352	14439.76
881.67	14454.45
881.988	14393.21
882.306	14388.46
882.624	14321.35
882.941	14267.79
883.259	14218.75
883.577	14181.69
883.894	14183.27
884.212	14167.9
884.529	14099.66
884.846	14018.08
885.164	14078.19
885.481	14076.16
885.798	14114.12
886.115	13914.58
886.432	13979.21
886.75	13892.43
887.067	13847.69
887.383	13793.9
887.7	13816.5
888.017	13776.95
888.334	13798.2
888.651	13656.05
888.967	13660.35
889.284	13595.72
889.6	13564.08
889.917	13529.73
890.233	13530.63
890.55	13394.37
890.866	13434.59
891.182	13357.08
891.498	13332.67
891.815	13344.42
892.131	13212.9
892.447	13215.84
892.763	13156.41
893.079	13188.72
893.395	13089.06
893.71	13008.61
894.026	12973.59
894.342	13016.97
894.657	12871.89
894.973	12905.56
895.289	12950.31
895.604	12913.93
895.92	12780.14
896.235	12757.09
896.55	12695.4
896.865	12682.97
897.181	12578.57
897.496	12628.06
897.811	12538.12
898.126	12496.31
898.441	12402.53
898.756	12395.75
899.071	12339.93
899.386	12354.17
899.7	12200.27
900.015	12280.5
900.33	12099.71
900.644	12135.64
900.959	12157.34
901.273	12093.38
901.588	12009.32
901.902	11880.96
902.216	11875.99
902.531	11913.73
902.845	11845.71
903.159	11710.57
903.473	11721.41
903.787	11662.43
904.101	11523.23
904.415	11611.36
904.729	11539.72
905.042	11493.4
905.356	11425.6
905.67	11433.74
905.984	11433.29
906.297	11337.92
906.611	11240.52
906.924	11192.62
907.237	11239.39
907.551	11158.49
907.864	11096.35
908.177	11092.05
908.491	11066.52
908.804	11025.39
909.117	10869.23
909.43	10750.59
909.743	10815
910.056	10771.16
910.368	10683.7
910.681	10691.84
910.994	10573.42
911.307	10555.8
911.619	10548.11
911.932	10533.42
912.244	10481.45
912.557	10466.31
912.869	10382.02
913.181	10291.62
913.494	10357.38
913.806	10215.92
914.118	10203.49
914.43	10120.1
914.742	10149.25
915.054	10116.71
915.366	10018.41
915.678	9982.03
915.99	9910.62
916.302	9904.74
916.613	9813.22
916.925	9818.87
917.236	9743.39
917.548	9724.63
917.859	9726.44
918.171	9645.31
918.482	9556.73
918.794	9603.5
919.105	9553.79
919.416	9479.44
919.727	9472.21
920.038	9526.44
920.349	9353.34
920.66	9353.12
920.971	9355.15
921.282	9295.94
921.593	9170.97
921.903	9117.87
922.214	9178.88
922.525	9143.63
922.835	9077.64
923.146	9006.01
923.456	8893.92
923.767	8959.23
924.077	8887.37
924.387	8863.86
924.697	8762.85
925.008	8808.27
925.318	8766.92
925.628	8777.09
925.938	8665.68
926.248	8583.19
926.558	8584.32
926.867	8536.87
927.177	8570.09
927.487	8455.51
927.796	8442.18
928.106	8353.14
928.416	8394.72
928.725	8386.14
929.034	8290.77
929.344	8301.84
929.653	8358.57
929.962	8140.49
930.271	8123.77
930.581	8112.7
930.89	8056.43
931.199	8046.94
931.508	8025.69
931.817	7958.12
932.125	7947.95
932.434	7939.37
932.743	7844
933.051	7827.28
933.36	7826.38
933.669	7759.26
933.977	7728.07
934.286	7739.37
934.594	7659.15
934.902	7597
935.21	7562.43
935.519	7545.93
935.827	7554.07
936.135	7464.35
936.443	7404.01
936.751	7411.92
937.059	7393.17
937.367	7395.88
937.674	7421.19
937.982	7300.06
938.29	7239.27
938.597	7293.51
938.905	7187.97
939.213	7151.82
939.52	7122.67
939.827	7101.65
940.135	7062.78
940.442	7043.57
940.749	7034.98
941.056	7058.94
941.363	6924.7
941.67	6827.76
941.977	6866.85
942.284	6837.48
942.591	6812.84
942.898	6798.38
943.205	6782.56
943.511	6706.41
943.818	6706.86
944.125	6671.38
944.431	6610.14
944.738	6639.74
945.044	6597.93
945.35	6586.18
945.657	6517.71
945.963	6439.29
946.269	6432.29
946.575	6476.13
946.881	6370.82
947.187	6396.58
947.493	6352.52
947.799	6278.85
948.105	6290.37
948.41	6245.4
948.716	6297.15
949.022	6241.11
949.327	6139.41
949.633	6103.03
949.938	6146.87
950.244	6111.62
950.549	5996.37
950.854	6038.17
951.16	5993.88
951.465	5964.73
951.77	5907.33
952.075	5926.54
952.38	5913.43
952.685	5864.62
952.99	5833.21
953.294	5833.89
953.599	5777.16
953.904	5737.17
954.209	5766.32
954.513	5741.91
954.818	5698.3
955.122	5676.6
955.426	5686.32
955.731	5589.37
956.035	5557.51
956.339	5564.74
956.643	5550.28
956.948	5533.1
957.252	5487.23
957.556	5461.69
957.86	5382.15
958.163	5395.93
958.467	5393.45
958.771	5408.59
959.075	5372.2
959.378	5310.74
959.682	5300.79
959.985	5272.54
960.289	5226.67
960.592	5258.31
960.896	5233
961.199	5170.4
961.502	5184.41
961.805	5150.29
962.108	5113.45
962.411	5124.3
962.714	5049.5
963.017	5035.72
963.32	5035.49
963.623	4991.42
963.926	4958.2
964.228	4945.32
964.531	4918.66
964.833	4912.33
965.136	4948.94
965.438	4836.62
965.741	4835.72
966.043	4767.25
966.345	4759.34
966.648	4791.43
966.95	4714.82
967.252	4683.18
967.554	4702.84
967.856	4684.76
968.158	4648.61
968.46	4670.07
968.761	4628.04
969.063	4603.18
969.365	4569.29
969.666	4572.9
969.968	4495.84
970.269	4463.75
970.571	4469.63
970.872	4489.51
971.174	4418.33
971.475	4466.92
971.776	4424.21
972.077	4392.79
972.378	4369.74
972.679	4343.3
972.98	4346.02
973.281	4349.18
973.582	4333.81
973.883	4272.57
974.183	4280.48
974.484	4224.21
974.785	4204.32
975.085	4226.92
975.386	4187.15
975.686	4154.16
975.986	4107.38
976.287	4097.43
976.587	4062.41
976.887	4069.64
977.187	4082.29
977.487	4078.45
977.787	4013.6
978.087	4040.04
978.387	4009.53
978.687	3976.08
978.987	3957.33
979.286	3892.69
979.586	3927.27
979.885	3897.44
980.185	3863.77
980.484	3845.01
980.784	3856.09
981.083	3786.71
981.382	3806.37
981.682	3798.46
981.981	3745.81
982.28	3773.38
982.579	3723.43
982.878	3680.95
983.177	3715.52
983.475	3703.55
983.774	3655.19
984.073	3647.95
984.372	3607.5
984.67	3619.93
984.969	3576.09
985.267	3597.56
985.566	3573.15
985.864	3550.78
986.162	3530.22
986.461	3535.42
986.759	3526.6
987.057	3478.69
987.355	3464
987.653	3441.41
987.951	3455.42
988.249	3408.87
988.547	3419.26
988.844	3386.04
989.142	3383.78
989.44	3368.64
989.737	3348.08
990.035	3323.22
990.332	3317.79
990.63	3296.33
990.927	3298.13
991.224	3259.04
991.521	3281.18
991.819	3235.99
992.116	3236.67
992.413	3209.32
992.71	3189.89
993.006	3182.88
993.303	3152.15
993.6	3112.6
993.897	3097.69
994.193	3087.97
994.49	3101.98
994.787	3038.03
995.083	3053.39
995.379	3061.76
995.676	3021.08
995.972	3012.72
996.268	2983.79
996.565	2929.1
996.861	2960.97
997.157	2922.1
997.453	2920.74
997.749	2892.04
998.044	2904.02
998.34	2866.96
998.636	2857.02
998.932	2843.23
999.227	2856.34
999.523	2826.51
999.818	2811.37
1000.114	2760.52
1000.409	2767.07
1000.704	2761.42
1001	2723.69
1001.295	2732.95
1001.59	2744.48
1001.885	2697.7
1002.18	2668.55
1002.475	2675.55
1002.77	2611.6
1003.065	2631.94
1003.359	2598.94
1003.654	2622.45
1003.949	2581.32
1004.243	2552.39
1004.538	2587.87
1004.832	2571.15
1005.127	2527.98
1005.421	2532.05
1005.715	2488.21
1006.009	2485.5
1006.304	2466.07
1006.598	2464.03
1006.892	2407.76
1007.186	2420.42
1007.48	2433.98
1007.773	2377.93
1008.067	2393.3
1008.361	2374.77
1008.655	2355.33
1008.948	2323.24
1009.242	2321.44
1009.535	2309.46
1009.829	2294.32
1010.122	2300.42
1010.415	2279.63
1010.708	2281.44
1011.001	2239.63
1011.295	2228.78
1011.588	2217.71
1011.881	2206.18
1012.173	2168.67
1012.466	2201.44
1012.759	2144.04
1013.052	2150.59
1013.344	2119.63
1013.637	2113.31
1013.93	2124.83
1014.222	2078.96
1014.514	2105.62
1014.807	2061.78
1015.099	2012.97
1015.391	2069.01
1015.683	2042.35
1015.976	2019.07
1016.268	2005.29
1016.56	2016.81
1016.851	1960.09
1017.143	1950.82
1017.435	1982.91
1017.727	1933.65
1018.018	1928
1018.31	1886.42
1018.602	1908.57
1018.893	1896.81
1019.185	1863.14
1019.476	1875.12
1019.767	1857.95
1020.058	1849.81
1020.35	1838.51
1020.641	1829.92
1020.932	1802.35
1021.223	1778.63
1021.514	1783.37
1021.804	1785.63
1022.095	1786.99
1022.386	1746.99
1022.677	1705.63
1022.967	1713.09
1023.258	1703.15
1023.548	1685.97
1023.839	1669.02
1024.129	1647.1
1024.419	1667.89
1024.709	1638.52
1025	1634.9
1025.29	1613.88
1025.58	1606.88
1025.87	1620.21
1026.16	1592.64
1026.449	1559.42
1026.739	1579.99
1027.029	1555.58
1027.319	1543.83
1027.608	1527.78
1027.898	1516.71
1028.187	1529.37
1028.477	1531.4
1028.766	1478.07
1029.055	1473.77
1029.344	1427
1029.634	1462.02
1029.923	1436.49
1030.212	1451.4
1030.501	1431.74
1030.79	1414.12
1031.078	1408.47
1031.367	1399.65
1031.656	1390.84
1031.945	1346.77
1032.233	1383.16
1032.522	1358.52
1032.81	1344.96
1033.099	1334.12
1033.387	1330.5
1033.675	1342.93
1033.963	1287.79
1034.251	1319.2
1034.54	1308.81
1034.828	1305.19
1035.116	1301.8
1035.403	1263.61
1035.691	1246.89
1035.979	1232.2
1036.267	1248.02
1036.554	1256.38
1036.842	1246.89
1037.129	1214.12
1037.417	1236.04
1037.704	1222.93
1037.992	1198.75
1038.279	1195.59
1038.566	1191.07
1038.853	1191.07
1039.14	1191.07
