Data from White_paper_FLMS001491_002.txt Node
Date: Tue Feb 07 10:34:34 GMT 2017
User: dcchb
Spectrometer: FLMS00149
Trigger mode: 0
Integration Time (sec): 2.000000E-2
Scans to average: 10
Electric dark correction enabled: true
Nonlinearity correction enabled: false
Boxcar width: 0
XAxis mode: Wavelengths
Number of Pixels in Spectrum: 2048
>>>>>Begin Spectral Data<<<<<
341.393	-5.54
341.776	-5.54
342.16	-5.54
342.543	-48.7
342.927	-55.93
343.31	-57.96
343.693	-75.14
344.077	-63.61
344.46	-70.62
344.843	-58.42
345.226	-52.99
345.61	-15.71
345.993	-11.64
346.376	12.99
346.759	12.09
347.142	44.63
347.525	38.98
347.908	45.08
348.291	60.45
348.674	81.24
349.057	110.62
349.44	131.86
349.823	158.53
350.206	179.09
350.588	227.45
350.971	235.59
351.354	257.28
351.737	268.35
352.119	297.51
352.502	293.66
352.884	324.4
353.267	299.99
353.65	334.12
354.032	343.15
354.414	351.74
354.797	335.25
355.179	342.7
355.562	370.27
355.944	374.34
356.326	363.27
356.709	384.51
357.091	369.37
357.473	377.73
357.855	382.25
358.238	394.45
358.62	346.32
359.002	376.15
359.384	400.1
359.766	398.07
360.148	357.62
360.53	374.57
360.912	360.33
361.294	372.31
361.676	375.24
362.057	384.28
362.439	377.5
362.821	376.15
363.203	368.01
363.584	369.14
363.966	375.47
364.348	365.3
364.729	342.7
365.111	375.7
365.493	379.54
365.874	375.47
366.256	351.97
366.637	360.78
367.019	353.55
367.4	371.18
367.781	361.69
368.163	348.58
368.544	370.5
368.925	353.55
369.306	370.72
369.688	364.4
370.069	394.23
370.45	378.63
370.831	363.04
371.212	358.3
371.593	365.53
371.974	350.84
372.355	363.95
372.736	370.5
373.117	379.76
373.498	371.63
373.879	374.34
374.26	380.22
374.641	367.11
375.021	392.87
375.402	370.72
375.783	391.52
376.163	384.06
376.544	397.62
376.925	402.36
377.305	393.55
377.686	405.75
378.066	401.91
378.447	402.59
378.827	406.88
379.208	394.45
379.588	424.51
379.968	402.59
380.349	412.08
380.729	429.93
381.109	402.59
381.489	413.44
381.87	424.73
382.25	426.32
382.63	433.32
383.01	448.24
383.39	431.97
383.77	422.93
384.15	448.69
384.53	440.78
384.91	434.9
385.29	459.54
385.67	451.85
386.049	473.55
386.429	446.88
386.809	451.4
387.189	467.45
387.568	485.98
387.948	451.17
388.328	502.7
388.707	486.65
389.087	482.59
389.466	475.35
389.846	497.5
390.225	480.55
390.605	472.42
390.984	511.06
391.363	513.77
391.743	521.68
392.122	514.68
392.501	532.75
392.881	534.34
393.26	531.17
393.639	538.18
394.018	550.61
394.397	568.69
394.776	571.62
395.155	563.49
395.534	562.36
395.913	554.22
396.292	573.21
396.671	582.02
397.05	598.97
397.429	591.74
397.808	607.1
398.186	606.42
398.565	627.44
398.944	615.24
399.323	615.46
399.701	615.69
400.08	622.7
400.458	641.68
400.837	620.89
401.215	657.95
401.594	679.42
401.972	668.34
402.351	711.73
402.729	705.41
403.107	719.87
403.486	714.67
403.864	723.03
404.242	732.3
404.62	731.39
404.999	765.29
405.377	779.98
405.755	802.58
406.133	804.16
406.511	810.04
406.889	831.96
407.267	886.64
407.645	841.45
408.023	900.65
408.401	916.25
408.779	922.35
409.156	975.45
409.534	957.6
409.912	971.84
410.29	1036.7
410.667	1033.98
411.045	1060.42
411.422	1099.07
411.8	1134.55
412.178	1127.09
412.555	1166.18
412.933	1194.88
413.31	1223.13
413.687	1276.92
414.065	1303.13
414.442	1319.17
414.819	1337.93
415.197	1349
415.574	1410.7
415.951	1389
416.328	1454.31
416.705	1459.51
417.082	1486.85
417.46	1527.76
417.837	1558.49
418.214	1615.89
418.591	1594.65
418.967	1611.6
419.344	1641.88
419.721	1697.02
420.098	1692.27
420.475	1717.13
420.852	1753.29
421.228	1780.86
421.605	1802.1
421.982	1814.98
422.358	1856.34
422.735	1909.22
423.111	1841.19
423.488	1954.86
423.864	1940.85
424.241	1984.47
424.617	2002.09
424.994	2052.71
425.37	2041.19
425.746	2052.04
426.123	2088.87
426.499	2116.67
426.875	2137.23
427.251	2225.59
427.627	2264.91
428.003	2275.76
428.379	2285.25
428.756	2344.46
429.132	2391.91
429.507	2389.43
429.883	2415.19
430.259	2470.56
430.635	2495.64
431.011	2512.82
431.387	2576.99
431.763	2633.04
432.138	2623.55
432.514	2706.26
432.89	2714.62
433.265	2789.19
433.641	2876.87
434.016	2831.68
434.392	2885.23
434.767	2937.21
435.143	2936.53
435.518	2991.67
435.894	3006.36
436.269	3108.28
436.644	3121.61
437.02	3144.66
437.395	3166.36
437.77	3216.75
438.145	3254.26
438.52	3309.18
438.895	3329.97
439.271	3353.02
439.646	3434.15
440.021	3443.86
440.395	3488.61
440.77	3454.26
441.145	3499.68
441.52	3545.78
441.895	3600.92
442.27	3583.97
442.645	3627.14
443.019	3678.66
443.394	3659.9
443.769	3709.39
444.143	3726.34
444.518	3794.14
444.892	3720.24
445.267	3747.59
445.641	3833.23
446.016	3827.81
446.39	3852.22
446.764	3898.09
447.139	3863.06
447.513	3962.95
447.887	3950.74
448.262	3960.46
448.636	4000.23
449.01	4050.18
449.384	4085.43
449.758	4099.89
450.132	4112.1
450.506	4182.15
450.88	4178.31
451.254	4204.97
451.628	4293.56
452.002	4310.28
452.376	4385.99
452.75	4412.43
453.123	4425.99
453.497	4535.81
453.871	4542.82
454.244	4609.03
454.618	4610.16
454.992	4719.08
455.365	4736.94
455.739	4810.16
456.112	4823.04
456.486	4894.9
456.859	4935.58
457.232	5059.19
457.606	5037.72
457.979	5107.32
458.352	5182.12
458.725	5277.04
459.099	5310.26
459.472	5426.41
459.845	5469.8
460.218	5493.08
460.591	5573.3
460.964	5633.19
461.337	5727.65
461.71	5813.75
462.083	5858.94
462.456	5889.9
462.829	5924.93
463.201	6096.9
463.574	6020.52
463.947	6156.34
464.32	6269.55
464.692	6303.68
465.065	6399.04
465.438	6455.99
465.81	6595.87
466.183	6644.68
466.555	6795.64
466.928	6835.64
467.3	6900.95
467.672	6928.74
468.045	7064.33
468.417	7152.47
468.789	7217.32
469.161	7324.67
469.534	7418.9
469.906	7568.5
470.278	7598.56
470.65	7690.08
471.022	7844.2
471.394	8066.79
471.766	8120.35
472.138	8117.19
472.51	8339.1
472.882	8518.76
473.253	8561.02
473.625	8685.53
473.997	8886.21
474.369	8945.41
474.74	9027.22
475.112	9188.12
475.484	9351.51
475.855	9464.72
476.227	9609.13
476.598	9772.96
476.97	9957.37
477.341	10135.21
477.713	10292.27
478.084	10325.94
478.455	10628.31
478.827	10753.5
479.198	11128.18
479.569	11036.88
479.94	11461.28
480.311	11433.26
480.682	11659.47
481.053	11930.65
481.424	12140.13
481.795	12278.21
482.166	12433.91
482.537	12592.32
482.908	12844.75
483.279	13071.18
483.65	13164.96
484.021	13408.35
484.391	13610.6
484.762	13712.75
485.133	13892.86
485.503	14039.74
485.874	14405.38
486.244	14494.2
486.615	14774.19
486.985	14924.92
487.356	15208.98
487.726	15322.87
488.097	15636.99
488.467	15773.03
488.837	16015.51
489.207	16136.64
489.578	16378.21
489.948	16468.61
490.318	16806.45
490.688	16846.68
491.058	17088.03
491.428	17377.06
491.798	17445.3
492.168	17730.04
492.538	17920.55
492.908	18066.3
493.278	18339.29
493.648	18291.16
494.017	18562.34
494.387	18725.5
494.757	18859.5
495.126	19116.45
495.496	19171.59
495.866	19370.23
496.235	19489.77
496.605	19619.26
496.974	19851.34
497.344	19853.6
497.713	20070.32
498.082	20216.53
498.452	20415.17
498.821	20499.46
499.19	20616.52
499.559	20800.92
499.928	20983.97
500.298	21030.07
500.667	21301.7
501.036	21317.74
501.405	21390.06
501.774	21469.6
502.143	21699.88
502.512	21714.34
502.88	22076.82
503.249	21980.78
503.618	22152.98
503.987	22279.98
504.356	22398.39
504.724	22602.91
505.093	22710.93
505.462	22743.24
505.83	23034.76
506.199	23126.51
506.567	23401.98
506.936	23380.74
507.304	23710.45
507.672	23781.18
508.041	23910.22
508.409	24013.27
508.777	24160.61
509.145	24400.83
509.514	24483.09
509.882	24683.31
510.25	24726.69
510.618	24942.28
510.986	24944.54
511.354	25251.43
511.722	25432.66
512.09	25728.25
512.458	25630.85
512.826	25911.75
513.193	26027.45
513.561	26011.86
513.929	26365.97
514.297	26679.64
514.664	26751.5
515.032	26819.29
515.4	27077.59
515.767	27152.17
516.135	27339.96
516.502	27223.13
516.869	27707.41
517.237	27902.66
517.604	27819.95
517.972	28127.28
518.339	28261.29
518.706	28241.4
519.073	28420.83
519.44	28746.25
519.808	28991.22
520.175	28997.99
520.542	29292
520.909	29490.19
521.276	29553.01
521.643	29901.02
522.009	29959.78
522.376	30221.92
522.743	30525.41
523.11	30792.3
523.477	30976.02
523.843	31080.43
524.21	31355.45
524.577	31582.33
524.943	31841.08
525.31	31877.01
525.676	32290.34
526.043	32380.96
526.409	32526.72
526.776	32955.63
527.142	32881.06
527.508	33183.2
527.874	33357.2
528.241	33645.56
528.607	33842.39
528.973	34009.39
529.339	34124.19
529.705	34362.6
530.071	34724.4
530.437	34857.28
530.803	35009.81
531.169	35193.99
531.535	35246.64
531.901	35304.27
532.267	35485.06
532.632	35810.7
532.998	35884.59
533.364	36216.34
533.73	36249.1
534.095	36579.49
534.461	36585.37
534.826	36762.31
535.192	36896.32
535.557	37181.96
535.923	37162.98
536.288	37432.35
536.653	37564.77
537.019	37430.77
537.384	37858.78
537.749	37941.94
538.114	38118.66
538.479	38125.44
538.845	38285.43
539.21	38206.34
539.575	38393.68
539.94	38527.46
540.305	38815.14
540.67	38753.22
541.034	39008.13
541.399	39206.99
541.764	39323.15
542.129	39500.54
542.494	39510.49
542.858	39648.34
543.223	39654.44
543.587	39930.14
543.952	40042.9
544.316	40209.45
544.681	40163.35
545.045	40448.31
545.41	40626.84
545.774	40683.79
546.138	40667.74
546.503	41003.1
546.867	40878.36
547.231	41363.32
547.595	41381.62
547.959	41395.18
548.324	41526.03
548.688	41606.7
549.052	41895.06
549.416	41885.79
549.779	42006.01
550.143	42096.18
550.507	42420.24
550.871	42454.14
551.235	42511.99
551.599	42888.48
551.962	42771.64
552.326	42879.66
552.689	43221.8
553.053	43014.35
553.417	43195.36
553.78	43636.93
554.143	43470.16
554.507	43704.73
554.87	43860.65
555.234	44238.72
555.597	44013.87
555.96	44326.63
556.323	44479.62
556.686	44450.7
557.05	44907.63
557.413	44941.08
557.776	44962.55
558.139	45242.54
558.502	45343.1
558.865	45440.27
559.228	45753.26
559.59	45814.73
559.953	45852.47
560.316	46351.89
560.679	46271.89
561.041	46520.25
561.404	46642.05
561.767	47060.12
562.129	46778.54
562.492	47252.43
562.854	47152.09
563.217	47266.21
563.579	47488.81
563.941	47721.57
564.304	47855.35
564.666	48024.16
565.028	48117.72
565.39	48319.97
565.753	48499.63
566.115	48540.08
566.477	48768.1
566.839	48889
567.201	49107.75
567.563	49120.18
567.925	49303.9
568.287	49432.03
568.648	49509.77
569.01	49698.69
569.372	49977.78
569.734	49870.21
570.095	50076.99
570.457	50304.78
570.819	50334.16
571.18	50314.5
571.542	50644.88
571.903	50589.29
572.265	50851.21
572.626	50860.24
572.987	51038.32
573.349	51123.97
573.71	51201.7
574.071	51385.88
574.432	51457.74
574.794	51659.77
575.155	51576.38
575.516	51548.81
575.877	51688.47
576.238	51848.24
576.599	51968.69
576.96	51997.84
577.32	52086.43
577.681	52125.75
578.042	52307.66
578.403	52271.28
578.763	52340.88
579.124	52390.15
579.485	52544.27
579.845	52616.13
580.206	52493.2
580.566	52621.55
580.927	52671.72
581.287	52708.78
581.648	52633.31
582.008	52845.96
582.368	52870.14
582.728	52882.79
583.089	52938.83
583.449	52878.72
583.809	52990.81
584.169	53030.13
584.529	52947.65
584.889	53183.35
585.249	53036.68
585.609	52948.33
585.969	53165.72
586.329	53036.23
586.688	53246.4
587.048	53174.76
587.408	53109.45
587.768	53187.19
588.127	53180.86
588.487	53171.82
588.846	53424.92
589.206	53052.05
589.565	53236.45
589.925	53335.21
590.284	53291.59
590.643	53367.52
591.003	53360.52
591.362	53610.68
591.721	53418.6
592.08	53477.35
592.44	53591.02
592.799	53627.86
593.158	53442.78
593.517	53607.74
593.876	53616.1
594.235	53565.48
594.593	53598.7
594.952	53626.05
595.311	53593.05
595.67	53606.16
596.029	53797.57
596.387	53833.95
596.746	53932.93
597.104	53716.44
597.463	53773.84
597.822	53931.35
598.18	53802.77
598.538	53812.71
598.897	53956.43
599.255	53765.7
599.613	54099.71
599.972	53996.43
600.33	54063.32
600.688	53901.29
601.046	53997.34
601.404	54116.88
601.762	54118.69
602.12	54147.84
602.478	54291.34
602.836	54223.55
603.194	54122.31
603.552	54167.73
603.91	54141.06
604.268	54313.04
604.625	54184.68
604.983	54332.7
605.341	54176.54
605.698	54386.03
606.056	54403.88
606.413	54374.5
606.771	54468.74
607.128	54520.49
607.485	54350.1
607.843	54477.78
608.2	54557.77
608.557	54576.08
608.914	54539.92
609.272	54694.27
609.629	54707.6
609.986	54808.84
610.343	54611.78
610.7	54861.72
611.057	54878.67
611.414	54850.2
611.771	54829.41
612.127	55001.38
612.484	54915.28
612.841	54976.97
613.198	54947.59
613.554	54870.99
613.911	55080.7
614.267	55061.49
614.624	55035.28
614.98	55048.38
615.337	55196.18
615.693	55102.17
616.05	55077.08
616.406	55274.37
616.762	55190.98
617.118	55158.66
617.475	55188.04
617.831	55240.92
618.187	55322.95
618.543	55330.86
618.899	55449.05
619.255	55389.39
619.611	55338.77
619.967	55481.59
620.323	55523.4
620.678	55503.29
621.034	55323.63
621.39	55372.44
621.746	55375.38
622.101	55658.08
622.457	55441.82
622.812	55433.23
623.168	55522.95
623.523	55502.16
623.879	55597.3
624.234	55351.2
624.589	55511.42
624.945	55616.28
625.3	55535.15
625.655	55561.59
626.01	55482.95
626.365	55506.22
626.72	55574.24
627.075	55527.01
627.43	55510.07
627.785	55434.81
628.14	55481.14
628.495	55493.12
628.85	55459.45
629.205	55451.54
629.559	55625.09
629.914	55444.76
630.269	55509.16
630.623	55447.47
630.978	55320.01
631.332	55559.33
631.687	55541.48
632.041	55391.88
632.396	55528.14
632.75	55442.05
633.104	55413.57
633.459	55342.61
633.813	55321.37
634.167	55324.99
634.521	55273.91
634.875	55358.66
635.229	55362.27
635.583	55165.67
635.937	55209.51
636.291	55223.52
636.645	55201.37
636.999	55150.3
637.352	55205.22
637.706	55036.41
638.06	55192.33
638.413	55144.2
638.767	55062.85
639.121	55126.12
639.474	54955.73
639.828	54984.66
640.181	55066.01
640.534	55080.02
640.888	54955.28
641.241	54892.68
641.594	54865.79
641.947	54984.2
642.301	54914.15
642.654	55011.55
643.007	54949.18
643.36	54910.31
643.713	54876.64
644.066	54863.98
644.419	54780.82
644.771	54565.68
645.124	54285.69
645.477	54364.11
645.83	54120.95
646.182	53987.17
646.535	54076.43
646.888	54038.92
647.24	53859.26
647.593	54059.03
647.945	53987.17
648.298	53849.32
648.65	53841.64
649.002	53735.2
649.355	53894.97
649.707	53791.92
650.059	53931.8
650.411	54301.51
650.763	54398.68
651.115	54620.15
651.467	54527.04
651.819	54488.62
652.171	54432.13
652.523	54389.42
652.875	54386.03
653.227	54307.16
653.578	54510.54
653.93	54465.12
654.282	54278.91
654.633	54231.46
654.985	54215.41
655.337	54301.96
655.688	54209.31
656.039	54332.02
656.391	54129.99
656.742	54212.02
657.094	54232.59
657.445	54327.5
657.796	54258.35
658.147	54200.72
658.498	54160.95
658.849	54235.75
659.2	54118.69
659.551	54065.36
659.902	54318.91
660.253	54084.11
660.604	54173.38
660.955	54032.14
661.306	54151.23
661.656	54076.66
662.007	54040.73
662.358	54061.06
662.708	54064.68
663.059	54006.15
663.409	53893.16
663.76	54028.3
664.11	54025.81
664.461	54139.48
664.811	53949.65
665.161	54009.31
665.511	53874.85
665.862	54020.84
666.212	53996.43
666.562	53946.49
666.912	53896.1
667.262	53934.06
667.612	53994.85
667.962	53944.46
668.312	53856.1
668.662	54019.94
669.011	53942.2
669.361	53854.29
669.711	53809.55
670.06	53739.72
670.41	53652.49
670.76	53662.43
671.109	53804.8
671.459	53756.44
671.808	53668.31
672.157	53690.68
672.507	53468.31
672.856	53490.23
673.205	53492.94
673.554	53617.69
673.904	53532.72
674.253	53737.46
674.602	53536.11
674.951	53125.27
675.3	52852.73
675.649	53463.79
675.998	53397.13
676.346	53383.12
676.695	53478.25
677.044	53281.2
677.393	53372.27
677.741	53338.6
678.09	53167.53
678.438	53234.42
678.787	53212.05
679.135	53177.7
679.484	52946.29
679.832	53014.31
680.181	52921.21
680.529	53033.52
680.877	52889.12
681.225	52831.27
681.573	53019.96
681.922	52768.22
682.27	52658.62
682.618	52624.72
682.966	52593.53
683.314	52583.82
683.661	52490.94
684.009	52330.94
684.357	52275.57
684.705	52225.63
685.053	52230.38
685.4	52149.48
685.748	52054.79
686.095	52015.24
686.443	51991.29
686.79	51810.73
687.138	51859.99
687.485	51853.66
687.832	51721.24
688.18	51701.58
688.527	51462.94
688.874	51529.83
689.221	51459.78
689.568	51378.65
689.915	51218.88
690.262	51277.41
690.609	51073.57
690.956	50899.57
691.303	51053.91
691.65	50906.57
691.997	50787.25
692.344	50660.7
692.69	50493.7
693.037	50498.45
693.383	50208.74
693.73	50458.22
694.077	50234.95
694.423	50224.1
694.769	50133.94
695.116	49859.59
695.462	50060.04
695.808	49860.95
696.155	49902.53
696.501	49513.39
696.847	49548.87
697.193	49311.81
697.539	49427.74
697.885	49173.06
698.231	49162.89
698.577	49096.22
698.923	49047.41
699.269	48857.13
699.614	48590.02
699.96	48518.84
700.306	48596.8
700.651	48494.88
700.997	48250.37
701.342	48264.61
701.688	48263.93
702.033	48041.56
702.379	48124.95
702.724	48008.34
703.069	48005.86
703.415	47630.73
703.76	47456.72
704.105	47507.56
704.45	47406.32
704.795	47228.02
705.14	47179.89
705.485	47130.63
705.83	46944.42
706.175	47058.31
706.52	46754.82
706.865	46798.43
707.209	46718.21
707.554	46424.2
707.899	46640.92
708.243	46440.47
708.588	46408.16
708.932	46052.46
709.277	46132.01
709.621	46070.09
709.966	45808.85
710.31	45824.9
710.654	45508.75
710.998	45729.98
711.342	45585.81
711.687	45537.9
712.031	45390.56
712.375	45274.63
712.719	45225.36
713.063	45135.42
713.407	45325.93
713.75	45023.79
714.094	45055.65
714.438	44851.59
714.782	44936.78
715.125	44608.66
715.469	44664.25
715.812	44491.6
716.156	44313.98
716.499	44287.54
716.843	44348.78
717.186	44094.09
717.53	44394.2
717.873	44300.42
718.216	44129.8
718.559	44047.77
718.902	43682.35
719.246	43868.79
719.589	43547.22
719.932	43623.82
720.275	43599.42
720.617	43510.38
720.96	43429.48
721.303	43391.29
721.646	43348.13
721.989	43096.83
722.331	43179.54
722.674	43178.86
723.016	43164.63
723.359	43063.61
723.701	43135.48
724.044	42710.4
724.386	42624.3
724.729	42781.81
725.071	42653.68
725.413	42561.48
725.755	42523.97
726.097	42488.49
726.439	42345.21
726.782	42348.83
727.124	42471.76
727.465	42214.14
727.807	42217.08
728.149	42176.63
728.491	42062.51
728.833	42111.55
729.175	41979.35
729.516	41890.76
729.858	41763.99
730.199	41924.89
730.541	41759.24
730.882	41714.27
731.224	41767.83
731.565	41475.41
731.906	41686.47
732.248	41571.9
732.589	41356.77
732.93	41257.56
733.271	41246.49
733.612	41326.94
733.953	41261.4
734.294	41116.32
734.635	40910.9
734.976	41131.46
735.317	41020.5
735.658	40841.75
735.999	40846.5
736.339	40732.15
736.68	40888.98
737.021	40809.21
737.361	40567.41
737.702	40831.58
738.042	40564.24
738.383	40635.2
738.723	40541.87
739.063	40373.51
739.404	40336.23
739.744	40244.48
740.084	40249
740.424	40113.18
740.764	40121.77
741.104	40219.85
741.444	39952.96
741.784	39963.13
742.124	40097.14
742.464	39842.68
742.804	39940.08
743.143	39771.5
743.483	39832.74
743.823	39513.88
744.162	39514.55
744.502	39584.61
744.841	39411.05
745.181	39558.17
745.52	39360.21
745.86	39479.07
746.199	39185.75
746.538	39404.95
746.877	39288.12
747.216	39273.88
747.556	39197.73
747.895	39091.06
748.234	38958.64
748.573	38989.82
748.911	38939.2
749.25	38870.73
749.589	38638.19
749.928	38787.12
750.267	38729.26
750.605	38548.25
750.944	38481.59
751.283	38373.57
751.621	38492.21
751.96	38154.82
752.298	38230.52
752.636	38364.75
752.975	38095.83
753.313	37982.84
753.651	38182.84
753.989	37889.06
754.327	37759.12
754.666	37685.68
755.004	37717.09
755.342	37607.49
755.679	37671.44
756.017	37466.92
756.355	37397.77
756.693	37263.31
757.031	37459.24
757.368	37193.26
757.706	37037.56
758.044	36923.66
758.381	36926.83
758.719	36728.86
759.056	36845.02
759.394	36603.22
759.731	36499.94
760.068	36340.63
760.405	36183.12
760.743	36135.43
761.08	36280.29
761.417	35889.34
761.754	35946.96
762.091	35838.04
762.428	35749.23
762.765	35560.76
763.102	35668.78
763.438	35564.38
763.775	35217.94
764.112	35262.69
764.449	35269.02
764.785	35064.95
765.122	34842.59
765.458	34687.34
765.795	34716.04
766.131	34777.73
766.467	34629.94
766.804	34405.31
767.14	34373.9
767.476	34235.37
767.812	34182.72
768.148	34219.78
768.485	33757.42
768.821	33715.61
769.157	33664.99
769.492	33548.61
769.828	33621.6
770.164	33306.36
770.5	33268.39
770.836	33087.83
771.171	32992.69
771.507	32975.07
771.842	32695.75
772.178	32744.11
772.513	32670.89
772.849	32531.91
773.184	32401.75
773.519	32220.73
773.855	32143.22
774.19	32033.17
774.525	31943.68
774.86	32045.15
775.195	31855.55
775.53	31741.43
775.865	31478.61
776.2	31346.18
776.535	31092.18
776.87	31260.53
777.205	31054.89
777.539	30895.12
777.874	31007.89
778.209	30671.62
778.543	30650.83
778.878	30431.18
779.212	30454.45
779.547	30171.75
779.881	30167.23
780.215	30009.72
780.55	30079.77
780.884	29933.11
781.218	29795.71
781.552	29783.28
781.886	29647.92
782.22	29427.81
782.554	29534.03
782.888	29041.61
783.222	29100.82
783.556	28925.23
783.889	28932.69
784.223	28656.53
784.557	28718
784.89	28593.49
785.224	28428.97
785.557	28326.37
785.891	28384
786.224	28226.94
786.558	28273.27
786.891	27885.71
787.224	27960.73
787.557	27806.61
787.891	27772.04
788.224	27725.71
788.557	27659.95
788.89	27525.94
789.223	27553.06
789.556	27374.53
789.888	27184.03
790.221	27127.08
790.554	26874.89
790.887	26909.91
791.219	26842.57
791.552	26732.29
791.884	26656.14
792.217	26471.28
792.549	26418.4
792.882	26285.52
793.214	26265.19
793.546	26232.87
793.879	26106.55
794.211	25949.71
794.543	25952.65
794.875	25806.44
795.207	25951.07
795.539	25732.54
795.871	25674.47
796.203	25488.26
796.535	25300.46
796.867	25290.3
797.198	25326
797.53	25283.52
797.862	25100.92
798.193	25067.48
798.525	24895.73
798.856	24870.87
799.188	24698.67
799.519	24576.64
799.85	24476.31
800.182	24505.01
800.513	24454.84
800.844	24266.14
801.175	24426.36
801.506	24355.86
801.837	24223.88
802.168	24068.41
802.499	24081.06
802.83	23873.16
803.161	23792.71
803.491	23836.1
803.822	23827.51
804.153	23656.67
804.483	23551.81
804.814	23514.52
805.145	23479.5
805.475	23161.31
805.805	23288.31
806.136	23339.84
806.466	23248.99
806.796	23185.72
807.126	23017.13
807.457	22914.76
807.787	22945.5
808.117	22797.03
808.447	22831.83
808.777	22911.83
809.107	22689.69
809.436	22732.4
809.766	22592.74
810.096	22530.82
810.426	22436.36
810.755	22421.9
811.085	22282.69
811.414	22310.71
811.744	21965.41
812.073	22053.32
812.403	22048.12
812.732	21939.2
813.061	21929.48
813.39	21845.64
813.719	21842.02
814.049	21905.3
814.378	21775.13
814.707	21684.51
815.036	21659.66
815.365	21465.09
815.693	21388.48
816.022	21417.85
816.351	21274.13
816.68	21183.06
817.008	21270.29
817.337	21142.61
817.665	21068.71
817.994	21070.97
818.322	21080.01
818.651	21014.02
818.979	20854.48
819.307	21001.14
819.636	20985.1
819.964	20802.05
820.292	20844.99
820.62	20766.8
820.948	20816.97
821.276	20840.69
821.604	20835.5
821.932	20820.81
822.259	20769.74
822.587	20627.14
822.915	20656.97
823.243	20745.1
823.57	20616.52
823.898	20733.58
824.225	20671.21
824.553	20644.77
824.88	20609.51
825.207	20741.04
825.535	20701.49
825.862	20624.43
826.189	20521.83
826.516	20676.18
826.843	20775.84
827.17	20681.83
827.497	20670.76
827.824	20704.43
828.151	20555.73
828.478	20536.07
828.805	20680.93
829.131	20566.8
829.458	20592.79
829.785	20460.37
830.111	20536.07
830.438	20583.53
830.764	20550.53
831.09	20641.83
831.417	20480.48
831.743	20557.76
832.069	20452.46
832.395	20403.64
832.722	20406.81
833.048	20412.91
833.374	20418.79
833.7	20324.32
834.026	20293.14
834.351	20330.65
834.677	20347.37
835.003	20269.18
835.329	20295.85
835.654	20271.9
835.98	20172.01
836.306	20230.99
836.631	20086.82
836.956	20308.51
837.282	20091.11
837.607	19972.92
837.932	19996.42
838.258	19990.77
838.583	20009.3
838.908	19721.85
839.233	19897.67
839.558	19816.77
839.883	19806.82
840.208	19667.39
840.533	19692.25
840.858	19752.81
841.182	19703.32
841.507	19675.3
841.832	19586.72
842.156	19590.33
842.481	19504.91
842.805	19481.86
843.13	19358.02
843.454	19294.07
843.778	19321.64
844.103	19264.92
844.427	19180.17
844.751	19242.32
845.075	19085.71
845.399	19071.02
845.723	19065.37
846.047	18990.8
846.371	18866.74
846.695	18818.83
847.019	18721.65
847.343	18608.44
847.666	18496.8
847.99	18419.97
848.313	18477.37
848.637	18316.47
848.96	18290.71
849.284	18243.93
849.607	18127.77
849.931	18040.99
850.254	17932.52
850.577	17845.07
850.9	17699.08
851.223	17619.31
851.546	17681.23
851.869	17549.03
852.192	17616.37
852.515	17521.46
852.838	17371.41
853.161	17356.27
853.483	17288.02
853.806	17205.54
854.129	17218.64
854.451	17124.18
854.774	17035.15
855.096	16991.76
855.419	17000.57
855.741	16938.2
856.063	16813.91
856.385	16763.06
856.708	16704.31
857.03	16622.05
857.352	16637.19
857.674	16549.73
857.996	16499.11
858.318	16438.78
858.64	16490.07
858.961	16497.08
859.283	16330.53
859.605	16249.63
859.926	16219.57
860.248	16235.62
860.57	16169.63
860.891	16150.42
861.212	16116.3
861.534	15954.95
861.855	16027.04
862.176	16029.75
862.498	15973.03
862.819	15978.45
863.14	15957.21
863.461	15785.01
863.782	15799.47
864.103	15857.78
864.424	15755.18
864.745	15809.64
865.065	15710.66
865.386	15543.89
865.707	15606.26
866.027	15728.06
866.348	15649.42
866.668	15566.03
866.989	15503.66
867.309	15351.8
867.63	15424.11
867.95	15441.74
868.27	15328.75
868.59	15384.79
868.91	15354.51
869.23	15346.6
869.55	15253.72
869.87	15305.47
870.19	15232.71
870.51	15312.48
870.83	15246.94
871.15	15165.59
871.469	15072.03
871.789	15168.98
872.109	15187.06
872.428	15114.74
872.748	15081.98
873.067	15061.86
873.386	15108.42
873.706	14962.21
874.025	14924.47
874.344	14943
874.663	14862.32
874.982	14921.08
875.301	14870.91
875.62	14761.08
875.939	14827.97
876.258	14811.02
876.577	14639.5
876.896	14685.83
877.214	14654.87
877.533	14655.77
877.852	14697.58
878.17	14634.3
878.489	14637.24
878.807	14629.33
879.125	14529.45
879.444	14571.03
879.762	14453.07
880.08	14525.61
880.398	14409.45
880.716	14352.05
881.034	14264.37
881.352	14423.01
881.67	14282
881.988	14276.35
882.306	14295.33
882.624	14260.3
882.941	14177.14
883.259	14091.95
883.577	14093.08
883.894	14082
884.212	13971.72
884.529	13936.7
884.846	13968.79
885.164	13996.58
885.481	13886.08
885.798	13903.7
886.115	13819.64
886.432	13799.52
886.75	13712.97
887.067	13839.75
887.383	13806.3
887.7	13677.49
888.017	13620.77
888.334	13573.77
888.651	13533.54
888.967	13516.59
889.284	13432.53
889.6	13576.48
889.917	13346.2
890.233	13439.53
890.55	13275.47
890.866	13424.84
891.182	13231.63
891.498	13201.8
891.815	13171.29
892.131	13102.82
892.447	13093.33
892.763	13081.58
893.079	13035.25
893.395	12995.03
893.71	12990.73
894.026	12929.94
894.342	12811.75
894.657	12792.54
894.973	12703.96
895.289	12763.17
895.604	12781.25
895.92	12584.19
896.235	12591.42
896.55	12604.75
896.865	12534.7
897.181	12497.41
897.496	12492.21
897.811	12402.27
898.126	12371.54
898.441	12311.43
898.756	12287.47
899.071	12262.16
899.386	12160.92
899.7	12086.12
900.015	12122.73
900.33	12080.25
900.644	12035.73
900.959	11982.4
901.273	11908.95
901.588	11870.08
901.902	11782.18
902.216	11814.94
902.531	11723.87
902.845	11666.47
903.159	11632.12
903.473	11507.61
903.787	11484.56
904.101	11423.32
904.415	11507.38
904.729	11348.29
905.042	11408.63
905.356	11332.02
905.67	11322.53
905.984	11294.96
906.297	11214.96
906.611	11172.25
906.924	11108.07
907.237	11094.06
907.551	11108.07
907.864	11012.7
908.177	10957.34
908.491	10968.41
908.804	10808.64
909.117	10882.31
909.43	10747.4
909.743	10689.32
910.056	10730.68
910.368	10647.97
910.681	10606.84
910.994	10558.25
911.307	10447.75
911.619	10360.07
911.932	10451.36
912.244	10307.86
912.557	10424.47
912.869	10302.67
913.181	10282.1
913.494	10315.77
913.806	10152.16
914.118	10049.57
914.43	10094.99
914.742	10054.31
915.054	10017.02
915.366	9919.63
915.678	9929.8
915.99	9856.35
916.302	9780.87
916.613	9744.26
916.925	9779.29
917.236	9802.57
917.548	9705.17
917.859	9681.67
918.171	9560.31
918.482	9557.6
918.794	9431.28
919.105	9486.87
919.416	9390.15
919.727	9415.68
920.038	9360.09
920.349	9310.15
920.66	9259.76
920.971	9247.78
921.282	9189.93
921.593	9103.6
921.903	9079.87
922.214	9084.85
922.525	8985.19
922.835	8968.01
923.146	8894.12
923.456	8948.58
923.767	8916.49
924.077	8787
924.387	8748.36
924.697	8731.86
925.008	8753.1
925.318	8655.7
925.628	8605.31
925.938	8683.73
926.248	8556.72
926.558	8484.41
926.867	8445.99
927.177	8423.17
927.487	8419.55
927.796	8339.33
928.106	8327.35
928.416	8326.22
928.725	8260.23
929.034	8151.31
929.344	8176.85
929.653	8146.79
929.962	8093.23
930.271	8079.67
930.581	8063.4
930.89	7985.67
931.199	7953.12
931.508	7918.1
931.817	7926.91
932.125	7883.52
932.434	7883.07
932.743	7726.01
933.051	7777.31
933.36	7747.25
933.669	7647.6
933.977	7687.59
934.286	7589.97
934.594	7509.29
934.902	7422.52
935.21	7516.3
935.519	7534.15
935.827	7509.97
936.135	7386.13
936.443	7373.25
936.751	7295.74
937.059	7320.37
937.367	7288.06
937.674	7269.3
937.982	7216.87
938.29	7162.41
938.597	7159.02
938.905	7100.72
939.213	7065.24
939.52	7083.77
939.827	7119.25
940.135	7006.93
940.442	6949.08
940.749	6950.89
941.056	6949.76
941.363	6858.01
941.67	6841.97
941.977	6789.31
942.284	6729.65
942.591	6740.73
942.898	6669.09
943.205	6719.71
943.511	6680.84
943.818	6610.56
944.125	6603.78
944.431	6537.79
944.738	6595.42
945.044	6490.56
945.35	6473.39
945.657	6442.66
945.963	6410.11
946.269	6377.8
946.575	6389.78
946.881	6334.18
947.187	6287.18
947.493	6254.41
947.799	6210.57
948.105	6162.21
948.41	6150.23
948.716	6188.65
949.022	6147.07
949.327	6071.59
949.633	6076.56
949.938	6018.71
950.244	6072.72
950.549	6043.34
950.854	5985.04
951.16	5934.42
951.465	5892.39
951.77	5865.27
952.075	5850.35
952.38	5857.81
952.685	5838.83
952.99	5800.19
953.294	5749.34
953.599	5764.26
953.904	5708.89
954.209	5656.91
954.513	5626.18
954.818	5613.52
955.122	5556.13
955.426	5586.86
955.731	5612.62
956.035	5543.24
956.339	5544.6
956.643	5493.98
956.948	5426.86
957.252	5428.22
957.556	5429.57
957.86	5394.1
958.163	5354.32
958.467	5352.06
958.771	5262.12
959.075	5279.97
959.378	5287.66
959.682	5253.99
959.985	5211.5
960.289	5175.8
960.592	5166.76
960.896	5147.1
961.199	5167.43
961.502	5089.02
961.805	5052.41
962.108	5051.96
962.411	5011.28
962.714	4973.54
963.017	4945.97
963.32	4977.61
963.623	4939.19
963.926	4940.55
964.228	4913.88
964.531	4864.17
964.833	4870.04
965.136	4811.29
965.438	4763.15
965.741	4779.65
966.043	4763.38
966.345	4752.76
966.648	4687.9
966.95	4671.18
967.252	4618.52
967.554	4666.66
967.856	4625.53
968.158	4620.78
968.46	4634.12
968.761	4578.52
969.063	4572.87
969.365	4522.03
969.666	4533.33
969.968	4439.77
970.269	4439.54
970.571	4436.83
970.872	4424.63
971.174	4371.75
971.475	4402.48
971.776	4400.68
972.077	4343.05
972.378	4284.97
972.679	4337.4
972.98	4303.95
973.281	4270.51
973.582	4233.9
973.883	4225.76
974.183	4184.64
974.484	4202.26
974.785	4198.19
975.085	4122.26
975.386	4148.93
975.686	4102.38
975.986	4089.27
976.287	4090.17
976.587	4056.05
976.887	4076.39
977.187	3981.03
977.487	4030.74
977.787	3980.8
978.087	3922.95
978.387	3981.25
978.687	3915.94
978.987	3928.37
979.286	3889.5
979.586	3863.51
979.885	3836.17
980.185	3834.36
980.484	3843.85
980.784	3837.98
981.083	3792.33
981.382	3754.82
981.682	3778.32
981.981	3717.76
982.28	3751.65
982.579	3677.08
982.878	3728.15
983.177	3670.52
983.475	3659.68
983.774	3663.75
984.073	3623.29
984.372	3579.68
984.67	3623.97
984.969	3570.19
985.267	3573.35
985.566	3567.7
985.864	3550.98
986.162	3499.91
986.461	3511.66
986.759	3464.65
987.057	3426.01
987.355	3459.23
987.653	3440.7
987.951	3406.8
988.249	3396.41
988.547	3354.83
988.844	3394.15
989.142	3339.91
989.44	3339.46
989.737	3270.54
990.035	3298.56
990.332	3274.6
990.63	3249.29
990.927	3235.06
991.224	3235.96
991.521	3180.14
991.819	3190.76
992.116	3190.54
992.413	3163.87
992.71	3139.47
993.006	3141.05
993.303	3137.43
993.6	3095.17
993.897	3065.12
994.193	3114.83
994.49	3086.59
994.787	3053.37
995.083	3007.72
995.379	3021.73
995.676	3009.07
995.972	2970.66
996.268	2985.8
996.565	2966.36
996.861	2973.59
997.157	2935.4
997.453	2898.57
997.749	2940.6
998.044	2844.56
998.34	2837.78
998.636	2863.31
998.932	2771.79
999.227	2807.27
999.523	2805.46
999.818	2786.48
1000.114	2764.56
1000.409	2759.59
1000.704	2741.96
1001	2713.94
1001.295	2702.19
1001.59	2677.78
1001.885	2674.84
1002.18	2679.14
1002.475	2673.72
1002.77	2617.45
1003.065	2612.47
1003.359	2608.41
1003.654	2607.05
1003.949	2558.92
1004.243	2546.71
1004.538	2549.42
1004.832	2537.9
1005.127	2516.88
1005.421	2507.39
1005.715	2476.43
1006.009	2474.85
1006.304	2476.43
1006.598	2407.28
1006.892	2421.74
1007.186	2377.9
1007.48	2425.13
1007.773	2358.24
1008.067	2362.76
1008.361	2356.21
1008.655	2336.1
1008.948	2310.33
1009.242	2315.31
1009.535	2302.43
1009.829	2285.7
1010.122	2276.89
1010.415	2229.21
1010.708	2229.66
1011.001	2245.93
1011.295	2219.72
1011.588	2199.15
1011.881	2170.68
1012.173	2179.72
1012.466	2139.04
1012.759	2149.66
1013.052	2146.27
1013.344	2102.66
1013.637	2124.58
1013.93	2077.8
1014.222	2066.95
1014.514	2085.48
1014.807	2053.39
1015.099	2034.18
1015.391	2031.92
1015.683	2024.47
1015.976	2038.03
1016.268	1994.18
1016.56	2004.35
1016.851	1967.74
1017.143	1952.83
1017.435	1959.38
1017.727	1937.46
1018.018	1911.02
1018.31	1915.99
1018.602	1920.97
1018.893	1857.92
1019.185	1878.03
1019.476	1844.81
1019.767	1839.61
1020.058	1828.77
1020.35	1820.63
1020.641	1821.31
1020.932	1788.99
1021.223	1776.56
1021.514	1775.43
1021.804	1737.47
1022.095	1749.9
1022.386	1708.54
1022.677	1708.99
1022.967	1696.34
1023.258	1702.22
1023.548	1664.7
1023.839	1684.59
1024.129	1687.53
1024.419	1637.13
1024.709	1636.45
1025	1605.04
1025.29	1623.57
1025.58	1601.2
1025.87	1580.64
1026.16	1575.21
1026.449	1556.91
1026.739	1565.27
1027.029	1556.23
1027.319	1556.46
1027.608	1502.45
1027.898	1511.03
1028.187	1507.64
1028.477	1472.84
1028.766	1435.78
1029.055	1480.98
1029.344	1474.88
1029.634	1458.83
1029.923	1459.74
1030.212	1438.95
1030.501	1450.02
1030.79	1433.97
1031.078	1417.48
1031.367	1375.44
1031.656	1399.17
1031.945	1373.41
1032.233	1383.81
1032.522	1355.33
1032.81	1348.55
1033.099	1350.36
1033.387	1311.49
1033.675	1306.97
1033.963	1311.04
1034.251	1290.7
1034.54	1279.4
1034.828	1306.75
1035.116	1319.85
1035.403	1268.55
1035.691	1274.2
1035.979	1250.93
1036.267	1251.83
1036.554	1230.82
1036.842	1244.37
1037.129	1216.13
1037.417	1191.49
1037.704	1199.86
1037.992	1166.86
1038.279	1188.33
1038.566	1171.16
1038.853	1171.16
1039.14	1171.16
