Data from white_wall_FLMS001491_013.txt Node
Date: Tue Feb 07 11:03:42 GMT 2017
User: dcchb
Spectrometer: FLMS00149
Trigger mode: 0
Integration Time (sec): 2.000000E-2
Scans to average: 10
Electric dark correction enabled: true
Nonlinearity correction enabled: false
Boxcar width: 0
XAxis mode: Wavelengths
Number of Pixels in Spectrum: 2048
>>>>>Begin Spectral Data<<<<<
341.393	1.13
341.776	1.13
342.16	1.13
342.543	-54.01
342.927	-58.3
343.31	-67.79
343.693	-44.52
344.077	-61.69
344.46	-61.69
344.843	-53.78
345.226	-49.26
345.61	-15.37
345.993	-20.79
346.376	-0.68
346.759	25.08
347.142	0.68
347.525	40.45
347.908	57.4
348.291	77.06
348.674	79.09
349.057	95.82
349.44	136.72
349.823	141.01
350.206	177.4
350.588	215.36
350.971	244.97
351.354	254
351.737	274.12
352.119	271.63
352.502	284.51
352.884	282.7
353.267	314.34
353.65	317.05
354.032	329.71
354.414	335.36
354.797	345.98
355.179	353.21
355.562	370.39
355.944	353.89
356.326	371.74
356.709	367.45
357.091	342.36
357.473	380.55
357.855	352.99
358.238	375.13
358.62	363.61
359.002	385.98
359.384	384.62
359.766	383.94
360.148	375.58
360.53	373.78
360.912	376.71
361.294	373.32
361.676	374.45
362.057	370.16
362.439	360.22
362.821	371.29
363.203	381.91
363.584	356.6
363.966	358.63
364.348	354.57
364.729	358.41
365.111	345.08
365.493	326.09
365.874	349.14
366.256	367.9
366.637	342.36
367.019	349.14
367.4	344.4
367.781	324.06
368.163	335.81
368.544	348.92
368.925	334.91
369.306	371.06
369.688	367
370.069	339.65
370.45	354.57
370.831	355.7
371.212	358.86
371.593	354.79
371.974	367
372.355	352.53
372.736	359.54
373.117	346.21
373.498	350.73
373.879	382.81
374.26	363.61
374.641	349.6
375.021	351.18
375.402	367
375.783	387.33
376.163	379.88
376.544	411.51
376.925	374.68
377.305	372.87
377.686	388.24
378.066	387.33
378.447	386.2
378.827	377.62
379.208	399.99
379.588	406.09
379.968	388.01
380.349	391.4
380.729	393.21
381.109	414.68
381.489	396.83
381.87	411.74
382.25	407.9
382.63	399.31
383.01	411.97
383.39	386.88
383.77	426.88
384.15	426.88
384.53	420.1
384.91	413.32
385.29	420.33
385.67	419.2
386.049	426.43
386.429	442.47
386.809	425.53
387.189	442.25
387.568	438.86
387.948	439.76
388.328	459.2
388.707	454.23
389.087	436.37
389.466	462.36
389.846	465.07
390.225	456.03
390.605	482.25
390.984	467.56
391.363	505.52
391.743	503.72
392.122	505.75
392.501	517.95
392.881	508.24
393.26	534.22
393.639	512.75
394.018	527.44
394.397	547.33
394.776	550.95
395.155	549.14
395.534	546.88
395.913	559.99
396.292	575.13
396.671	592.3
397.05	595.69
397.429	606.31
397.808	625.07
398.186	633.2
398.565	632.07
398.944	638.63
399.323	654.22
399.701	676.37
400.08	670.49
400.458	672.75
400.837	695.8
401.215	701.9
401.594	692.41
401.972	695.8
402.351	756.82
402.729	748
403.107	785.29
403.486	778.28
403.864	785.06
404.242	800.43
404.62	824.61
404.999	822.8
405.377	847.89
405.755	830.71
406.133	865.74
406.511	885.4
406.889	898.06
407.267	928.79
407.645	948
408.023	975.34
408.401	984.15
408.779	980.31
409.156	1017.37
409.534	1020.76
409.912	1037.49
410.29	1049.01
410.667	1075.45
411.045	1075.23
411.422	1120.87
411.8	1128.78
412.178	1144.38
412.555	1138.28
412.933	1170.36
413.31	1202.91
413.687	1211.27
414.065	1262.57
414.442	1227.99
414.819	1245.16
415.197	1281.32
415.574	1302.34
415.951	1307.31
416.328	1306.18
416.705	1338.04
417.082	1358.83
417.46	1370.81
417.837	1380.3
418.214	1421.66
418.591	1412.84
418.967	1445.84
419.344	1450.58
419.721	1472.96
420.098	1474.31
420.475	1521.32
420.852	1515.21
421.228	1519.06
421.605	1547.76
421.982	1574.42
422.358	1560.64
422.735	1621.43
423.111	1623.46
423.488	1658.94
423.864	1644.02
424.241	1699.62
424.617	1694.42
424.994	1717.47
425.37	1723.8
425.746	1730.58
426.123	1782.33
426.499	1776.22
426.875	1802.89
427.251	1811.93
427.627	1852.61
428.003	1867.52
428.379	1915.43
428.756	1893.51
429.132	1956.33
429.507	1999.04
429.883	2014.64
430.259	2036.1
430.635	2087.18
431.011	2086.72
431.387	2153.84
431.763	2184.12
432.138	2178.47
432.514	2215.31
432.89	2238.36
433.265	2325.59
433.641	2282.2
434.016	2336.66
434.392	2370.79
434.767	2418.02
435.143	2459.14
435.518	2413.72
435.894	2447.85
436.269	2532.81
436.644	2527.39
437.02	2590.44
437.395	2577.79
437.77	2601.51
438.145	2647.61
438.52	2675.41
438.895	2698.69
439.271	2726.03
439.646	2756.76
440.021	2834.95
440.395	2813.49
440.77	2813.94
441.145	2872.24
441.52	2892.81
441.895	2925.12
442.27	2969.64
442.645	2958.11
443.019	3010.77
443.394	3010.09
443.769	3028.17
444.143	3023.2
444.518	3071.11
444.892	3099.81
445.267	3115.17
445.641	3161.27
446.016	3143.42
446.39	3165.79
446.764	3251.89
447.139	3209.86
447.513	3265.22
447.887	3284.89
448.262	3252.57
448.636	3311.78
449.01	3361.49
449.384	3408.5
449.758	3430.64
450.132	3523.98
450.506	3475.84
450.88	3532.34
451.254	3555.84
451.628	3563.97
452.002	3636.51
452.376	3655.27
452.75	3714.7
453.123	3759.22
453.497	3780.92
453.871	3838.77
454.244	3912.44
454.618	3913.12
454.992	4010.06
455.365	4006.67
455.739	4125.54
456.112	4150.4
456.486	4167.8
456.859	4203.73
457.232	4273.56
457.606	4335.25
457.979	4351.98
458.352	4488.24
458.725	4521.01
459.099	4557.62
459.472	4632.87
459.845	4669.26
460.218	4763.04
460.591	4759.2
460.964	4856.14
461.337	4926.2
461.71	5033.54
462.083	5121.9
462.456	5086.87
462.829	5105.18
463.201	5242.8
463.574	5230.82
463.947	5308.33
464.32	5475.34
464.692	5469.46
465.065	5540.65
465.438	5629.91
465.81	5668.33
466.183	5760.75
466.555	5913.06
466.928	5947.41
467.3	5960.52
467.672	6044.59
468.045	6238.03
468.417	6264.92
468.789	6212.49
469.161	6367.52
469.534	6463.56
469.906	6620.84
470.278	6673.27
470.65	6718.69
471.022	6886.37
471.394	7002.53
471.766	7105.12
472.138	7177.89
472.51	7383.99
472.882	7456.53
473.253	7528.39
473.625	7648.61
473.997	7809.06
474.369	7889.96
474.74	8026.68
475.112	8194.81
475.484	8311.65
475.855	8446.78
476.227	8500.57
476.598	8771.97
476.97	8832.99
477.341	9062.13
477.713	9171.51
478.084	9245.18
478.455	9572.4
478.827	9623.48
479.198	9987.31
479.569	9870.25
479.94	10151.15
480.311	10263.23
480.682	10494.19
481.053	10768.76
481.424	10898.92
481.795	11075.19
482.166	11265.24
482.537	11439.7
482.908	11599.92
483.279	11731.89
483.65	11919.69
484.021	12179.34
484.391	12369.62
484.762	12420.24
485.133	12713.56
485.503	12832.43
485.874	13107.45
486.244	13228.58
486.615	13497.5
486.985	13643.03
487.356	13909.24
487.726	14013.64
488.097	14285.5
488.467	14396.68
488.837	14715.77
489.207	14827.41
489.578	15042.99
489.948	15236.89
490.318	15527.05
490.688	15555.98
491.058	15841.39
491.428	15958.22
491.798	16184.89
492.168	16477.31
492.538	16530.64
492.908	16804.3
493.278	17072.09
493.648	17131.75
494.017	17320.9
494.387	17489.48
494.757	17624.62
495.126	17813.32
495.496	17897.38
495.866	18056.47
496.235	18293.98
496.605	18538.95
496.974	18631.6
497.344	18824.36
497.713	18893.97
498.082	18992.95
498.452	19288.53
498.821	19387.51
499.19	19471.8
499.559	19684
499.928	19789.08
500.298	19974.62
500.667	20125.35
501.036	20199.47
501.405	20437.88
501.774	20386.36
502.143	20625.9
502.512	20692.56
502.88	20987.24
503.249	21039.22
503.618	21182.49
503.987	21389.49
504.356	21524.18
504.724	21684.18
505.093	21818.86
505.462	21921.91
505.83	22035.8
506.199	22271.73
506.567	22634.43
506.936	22573.87
507.304	22808.21
507.672	23090.01
508.041	23030.58
508.409	23344.24
508.777	23599.61
509.145	23755.76
509.514	23776.1
509.882	24087.28
510.25	23915.98
510.618	24287.05
510.986	24361.62
511.354	24627.38
511.722	24987.82
512.09	25155.95
512.458	25135.61
512.826	25262.61
513.193	25384.19
513.561	25638.2
513.929	25817.17
514.297	26096.04
514.664	26294.68
515.032	26378.29
515.4	26620.77
515.767	26727.43
516.135	26917.03
516.502	26770.82
516.869	27314.31
517.237	27531.71
517.604	27372.61
517.972	27819.83
518.339	28022.09
518.706	28195.19
519.073	28320.61
519.44	28533.49
519.808	28829.75
520.175	28752.46
520.542	29235.16
520.909	29436.97
521.276	29372.34
521.643	29715.83
522.009	30061.13
522.376	30220.22
522.743	30342.03
523.11	30668.8
523.477	30914.89
523.843	31013.65
524.21	31344.71
524.577	31803.91
524.943	31837.13
525.31	31895.66
525.676	32244.8
526.043	32404.8
526.409	32637.33
526.776	33060.37
527.142	33061.28
527.508	33270.76
527.874	33595.05
528.241	33682.05
528.607	33756.17
528.973	34204.98
529.339	34131.31
529.705	34527.68
530.071	34830.72
530.437	34993.88
530.803	35230.03
531.169	35476.36
531.535	35346.42
531.901	35696.69
532.267	35860.07
532.632	36038.37
532.998	36163.57
533.364	36361.08
533.73	36507.74
534.095	36714.06
534.461	37031.79
534.826	37057.33
535.192	37200.15
535.557	37345.23
535.923	37524.44
536.288	37614.15
536.653	37731.44
537.019	37722.62
537.384	38102.95
537.749	38261.14
538.114	38392.44
538.479	38563.73
538.845	38633.11
539.21	38660.9
539.575	38825.65
539.94	38940.67
540.305	39247.33
540.67	39289.81
541.034	39417.72
541.399	39604.16
541.764	39733.42
542.129	40023.81
542.494	39897.71
542.858	40183.8
543.223	40232.84
543.587	40485.49
543.952	40431.71
544.316	40652.04
544.681	40751.7
545.045	40977.68
545.41	41106.94
545.774	41236.88
546.138	41376.09
546.503	41605.91
546.867	41528.85
547.231	41863.76
547.595	41883.42
547.959	42237.31
548.324	42286.57
548.688	42319.34
549.052	42529.73
549.416	42574.47
549.779	42732.66
550.143	42844.07
550.507	43295.81
550.871	43317.05
551.235	43271.4
551.599	43563.37
551.962	43784.39
552.326	43708.46
552.689	44199.06
553.053	44072.51
553.417	44283.81
553.78	44918.37
554.143	44643.12
554.507	44833.62
554.87	45148.64
555.234	45517.45
555.597	45338.47
555.96	45634.73
556.323	45712.02
556.686	45817.78
557.05	46141.61
557.413	46231.1
557.776	46470.87
558.139	46702.27
558.502	46759.45
558.865	46829.05
559.228	47120.34
559.59	47391.75
559.953	47451.41
560.316	47807.56
560.679	47836.26
561.041	48170.26
561.404	48226.08
561.767	48547.2
562.129	48557.14
562.492	48965.27
562.854	48892.05
563.217	48939.96
563.579	49134.98
563.941	49368.42
564.304	49452.49
564.666	49711.91
565.028	49886.37
565.39	49955.97
565.753	50079.14
566.115	50275.06
566.477	50394.61
566.839	50384.89
567.201	50764.31
567.563	50805.9
567.925	51040.92
568.287	51036.62
568.648	51250.86
569.01	51257.18
569.372	51511.87
569.734	51471.64
570.095	51637.51
570.457	51755.25
570.819	51847.22
571.18	51836.83
571.542	52072.08
571.903	52207.44
572.265	52374.22
572.626	52410.15
572.987	52335.35
573.349	52596.58
573.71	52627.09
574.071	52656.24
574.432	52753.64
574.794	53010.81
575.155	52907.31
575.516	52917.48
575.877	53114.76
576.238	53166.29
576.599	53238.6
576.96	53265.27
577.32	53333.06
577.681	53462.32
578.042	53475.43
578.403	53506.16
578.763	53479.72
579.124	53514.07
579.485	53655.99
579.845	53798.36
580.206	53650.11
580.566	53717.91
580.927	53773.5
581.287	53935.76
581.648	53762.2
582.008	53900.5
582.368	53820.28
582.728	53935.31
583.089	53846.95
583.449	53898.92
583.809	53904.57
584.169	53948.86
584.529	53837
584.889	54179.37
585.249	54035.19
585.609	53946.6
585.969	54028.86
586.329	53913.16
586.688	54048.52
587.048	54013.27
587.408	53908.87
587.768	53973.72
588.127	53996.32
588.487	53981.41
588.846	54123.77
589.206	53953.38
589.565	54076.77
589.925	54144.57
590.284	54047.17
590.643	54130.1
591.003	54187.28
591.362	54284.67
591.721	54154.96
592.08	54185.47
592.44	54259.82
592.799	54195.64
593.158	54164.45
593.517	54154.73
593.876	54203.77
594.235	54087.62
594.593	54180.5
594.952	54258.69
595.311	54261.4
595.67	54231.57
596.029	54437.66
596.387	54401.06
596.746	54369.64
597.104	54216.43
597.463	54295.97
597.822	54380.49
598.18	54257.78
598.538	54256.65
598.897	54554.72
599.255	54297.56
599.613	54664.78
599.972	54497.1
600.33	54490.32
600.688	54401.28
601.046	54515.4
601.404	54734.61
601.762	54579.36
602.12	54736.19
602.478	54770.09
602.836	54689.86
603.194	54530.32
603.552	54636.3
603.91	54630.43
604.268	54761.95
604.625	54717.88
604.983	54715.17
605.341	54674.04
605.698	54808.5
606.056	54989.06
606.413	54898.44
606.771	54907.26
607.128	54908.84
607.485	54768.28
607.843	54824.55
608.2	55024.32
608.557	55118.55
608.914	54996.75
609.272	55207.81
609.629	55211.2
609.986	55313.57
610.343	55160.81
610.7	55349.73
611.057	55311.31
611.414	55227.02
611.771	55256.63
612.127	55434.7
612.484	55363.74
612.841	55513.34
613.198	55455.94
613.554	55452.78
613.911	55632.89
614.267	55544.08
614.624	55606.45
614.98	55568.48
615.337	55697.07
615.693	55669.95
616.05	55657.97
616.406	55804.18
616.762	55690.74
617.118	55710.17
617.475	55660.46
617.831	55838.53
618.187	55800.11
618.543	55856.84
618.899	55957.4
619.255	55888.02
619.611	55852.54
619.967	56037.4
620.323	56048.47
620.678	55976.38
621.034	55955.14
621.39	55906.78
621.746	55848.25
622.101	56158.98
622.457	55909.04
622.812	55951.75
623.168	56062.93
623.523	56016.83
623.879	56089.37
624.234	56007.57
624.589	56119.2
624.945	56031.75
625.3	56137.28
625.655	56127.34
626.01	56101.12
626.365	56192.65
626.72	56115.59
627.075	56078.3
627.43	56046.21
627.785	56054.12
628.14	56028.36
628.495	56182.93
628.85	56130.5
629.205	56013.67
629.559	56164.17
629.914	55926.67
630.269	55988.58
630.623	55935.25
630.978	55932.31
631.332	55996.95
631.687	56071.97
632.041	55874.92
632.396	56010.5
632.75	55819.78
633.104	55890.06
633.459	55779.78
633.813	55741.13
634.167	55786.78
634.521	55821.36
634.875	55754.69
635.229	55665.88
635.583	55618.88
635.937	55602.83
636.291	55572.55
636.645	55608.93
636.999	55547.24
637.352	55604.19
637.706	55411.42
638.06	55585.66
638.413	55499.33
638.767	55461.37
639.121	55504.76
639.474	55263.86
639.828	55322.39
640.181	55327.81
640.534	55239.23
640.888	55211.43
641.241	55126.91
641.594	55139.34
641.947	55196.51
642.301	55061.6
642.654	55085.11
643.007	55024.32
643.36	54995.62
643.713	54921.04
644.066	55079.91
644.419	54838.78
644.771	54701.39
645.124	54435.63
645.477	54352.92
645.83	54227.27
646.182	54164
646.535	54111.8
646.888	54124.23
647.24	53892.37
647.593	54045.81
647.945	53927.85
648.298	53780.96
648.65	53784.57
649.002	53731.69
649.355	53954.74
649.707	53765.82
650.059	53932.82
650.411	54199.25
650.763	54233.6
651.115	54515.63
651.467	54364.67
651.819	54450.55
652.171	54319.93
652.523	54324
652.875	54272.7
653.227	54178.46
653.578	54386.82
653.93	54221.4
654.282	54155.19
654.633	54084.91
654.985	54182.53
655.337	54104.79
655.688	54086.04
656.039	54166.49
656.391	53952.03
656.742	53922.2
657.094	53961.29
657.445	54127.16
657.796	54067.73
658.147	53889.2
658.498	53835.87
658.849	54000.61
659.2	53919.94
659.551	53850.79
659.902	53942.99
660.253	53833.61
660.604	53873.61
660.955	53718.36
661.306	53870.67
661.656	53754.74
662.007	53785.48
662.358	53800.17
662.708	53790.68
663.059	53766.5
663.409	53528.76
663.76	53755.2
664.11	53703.45
664.461	53643.11
664.811	53652.83
665.161	53668.87
665.511	53637.46
665.862	53623.22
666.212	53689.66
666.562	53629.1
666.912	53584.13
667.262	53538.03
667.612	53498.93
667.962	53556.11
668.312	53521.98
668.662	53669.1
669.011	53525.37
669.361	53472.04
669.711	53435.21
670.06	53423.68
670.41	53331.71
670.76	53297.13
671.109	53430.69
671.459	53289.22
671.808	53189.79
672.157	53364.47
672.507	53051.03
672.856	53136
673.205	53179.84
673.554	53295.55
673.904	53137.59
674.253	53290.58
674.602	53140.52
674.951	52604.49
675.3	52491.28
675.649	53041.32
675.998	52892.39
676.346	52935.78
676.695	52994.76
677.044	52790.7
677.393	52875.67
677.741	52900.3
678.09	52700.76
678.438	52713.42
678.787	52732.85
679.135	52718.16
679.484	52542.12
679.832	52667.77
680.181	52452.41
680.529	52550.93
680.877	52431.84
681.225	52445.63
681.573	52575.57
681.922	52316.82
682.27	52286.53
682.618	52330.6
682.966	52147.1
683.314	52289.47
683.661	52257.61
684.009	51929.71
684.357	51923.15
684.705	51853.55
685.053	51900.56
685.4	51785.76
685.748	51667.79
686.095	51677.29
686.443	51395.94
686.79	51483.62
687.138	51588.25
687.485	51506.89
687.832	51325.2
688.18	51398.65
688.527	51282.72
688.874	51099.22
689.221	51081.82
689.568	50887.93
689.915	50861.94
690.262	50790.98
690.609	50789.4
690.956	50694.49
691.303	50703.07
691.65	50474.15
691.997	50484.32
692.344	50278.45
692.69	50278.68
693.037	50199.36
693.383	49961.62
693.73	50003.66
694.077	49822.64
694.423	49809.99
694.769	49617.23
695.116	49525.7
695.462	49609.32
695.808	49408.64
696.155	49392.15
696.501	49168.88
696.847	49269.66
697.193	48999.16
697.539	49025.15
697.885	48743.35
698.231	48708.32
698.577	48637.59
698.923	48601.43
699.269	48440.53
699.614	48236.47
699.96	48196.92
700.306	48304.49
700.651	48100.2
700.997	47940.89
701.342	47862.92
701.688	47670.38
702.033	47708.35
702.379	47658.86
702.724	47533.67
703.069	47570.73
703.415	47081.47
703.76	47205.76
704.105	47134.35
704.45	46954.47
704.795	46729.39
705.14	46671.77
705.485	46725.78
705.83	46585.22
706.175	46530.98
706.52	46420.93
706.865	46384.54
707.209	46324.43
707.554	46219.35
707.899	46183.19
708.243	46055.06
708.588	46003.99
708.932	45678.35
709.277	45643.09
709.621	45701.62
709.966	45453.95
710.31	45485.13
710.654	45111.36
710.998	45284.46
711.342	45306.15
711.687	45102.77
712.031	44994.52
712.375	44783
712.719	44832.95
713.063	44825.04
713.407	44894.19
713.75	44717.24
714.094	44668.88
714.438	44473.86
714.782	44395.67
715.125	44318.38
715.469	44256.69
715.812	44021.89
716.156	43767.66
716.499	44084.26
716.843	43966.53
717.186	43804.05
717.53	44023.02
717.873	43882.46
718.216	43691.96
718.559	43604.73
718.902	43325.87
719.246	43357.5
719.589	43366.32
719.932	43004.74
720.275	43013.11
720.617	43067.79
720.96	42971.98
721.303	42997.74
721.646	42961.81
721.989	42784.41
722.331	42815.82
722.674	42564.98
723.016	42656.73
723.359	42555.72
723.701	42531.99
724.044	42180.81
724.386	42234.6
724.729	42382.84
725.071	42163.64
725.413	42146.24
725.755	41999.8
726.097	41921.38
726.439	41718.9
726.782	41812.23
727.124	42009.52
727.465	41779.47
727.807	41607.04
728.149	41478.01
728.491	41553.94
728.833	41564.56
729.175	41420.15
729.516	41378.8
729.858	41276.43
730.199	41291.12
730.541	41174.74
730.882	41087.06
731.224	41291.57
731.565	40983.78
731.906	41023.78
732.248	40985.59
732.589	40850
732.93	40620.63
733.271	40751.24
733.612	40750.57
733.953	40648.65
734.294	40619.95
734.635	40444.59
734.976	40563.45
735.317	40318.94
735.658	40399.39
735.999	40324.36
736.339	40017.48
736.68	40260.64
737.021	40175.44
737.361	39910.14
737.702	40266.74
738.042	39968.44
738.383	39941.55
738.723	39857.48
739.063	39705.85
739.404	39744.04
739.744	39599.41
740.084	39593.08
740.424	39658.62
740.764	39412.97
741.104	39539.3
741.444	39274.45
741.784	39277.84
742.124	39212.53
742.464	39115.58
742.804	39121.23
743.143	39081.91
743.483	38937.28
743.823	38892.08
744.162	38882.59
744.502	38839.43
744.841	38695.71
745.181	38816.83
745.52	38586.1
745.86	38692.99
746.199	38470.17
746.538	38387.24
746.877	38574.35
747.216	38558.08
747.556	38320.57
747.895	38477.63
748.234	38078.32
748.573	38060.47
748.911	38063.63
749.25	37988.15
749.589	37934.37
749.928	37959.91
750.267	37939.57
750.605	37816.86
750.944	37656.19
751.283	37554.72
751.621	37518.56
751.96	37341.17
752.298	37329.87
752.636	37325.35
752.975	37075.86
753.313	37004.22
753.651	37093.26
753.989	36925.58
754.327	37016.2
754.666	36639.26
755.004	36773.95
755.342	36663.89
755.679	36737.79
756.017	36450.34
756.355	36542.77
756.693	36348.65
757.031	36349.33
757.368	36147.98
757.706	36100.97
758.044	35949.34
758.381	35979.62
758.719	35956.34
759.056	35828.66
759.394	35766.74
759.731	35629.57
760.068	35484.49
760.405	35360.43
760.743	35332.18
761.08	35269.81
761.417	35131.05
761.754	35230.49
762.091	34961.57
762.428	34818.75
762.765	34716.15
763.102	34770.61
763.438	34523.84
763.775	34373.33
764.112	34414.91
764.449	34396.16
764.785	34267.8
765.122	34089.05
765.458	33978.32
765.795	33896.28
766.131	33848.15
766.467	33652
766.804	33437.31
767.14	33381.27
767.476	33383.75
767.812	33103.76
768.148	33178.79
768.485	33058.57
768.821	32826.03
769.157	32778.8
769.492	32659.48
769.828	32555.53
770.164	32401.41
770.5	32182.43
770.836	32174.3
771.171	32033.73
771.507	31940.4
771.842	31794.64
772.178	31776.57
772.513	31578.38
772.849	31514.43
773.184	31330.7
773.519	31452.28
773.855	31253.87
774.19	31204.38
774.525	31003.03
774.86	31066.08
775.195	30912.63
775.53	30707.89
775.865	30614.56
776.2	30355.13
776.535	30161.92
776.87	30227.45
777.205	29977.74
777.539	30028.14
777.874	29996.73
778.209	29684.42
778.543	29667.24
778.878	29449.85
779.212	29504.31
779.547	29341.15
779.881	29431.99
780.215	29064.09
780.55	29251.43
780.884	28977.32
781.218	28963.08
781.552	28919.24
781.886	28650.55
782.22	28601.96
782.554	28551.34
782.888	28269.99
783.222	28308.86
783.556	28044.23
783.889	28056.66
784.223	27790.68
784.557	27780.96
784.89	27780.96
785.224	27679.05
785.557	27499.39
785.891	27299.85
786.224	27178.04
786.558	27242
786.891	27015.56
787.224	26894.43
787.557	26874.77
787.891	26788.67
788.224	26755.91
788.557	26637.27
788.89	26500.09
789.223	26562.47
789.556	26410.61
789.888	26358.63
790.221	26183.72
790.554	25946.21
790.887	26040.45
791.219	25867.79
791.552	25793.9
791.884	25708.02
792.217	25622.83
792.549	25508.03
792.882	25432.55
793.214	25366.79
793.546	25356.4
793.879	25239.79
794.211	25108.49
794.543	25171.09
794.875	25054.03
795.207	24950.3
795.539	24833.92
795.871	24828.05
796.203	24701.05
796.535	24534.04
796.867	24524.78
797.198	24436.42
797.53	24432.8
797.862	24270.77
798.193	24309.42
798.525	24152.13
798.856	24166.14
799.188	23842.31
799.519	23802.76
799.85	23758.7
800.182	23690
800.513	23663.78
800.844	23461.76
801.175	23598.7
801.506	23414.3
801.837	23385.15
802.168	23356.22
802.499	23232.38
802.83	23207.53
803.161	23114.42
803.491	23038.26
803.822	23045.5
804.153	22901.54
804.483	22759.85
804.814	22683.25
805.145	22665.17
805.475	22607.32
805.805	22446.42
806.136	22451.16
806.466	22471.05
806.796	22475.34
807.126	22201.68
807.457	22236.25
807.787	22153.77
808.117	22024.73
808.447	21907.67
808.777	21979.54
809.107	21922.36
809.436	21920.1
809.766	21809.82
810.096	21628.81
810.426	21653.67
810.755	21684.63
811.085	21610.51
811.414	21529.83
811.744	21284.41
812.073	21318.08
812.403	21428.14
812.732	21210.52
813.061	21127.13
813.39	21048.71
813.719	20923.52
814.049	21117.64
814.378	21079.67
814.707	20934.36
815.036	20897.3
815.365	20722.84
815.693	20631.32
816.022	20671.32
816.351	20495.96
816.68	20516.3
817.008	20542.96
817.337	20391.55
817.665	20378.45
817.994	20332.12
818.322	20245.57
818.651	20285.57
818.979	20111.79
819.307	20167.61
819.636	20178
819.964	19978.01
820.292	20057.55
820.62	20098.68
820.948	19997.67
821.276	20127.83
821.604	19976.65
821.932	20010.32
822.259	19953.15
822.587	20021.85
822.915	19978.01
823.243	20054.61
823.57	19859.36
823.898	20016.42
824.225	19804.68
824.553	19826.82
824.88	19802.87
825.207	19878.57
825.535	19818.69
825.862	19858.69
826.189	19906.14
826.516	19835.64
826.843	19962.86
827.17	19886.03
827.497	19877.67
827.824	19946.37
828.151	19856.88
828.478	19966.71
828.805	19933.94
829.131	19778.91
829.458	19806.71
829.785	19688.97
830.111	19810.78
830.438	19932.36
830.764	19850.55
831.09	19778.01
831.417	19683.55
831.743	19870.21
832.069	19851
832.395	19659.37
832.722	19729.2
833.048	19786.37
833.374	19651.01
833.7	19579.37
834.026	19586.6
834.351	19578.92
834.677	19626.15
835.003	19620.5
835.329	19598.81
835.654	19555.64
835.98	19437.46
836.306	19467.74
836.631	19419.15
836.956	19496.89
837.282	19393.16
837.607	19270
837.932	19239.04
838.258	19215.54
838.583	19263.9
838.908	19215.54
839.233	19177.57
839.558	19098.03
839.883	19119.05
840.208	19066.17
840.533	18963.8
840.858	19020.29
841.182	19040.86
841.507	19018.93
841.832	18834.53
842.156	18894.42
842.481	18870.92
842.805	18780.98
843.13	18719.51
843.454	18652.62
843.778	18602.9
844.103	18610.36
844.427	18570.81
844.751	18620.08
845.075	18452.62
845.399	18476.35
845.723	18328.78
846.047	18343.47
846.371	18235.9
846.695	18230.48
847.019	18044.5
847.343	17936.03
847.666	17809.25
847.99	17842.92
848.313	17713.43
848.637	17584.62
848.96	17535.81
849.284	17659.65
849.607	17511.18
849.931	17447.9
850.254	17376.72
850.577	17273.67
850.9	17053.11
851.223	17121.58
851.546	17043.17
851.869	16909.84
852.192	16965.88
852.515	16742.61
852.838	16708.94
853.161	16737.86
853.483	16683.4
853.806	16535.84
854.129	16534.93
854.451	16448.16
854.774	16445.22
855.096	16465.56
855.419	16376.29
855.741	16269.85
856.063	16124.1
856.385	16120.71
856.708	16097.43
857.03	16179.69
857.352	16078.67
857.674	15967.72
857.996	15863.31
858.318	15718.23
858.64	15761.85
858.961	15687.27
859.283	15725.01
859.605	15570.66
859.926	15664.9
860.248	15662.19
860.57	15548.97
860.891	15569.31
861.212	15450.89
861.534	15428.97
861.855	15308.75
862.176	15310.56
862.498	15354.17
862.819	15368.64
863.14	15338.58
863.461	15279.82
863.782	15203.44
864.103	15197.34
864.424	15119.6
864.745	15080.28
865.065	15102.88
865.386	15017.68
865.707	14980.17
866.027	14988.31
866.348	14920.74
866.668	14930.68
866.989	14897.91
867.309	14903.56
867.63	14816.33
867.95	14880.74
868.27	14700.86
868.59	14755.09
868.91	14767.3
869.23	14725.71
869.55	14689.11
869.87	14715.32
870.19	14714.19
870.51	14663.34
870.83	14675.55
871.15	14577.92
871.469	14571.59
871.789	14559.84
872.109	14593.51
872.428	14453.18
872.748	14447.3
873.067	14472.61
873.386	14418.83
873.706	14465.38
874.025	14373.86
874.344	14287.99
874.663	14288.44
874.982	14269.91
875.301	14262.9
875.62	14234.88
875.939	14194.43
876.258	14242.79
876.577	14213.86
876.896	14157.82
877.214	13975
877.533	14030.82
877.852	14106.75
878.17	14102.91
878.489	14056.13
878.807	14070.59
879.125	14028.33
879.444	13959.86
879.762	13946.3
880.08	13890.93
880.398	13884.83
880.716	13811.16
881.034	13905.4
881.352	13774.78
881.67	13810.94
881.988	13773.65
882.306	13718.74
882.624	13636.03
882.941	13639.42
883.259	13586.31
883.577	13581.34
883.894	13561.23
884.212	13517.61
884.529	13497.05
884.846	13425.64
885.164	13385.86
885.481	13362.81
885.798	13377.73
886.115	13296.83
886.432	13351.97
886.75	13310.38
887.067	13330.27
887.383	13171.18
887.7	13188.81
888.017	13156.26
888.334	13138.86
888.651	13035.36
888.967	13153.78
889.284	12992.2
889.6	12949.26
889.917	12836.72
890.233	12911.3
890.55	12820.45
890.866	12826.78
891.182	12818.65
891.498	12749.72
891.815	12657.29
892.131	12639.44
892.447	12615.71
892.763	12554.7
893.079	12520.35
893.395	12465.21
893.71	12432.67
894.026	12417.75
894.342	12490.97
894.657	12301.6
894.973	12299.34
895.289	12352.44
895.604	12325.33
895.92	12091.66
896.235	12143.18
896.55	12140.47
896.865	12141.38
897.181	12082.85
897.496	12035.39
897.811	11994.26
898.126	11903.87
898.441	11884.66
898.756	11817.54
899.071	11729.64
899.386	11772.12
899.7	11696.42
900.015	11613.48
900.33	11556.76
900.644	11459.13
900.959	11536.87
901.273	11433.37
901.588	11435.18
901.902	11323.54
902.216	11394.73
902.531	11337.33
902.845	11221.17
903.159	11244
903.473	11187.5
903.787	11106.6
904.101	11063.44
904.415	11052.59
904.729	11006.94
905.042	10883.78
905.356	10920.62
905.67	10885.14
905.984	10883.56
906.297	10891.47
906.611	10710.68
906.924	10735.99
907.237	10718.59
907.551	10683.11
907.864	10613.28
908.177	10641.98
908.491	10589.55
908.804	10533.06
909.117	10467.3
909.43	10394.53
909.743	10330.8
910.056	10404.47
910.368	10269.79
910.681	10235.89
910.994	10254.42
911.307	10172.61
911.619	10059.17
911.932	10140.52
912.244	9999.74
912.557	10018.49
912.869	9941.21
913.181	9957.03
913.494	9906.18
913.806	9839.97
914.118	9739.18
914.43	9652.18
914.742	9691.27
915.054	9667.32
915.366	9610.14
915.678	9548.45
915.99	9528.11
916.302	9397.49
916.613	9401.11
916.925	9374.67
917.236	9371.96
917.548	9343.03
917.859	9323.14
918.171	9299.19
918.482	9194.79
918.794	9169.48
919.105	9228.91
919.416	9095.35
919.727	9075.92
920.038	9043.15
920.349	8961.35
920.66	8958.41
920.971	8950.73
921.282	8902.82
921.593	8890.61
921.903	8790.28
922.214	8789.83
922.525	8774.46
922.835	8662.82
923.146	8630.96
923.456	8602.26
923.767	8585.31
924.077	8537.85
924.387	8512.54
924.697	8480.68
925.008	8447.69
925.318	8393.45
925.628	8370.85
925.938	8347.13
926.248	8276.39
926.558	8273.68
926.867	8212.21
927.177	8205.21
927.487	8120.92
927.796	8091.31
928.106	8040.24
928.416	8040.01
928.725	7987.13
929.034	7953.69
929.344	8028.26
929.653	7904.88
929.962	7873.92
930.271	7810.42
930.581	7777.65
930.89	7695.16
931.199	7662.85
931.508	7637.54
931.817	7651.1
932.125	7647.03
932.434	7631.89
932.743	7547.15
933.051	7461.5
933.36	7484.55
933.669	7436.87
933.977	7396.19
934.286	7454.27
934.594	7361.39
934.902	7341.73
935.21	7281.16
935.519	7286.36
935.827	7281.84
936.135	7263.54
936.443	7163.2
936.751	7105.12
937.059	7155.97
937.367	7033.26
937.674	7060.38
937.982	6976.77
938.29	6964.79
938.597	6985.35
938.905	6862.64
939.213	6844.34
939.52	6845.02
939.827	6866.49
940.135	6783.1
940.442	6744.68
940.749	6709.2
941.056	6702.2
941.363	6681.41
941.67	6643.67
941.977	6525.48
942.284	6595.08
942.591	6540.62
942.898	6519.15
943.205	6492.26
943.511	6470.34
943.818	6406.61
944.125	6363
944.431	6403.9
944.738	6326.39
945.044	6317.35
945.35	6240.29
945.657	6205.71
945.963	6205.26
946.269	6178.59
946.575	6200.74
946.881	6087.3
947.187	6153.51
947.493	6064.93
947.799	6071.7
948.105	6042.33
948.41	6007.07
948.716	5989.9
949.022	5950.58
949.327	5899.51
949.633	5830.36
949.938	5848.66
950.244	5877.59
950.549	5776.12
950.854	5737.7
951.16	5760.75
951.465	5735.22
951.77	5706.06
952.075	5662.22
952.38	5638.72
952.685	5700.19
952.99	5583.36
953.294	5593.53
953.599	5592.17
953.904	5558.05
954.209	5529.57
954.513	5501.55
954.818	5451.61
955.122	5427.65
955.426	5445.28
955.731	5376.13
956.035	5336.81
956.339	5377.03
956.643	5296.81
956.948	5295.45
957.252	5239.64
957.556	5239.41
957.86	5225.4
958.163	5215.46
958.467	5212.97
958.771	5175.91
959.075	5187.89
959.378	5129.81
959.682	5116.93
959.985	5091.84
960.289	5068.34
960.592	5027.66
960.896	4980.43
961.199	4987.21
961.502	4972.75
961.805	4896.82
962.108	4866.99
962.411	4908.8
962.714	4896.14
963.017	4849.14
963.32	4843.49
963.623	4814.56
963.926	4746.54
964.228	4794
964.531	4770.5
964.833	4749.93
965.136	4686.66
965.438	4656.83
965.741	4707.22
966.043	4622.7
966.345	4644.17
966.648	4628.35
966.95	4595.59
967.252	4535.25
967.554	4562.37
967.856	4553.33
968.158	4450.28
968.46	4468.13
968.761	4431.52
969.063	4444.85
969.365	4403.27
969.666	4389.26
969.968	4348.13
970.269	4292.09
970.571	4343.84
970.872	4332.32
971.174	4304.29
971.475	4250.06
971.776	4288.02
972.077	4208.93
972.378	4210.28
972.679	4236.05
972.98	4180.23
973.281	4150.63
973.582	4152.66
973.883	4151.3
974.183	4080.34
974.484	4101.36
974.785	4069.95
975.085	4046.22
975.386	4082.83
975.686	4047.35
975.986	3991.53
976.287	4007.8
976.587	3984.98
976.887	3939.78
977.187	3918.32
977.487	3953.79
977.787	3896.85
978.087	3844.19
978.387	3883.29
978.687	3824.98
978.987	3824.53
979.286	3827.24
979.586	3780.01
979.885	3757.19
980.185	3733.91
980.484	3727.81
980.784	3723.07
981.083	3685.55
981.382	3662.73
981.682	3685.1
981.981	3675.84
982.28	3622.96
982.579	3580.02
982.878	3634.71
983.177	3577.31
983.475	3571.21
983.774	3562.84
984.073	3507.7
984.372	3564.65
984.67	3553.8
984.969	3469.29
985.267	3504.09
985.566	3444.66
985.864	3426.8
986.162	3455.05
986.461	3391.55
986.759	3412.11
987.057	3352.45
987.355	3362.85
987.653	3336.41
987.951	3338.22
988.249	3319.69
988.547	3276.52
988.844	3260.48
989.142	3263.42
989.44	3270.87
989.737	3219.8
990.035	3222.29
990.332	3217.99
990.63	3200.82
990.927	3167.15
991.224	3165.11
991.521	3130.31
991.819	3089.18
992.116	3117.43
992.413	3085.57
992.71	3044.67
993.006	3065.91
993.303	3048.28
993.6	3053.48
993.897	3034.27
994.193	3051.45
994.49	3003.99
994.787	3000.37
995.083	2954.72
995.379	2946.82
995.676	2937.55
995.972	2915.86
996.268	2898
996.565	2842.86
996.861	2852.81
997.157	2834.73
997.453	2809.87
997.749	2784.11
998.044	2783.2
998.34	2816.42
998.636	2778.46
998.932	2785.46
999.227	2745.01
999.523	2744.79
999.818	2717.89
1000.114	2706.6
1000.409	2714.96
1000.704	2650.33
1001	2661.4
1001.295	2643.09
1001.59	2629.99
1001.885	2622.08
1002.18	2631.8
1002.475	2562.19
1002.77	2580.72
1003.065	2565.13
1003.359	2578.69
1003.654	2551.35
1003.949	2537.79
1004.243	2508.41
1004.538	2502.99
1004.832	2520.84
1005.127	2447.62
1005.421	2444.23
1005.715	2437.9
1006.009	2420.05
1006.304	2413.27
1006.598	2413.5
1006.892	2394.51
1007.186	2356.32
1007.48	2350.67
1007.773	2306.38
1008.067	2358.36
1008.361	2323.1
1008.655	2285.14
1008.948	2273.84
1009.242	2302.09
1009.535	2263.22
1009.829	2255.99
1010.122	2253.95
1010.415	2216.21
1010.708	2211.24
1011.001	2186.16
1011.295	2166.5
1011.588	2170.56
1011.881	2158.14
1012.173	2143.9
1012.466	2153.62
1012.759	2129.89
1013.052	2112.94
1013.344	2084.69
1013.637	2085.82
1013.93	2044.69
1014.222	2074.97
1014.514	2031.81
1014.807	2040.62
1015.099	2019.83
1015.391	2019.38
1015.683	1998.37
1015.976	1977.12
1016.268	1945.94
1016.56	1968.08
1016.851	1912.27
1017.143	1917.69
1017.435	1939.38
1017.727	1895.54
1018.018	1931.7
1018.31	1874.3
1018.602	1855.32
1018.893	1874.98
1019.185	1799.95
1019.476	1794.53
1019.767	1822.55
1020.058	1803.57
1020.35	1763.57
1020.641	1778.71
1020.932	1751.59
1021.223	1767.19
1021.514	1729.22
1021.804	1743.46
1022.095	1728.54
1022.386	1731.25
1022.677	1683.35
1022.967	1668.66
1023.258	1664.81
1023.548	1668.88
1023.839	1609.22
1024.129	1641.54
1024.419	1646.96
1024.709	1627.53
1025	1635.21
1025.29	1606.96
1025.58	1571.71
1025.87	1547.76
1026.16	1571.03
1026.449	1555.67
1026.739	1542.78
1027.029	1538.49
1027.319	1520.86
1027.608	1497.36
1027.898	1506.18
1028.187	1491.94
1028.477	1485.84
1028.766	1447.87
1029.055	1440.87
1029.344	1458.27
1029.634	1451.71
1029.923	1424.6
1030.212	1415.33
1030.501	1393.64
1030.79	1380.08
1031.078	1373.75
1031.367	1369.91
1031.656	1376.91
1031.945	1366.97
1032.233	1350.7
1032.522	1328.55
1032.81	1350.25
1033.099	1333.3
1033.387	1311.15
1033.675	1301.21
1033.963	1290.14
1034.251	1280.19
1034.54	1290.36
1034.828	1290.14
1035.116	1255.56
1035.403	1231.61
1035.691	1232.96
1035.979	1235.9
1036.267	1238.84
1036.554	1232.51
1036.842	1200.19
1037.129	1197.03
1037.417	1194.54
1037.704	1182.57
1037.992	1171.04
1038.279	1143.92
1038.566	1134.21
1038.853	1134.21
1039.14	1134.21
