Data from white_poster_card_FLMS001491_00084.txt Node
Date: Wed Feb 08 11:52:07 GMT 2017
User: dcchb
Spectrometer: FLMS00149
Trigger mode: 0
Integration Time (sec): 2.000000E-2
Scans to average: 10
Electric dark correction enabled: true
Nonlinearity correction enabled: false
Boxcar width: 0
XAxis mode: Wavelengths
Number of Pixels in Spectrum: 2048
>>>>>Begin Spectral Data<<<<<
341.393	3.94
341.776	3.94
342.16	3.94
342.543	-79
342.927	-84.64
343.31	-67.02
343.693	-73.12
344.077	-52.78
344.46	-45.55
344.843	-35.61
345.226	-31.31
345.61	-27.25
345.993	-20.69
346.376	-10.75
346.759	4.84
347.142	28.57
347.525	21.12
347.908	38.97
348.291	76.93
348.674	89.36
349.057	104.28
349.44	145.86
349.823	138.85
350.206	170.94
350.588	212.3
350.971	214.1
351.354	217.27
351.737	251.62
352.119	264.5
352.502	263.82
352.884	260.21
353.267	288
353.65	297.72
354.032	306.31
354.414	325.06
354.797	328.9
355.179	318.73
355.562	322.35
355.944	347.43
356.326	360.99
356.709	349.47
357.091	339.98
357.473	356.93
357.855	342.01
358.238	355.57
358.62	351.05
359.002	354.44
359.384	343.82
359.766	351.95
360.148	348.56
360.53	329.81
360.912	348.11
361.294	354.44
361.676	360.32
362.057	350.82
362.439	351.73
362.821	333.2
363.203	335.91
363.584	329.36
363.966	330.03
364.348	315.12
364.729	332.52
365.111	346.3
365.493	345.63
365.874	327.32
366.256	329.36
366.637	309.92
367.019	302.46
367.4	326.19
367.781	317.83
368.163	335.91
368.544	315.12
368.925	321.9
369.306	330.71
369.688	324.16
370.069	320.32
370.45	316.93
370.831	327.77
371.212	346.76
371.593	330.94
371.974	336.59
372.355	317.38
372.736	334.1
373.117	299.75
373.498	302.92
373.879	342.91
374.26	318.06
374.641	321.67
375.021	322.8
375.402	347.66
375.783	330.49
376.163	345.63
376.544	347.66
376.925	344.72
377.305	335.01
377.686	328.9
378.066	334.1
378.447	355.12
378.827	350.6
379.208	339.98
379.588	333.88
379.968	343.59
380.349	337.04
380.729	328.23
381.109	365.29
381.489	366.42
381.87	341.33
382.25	347.89
382.63	365.51
383.01	362.35
383.39	371.39
383.77	362.35
384.15	351.5
384.53	368.22
384.91	362.12
385.29	335.23
385.67	353.31
386.049	362.35
386.429	360.54
386.809	371.39
387.189	375.68
387.568	361.67
387.948	382.91
388.328	367.77
388.707	363.25
389.087	362.8
389.466	385.17
389.846	394.66
390.225	381.56
390.605	398.51
390.984	360.32
391.363	410.71
391.743	401.9
392.122	407.77
392.501	404.16
392.881	415.91
393.26	394.89
393.639	400.99
394.018	408.68
394.397	417.94
394.776	407.77
395.155	427.21
395.534	409.35
395.913	421.1
396.292	406.19
396.671	423.36
397.05	433.76
397.429	417.94
397.808	408.9
398.186	440.54
398.565	430.6
398.944	455.45
399.323	426.3
399.701	453.65
400.08	448.22
400.458	453.42
400.837	450.48
401.215	450.71
401.594	445.96
401.972	435.34
402.351	473.76
402.729	459.3
403.107	472.85
403.486	487.32
403.864	484.61
404.242	482.12
404.62	498.84
404.999	480.54
405.377	491.39
405.755	492.74
406.133	494.1
406.511	518.5
406.889	524.38
407.267	525.73
407.645	538.62
408.023	538.39
408.401	533.42
408.779	542.01
409.156	532.97
409.534	580.2
409.912	596.47
410.29	579.74
410.667	586.75
411.045	590.14
411.422	590.37
411.8	633.75
412.178	650.48
412.555	656.13
412.933	654.77
413.31	666.3
413.687	670.14
414.065	702.23
414.442	723.24
414.819	717.82
415.197	721.89
415.574	749.01
415.951	784.03
416.328	781.55
416.705	773.86
417.082	807.99
417.46	828.55
417.837	843.69
418.214	813.86
418.591	859.96
418.967	871.71
419.344	892.28
419.721	921.43
420.098	914.88
420.475	954.88
420.852	933.18
421.228	964.82
421.605	951.03
421.982	994.87
422.358	1015.21
422.735	1016.57
423.111	1028.09
423.488	1055.21
423.864	1055.89
424.241	1073.74
424.617	1101.09
424.994	1098.83
425.37	1074.87
425.746	1119.17
426.123	1126.62
426.499	1170.24
426.875	1153.74
427.251	1189.22
427.627	1224.25
428.003	1240.74
428.379	1232.83
428.756	1264.47
429.132	1288.2
429.507	1298.37
429.883	1291.14
430.259	1319.16
430.635	1336.79
431.011	1357.8
431.387	1420.4
431.763	1426.73
432.138	1398.48
432.514	1448.2
432.89	1464.24
433.265	1487.52
433.641	1506.27
434.016	1520.96
434.392	1535.65
434.767	1557.57
435.143	1586.27
435.518	1588.53
435.894	1581.75
436.269	1620.62
436.644	1675.31
437.02	1680.96
437.395	1679.15
437.77	1711.24
438.145	1729.32
438.52	1737.68
438.895	1745.14
439.271	1761.18
439.646	1789.88
440.021	1810.22
440.395	1818.81
440.77	1830.79
441.145	1842.31
441.52	1877.56
441.895	1865.13
442.27	1878.24
442.645	1867.39
443.019	1914.4
443.394	1890.9
443.769	1928.18
444.143	1960.5
444.518	1986.49
444.892	1969.31
445.267	1965.02
445.641	1967.28
446.016	1972.25
446.39	2021.29
446.764	2032.36
447.139	2010.44
447.513	2048.63
447.887	2073.04
448.262	2083.66
448.636	2067.62
449.01	2110.55
449.384	2136.54
449.758	2150.1
450.132	2154.17
450.506	2158.01
450.88	2177.44
451.254	2167.73
451.628	2208.85
452.002	2278.23
452.376	2253.6
452.75	2267.84
453.123	2310.09
453.497	2324.56
453.871	2350.09
454.244	2357.33
454.618	2419.7
454.992	2440.71
455.365	2437.77
455.739	2516.87
456.112	2525.68
456.486	2511.67
456.859	2569.07
457.232	2626.02
457.606	2613.82
457.979	2680.03
458.352	2687.71
458.725	2707.6
459.099	2718.45
459.472	2794.6
459.845	2815.62
460.218	2835.73
460.591	2846.13
460.964	2890.64
461.337	2931.77
461.71	2995.27
462.083	3041.83
462.456	2981.04
462.829	3043.41
463.201	3064.65
463.574	3065.33
463.947	3139.9
464.32	3205.89
464.692	3211.09
465.065	3239.11
465.438	3294.02
465.81	3381.7
466.183	3354.36
466.555	3437.97
466.928	3463.28
467.3	3438.2
467.672	3478.65
468.045	3603.62
468.417	3573.11
468.789	3613.11
469.161	3698.53
469.534	3751.19
469.906	3797.06
470.278	3867.34
470.65	3853.56
471.022	3949.6
471.394	4030.95
471.766	4030.05
472.138	4098.3
472.51	4180.1
472.882	4212.64
473.253	4240.67
473.625	4339.42
473.997	4438.17
474.369	4439.76
474.74	4493.77
475.112	4574.22
475.484	4621.67
475.855	4685.17
476.227	4702.12
476.598	4857.6
476.97	4899.18
477.341	4972.17
477.713	5031.83
478.084	5082.45
478.455	5230.47
478.827	5316.34
479.198	5410.35
479.569	5456.23
479.94	5629.1
480.311	5650.57
480.682	5774.41
481.053	5875.2
481.424	5914.52
481.795	5966.72
482.166	6146.38
482.537	6149.32
482.908	6352.25
483.279	6440.16
483.65	6452.13
484.021	6598.12
484.391	6700.94
484.762	6760.15
485.133	6822.74
485.503	6969.63
485.874	7130.98
486.244	7146.35
486.615	7272.45
486.985	7366.01
487.356	7453.24
487.726	7577.53
488.097	7654.13
488.467	7710.4
488.837	7840.8
489.207	7915.14
489.578	8114.24
489.948	8132.99
490.318	8251.63
490.688	8287.11
491.058	8406.66
491.428	8561.68
491.798	8613.66
492.168	8770.49
492.538	8827.44
492.908	8953.76
493.278	9041.22
493.648	9059.07
494.017	9242.12
494.387	9238.73
494.757	9336.8
495.126	9508.55
495.496	9527.08
495.866	9592.16
496.235	9682.33
496.605	9777.92
496.974	9872.61
497.344	9927.75
497.713	10074.18
498.082	10025.37
498.452	10196.67
498.821	10257.23
499.19	10310.56
499.559	10368.64
499.928	10458.81
500.298	10561.63
500.667	10635.75
501.036	10642.76
501.405	10709.87
501.774	10753.94
502.143	10865.8
502.512	10934.05
502.88	11025.12
503.249	11058.11
503.618	11140.6
503.987	11231.89
504.356	11290.88
504.724	11328.16
505.093	11476.18
505.462	11488.61
505.83	11554.82
506.199	11611.09
506.567	11767.02
506.936	11825.32
507.304	12033.68
507.672	12022.61
508.041	12058.09
508.409	12142.38
508.777	12275.03
509.145	12462.14
509.514	12400.68
509.882	12503.5
510.25	12591.18
510.618	12638.41
510.986	12696.71
511.354	12780.55
511.722	12968.8
512.09	13103.71
512.458	13034.33
512.826	13242.24
513.193	13319.75
513.561	13312.07
513.929	13538.05
514.297	13591.38
514.664	13702.34
515.032	13765.39
515.4	13781.43
515.767	13956.57
516.135	13983.01
516.502	13917.25
516.869	14283.34
517.237	14350
517.604	14276.11
517.972	14468.64
518.339	14577.57
518.706	14621.18
519.073	14759.26
519.44	14815.53
519.808	15049.19
520.175	14951.8
520.542	15265.46
520.909	15267.95
521.276	15298.23
521.643	15509.52
522.009	15724.66
522.376	15772.79
522.743	15895.95
523.11	16073.35
523.477	16180.69
523.843	16245.77
524.21	16538.65
524.577	16594.24
524.943	16617.52
525.31	16732.31
525.676	17018.41
526.043	16991.74
526.409	17067.45
526.776	17236.48
527.142	17358.74
527.508	17561.45
527.874	17611.39
528.241	17706.75
528.607	17760.31
528.973	17956.69
529.339	17972.28
529.705	18195.33
530.071	18342.44
530.437	18315.1
530.803	18535.66
531.169	18638.03
531.535	18665.6
531.901	18738.59
532.267	18846.38
532.632	18938.81
532.998	19088.18
533.364	19249.54
533.73	19305.13
534.095	19401.17
534.461	19442.98
534.826	19518.46
535.192	19587.38
535.557	19723.87
535.923	19773.36
536.288	19816.08
536.653	19971.55
537.019	19968.84
537.384	20076.18
537.749	20172.9
538.114	20228.49
538.479	20458.54
538.845	20356.17
539.21	20374.7
539.575	20469.39
539.94	20507.58
540.305	20565.89
540.67	20747.8
541.034	20873.45
541.399	20978.53
541.764	20971.52
542.129	21038.87
542.494	21092.43
542.858	21176.04
543.223	21282.25
543.587	21303.72
543.952	21420.1
544.316	21485.64
544.681	21507.33
545.045	21569.48
545.41	21788.68
545.774	21746.19
546.138	21781
546.503	21823.25
546.867	21943.25
547.231	22202.68
547.595	22258.5
547.959	22259.4
548.324	22254.88
548.688	22416.68
549.052	22483.35
549.416	22522.44
549.779	22578.49
550.143	22662.55
550.507	22829.33
550.871	22871.14
551.235	22826.84
551.599	23114.29
551.962	23077.46
552.326	23196.78
552.689	23370.11
553.053	23259.83
553.417	23431.57
553.78	23642.19
554.143	23578.69
554.507	23796.76
554.87	23831.34
555.234	24084.44
555.597	23928.51
555.96	23988.39
556.323	24163.76
556.686	24170.31
557.05	24361.72
557.413	24470.87
557.776	24507.48
558.139	24701.14
558.502	24746.11
558.865	24883.74
559.228	24968.26
559.59	25097.07
559.953	25176.16
560.316	25405.76
560.679	25358.98
561.041	25729.37
561.404	25570.73
561.767	25832.64
562.129	25746.54
562.492	26115.12
562.854	26095.46
563.217	26167.09
563.579	26268.11
563.941	26411.83
564.304	26570.02
564.666	26669.23
565.028	26699.96
565.39	26959.16
565.753	26934.08
566.115	27119.39
566.477	27208.42
566.839	27435.54
567.201	27433.95
567.563	27392.6
567.925	27686.6
568.287	27710.1
568.648	27791.23
569.01	27972.24
569.372	28106.03
569.734	27951.45
570.095	28216.76
570.457	28406.36
570.819	28468.73
571.18	28415.85
571.542	28623.3
571.903	28628.95
572.265	28715.5
572.626	28822.62
572.987	28916.17
573.349	29082.27
573.71	29036.62
574.071	29293.79
574.432	29265.09
574.794	29480.68
575.155	29380.12
575.516	29438.19
575.877	29520.45
576.238	29741.69
576.599	29846.09
576.96	29840.22
577.32	29790.95
577.681	29960.67
578.042	30031.85
578.403	29984.17
578.763	30092.19
579.124	30120.66
579.485	30246.08
579.845	30344.84
580.206	30303.93
580.566	30231.17
580.927	30286.53
581.287	30398.17
581.648	30122.47
582.008	30535.12
582.368	30414.44
582.728	30437.94
583.089	30431.39
583.449	30477.04
583.809	30516.36
584.169	30600.88
584.529	30541.89
584.889	30720.87
585.249	30501.9
585.609	30303.26
585.969	30632.97
586.329	30507.55
586.688	30642.91
587.048	30614.21
587.408	30462.35
587.768	30466.64
588.127	30484.5
588.487	30594.1
588.846	30749.12
589.206	30500.31
589.565	30500.31
589.925	30741.89
590.284	30599.07
590.643	30648.78
591.003	30696.92
591.362	30749.35
591.721	30553.19
592.08	30696.24
592.44	30768.33
592.799	30753.41
593.158	30743.7
593.517	30625.28
593.876	30746.64
594.235	30602.91
594.593	30820.31
594.952	30825.28
595.311	30895.11
595.67	30815.11
596.029	31103.91
596.387	30987.98
596.746	30956.12
597.104	31007.65
597.463	30943.69
597.822	31018.94
598.18	30916.57
598.538	30982.11
598.897	31140.75
599.255	30996.57
599.613	31365.38
599.972	31118.15
600.33	31137.81
600.688	31183.01
601.046	31143.23
601.404	31304.36
601.762	31225.49
602.12	31423.23
602.478	31364.92
602.836	31499.38
603.194	31160.18
603.552	31336.9
603.91	31237.92
604.268	31525.37
604.625	31356.56
604.983	31456.9
605.341	31390.91
605.698	31564.92
606.056	31632.04
606.413	31579.38
606.771	31681.75
607.128	31733.05
607.485	31620.96
607.843	31625.03
608.2	31702.09
608.557	31884.23
608.914	31660.51
609.272	31931.24
609.629	31924.68
609.986	32025.25
610.343	31906.15
610.7	32171.91
611.057	31979.37
611.414	32113.15
611.771	32043.32
612.127	32166.94
612.484	32079.03
612.841	32176.65
613.198	32207.84
613.554	32250.55
613.911	32297.78
614.267	32383.43
614.624	32332.13
614.98	32370.55
615.337	32603.08
615.693	32443.31
616.05	32355.63
616.406	32563.08
616.762	32504.78
617.118	32445.8
617.475	32502.97
617.831	32619.81
618.187	32559.47
618.543	32723.76
618.899	32817.09
619.255	32665.45
619.611	32731.67
619.967	32932.11
620.323	32819.8
620.678	32793.81
621.034	32650.31
621.39	32653.48
621.746	32578.68
622.101	32990.64
622.457	32601.95
622.812	32818.22
623.168	32952.9
623.523	32731.44
623.879	32953.36
624.234	32631.78
624.589	32791.55
624.945	32848.73
625.3	32802.85
625.655	32856.86
626.01	32834.26
626.365	32870.87
626.72	32875.39
627.075	32703.65
627.43	32742.51
627.785	32709.07
628.14	32679.69
628.495	32808.95
628.85	32726.24
629.205	32666.36
629.559	32908.16
629.914	32599.47
630.269	32732.8
630.623	32602.18
630.978	32459.58
631.332	32587.04
631.687	32690.76
632.041	32482.63
632.396	32593.59
632.75	32448.29
633.104	32408.06
633.459	32432.92
633.813	32285.35
634.167	32292.81
634.521	32182.76
634.875	32287.16
635.229	32241.06
635.583	32126.26
635.937	32049.43
636.291	32039.03
636.645	32140.72
636.999	32027.51
637.352	32164.45
637.706	31895.08
638.06	31963.1
638.413	31978.02
638.767	31788.42
639.121	31914.51
639.474	31624.58
639.828	31727.17
640.181	31701.64
640.534	31680.4
640.888	31510.68
641.241	31415.54
641.594	31500.97
641.947	31558.59
642.301	31448.99
642.654	31360.63
643.007	31580.96
643.36	31330.35
643.713	31225.49
644.066	31474.98
644.419	31099.85
644.771	31011.03
645.124	30804.03
645.477	30688.33
645.83	30442.46
646.182	30397.27
646.535	30229.36
646.888	30201.56
647.24	30065.75
647.593	30353.88
647.945	30145.29
648.298	30051.51
648.65	29943.27
649.002	29918.86
649.355	30035.02
649.707	29956.83
650.059	30125.41
650.411	30411.73
650.763	30428.45
651.115	30867.76
651.467	30627.54
651.819	30755.22
652.171	30500.54
652.523	30383.71
652.875	30389.58
653.227	30351.62
653.578	30523.59
653.93	30354.55
654.282	30272.07
654.633	30373.54
654.985	30281.11
655.337	30256.25
655.688	30293.31
656.039	30222.81
656.391	30114.34
656.742	30080.21
657.094	30084.51
657.445	30229.36
657.796	30090.61
658.147	30022.13
658.498	30045.64
658.849	30015.35
659.2	29955.7
659.551	30035.02
659.902	30110.27
660.253	29960.67
660.604	29975.81
660.955	29911.4
661.306	29943.49
661.656	29878.41
662.007	29780.56
662.358	29868.24
662.708	29805.19
663.059	29706.89
663.409	29549.38
663.76	29791.41
664.11	29696.95
664.461	29580.56
664.811	29673.44
665.161	29646.55
665.511	29564.52
665.862	29687.45
666.212	29661.47
666.562	29649.26
666.912	29552.77
667.262	29513.67
667.612	29572.65
667.962	29586.67
668.312	29544.18
668.662	29687
669.011	29599.32
669.361	29442.71
669.711	29477.97
670.06	29514.13
670.41	29344.86
670.76	29479.1
671.109	29513.67
671.459	29241.59
671.808	29340.8
672.157	29407.69
672.507	29168.15
672.856	29291.31
673.205	29341.93
673.554	29288.82
673.904	29160.46
674.253	29299.44
674.602	29232.78
674.951	28814.26
675.3	28611.1
675.649	29312.32
675.998	29095.15
676.346	29047.92
676.695	29137.86
677.044	28987.13
677.393	28964.99
677.741	29095.61
678.09	28979
678.438	28961.37
678.787	28856.74
679.135	28861.49
679.484	28812
679.832	28983.07
680.181	28725.45
680.529	28816.74
680.877	28647.71
681.225	28727.93
681.573	28794.14
681.922	28510.08
682.27	28485.68
682.618	28388.05
682.966	28283.2
683.314	28420.14
683.661	28391.44
684.009	28212.01
684.357	28329.75
684.705	28111.45
685.053	28224.22
685.4	28175.4
685.748	27988.06
686.095	27900.38
686.443	27961.62
686.79	27797.79
687.138	27673.72
687.485	27784.91
687.832	27683.44
688.18	27698.13
688.527	27520.28
688.874	27697.22
689.221	27537.45
689.568	27370.9
689.915	27410
690.262	27231.7
690.609	27222.89
690.956	27168.2
691.303	27149.44
691.65	27101.08
691.997	27049.78
692.344	26840.3
692.69	26966.62
693.037	26841.2
693.383	26658.83
693.73	26623.81
694.077	26513.75
694.423	26528.67
694.769	26500.87
695.116	26462.23
695.462	26296.36
695.808	26172.07
696.155	26261.33
696.501	25981.11
696.847	26133.87
697.193	25917.38
697.539	25967.1
697.885	25706.32
698.231	25713.55
698.577	25690.72
698.923	25612.08
699.269	25560.33
699.614	25355.82
699.96	25303.39
700.306	25332.09
700.651	25202.83
700.997	25131.42
701.342	25178.87
701.688	25157.18
702.033	24917.86
702.379	24910.63
702.724	24877.64
703.069	24933.23
703.415	24678.09
703.76	24637.87
704.105	24691.65
704.45	24597.64
704.795	24434.26
705.14	24382.28
705.485	24319.01
705.83	24392.68
706.175	24255.96
706.52	24251.44
706.865	24105.68
707.209	24142.74
707.554	23980.49
707.899	24008.06
708.243	23877.66
708.588	23907.49
708.932	23923.99
709.277	23580.95
709.621	23648.52
709.966	23584.79
710.31	23611.46
710.654	23298.92
710.998	23452.82
711.342	23346.6
711.687	23319.49
712.031	23269.54
712.375	23215.99
712.719	23222.77
713.063	23225.93
713.407	23256.89
713.75	23104.35
714.094	22981.42
714.438	22858.71
714.782	22863
715.125	22791.59
715.469	22870.01
715.812	22707.52
716.156	22624.81
716.499	22716.34
716.843	22561.09
717.186	22457.81
717.53	22596.34
717.873	22604.02
718.216	22510.92
718.559	22413.97
718.902	22251.27
719.246	22280.87
719.589	22312.96
719.932	22185.28
720.275	22143.7
720.617	22059.41
720.96	22038.16
721.303	22076.35
721.646	22016.24
721.989	21916.81
722.331	22048.78
722.674	21877.49
723.016	21943.02
723.359	21823.25
723.701	21821.9
724.044	21692.64
724.386	21698.96
724.729	21695.57
725.071	21644.5
725.413	21459.42
725.755	21583.49
726.097	21499.42
726.439	21335.81
726.782	21368.58
727.124	21474.11
727.465	21363.6
727.807	21327.22
728.149	21294
728.491	21184.4
728.833	21221.69
729.175	21142.37
729.516	21097.17
729.858	21064.4
730.199	21131.75
730.541	21045.87
730.882	20928.81
731.224	21070.73
731.565	20811.3
731.906	20927.01
732.248	20928.59
732.589	20789.83
732.93	20706.45
733.271	20680.23
733.612	20724.53
733.953	20713
734.294	20571.99
734.635	20544.19
734.976	20588.26
735.317	20586.45
735.658	20580.12
735.999	20461.26
736.339	20465.32
736.68	20489.28
737.021	20464.19
737.361	20265.78
737.702	20371.31
738.042	20392.11
738.383	20248.15
738.723	20379.22
739.063	20249.06
739.404	20241.37
739.744	20180.13
740.084	20061.72
740.424	20053.81
740.764	20082.06
741.104	20130.42
741.444	20021.95
741.784	19874.6
742.124	20019.01
742.464	19984.66
742.804	19792.12
743.143	19794.15
743.483	19812.46
743.823	19704.89
744.162	19633.03
744.502	19739.92
744.841	19627.83
745.181	19802.06
745.52	19583.54
745.86	19652.46
746.199	19518
746.538	19521.17
746.877	19601.84
747.216	19494.5
747.556	19402.3
747.895	19468.51
748.234	19318.01
748.573	19281.4
748.911	19313.72
749.25	19287.73
749.589	19155.53
749.928	19138.8
750.267	19211.57
750.605	19038.47
750.944	19022.42
751.283	18952.82
751.621	18983.33
751.96	18927.28
752.298	18836.89
752.636	18873.73
752.975	18798.7
753.313	18722.09
753.651	18806.61
753.989	18761.19
754.327	18718.25
754.666	18569.55
755.004	18599.38
755.342	18493.62
755.679	18476.22
756.017	18396.23
756.355	18498.82
756.693	18382.89
757.031	18402.55
757.368	18260.86
757.706	18261.99
758.044	18251.37
758.381	18191.48
758.719	18161.66
759.056	18134.76
759.394	18005.73
759.731	18046.4
760.068	18007.99
760.405	17922.57
760.743	17898.39
761.08	17829.01
761.417	17709.92
761.754	17675.79
762.091	17711.05
762.428	17553.54
762.765	17490.71
763.102	17452.97
763.438	17340.89
763.775	17301.56
764.112	17354.44
764.449	17278.29
764.785	17226.99
765.122	17137.05
765.458	17013.66
765.795	17015.92
766.131	17059.99
766.467	16946.09
766.804	16836.27
767.14	16857.51
767.476	16761.01
767.812	16652.32
768.148	16672.88
768.485	16570.96
768.821	16538.2
769.157	16543.62
769.492	16427.69
769.828	16472.43
770.164	16305.43
770.5	16215.72
770.836	16207.36
771.171	16224.98
771.507	16183.18
771.842	16014.37
772.178	15973.01
772.513	15919.68
772.849	15889.62
773.184	15817.99
773.519	15834.03
773.855	15679.91
774.19	15568.73
774.525	15534.15
774.86	15475.17
775.195	15440.6
775.53	15479.69
775.865	15312.01
776.2	15243.77
776.535	15212.35
776.87	15150.89
777.205	15129.42
777.539	15023.88
777.874	15160.83
778.209	14941.4
778.543	14898.69
778.878	14883.32
779.212	14802.87
779.547	14829.31
779.881	14729.66
780.215	14663.22
780.55	14645.14
780.884	14587.06
781.218	14516.33
781.552	14479.04
781.886	14412.15
782.22	14373.51
782.554	14311.81
782.888	14105.26
783.222	14097.81
783.556	14114.3
783.889	14011.26
784.223	13928.09
784.557	13947.3
784.89	13983.01
785.224	13862.79
785.557	13838.38
785.891	13737.59
786.224	13730.36
786.558	13703.02
786.891	13581.89
787.224	13504.83
787.557	13434.32
787.891	13414.21
788.224	13416.02
788.557	13393.19
788.89	13342.8
789.223	13303.7
789.556	13278.39
789.888	13235.01
790.221	13132.86
790.554	13094.44
790.887	13083.6
791.219	12974.22
791.552	13085.18
791.884	12912.53
792.217	12884.51
792.549	12823.04
792.882	12818.74
793.214	12691.74
793.546	12731.97
793.879	12581.69
794.211	12541.01
794.543	12619.43
794.875	12546.89
795.207	12520.9
795.539	12538.75
795.871	12468.02
796.203	12366.78
796.535	12242.26
796.867	12218.99
797.198	12182.15
797.53	12222.15
797.862	12209.04
798.193	12140.34
798.525	12043.17
798.856	12122.94
799.188	11998.2
799.519	11990.97
799.85	11822.61
800.182	11887.02
800.513	11936.73
800.844	11769.96
801.175	11803.4
801.506	11779
801.837	11713.24
802.168	11623.3
802.499	11662.84
802.83	11576.07
803.161	11555.73
803.491	11574.48
803.822	11624.65
804.153	11526.12
804.483	11297.65
804.814	11324.32
805.145	11360.7
805.475	11342.85
805.805	11273.93
806.136	11300.37
806.466	11352.79
806.796	11249.75
807.126	11131.78
807.457	11156.87
807.787	11051.11
808.117	11092.01
808.447	11069.64
808.777	11080.94
809.107	11011.11
809.436	10933.37
809.766	10938.57
810.096	11004.33
810.426	10842.53
810.755	10859.7
811.085	10833.94
811.414	10786.93
811.744	10680.72
812.073	10666.26
812.403	10730.21
812.732	10706.71
813.061	10696.99
813.39	10570.44
813.719	10551.69
814.049	10584.45
814.378	10503.78
814.707	10479.15
815.036	10442.99
815.365	10350.11
815.693	10349.66
816.022	10386.72
816.351	10261.98
816.68	10240.51
817.008	10318.02
817.337	10236.67
817.665	10179.72
817.994	10252.26
818.322	10242.99
818.651	10132.26
818.979	10127.29
819.307	10132.26
819.636	10125.71
819.964	10029.44
820.292	10139.49
820.62	10018.59
820.948	10060.4
821.276	10096.56
821.604	10004.13
821.932	10061.98
822.259	10035.99
822.587	10046.39
822.915	10040.29
823.243	10043.45
823.57	9957.35
823.898	10001.42
824.225	9867.86
824.553	9984.02
824.88	10019.04
825.207	10011.81
825.535	9969.55
825.862	9982.66
826.189	9986.05
826.516	9964.58
826.843	9987.41
827.17	10015.43
827.497	10009.33
827.824	9966.39
828.151	9892.49
828.478	9932.95
828.805	10018.37
829.131	9952.15
829.458	9922.55
829.785	9910.57
830.111	9896.34
830.438	9952.15
830.764	9903.57
831.09	9866.51
831.417	9900.63
831.743	9946.05
832.069	9885.94
832.395	9892.49
832.722	9921.19
833.048	9877.13
833.374	9884.58
833.7	9817.24
834.026	9817.02
834.351	9798.71
834.677	9828.54
835.003	9861.76
835.329	9823.57
835.654	9805.94
835.98	9787.86
836.306	9757.58
836.631	9760.75
836.956	9808.43
837.282	9740.18
837.607	9657.47
837.932	9739.28
838.258	9749.9
838.583	9666.74
838.908	9642.78
839.233	9620.64
839.558	9597.59
839.883	9617.47
840.208	9539.06
840.533	9588.77
840.858	9519.4
841.182	9556.91
841.507	9546.97
841.832	9496.8
842.156	9485.95
842.481	9468.78
842.805	9378.38
843.13	9412.51
843.454	9378.38
843.778	9312.85
844.103	9339.29
844.427	9280.98
844.751	9301.78
845.075	9305.16
845.399	9238.5
845.723	9233.53
846.047	9230.82
846.371	9156.92
846.695	9110.82
847.019	9035.34
847.343	8982.69
847.666	8979.07
847.99	8963.48
848.313	8969.58
848.637	8833.54
848.96	8838.74
849.284	8844.61
849.607	8747.44
849.931	8802.13
850.254	8703.82
850.577	8633.54
850.9	8567.56
851.223	8556.71
851.546	8515.81
851.869	8485.98
852.192	8533.43
852.515	8457.28
852.838	8427.45
853.161	8387.45
853.483	8357.62
853.806	8292.54
854.129	8316.49
854.451	8228.81
854.774	8241.46
855.096	8163.5
855.419	8190.62
855.741	8172.54
856.063	8183.39
856.385	8140.68
856.708	8113.56
857.03	8096.16
857.352	8101.81
857.674	8072.2
857.996	7947.91
858.318	7903.85
858.64	7975.26
858.961	7936.84
859.283	7912.43
859.605	7891.19
859.926	7911.53
860.248	7870.17
860.57	7823.4
860.891	7828.82
861.212	7788.37
861.534	7770.29
861.855	7803.74
862.176	7780.01
862.498	7736.62
862.819	7805.77
863.14	7740.46
863.461	7671.08
863.782	7648.49
864.103	7664.08
864.424	7681.25
864.745	7692.78
865.065	7608.49
865.386	7600.8
865.707	7503.4
866.027	7562.61
866.348	7602.61
866.668	7564.65
866.989	7547.02
867.309	7488.94
867.63	7494.14
867.95	7424.08
868.27	7423.18
868.59	7467.7
868.91	7488.94
869.23	7407.14
869.55	7399.9
869.87	7404.42
870.19	7398.55
870.51	7332.79
870.83	7373.46
871.15	7369.4
871.469	7328.95
871.789	7356.74
872.109	7374.82
872.428	7336.4
872.748	7395.16
873.067	7300.47
873.386	7279.91
873.706	7279.68
874.025	7206.92
874.344	7189.29
874.663	7328.72
874.982	7204.43
875.301	7233.58
875.62	7195.16
875.939	7150.87
876.258	7123.3
876.577	7161.04
876.896	7076.52
877.214	7099.57
877.533	7158.1
877.852	7077.2
878.17	7138.67
878.489	7127.37
878.807	7081.49
879.125	7047.6
879.444	7079.46
879.762	7089.18
880.08	7014.83
880.398	7008.28
880.716	6994.49
881.034	7002.4
881.352	6967.83
881.67	6946.58
881.988	6912.23
882.306	6919.24
882.624	6933.93
882.941	6944.78
883.259	6889.41
883.577	6896.87
883.894	6878.34
884.212	6793.37
884.529	6787.94
884.846	6835.4
885.164	6825
885.481	6797.66
885.798	6806.47
886.115	6740.49
886.432	6728.06
886.75	6659.36
887.067	6759.92
887.383	6627.5
887.7	6627.04
888.017	6622.07
888.334	6594.05
888.651	6632.69
888.967	6615.29
889.284	6560.15
889.6	6504.33
889.917	6459.14
890.233	6482.19
890.55	6502.98
890.866	6485.35
891.182	6434.96
891.498	6442.87
891.815	6423.43
892.131	6380.5
892.447	6405.13
892.763	6316.77
893.079	6333.94
893.395	6338.92
893.71	6286.71
894.026	6299.14
894.342	6298.01
894.657	6213.95
894.973	6193.38
895.289	6197.45
895.604	6156.1
895.92	6172.14
896.235	6124.23
896.55	6112.48
896.865	6132.59
897.181	6057.57
897.496	6108.41
897.811	6032.03
898.126	6026.83
898.441	6041.07
898.756	6015.76
899.071	5986.16
899.386	5924.69
899.7	5906.84
900.015	5889.66
900.33	5829.78
900.644	5822.54
900.959	5828.65
901.273	5801.3
901.588	5792.49
901.902	5765.37
902.216	5733.96
902.531	5735.54
902.845	5733.28
903.159	5703
903.473	5676.11
903.787	5637.24
904.101	5627.3
904.415	5636.56
904.729	5606.96
905.042	5563.79
905.356	5584.13
905.67	5547.07
905.984	5536.68
906.297	5501.65
906.611	5458.03
906.924	5486.28
907.237	5469.33
907.551	5418.94
907.864	5404.7
908.177	5350.92
908.491	5437.47
908.804	5330.58
909.117	5331.94
909.43	5340.98
909.743	5244.25
910.056	5272.05
910.368	5287.42
910.681	5205.16
910.994	5237.25
911.307	5196.12
911.619	5136.24
911.932	5148.21
912.244	5117.7
912.557	5084.48
912.869	5109.57
913.181	5091.72
913.494	5060.76
913.806	5014.88
914.118	5019.4
914.43	4980.08
914.742	4976.47
915.054	4969.01
915.366	4950.48
915.678	4898.05
915.99	4853.76
916.302	4886.52
916.613	4840.65
916.925	4832.74
917.236	4783.48
917.548	4792.06
917.859	4794.55
918.171	4758.84
918.482	4671.84
918.794	4704.16
919.105	4689.47
919.416	4657.38
919.727	4635.68
920.038	4620.32
920.349	4604.5
920.66	4619.41
920.971	4587.55
921.282	4554.78
921.593	4506.2
921.903	4496.48
922.214	4548.45
922.525	4489.7
922.835	4488.57
923.146	4460.77
923.456	4442.47
923.767	4429.13
924.077	4409.02
924.387	4451.73
924.697	4385.75
925.008	4381.68
925.318	4357.05
925.628	4339.42
925.938	4296.26
926.248	4292.87
926.558	4313.43
926.867	4290.16
927.177	4193.89
927.487	4203.83
927.796	4174.23
928.106	4200.67
928.416	4124.51
928.725	4124.51
929.034	4110.27
929.344	4113.66
929.653	4112.76
929.962	4091.74
930.271	4057.17
930.581	4034.12
930.89	4026.89
931.199	4001.12
931.508	3972.88
931.817	3976.27
932.125	3969.49
932.434	3984.4
932.743	3965.19
933.051	3947.11
933.36	3895.36
933.669	3883.16
933.977	3871.64
934.286	3845.2
934.594	3826.21
934.902	3800.68
935.21	3752.09
935.519	3794.35
935.827	3777.17
936.135	3766.78
936.443	3696.27
936.751	3709.38
937.059	3666.44
937.367	3689.04
937.674	3712.32
937.982	3671.87
938.29	3673
938.597	3685.43
938.905	3600.91
939.213	3597.07
939.52	3621.02
939.827	3659.89
940.135	3572.89
940.442	3563.17
940.749	3510.52
941.056	3529.5
941.363	3515.03
941.67	3505.54
941.977	3492.89
942.284	3430.74
942.591	3446.79
942.898	3442.04
943.205	3395.72
943.511	3374.93
943.818	3398.43
944.125	3368.6
944.431	3350.75
944.738	3357.75
945.044	3342.16
945.35	3288.83
945.657	3277.3
945.963	3294.48
946.269	3284.31
946.575	3248.15
946.881	3248.6
947.187	3240.24
947.493	3217.87
947.799	3246.57
948.105	3188.04
948.41	3153.91
948.716	3193.24
949.022	3139.23
949.327	3132.67
949.633	3106.68
949.938	3097.19
950.244	3095.16
950.549	3097.64
950.854	3073.46
951.16	3051.09
951.465	3052.67
951.77	3067.81
952.075	3016.52
952.38	3004.31
952.685	2989.62
952.99	2964.09
953.294	2987.36
953.599	2960.7
953.904	2956.18
954.209	2944.2
954.513	2930.42
954.818	2915.05
955.122	2903.75
955.426	2899.46
955.731	2889.97
956.035	2871.89
956.339	2859.01
956.643	2825.79
956.948	2833.47
957.252	2838.89
957.556	2828.73
957.86	2838.67
958.163	2830.98
958.467	2769.07
958.771	2755.05
959.075	2745.79
959.378	2748.95
959.682	2751.66
959.985	2699.46
960.289	2722.29
960.592	2679.58
960.896	2675.96
961.199	2664.44
961.502	2661.27
961.805	2663.31
962.108	2644.32
962.411	2654.72
962.714	2607.26
963.017	2582.4
963.32	2583.99
963.623	2564.1
963.926	2613.59
964.228	2558.9
964.531	2547.15
964.833	2550.31
965.136	2491.78
965.438	2513.93
965.741	2492.01
966.043	2479.36
966.345	2501.05
966.648	2488.4
966.95	2485.91
967.252	2456.31
967.554	2440.26
967.856	2420.37
968.158	2439.13
968.46	2439.36
968.761	2435.06
969.063	2402.07
969.365	2416.76
969.666	2349.87
969.968	2338.79
970.269	2361.84
970.571	2357.55
970.872	2335.18
971.174	2301.28
971.475	2323.2
971.776	2284.56
972.077	2304.45
972.378	2302.86
972.679	2283.2
972.98	2264.22
973.281	2285.69
973.582	2285.46
973.883	2247.27
974.183	2262.41
974.484	2247.27
974.785	2205.24
975.085	2228.29
975.386	2214.05
975.686	2225.13
975.986	2174.96
976.287	2141.74
976.587	2179.02
976.887	2154.39
977.187	2178.12
977.487	2127.95
977.787	2143.32
978.087	2130.66
978.387	2098.12
978.687	2110.78
978.987	2101.74
979.286	2086.37
979.586	2094.96
979.885	2061.51
980.185	2087.28
980.484	2027.39
980.784	2067.62
981.083	2014.28
981.382	2049.31
981.682	2040.5
981.981	2034.62
982.28	2010.44
982.579	2017.67
982.878	2000.5
983.177	1982.87
983.475	1978.13
983.774	1955.98
984.073	1953.95
984.372	1946.04
984.67	1944
984.969	1935.87
985.267	1955.75
985.566	1929.09
985.864	1896.55
986.162	1905.59
986.461	1887.05
986.759	1907.39
987.057	1860.61
987.355	1857.45
987.653	1864.23
987.951	1851.12
988.249	1835.08
988.547	1836.43
988.844	1869.88
989.142	1815.87
989.44	1833.5
989.737	1780.39
990.035	1808.19
990.332	1781.97
990.63	1776.78
990.927	1794.4
991.224	1748.53
991.521	1737.91
991.819	1750.79
992.116	1759.6
992.413	1728.87
992.71	1712.14
993.006	1726.16
993.303	1709.43
993.6	1701.98
993.897	1713.27
994.193	1712.82
994.49	1693.61
994.787	1678.92
995.083	1664.01
995.379	1645.03
995.676	1634.63
995.972	1629.66
996.268	1616.33
996.565	1611.36
996.861	1600.96
997.157	1609.1
997.453	1584.46
997.749	1609.1
998.044	1602.77
998.34	1605.25
998.636	1596.67
998.932	1568.87
999.227	1592.6
999.523	1572.03
999.818	1560.74
1000.114	1532.04
1000.409	1532.94
1000.704	1525.26
1001	1516.22
1001.295	1523.67
1001.59	1511.02
1001.885	1507.63
1002.18	1482.09
1002.475	1490.68
1002.77	1478.7
1003.065	1475.09
1003.359	1459.27
1003.654	1468.53
1003.949	1436.22
1004.243	1463.11
1004.538	1435.54
1004.832	1409.33
1005.127	1432.6
1005.421	1385.83
1005.715	1395.32
1006.009	1394.64
1006.304	1376.33
1006.598	1361.42
1006.892	1363
1007.186	1365.26
1007.48	1359.16
1007.773	1367.97
1008.067	1361.19
1008.361	1339.72
1008.655	1340.18
1008.948	1313.51
1009.242	1329.78
1009.535	1289.33
1009.829	1314.19
1010.122	1311.02
1010.415	1293.17
1010.708	1295.66
1011.001	1281.87
1011.295	1262.66
1011.588	1258.14
1011.881	1263.79
1012.173	1255.66
1012.466	1252.5
1012.759	1224.93
1013.052	1252.95
1013.344	1206.39
1013.637	1249.11
1013.93	1227.64
1014.222	1214.98
1014.514	1179.73
1014.807	1193.29
1015.099	1187.64
1015.391	1182.21
1015.683	1152.16
1015.976	1165.94
1016.268	1175.44
1016.56	1153.74
1016.851	1158.26
1017.143	1136.34
1017.435	1168.66
1017.727	1144.25
1018.018	1123.23
1018.31	1133.63
1018.602	1114.42
1018.893	1103.57
1019.185	1113.74
1019.476	1098.38
1019.767	1096.12
1020.058	1092.73
1020.35	1062.67
1020.641	1063.12
1020.932	1050.24
1021.223	1052.73
1021.514	1051.14
1021.804	1053.86
1022.095	1065.83
1022.386	1015.21
1022.677	1022.9
1022.967	1019.51
1023.258	1006.63
1023.548	982.9
1023.839	977.7
1024.129	1012.05
1024.419	998.04
1024.709	988.32
1025	990.36
1025.29	991.49
1025.58	960.53
1025.87	964.37
1026.16	938.61
1026.449	953.07
1026.739	971.37
1027.029	961.43
1027.319	951.03
1027.608	927.53
1027.898	911.94
1028.187	962.33
1028.477	920.75
1028.766	903.35
1029.055	885.27
1029.344	896.12
1029.634	912.17
1029.923	901.09
1030.212	880.75
1030.501	880.53
1030.79	862.22
1031.078	842.34
1031.367	882.79
1031.656	852.28
1031.945	864.48
1032.233	868.1
1032.522	838.49
1032.81	861.77
1033.099	841.88
1033.387	836.91
1033.675	824.71
1033.963	805.05
1034.251	826.07
1034.54	845.73
1034.828	780.19
1035.116	806.41
1035.403	812.05
1035.691	807.08
1035.979	795.33
1036.267	786.97
1036.554	786.52
1036.842	770.7
1037.129	769.8
1037.417	766.18
1037.704	772.96
1037.992	770.7
1038.279	753.98
1038.566	746.07
1038.853	746.07
1039.14	746.07
