Data from whiteboard_FLMS001491_00022.txt Node
Date: Wed Feb 08 11:25:49 GMT 2017
User: dcchb
Spectrometer: FLMS00149
Trigger mode: 0
Integration Time (sec): 2.000000E-2
Scans to average: 10
Electric dark correction enabled: true
Nonlinearity correction enabled: false
Boxcar width: 0
XAxis mode: Wavelengths
Number of Pixels in Spectrum: 2048
>>>>>Begin Spectral Data<<<<<
341.393	-22.34
341.776	-22.34
342.16	-22.34
342.543	-47.43
342.927	-86.52
343.31	-67.77
343.693	-70.25
344.077	-58.05
344.46	-80.2
344.843	-48.56
345.226	-50.37
345.61	-35.45
345.993	-13.53
346.376	0.93
346.759	5.45
347.142	45.45
347.525	39.58
347.908	50.42
348.291	70.08
348.674	91.33
349.057	120.93
349.44	114.15
349.823	149.85
350.206	174.71
350.588	211.32
350.971	255.39
351.354	244.77
351.737	257.65
352.119	288.38
352.502	283.18
352.884	314.6
353.267	323.86
353.65	327.93
354.032	325.22
354.414	324.54
354.797	347.14
355.179	363.41
355.562	355.27
355.944	367.48
356.326	394.59
356.709	357.53
357.091	360.24
357.473	375.39
357.855	374.26
358.238	389.17
358.62	377.65
359.002	385.78
359.384	391.43
359.766	381.26
360.148	379.68
360.53	379.45
360.912	392.56
361.294	384.88
361.676	384.65
362.057	361.83
362.439	353.01
362.821	355.73
363.203	369.74
363.584	369.74
363.966	388.04
364.348	359.11
364.729	394.82
365.111	382.17
365.493	371.77
365.874	368.83
366.256	370.87
366.637	380.36
367.019	388.04
367.4	369.28
367.781	379.45
368.163	372.22
368.544	376.06
368.925	374.71
369.306	392.11
369.688	384.2
370.069	369.28
370.45	394.37
370.831	400.92
371.212	365.44
371.593	385.1
371.974	393.01
372.355	405.44
372.736	376.06
373.117	386.01
373.498	404.76
373.879	377.65
374.26	364.31
374.641	397.08
375.021	394.82
375.402	397.31
375.783	418.55
376.163	413.35
376.544	432.33
376.925	409.73
377.305	430.75
377.686	424.65
378.066	416.51
378.447	426.46
378.827	420.58
379.208	437.3
379.588	426.68
379.968	443.41
380.349	442.5
380.729	444.31
381.109	433.24
381.489	469.17
381.87	462.84
382.25	441.6
382.63	458.55
383.01	478.89
383.39	481.6
383.77	478.89
384.15	453.8
384.53	474.82
384.91	481.37
385.29	491.31
385.67	491.31
386.049	515.49
386.429	508.72
386.809	521.6
387.189	489.28
387.568	503.29
387.948	519.34
388.328	535.61
388.707	529.28
389.087	530.86
389.466	551.43
389.846	569.28
390.225	560.24
390.605	570.86
390.984	548.71
391.363	568.6
391.743	579
392.122	584.65
392.501	576.28
392.881	606.79
393.26	621.93
393.639	619.45
394.018	630.52
394.397	651.76
394.776	622.84
395.155	630.75
395.534	661.48
395.913	662.38
396.292	675.04
396.671	691.99
397.05	667.58
397.429	682.04
397.808	708.48
398.186	732.21
398.565	709.84
398.944	720.24
399.323	733.57
399.701	756.62
400.08	759.1
400.458	762.49
400.837	778.99
401.215	780.57
401.594	795.49
401.972	837.97
402.351	821.7
402.729	870.74
403.107	857.41
403.486	875.49
403.864	882.72
404.242	891.76
404.62	922.26
404.999	900.8
405.377	928.37
405.755	963.17
406.133	959.55
406.511	1004.07
406.889	1027.8
407.267	1026.67
407.645	1051.53
408.023	1044.97
408.401	1073.67
408.779	1103.5
409.156	1112.77
409.534	1129.94
409.912	1177.62
410.29	1177.85
410.667	1230.96
411.045	1202.71
411.422	1217.85
411.8	1272.54
412.178	1291.75
412.555	1332.2
412.933	1302.59
413.31	1357.05
413.687	1380.56
414.065	1400.22
414.442	1412.65
414.819	1433.66
415.197	1439.31
415.574	1481.12
415.951	1508.46
416.328	1519.76
416.705	1566.31
417.082	1534.23
417.46	1566.31
417.837	1613.09
418.214	1626.43
418.591	1629.59
418.967	1661.91
419.344	1664.17
419.721	1703.49
420.098	1719.53
420.475	1725.86
420.852	1733.99
421.228	1783.94
421.605	1778.96
421.982	1816.7
422.358	1859.19
422.735	1885.85
423.111	1868.91
423.488	1924.95
423.864	1910.03
424.241	1971.05
424.617	1954.1
424.994	1988.68
425.37	1989.35
425.746	2019.18
426.123	2065.96
426.499	2107.77
426.875	2125.85
427.251	2153.87
427.627	2218.28
428.003	2224.6
428.379	2260.76
428.756	2265.28
429.132	2327.65
429.507	2344.83
429.883	2380.98
430.259	2404.71
430.635	2456.91
431.011	2456.01
431.387	2530.13
431.763	2555.89
432.138	2599.73
432.514	2622.56
432.89	2617.81
433.265	2696.68
433.641	2744.36
434.016	2736.45
434.392	2828.65
434.767	2876.56
435.143	2864.36
435.518	2896.68
435.894	2936.9
436.269	2979.38
436.644	3056.67
437.02	3079.04
437.395	3119.72
437.77	3151.81
438.145	3187.97
438.52	3192.71
438.895	3256.21
439.271	3244.01
439.646	3358.13
440.021	3350.67
440.395	3413.95
440.77	3390.22
441.145	3416.21
441.52	3475.19
441.895	3468.41
442.27	3542.99
442.645	3516.09
443.019	3591.35
443.394	3594.74
443.769	3655.53
444.143	3630.22
444.518	3648.75
444.892	3658.92
445.267	3712.47
445.641	3800.15
446.016	3786.14
446.39	3847.38
446.764	3821.85
447.139	3839.7
447.513	3876.76
447.887	3930.55
448.262	3953.14
448.636	3964.9
449.01	4062.07
449.384	4102.75
449.758	4116.53
450.132	4160.6
450.506	4164.44
450.88	4210.99
451.254	4243.76
451.628	4284.66
452.002	4366.92
452.376	4393.81
452.75	4432.45
453.123	4487.14
453.497	4529.85
453.871	4502.73
454.244	4684.65
454.618	4636.29
454.992	4753.12
455.365	4783.18
455.739	4918.54
456.112	4895.27
456.486	4986.34
456.859	5081.7
457.232	5166.67
457.606	5147.24
457.979	5234.69
458.352	5342.03
458.725	5403.73
459.099	5435.14
459.472	5587
459.845	5663.83
460.218	5712.19
460.591	5737.05
460.964	5776.37
461.337	5960.32
461.71	5983.83
462.083	6134.1
462.456	6151.5
462.829	6155.35
463.201	6264.5
463.574	6333.65
463.947	6416.13
464.32	6517.82
464.692	6612.74
465.065	6683.47
465.438	6764.14
465.81	6830.36
466.183	6903.8
466.555	7044.14
466.928	7140.18
467.3	7113.06
467.672	7246.17
468.045	7388.76
468.417	7449.1
468.789	7539.04
469.161	7636.66
469.534	7744.23
469.906	7972.47
470.278	7934.73
470.65	8137.89
471.022	8200.04
471.394	8437.77
471.766	8469.18
472.138	8594.83
472.51	8771.32
472.882	8943.97
473.253	8985.1
473.625	9158.43
473.997	9373.79
474.369	9473.68
474.74	9547.35
475.112	9749.83
475.484	9909.6
475.855	10026.21
476.227	10222.36
476.598	10489.7
476.97	10559.52
477.341	10851.72
477.713	10973.07
478.084	11029.12
478.455	11445.6
478.827	11451.7
479.198	11810.34
479.569	11800.62
479.94	12198.8
480.311	12204.45
480.682	12533.71
481.053	12816.87
481.424	13005.79
481.795	13086.69
482.166	13287.14
482.537	13422.27
482.908	13734.81
483.279	13902.71
483.65	14123.95
484.021	14497.73
484.391	14616.59
484.762	14741.34
485.133	14877.15
485.503	15174.77
485.874	15501.99
486.244	15644.14
486.615	15953.73
486.985	16140.39
487.356	16461.52
487.726	16562.76
488.097	16970.2
488.467	17054.72
488.837	17394.15
489.207	17585.55
489.578	17876.85
489.948	18075.03
490.318	18254.92
490.688	18383.27
491.058	18749.14
491.428	18921.79
491.798	19141.22
492.168	19506.18
492.538	19600.42
492.908	19886.74
493.278	20094.42
493.648	20133.06
494.017	20490.11
494.387	20539.38
494.757	20681.07
495.126	21007.84
495.496	20997.89
495.866	21095.52
496.235	21460.03
496.605	21610.76
496.974	21653.7
497.344	21890.07
497.713	22015.49
498.082	22295.94
498.452	22527.57
498.821	22681.01
499.19	22680.56
499.559	22954
499.928	23129.14
500.298	23258.4
500.667	23518.05
501.036	23514.89
501.405	23829.01
501.774	23767.54
502.143	23972.51
502.512	24114.65
502.88	24473.06
503.249	24469.89
503.618	24699.94
503.987	24827.62
504.356	25034.4
504.724	25238.01
505.093	25327.95
505.462	25514.84
505.83	25698.34
506.199	26028.04
506.567	26335.16
506.936	26282.73
507.304	26632.32
507.672	26622.15
508.041	26782.6
508.409	27082.71
508.777	27295.81
509.145	27382.81
509.514	27526.54
509.882	27645.18
510.25	27828
510.618	28018.5
510.986	28014.88
511.354	28440.86
511.722	28516.57
512.09	28765.37
512.458	28798.59
512.826	29152.26
513.193	29169.2
513.561	29351.35
513.929	29696.87
514.297	29905
514.664	30081.27
515.032	30120.14
515.4	30470.41
515.767	30585.66
516.135	30857.75
516.502	30599.45
516.869	31249.38
517.237	31408.24
517.604	31397.85
517.972	31837.16
518.339	32050.48
518.706	32156.47
519.073	32299.52
519.44	32562.56
519.808	32994.19
520.175	32968.2
520.542	33584.68
520.909	33700.39
521.276	33769.99
521.643	34169.3
522.009	34280.48
522.376	34614.49
522.743	34788.49
523.11	35268.71
523.477	35478.19
523.843	35639.54
524.21	36058.06
524.577	36264.84
524.943	36449.24
525.31	36601.33
525.676	37058.94
526.043	37174.64
526.409	37322.66
526.776	37870.67
527.142	37842.88
527.508	38252.36
527.874	38557.21
528.241	38738.9
528.607	38779.12
528.973	39185.44
529.339	39079.9
529.705	39466.11
530.071	39894.57
530.437	39950.62
530.803	40162.36
531.169	40378.63
531.535	40338.63
531.901	40529.36
532.267	40762.35
532.632	40952.62
532.998	41245.95
533.364	41406.17
533.73	41677.8
534.095	41788.99
534.461	41804.35
534.826	42102.65
535.192	42393.04
535.557	42619.25
535.923	42632.35
536.288	42713.48
536.653	43063.75
537.019	43059.01
537.384	43297.42
537.749	43438.21
538.114	43758.2
538.479	43737.18
538.845	44072.09
539.21	43954.8
539.575	44214.46
539.94	44319.09
540.305	44605.18
540.67	44642.92
541.034	44742.35
541.399	44956.13
541.764	45100.76
542.129	45313.19
542.494	45318.38
542.858	45602.22
543.223	45554.54
543.587	45848.09
543.952	45682.22
544.316	45961.98
544.681	45959.5
545.045	46143.67
545.41	46336.66
545.774	46489.2
546.138	46631.8
546.503	46639.03
546.867	46662.76
547.231	47109.52
547.595	47062.52
547.959	47239.01
548.324	47111.33
548.688	47273.14
549.052	47618.21
549.416	47585.22
549.779	47631.09
550.143	47779.79
550.507	48199.89
550.871	48187.24
551.235	48160.8
551.599	48374.58
551.962	48666.55
552.326	48692.53
552.689	48891.4
553.053	48887.56
553.417	48933.66
553.78	49393.31
554.143	49311.95
554.507	49505.85
554.87	49559.18
555.234	49888.66
555.597	49826.74
555.96	49960.07
556.323	50163
556.686	50144.47
557.05	50452.26
557.413	50610.67
557.776	50656.1
558.139	50861.97
558.502	50911.91
558.865	50960.04
559.228	51280.71
559.59	51312.58
559.953	51380.82
560.316	51624.43
560.679	51687.71
561.041	51938.32
561.404	52060.13
561.767	52219.22
562.129	52125.44
562.492	52509.61
562.854	52479.33
563.217	52525.43
563.579	52738.3
563.941	52927.22
564.304	53100.33
564.666	53227.33
565.028	53212.87
565.39	53334.22
565.753	53495.8
566.115	53624.83
566.477	53753.64
566.839	53832.29
567.201	54103.92
567.563	53994.09
567.925	54301.2
568.287	54348.88
568.648	54414.19
569.01	54583
569.372	54699.38
569.734	54613.51
570.095	54866.16
570.457	55068.86
570.819	55072.48
571.18	55087.62
571.542	55239.93
571.903	55278.8
572.265	55382.3
572.626	55391.79
572.987	55539.58
573.349	55594.95
573.71	55661.16
574.071	55778.45
574.432	55799.92
574.794	56026.58
575.155	56016.86
575.516	55954.49
575.877	56100.25
576.238	56132.56
576.599	56244.43
576.96	56243.07
577.32	56251.66
577.681	56374.37
578.042	56466.79
578.403	56378.21
578.763	56395.38
579.124	56483.29
579.485	56686.45
579.845	56688.71
580.206	56650.97
580.566	56606.22
580.927	56612.55
581.287	56792.21
581.648	56642.83
582.008	56787.69
582.368	56712.66
582.728	56783.62
583.089	56722.15
583.449	56783.39
583.809	56790.63
584.169	56830.4
584.529	56822.49
584.889	57024.74
585.249	56876.27
585.609	56833.34
585.969	56951.53
586.329	56838.53
586.688	56927.8
587.048	56907.01
587.408	56858.42
587.768	56887.35
588.127	56874.24
588.487	56897.06
588.846	56987.91
589.206	56870.85
589.565	56905.88
589.925	57076.04
590.284	56975.48
590.643	56974.35
591.003	57031.52
591.362	57162.82
591.721	57045.31
592.08	57070.17
592.44	57115.36
592.799	57076.27
593.158	57048.92
593.517	57134.57
593.876	57168.47
594.235	57113.1
594.593	57107.45
594.952	57205.76
595.311	57118.3
595.67	57170.05
596.029	57385.19
596.387	57326.43
596.746	57429.93
597.104	57308.8
597.463	57352.19
597.822	57430.61
598.18	57271.29
598.538	57269.93
598.897	57442.59
599.255	57326.43
599.613	57589.25
599.972	57415.47
600.33	57449.14
600.688	57321.91
601.046	57533.66
601.404	57558.29
601.762	57426.54
602.12	57571.62
602.478	57494.34
602.836	57493.66
603.194	57412.3
603.552	57459.31
603.91	57401.68
604.268	57557.38
604.625	57370.05
604.983	57496.14
605.341	57356.49
605.698	57472.87
606.056	57631.73
606.413	57535.01
606.771	57591.73
607.128	57634.9
607.485	57599.87
607.843	57550.38
608.2	57770.26
608.557	57689.81
608.914	57710.15
609.272	57857.49
609.629	57879.64
609.986	57959.41
610.343	57879.18
610.7	58095.22
611.057	57983.59
611.414	57978.16
611.771	58044.6
612.127	58138.84
612.484	58091.61
612.841	58182.23
613.198	58112.85
613.554	58144.94
613.911	58260.42
614.267	58269
614.624	58184.04
614.98	58231.04
615.337	58450.02
615.693	58419.74
616.05	58340.64
616.406	58490.92
616.762	58373.63
617.118	58497.7
617.475	58476.91
617.831	58492.95
618.187	58526.62
618.543	58537.92
618.899	58613.63
619.255	58613.85
619.611	58566.4
619.967	58724.81
620.323	58725.04
620.678	58632.16
621.034	58578.83
621.39	58572.27
621.746	58544.25
622.101	58803.91
622.457	58623.12
622.812	58727.75
623.168	58733.4
623.523	58688.65
623.879	58745.15
624.234	58582.44
624.589	58663.12
624.945	58643.46
625.3	58695.66
625.655	58627.87
626.01	58621.99
626.365	58658.6
626.72	58595.32
627.075	58611.59
627.43	58530.24
627.785	58446.63
628.14	58492.73
628.495	58507.87
628.85	58405.05
629.205	58392.84
629.559	58488.89
629.914	58357.14
630.269	58394.43
630.623	58236.92
630.978	58255.9
631.332	58315.56
631.687	58354.2
632.041	58134.32
632.396	58210.48
632.75	58160.98
633.104	58164.83
633.459	58088.22
633.813	58063.13
634.167	58019.52
634.521	58010.93
634.875	58077.82
635.229	58003.7
635.583	57926.87
635.937	57931.84
636.291	57991.27
636.645	57994.66
636.999	57888.45
637.352	57929.13
637.706	57786.76
638.06	57905.85
638.413	57886.42
638.767	57777.27
639.121	57875.57
639.474	57688.91
639.828	57786.31
640.181	57814.55
640.534	57751.28
640.888	57718.74
641.241	57607.1
641.594	57640.09
641.947	57749.02
642.301	57601.45
642.654	57643.26
643.007	57652.52
643.36	57588.8
643.713	57568.46
644.066	57604.84
644.419	57500.21
644.771	57356.03
645.124	57070.62
645.477	57064.06
645.83	56883.96
646.182	56869.04
646.535	56691.19
646.888	56744.98
647.24	56555.15
647.593	56712.89
647.945	56651.87
648.298	56499.56
648.65	56452.33
649.002	56327.81
649.355	56439.45
649.707	56419.56
650.059	56544.98
650.411	56817.29
650.763	56773.22
651.115	57128.7
651.467	56944.52
651.819	56893.9
652.171	56862.49
652.523	56748.59
652.875	56657.75
653.227	56626.11
653.578	56790.85
653.93	56763.51
654.282	56555.6
654.633	56450.07
654.985	56565.77
655.337	56570.52
655.688	56551.54
656.039	56541.14
656.391	56342.95
656.742	56310.64
657.094	56331.43
657.445	56434.7
657.796	56408.49
658.147	56359.9
658.498	56240.81
658.849	56337.98
659.2	56162.62
659.551	56226.57
659.902	56241.94
660.253	56128.27
660.604	56209.62
660.955	56109.06
661.306	56182.51
661.656	56107.25
662.007	56090.53
662.358	56101.38
662.708	56030.19
663.059	56002.4
663.409	55891.89
663.76	56066.35
664.11	55998.56
664.461	56027.71
664.811	56123.98
665.161	56040.81
665.511	56019.8
665.862	56055.28
666.212	56175.05
666.562	56109.97
666.912	55994.94
667.262	56019.8
667.612	55951.55
667.962	56069.74
668.312	56006.69
668.662	56164.65
669.011	56036.75
669.361	55998.56
669.711	55945.45
670.06	55900.03
670.41	55922.17
670.76	55855.51
671.109	55913.13
671.459	55934.6
671.808	55859.35
672.157	55874.72
672.507	55721.05
672.856	55660.03
673.205	55759.01
673.554	55832.46
673.904	55744.33
674.253	55848.05
674.602	55708.85
674.951	55272.25
675.3	55126.71
675.649	55546.14
675.998	55566.25
676.346	55522.64
676.695	55649.41
677.044	55419.81
677.393	55453.26
677.741	55472.02
678.09	55343.43
678.438	55276.54
678.787	55352.02
679.135	55333.26
679.484	55124.45
679.832	55179.82
680.181	54949.09
680.529	55072.7
680.877	54969.66
681.225	54961.75
681.573	55137.11
681.922	54871.58
682.27	54725.82
682.618	54811.24
682.966	54718.36
683.314	54825.03
683.661	54679.72
684.009	54535.32
684.357	54530.57
684.705	54407.86
685.053	54526.05
685.4	54359.28
685.748	54181.43
686.095	54279.96
686.443	54140.07
686.79	53990.47
687.138	54157.25
687.485	54044.03
687.832	53889.91
688.18	53990.47
688.527	53795.9
688.874	53762
689.221	53719.75
689.568	53611.95
689.915	53643.59
690.262	53505.74
690.609	53342.13
690.956	53303.94
691.303	53283.37
691.65	53095.36
691.997	53152.53
692.344	52928.81
692.69	52929.26
693.037	52986.43
693.383	52748.7
693.73	52738.53
694.077	52657.85
694.423	52670.73
694.769	52533.34
695.116	52499.44
695.462	52467.8
695.808	52169.28
696.155	52341.48
696.501	52051.31
696.847	52058.55
697.193	51942.39
697.539	52007.93
697.885	51750.08
698.231	51707.37
698.577	51701.27
698.923	51602.51
699.269	51489.52
699.614	51399.13
699.96	51352.35
700.306	51335.18
700.651	51141.73
700.997	51053.6
701.342	51113.03
701.688	50940.84
702.033	50814.96
702.379	50734.29
702.724	50734.06
703.069	50822.42
703.415	50389.21
703.76	50408.19
704.105	50339.95
704.45	50265.15
704.795	50057.24
705.14	50053.63
705.485	49929.56
705.83	49784.26
706.175	49737.93
706.52	49683.69
706.865	49509.91
707.209	49391.27
707.554	49334.78
707.899	49460.87
708.243	49116.48
708.588	49141.11
708.932	48837.61
709.277	48744.96
709.621	48822.02
709.966	48582.03
710.31	48627.45
710.654	48367.12
710.998	48443.5
711.342	48381.35
711.687	48253.22
712.031	48162.83
712.375	47846.91
712.719	47985.21
713.063	47835.15
713.407	47913.12
713.75	47639.45
714.094	47620.25
714.438	47442.17
714.782	47504.99
715.125	47246.92
715.469	47227.71
715.812	47133.48
716.156	46955.63
716.499	46759.25
716.843	46975.29
717.186	46617.33
717.53	46815.52
717.873	46737.56
718.216	46546.15
718.559	46505.92
718.902	46107.74
719.246	46262.99
719.589	46069.1
719.932	45893.06
720.275	45896.9
720.617	45975.09
720.96	45743.91
721.303	45736.9
721.646	45802.21
721.989	45544.82
722.331	45739.39
722.674	45435.44
723.016	45486.29
723.359	45348.67
723.701	45333.98
724.044	45324.94
724.386	44958.62
724.729	45061.89
725.071	44799.3
725.413	44889.92
725.755	44860.32
726.097	44681.11
726.439	44489.71
726.782	44564.73
727.124	44565.64
727.465	44332.65
727.807	44443.38
728.149	44394.12
728.491	44364.29
728.833	44365.19
729.175	44286.77
729.516	44175.59
729.858	44080.23
730.199	44082.94
730.541	43959.1
730.882	43971.75
731.224	44155.25
731.565	43738.31
731.906	43724.75
732.248	43799.78
732.589	43604.08
732.93	43518.66
733.271	43571.54
733.612	43508.04
733.953	43627.81
734.294	43426.46
734.635	43373.35
734.976	43436.63
735.317	43246.35
735.658	43191.66
735.999	43163.41
736.339	43020.59
736.68	43125.67
737.021	43035.73
737.361	42776.3
737.702	42899.01
738.042	42744.44
738.383	42695.18
738.723	42626.93
739.063	42569.3
739.404	42537.21
739.744	42301.29
740.084	42287.05
740.424	42298.35
740.764	42229.2
741.104	42203.21
741.444	41927.06
741.784	41864.92
742.124	41833.28
742.464	41841.41
742.804	41796.44
743.143	41497.02
743.483	41786.05
743.823	41420.41
744.162	41450.46
744.502	41381.54
744.841	41214.76
745.181	41415.44
745.52	41163.69
745.86	41131.15
746.199	40966.41
746.538	40920.53
746.877	40947.65
747.216	41021.32
747.556	40719.41
747.895	40712.18
748.234	40425.18
748.573	40410.72
748.911	40417.04
749.25	40395.58
749.589	40122.82
749.928	40143.61
750.267	40201.91
750.605	39920.56
750.944	39766.67
751.283	39675.14
751.621	39766.44
751.96	39461.82
752.298	39438.77
752.636	39556.05
752.975	39344.76
753.313	39226.79
753.651	39230.64
753.989	39008.04
754.327	38941.15
754.666	38885.33
755.004	38842.62
755.342	38935.73
755.679	38724.21
756.017	38467.94
756.355	38579.13
756.693	38383.65
757.031	38429.07
757.368	38309.76
757.706	38200.15
758.044	38054.17
758.381	38080.16
758.719	37935.3
759.056	37814.4
759.394	37823.67
759.731	37611.47
760.068	37513.17
760.405	37462.32
760.743	37202.89
761.08	37286.96
761.417	37136.9
761.754	37084.48
762.091	36986.4
762.428	36774.88
762.765	36693.53
763.102	36870.02
763.438	36612.17
763.775	36540.76
764.112	36453.31
764.449	36339.19
764.785	36345.06
765.122	35987.1
765.458	35937.16
765.795	35916.15
766.131	35857.39
766.467	35617.62
766.804	35417.4
767.14	35411.53
767.476	35335.14
767.812	35164.75
768.148	35192.1
768.485	35054.47
768.821	34898.77
769.157	34863.97
769.492	34695.84
769.828	34716.18
770.164	34399.8
770.5	34348.5
770.836	34405.68
771.171	34165.68
771.507	34064.44
771.842	33844.34
772.178	33649.09
772.513	33788.52
772.849	33661.06
773.184	33570.44
773.519	33481.86
773.855	33246.84
774.19	33070.8
774.525	33006.62
774.86	32967.07
775.195	32935.43
775.53	32755.78
775.865	32409.8
776.2	32178.17
776.535	32088.9
776.87	32025.4
777.205	32077.6
777.539	31911.28
777.874	32048.45
778.209	31598.52
778.543	31675.81
778.878	31478.07
779.212	31240.11
779.547	31176.84
779.881	31169.38
780.215	30918.99
780.55	30995.15
780.884	30648.71
781.218	30592.67
781.552	30428.61
781.886	30484.2
782.22	30254.37
782.554	30056.19
782.888	29859.36
783.222	29740.49
783.556	29582.98
783.889	29454.62
784.223	29298.69
784.557	29388.63
784.89	29316.55
785.224	29133.5
785.557	28980.74
785.891	28916.1
786.224	28856.9
786.558	28770.57
786.891	28374.65
787.224	28371.49
787.557	28253.3
787.891	28273.41
788.224	28151.38
788.557	28135.56
788.89	28095.11
789.223	27982.8
789.556	27785.51
789.888	27657.38
790.221	27527.44
790.554	27403.38
790.887	27559.76
791.219	27224.17
791.552	27174.45
791.884	27114.57
792.217	26983.27
792.549	26884.29
792.882	26659.21
793.214	26686.11
793.546	26722.26
793.879	26495.83
794.211	26251.32
794.543	26343.97
794.875	26192.33
795.207	26282.5
795.539	26134.26
795.871	26032.79
796.203	25883.19
796.535	25797.99
796.867	25757.54
797.198	25698.79
797.53	25610.2
797.862	25466.48
798.193	25501.96
798.525	25266.03
798.856	25328.63
799.188	25047.73
799.519	25066.71
799.85	24870.11
800.182	24988.3
800.513	24934.51
800.844	24820.62
801.175	24869.88
801.506	24800.51
801.837	24621.08
802.168	24591.47
802.499	24525.71
802.83	24450.68
803.161	24385.6
803.491	24346.51
803.822	24376.56
804.153	24219.28
804.483	24082.33
804.814	23960.98
805.145	23941.77
805.475	23924.82
805.805	23871.04
806.136	23828.33
806.466	23882.56
806.796	23765.96
807.126	23598.05
807.457	23502.24
807.787	23520.31
808.117	23340.88
808.447	23393.09
808.777	23502.69
809.107	23203.03
809.436	23253.43
809.766	23345.63
810.096	23158.06
810.426	22999.2
810.755	22990.16
811.085	23083.94
811.414	22994.45
811.744	22790.39
812.073	22775.02
812.403	22739.54
812.732	22510.17
813.061	22486.44
813.39	22437.18
813.719	22326.22
814.049	22509.72
814.378	22409.83
814.707	22310.4
815.036	22302.27
815.365	22174.59
815.693	21949.73
816.022	22041.26
816.351	21908.38
816.68	21875.39
817.008	21863.41
817.337	21713.81
817.665	21658.22
817.994	21686.24
818.322	21700.47
818.651	21359.92
818.979	21301.84
819.307	21482.85
819.636	21338.9
819.964	21260.26
820.292	21401.95
820.62	21264.33
820.948	21254.84
821.276	21215.29
821.604	21265.01
821.932	21240.83
822.259	21206.48
822.587	21146.14
822.915	21080.83
823.243	21152.47
823.57	21035.18
823.898	21085.58
824.225	20947.27
824.553	21024.56
824.88	21041.28
825.207	21070.43
825.535	21053.94
825.862	21011.68
826.189	20891.68
826.516	21026.37
826.843	20992.92
827.17	20984.11
827.497	20930.33
827.824	20911.79
828.151	20908.18
828.478	20852.14
828.805	20807.62
829.131	20728.3
829.458	20733.49
829.785	20612.14
830.111	20693.04
830.438	20869.54
830.764	20796.77
831.09	20717.22
831.417	20571.46
831.743	20718.58
832.069	20684
832.395	20548.64
832.722	20631.58
833.048	20528.3
833.374	20614.63
833.7	20450.34
834.026	20521.97
834.351	20531.47
834.677	20435.2
835.003	20538.7
835.329	20470.22
835.654	20411.92
835.98	20466.83
836.306	20404.69
836.631	20277.46
836.956	20386.38
837.282	20343.67
837.607	20121.76
837.932	20246.73
838.258	20158.14
838.583	20172.15
838.908	20021.42
839.233	20150.01
839.558	20150.46
839.883	19942.55
840.208	19938.94
840.533	19992.95
840.858	20022.78
841.182	19973.06
841.507	19938.71
841.832	19844.48
842.156	19797.7
842.481	19801.54
842.805	19826.4
843.13	19747.53
843.454	19685.61
843.778	19720.19
844.103	19618.27
844.427	19602.45
844.751	19547.54
845.075	19606.97
845.399	19496.46
845.723	19410.14
846.047	19418.27
846.371	19251.27
846.695	19250.82
847.019	19172.86
847.343	19063.71
847.666	19023.71
847.99	18872.75
848.313	18922.92
848.637	18777.61
848.96	18779.2
849.284	18679.54
849.607	18580.78
849.931	18611.74
850.254	18407
850.577	18317.74
850.9	18276.84
851.223	18305.76
851.546	18106.9
851.869	18028.25
852.192	18125.88
852.515	17873
852.838	17851.08
853.161	17887.02
853.483	17786.23
853.806	17771.31
854.129	17734.03
854.451	17666.68
854.774	17533.58
855.096	17468.72
855.419	17444.09
855.741	17346.01
856.063	17236.86
856.385	17190.99
856.708	17191.44
857.03	17121.84
857.352	17120.26
857.674	16987.38
857.996	17011.33
858.318	16911.9
858.64	16908.51
858.961	16775.86
859.283	16758.23
859.605	16746.71
859.926	16665.13
860.248	16573.6
860.57	16581.97
860.891	16607.5
861.212	16442.53
861.534	16430.78
861.855	16406.15
862.176	16418.81
862.498	16356.21
862.819	16244.8
863.14	16220.39
863.461	16228.08
863.782	16052.26
864.103	16146.95
864.424	16038.02
864.745	16102.2
865.065	15998.25
865.386	15956.9
865.707	15913.28
866.027	15880.51
866.348	15880.51
866.668	15870.57
866.989	15909.89
867.309	15735.21
867.63	15747.86
867.95	15639.39
868.27	15607.98
868.59	15639.84
868.91	15558.94
869.23	15547.19
869.55	15543.8
869.87	15476.01
870.19	15462.45
870.51	15471.71
870.83	15421.32
871.15	15309.46
871.469	15365.5
871.789	15304.03
872.109	15293.41
872.428	15147.2
872.748	15206.18
873.067	15138.61
873.386	15194.88
873.706	15163.92
874.025	15102.68
874.344	15096.58
874.663	15123.25
874.982	15074.89
875.301	14932.52
875.62	14974.32
875.939	14848.23
876.258	14984.04
876.577	14850.26
876.896	14880.99
877.214	14848.9
877.533	14852.97
877.852	14768.23
878.17	14708.34
878.489	14726.65
878.807	14802.8
879.125	14650.94
879.444	14622.24
879.762	14537.95
880.08	14620.66
880.398	14537.5
880.716	14537.95
881.034	14520.32
881.352	14554.22
881.67	14449.14
881.988	14478.29
882.306	14430.16
882.624	14265.87
882.941	14374.34
883.259	14260.67
883.577	14319.2
883.894	14212.99
884.212	14209.6
884.529	14263.38
884.846	14144.74
885.164	14123.72
885.481	14008.7
885.798	14031.75
886.115	13999.43
886.432	14007.12
886.75	14030.17
887.067	13984.97
887.383	13874.47
887.7	13911.75
888.017	13900
888.334	13863.39
888.651	13832.88
888.967	13877.4
889.284	13787.69
889.6	13642.16
889.917	13646.9
890.233	13641.48
890.55	13523.97
890.866	13653.68
891.182	13575.04
891.498	13549.95
891.815	13487.81
892.131	13391.09
892.447	13441.93
892.763	13399.22
893.079	13356.29
893.395	13342.95
893.71	13283.75
894.026	13275.84
894.342	13237.19
894.657	13231.54
894.973	13144.77
895.289	13169.4
895.604	13159
895.92	12935.96
896.235	12970.99
896.55	12987.94
896.865	12912.46
897.181	12914.94
897.496	12833.14
897.811	12850.99
898.126	12752.91
898.441	12788.84
898.756	12626.81
899.071	12637.66
899.386	12623.2
899.7	12483.54
900.015	12551.79
900.33	12448.29
900.644	12383.43
900.959	12457.78
901.273	12387.27
901.588	12385.24
901.902	12330.78
902.216	12210.55
902.531	12265.92
902.845	12160.39
903.159	12074.96
903.473	12090.56
903.787	12039.26
904.101	11990.45
904.415	11988.41
904.729	11890.56
905.042	11854.63
905.356	11854.41
905.67	11806.95
905.984	11722.43
906.297	11667.97
906.611	11574.19
906.924	11618.93
907.237	11538.03
907.551	11499.84
907.864	11468.43
908.177	11509.56
908.491	11402.44
908.804	11281.31
909.117	11342.33
909.43	11232.05
909.743	11143.01
910.056	11167.87
910.368	11103.24
910.681	10999.74
910.994	11006.52
911.307	10930.59
911.619	10863.25
911.932	10843.58
912.244	10836.81
912.557	10735.79
912.869	10753.19
913.181	10671.39
913.494	10680.2
913.806	10611.05
914.118	10522.24
914.43	10429.58
914.742	10400.43
915.054	10346.2
915.366	10357.72
915.678	10352.52
915.99	10251.74
916.302	10160.44
916.613	10065.98
916.925	10061.46
917.236	10064.17
917.548	10030.72
917.859	10041.12
918.171	9913.21
918.482	9828.24
918.794	9814.91
919.105	9812.65
919.416	9668.25
919.727	9647.91
920.038	9670.51
920.349	9503.28
920.66	9475.03
920.971	9480.23
921.282	9480.46
921.593	9386.67
921.903	9280.24
922.214	9266.9
922.525	9286.34
922.835	9209.96
923.146	9134.7
923.456	9092.9
923.767	9003.41
924.077	8998.44
924.387	8927.03
924.697	8910.75
925.008	8838.89
925.318	8847.93
925.628	8840.93
925.938	8785.33
926.248	8630.08
926.558	8645.68
926.867	8652.46
927.177	8506.25
927.487	8532.23
927.796	8481.84
928.106	8518.67
928.416	8419.69
928.725	8478
929.034	8343.76
929.344	8334.95
929.653	8336.08
929.962	8284.1
930.271	8251.34
930.581	8121.17
930.89	8114.62
931.199	8050.21
931.508	8044.79
931.817	8032.59
932.125	8001.85
932.434	7941.97
932.743	7875.98
933.051	7863.55
933.36	7815.64
933.669	7751.91
933.977	7755.08
934.286	7719.83
934.594	7731.35
934.902	7662.2
935.21	7609.55
935.519	7605.25
935.827	7571.13
936.135	7517.12
936.443	7459.49
936.751	7403.9
937.059	7465.82
937.367	7405.03
937.674	7346.5
937.982	7365.03
938.29	7265.15
938.597	7256.33
938.905	7205.94
939.213	7175.43
939.52	7146.51
939.827	7112.84
940.135	7122.55
940.442	7089.11
940.749	7060.86
941.056	7070.8
941.363	7005.04
941.67	7013.63
941.977	6959.17
942.284	6908.1
942.591	6906.97
942.898	6857.25
943.205	6875.78
943.511	6831.26
943.818	6755.56
944.125	6724.82
944.431	6766.18
944.738	6758.04
945.044	6706.74
945.35	6730.25
945.657	6651.38
945.963	6613.64
946.269	6594.43
946.575	6640.08
946.881	6512.63
947.187	6477.37
947.493	6445.28
947.799	6559.86
948.105	6444.38
948.41	6431.05
948.716	6440.76
949.022	6404.38
949.327	6405.06
949.633	6249.36
949.938	6397.15
950.244	6294.1
950.549	6225.63
950.854	6253.2
951.16	6231.95
951.465	6205.51
951.77	6164.16
952.075	6149.47
952.38	6151.05
952.685	6145.63
952.99	6100.66
953.294	6099.08
953.599	6068.12
953.904	6038.51
954.209	5933.66
954.513	5954.22
954.818	5938.63
955.122	5940.66
955.426	5904.96
955.731	5877.39
956.035	5829.03
956.339	5786.54
956.643	5858.18
956.948	5781.12
957.252	5780.67
957.556	5725.08
957.86	5681.23
958.163	5709.26
958.467	5675.13
958.771	5645.53
959.075	5679.43
959.378	5605.08
959.682	5583.38
959.985	5546.32
960.289	5532.99
960.592	5508.58
960.896	5444.63
961.199	5492.54
961.502	5439.21
961.805	5405.99
962.108	5397.63
962.411	5368.47
962.714	5365.54
963.017	5321.24
963.32	5370.28
963.623	5291.87
963.926	5270.62
964.228	5234.24
964.531	5171.64
964.833	5127.8
965.136	5138.88
965.438	5130.97
965.741	5073.12
966.043	5035.6
966.345	5079.67
966.648	5056.62
966.95	5000.12
967.252	4968.49
967.554	4947.02
967.856	4925.1
968.158	4873.12
968.46	4903.4
968.761	4835.83
969.063	4824.31
969.365	4816.17
969.666	4783.41
969.968	4723.75
970.269	4732.79
970.571	4657.76
970.872	4690.75
971.174	4644.2
971.475	4605.33
971.776	4606.23
972.077	4560.13
972.378	4536.63
972.679	4576.18
972.98	4495.28
973.281	4477.65
973.582	4495.28
973.883	4411.44
974.183	4385.9
974.484	4402.85
974.785	4396.07
975.085	4333.47
975.386	4394.49
975.686	4332.34
975.986	4293.02
976.287	4253.7
976.587	4225.45
976.887	4205.57
977.187	4231.56
977.487	4151.56
977.787	4164.66
978.087	4128.51
978.387	4154.27
978.687	4157.89
978.987	4048.96
979.286	4065.01
979.586	4029.75
979.885	3994.5
980.185	4004.67
980.484	3941.17
980.784	3942.75
981.083	3966.03
981.382	3932.35
981.682	3893.94
981.981	3863.43
982.28	3868.18
982.579	3779.36
982.878	3831.34
983.177	3766.71
983.475	3806.48
983.774	3753.83
984.073	3724.68
984.372	3688.97
984.67	3646.71
984.969	3619.14
985.267	3653.04
985.566	3616.43
985.864	3623.44
986.162	3528.98
986.461	3567.84
986.759	3584.11
987.057	3527.85
987.355	3508.64
987.653	3493.27
987.951	3462.99
988.249	3451.01
988.547	3444.23
988.844	3397.68
989.142	3430.45
989.44	3427.96
989.737	3400.16
990.035	3343.9
990.332	3348.19
990.63	3344.35
990.927	3279.72
991.224	3292.82
991.521	3263.22
991.819	3262.77
992.116	3285.59
992.413	3267.29
992.71	3215.76
993.006	3222.99
993.303	3216.44
993.6	3180.06
993.897	3191.13
994.193	3157.69
994.49	3138.48
994.787	3137.12
995.083	3119.49
995.379	3044.47
995.676	3071.59
995.972	3065.94
996.268	3012.83
996.565	3002.89
996.861	3002.44
997.157	2983
997.453	2988.65
997.749	2954.98
998.044	2964.47
998.34	2918.82
998.636	2966.5
998.932	2924.47
999.227	2865.26
999.523	2890.8
999.818	2889.44
1000.114	2856.68
1000.409	2856.9
1000.704	2811.48
1001	2834.53
1001.295	2804.93
1001.59	2761.54
1001.885	2751.82
1002.18	2771.25
1002.475	2744.81
1002.77	2748.66
1003.065	2733.29
1003.359	2686.96
1003.654	2687.64
1003.949	2682.9
1004.243	2667.3
1004.538	2660.52
1004.832	2651.71
1005.127	2619.62
1005.421	2627.76
1005.715	2599.28
1006.009	2577.14
1006.304	2569.9
1006.598	2549.79
1006.892	2522.22
1007.186	2507.08
1007.48	2514.09
1007.773	2490.58
1008.067	2493.97
1008.361	2445.39
1008.655	2440.64
1008.948	2439.96
1009.242	2442.22
1009.535	2415.11
1009.829	2436.35
1010.122	2367.65
1010.415	2370.14
1010.708	2376.91
1011.001	2354.09
1011.295	2354.09
1011.588	2336.24
1011.881	2331.72
1012.173	2301.66
1012.466	2310.25
1012.759	2296.24
1013.052	2278.84
1013.344	2250.36
1013.637	2253.75
1013.93	2209.46
1014.222	2234.32
1014.514	2220.31
1014.807	2193.64
1015.099	2179.41
1015.391	2146.86
1015.683	2169.69
1015.976	2153.64
1016.268	2135.34
1016.56	2101.89
1016.851	2087.21
1017.143	2101.67
1017.435	2048.56
1017.727	2032.52
1018.018	2020.09
1018.31	1995
1018.602	2031.39
1018.893	2031.16
1019.185	1966.53
1019.476	1988.68
1019.767	1995.91
1020.058	1964.04
1020.35	1924.05
1020.641	1912.29
1020.932	1903.48
1021.223	1900.77
1021.514	1901.9
1021.804	1859.41
1022.095	1876.36
1022.386	1814.44
1022.677	1816.03
1022.967	1793.65
1023.258	1814.44
1023.548	1806.99
1023.839	1763.82
1024.129	1787.33
1024.419	1769.02
1024.709	1733.32
1025	1750.94
1025.29	1726.08
1025.58	1709.59
1025.87	1706.65
1026.16	1663.49
1026.449	1670.49
1026.739	1682.02
1027.029	1638.63
1027.319	1638.63
1027.608	1633.43
1027.898	1615.13
1028.187	1612.64
1028.477	1597.05
1028.766	1608.57
1029.055	1561.34
1029.344	1528.8
1029.634	1545.98
1029.923	1567.22
1030.212	1521.57
1030.501	1505.75
1030.79	1506.66
1031.078	1499.2
1031.367	1468.01
1031.656	1468.24
1031.945	1439.54
1032.233	1431.18
1032.522	1422.36
1032.81	1427.34
1033.099	1407.45
1033.387	1391.86
1033.675	1397.51
1033.963	1383.04
1034.251	1394.12
1034.54	1399.31
1034.828	1348.24
1035.116	1335.13
1035.403	1342.37
1035.691	1336.72
1035.979	1302.14
1036.267	1289.26
1036.554	1299.66
1036.842	1305.98
1037.129	1262.59
1037.417	1261.92
1037.704	1257.85
1037.992	1239.54
1038.279	1211.07
1038.566	1208.13
1038.853	1208.13
1039.14	1208.13
