Data from white_wall_FLMS001491_047.txt Node
Date: Tue Feb 07 11:04:35 GMT 2017
User: dcchb
Spectrometer: FLMS00149
Trigger mode: 0
Integration Time (sec): 2.000000E-2
Scans to average: 10
Electric dark correction enabled: true
Nonlinearity correction enabled: false
Boxcar width: 0
XAxis mode: Wavelengths
Number of Pixels in Spectrum: 2048
>>>>>Begin Spectral Data<<<<<
341.393	-6.88
341.776	-6.88
342.16	-6.88
342.543	-73.32
342.927	-85.75
343.31	-70.83
343.693	-78.06
344.077	-62.24
344.46	-51.62
344.843	-45.52
345.226	-36.93
345.61	-18.18
345.993	-7.1
346.376	-14.79
346.759	21.37
347.142	23.4
347.525	43.52
347.908	47.58
348.291	80.35
348.674	75.61
349.057	93.46
349.44	119.9
349.823	139.11
350.206	148.82
350.588	220.69
350.971	228.6
351.354	225.88
351.737	261.59
352.119	266.79
352.502	284.19
352.884	296.62
353.267	277.86
353.65	297.29
354.032	309.05
354.414	316.73
354.797	320.34
355.179	341.81
355.562	329.16
355.944	342.94
356.326	330.74
356.709	350.63
357.091	353.34
357.473	357.18
357.855	343.17
358.238	367.58
358.62	353.56
359.002	356.5
359.384	350.17
359.766	370.29
360.148	351.3
360.53	357.18
360.912	338.42
361.294	344.07
361.676	349.95
362.057	346.11
362.439	322.38
362.821	342.49
363.203	344.75
363.584	345.43
363.966	318.31
364.348	332.1
364.729	334.58
365.111	342.72
365.493	341.14
365.874	326.9
366.256	344.52
366.637	340.01
367.019	330.29
367.4	338.65
367.781	330.06
368.163	329.84
368.544	327.35
368.925	311.98
369.306	328.25
369.688	346.56
370.069	316.73
370.45	345.2
370.831	325.32
371.212	325.54
371.593	322.6
371.974	326.22
372.355	346.78
372.736	318.54
373.117	338.88
373.498	323.06
373.879	342.04
374.26	321.7
374.641	329.38
375.021	343.17
375.402	344.52
375.783	342.94
376.163	329.84
376.544	366.9
376.925	351.98
377.305	328.48
377.686	349.95
378.066	331.87
378.447	331.42
378.827	359.44
379.208	360.57
379.588	371.64
379.968	347.46
380.349	348.82
380.729	375.48
381.109	375.03
381.489	365.09
381.87	385.65
382.25	391.76
382.63	356.95
383.01	384.07
383.39	377.07
383.77	358.08
384.15	398.99
384.53	380.23
384.91	382.94
385.29	390.4
385.67	374.13
386.049	415.94
386.429	396.05
386.809	410.51
387.189	398.53
387.568	405.09
387.948	399.89
388.328	412.77
388.707	411.64
389.087	405.09
389.466	413
389.846	427.91
390.225	412.32
390.605	424.75
390.984	427.91
391.363	446.67
391.743	432.66
392.122	442.6
392.501	450.06
392.881	448.7
393.26	458.19
393.639	469.95
394.018	477.4
394.397	487.57
394.776	485.09
395.155	486.89
395.534	521.24
395.913	487.57
396.292	515.82
396.671	524.41
397.05	522.6
397.429	523.05
397.808	542.49
398.186	539.1
398.565	568.93
398.944	553.56
399.323	559.43
399.701	588.81
400.08	572.77
400.458	580
400.837	584.07
401.215	629.72
401.594	601.24
401.972	620.45
402.351	660.45
402.729	676.04
403.107	683.5
403.486	670.62
403.864	668.13
404.242	707
404.62	705.87
404.999	725.31
405.377	752.2
405.755	732.99
406.133	748.81
406.511	754.01
406.889	777.96
407.267	791.07
407.645	792.65
408.023	806.21
408.401	837.17
408.779	825.42
409.156	896.83
409.534	864.51
409.912	883.04
410.29	914
410.667	898.86
411.045	929.37
411.422	941.57
411.8	963.72
412.178	969.14
412.555	975.69
412.933	1002.36
413.31	1032.87
413.687	1054.34
414.065	1055.24
414.442	1074.22
414.819	1092.3
415.197	1088.46
415.574	1137.27
415.951	1153.09
416.328	1147.22
416.705	1143.37
417.082	1144.5
417.46	1176.14
417.837	1213.65
418.214	1205.97
418.591	1202.13
418.967	1231.96
419.344	1229.93
419.721	1253.2
420.098	1251.17
420.475	1292.07
420.852	1293.2
421.228	1310.38
421.605	1319.64
421.982	1340.43
422.358	1327.32
422.735	1344.27
423.111	1367.55
423.488	1352.86
423.864	1371.84
424.241	1419.3
424.617	1443.93
424.994	1454.55
425.37	1462.46
425.746	1432.18
426.123	1474.89
426.499	1498.17
426.875	1538.62
427.251	1539.07
427.627	1588.56
428.003	1613.87
428.379	1615.9
428.756	1650.71
429.132	1627.2
429.507	1679.4
429.883	1679.86
430.259	1710.82
430.635	1752.85
431.011	1741.55
431.387	1763.47
431.763	1807.09
432.138	1803.24
432.514	1842.34
432.89	1859.51
433.265	1916.69
433.641	1899.29
434.016	1977.25
434.392	1982.67
434.767	2003.92
435.143	1985.61
435.518	2039.62
435.894	2050.02
436.269	2079.62
436.644	2136.79
437.02	2104.93
437.395	2151.48
437.77	2153.29
438.145	2218.83
438.52	2222.22
438.895	2246.85
439.271	2284.36
439.646	2318.26
440.021	2371.36
440.395	2355.77
440.77	2334.98
441.145	2338.37
441.52	2388.09
441.895	2450.46
442.27	2428.99
442.645	2445.94
443.019	2508.08
443.394	2487.29
443.769	2529.55
444.143	2512.38
444.518	2548.08
444.892	2550.34
445.267	2568.65
445.641	2597.35
446.016	2614.75
446.39	2645.26
446.764	2642.77
447.139	2663.33
447.513	2704.91
447.887	2711.92
448.262	2742.2
448.636	2739.26
449.01	2772.26
449.384	2858.58
449.758	2796.44
450.132	2865.14
450.506	2905.36
450.88	2922.31
451.254	2911.24
451.628	2933.61
452.002	2996.88
452.376	3031.46
452.75	3083.89
453.123	3094.96
453.497	3119.59
453.871	3140.61
454.244	3200.95
454.618	3233.04
454.992	3308.97
455.365	3301.28
455.739	3337.67
456.112	3430.77
456.486	3416.08
456.859	3440.71
457.232	3547.15
457.606	3548.96
457.979	3600.03
458.352	3643.87
458.725	3682.74
459.099	3736.53
459.472	3842.51
459.845	3798.45
460.218	3887.26
460.591	3925.22
460.964	3879.8
461.337	4059
461.71	4105.56
462.083	4154.14
462.456	4154.14
462.829	4197.3
463.201	4315.49
463.574	4295.83
463.947	4414.93
464.32	4406.79
464.692	4503.29
465.065	4538.99
465.438	4611.53
465.81	4661.47
466.183	4712.77
466.555	4844.07
466.928	4835.93
467.3	4820.11
467.672	4958.19
468.045	5088.13
468.417	5064.85
468.789	5128.35
469.161	5197.5
469.534	5315.92
469.906	5418.97
470.278	5381.91
470.65	5527.67
471.022	5619.19
471.394	5724.5
471.766	5794.78
472.138	5849.01
472.51	5955.9
472.882	6090.14
473.253	6157.71
473.625	6219.4
473.997	6364.93
474.369	6388.21
474.74	6493.52
475.112	6542.55
475.484	6727.18
475.855	6822.09
476.227	6935.31
476.598	7131.24
476.97	7133.95
477.341	7341.18
477.713	7476.54
478.084	7446.94
478.455	7753.82
478.827	7818.23
479.198	8041.27
479.569	8076.07
479.94	8296.18
480.311	8324.43
480.682	8585.44
481.053	8742.04
481.424	8818.2
481.795	8941.13
482.166	9113.79
482.537	9191.52
482.908	9446.21
483.279	9547.67
483.65	9736.14
484.021	9875.35
484.391	9977.49
484.762	10118.51
485.133	10145.17
485.503	10379.74
485.874	10635.1
486.244	10713.07
486.615	10899.5
486.985	11009.33
487.356	11273.28
487.726	11393.95
488.097	11579.94
488.467	11630.1
488.837	11907.38
489.207	11941.96
489.578	12229.86
489.948	12310.54
490.318	12526.35
490.688	12562.73
491.058	12792.11
491.428	12937.41
491.798	13096.05
492.168	13404.07
492.538	13429.15
492.908	13651.07
493.278	13718.86
493.648	13796.6
494.017	14051.96
494.387	14170.15
494.757	14263.03
495.126	14495.34
495.496	14516.81
495.866	14584.38
496.235	14738.27
496.605	14926.29
496.974	14989.79
497.344	15164.7
497.713	15307.07
498.082	15364.92
498.452	15521.75
498.821	15594.75
499.19	15689.66
499.559	15921.06
499.928	16001.74
500.298	16085.35
500.667	16259.36
501.036	16265.24
501.405	16505.91
501.774	16524.66
502.143	16816.18
502.512	16785.67
502.88	17039.91
503.249	17006.46
503.618	17147.47
503.987	17277.64
504.356	17401.7
504.724	17521.25
505.093	17585.88
505.462	17726.67
505.83	17996.49
506.199	18009.37
506.567	18141.8
506.936	18262.7
507.304	18521.67
507.672	18565.51
508.041	18640.54
508.409	18893.19
508.777	18931.61
509.145	19143.8
509.514	19224.93
509.882	19442.1
510.25	19501.31
510.618	19715.99
510.986	19690.68
511.354	19914.86
511.722	20182.65
512.09	20263.32
512.458	20281.18
512.826	20487.05
513.193	20637.55
513.561	20721.16
513.929	20861.05
514.297	21064.21
514.664	21284.99
515.032	21315.05
515.4	21537.64
515.767	21610.41
516.135	21737.18
516.502	21708.26
516.869	22205.87
517.237	22160
517.604	22197.28
517.972	22486.77
518.339	22675.01
518.706	22864.16
519.073	22965.17
519.44	23097.15
519.808	23232.51
520.175	23258.5
520.542	23684.48
520.909	23763.12
521.276	23804.47
521.643	24142.77
522.009	24282.43
522.376	24476.09
522.743	24634.96
523.11	24892.13
523.477	25136.19
523.843	25216.87
524.21	25420.7
524.577	25696.17
524.943	25812.33
525.31	25922.61
525.676	26199.44
526.043	26318.98
526.409	26399.88
526.776	26818.41
527.142	26734.79
527.508	26901.79
527.874	27265.62
528.241	27355.11
528.607	27276.7
528.973	27722.56
529.339	27682.79
529.705	27920.07
530.071	28200.74
530.437	28305.6
530.803	28459.27
531.169	28616.1
531.535	28622.2
531.901	28764.12
532.267	28974.73
532.632	29193.26
532.998	29215.63
533.364	29543.76
533.73	29586.24
534.095	29823.75
534.461	29841.83
534.826	30068.04
535.192	30186.23
535.557	30488.37
535.923	30327.47
536.288	30438.65
536.653	30688.13
537.019	30570.85
537.384	30748.02
537.749	30991.85
538.114	31153.88
538.479	31140.78
538.845	31319.3
539.21	31330.15
539.575	31610.6
539.94	31650.82
540.305	31861.44
540.67	31875.9
541.034	31937.59
541.399	32121.99
541.764	32190.92
542.129	32415.55
542.494	32449.44
542.858	32684.69
543.223	32601.98
543.587	32795.2
543.952	32816.67
544.316	32995.42
544.681	32920.62
545.045	33278.8
545.41	33478.57
545.774	33528.06
546.138	33524.9
546.503	33686.7
546.867	33846.02
547.231	33986.8
547.595	34225.67
547.959	34217.08
548.324	34385.21
548.688	34521.93
549.052	34570.52
549.416	34713.34
549.779	34729.84
550.143	34909.04
550.507	35299.09
550.871	35238.07
551.235	35259.31
551.599	35563.26
551.962	35719.19
552.326	35887.09
552.689	36101.78
553.053	36014.55
553.417	36234.88
553.78	36553.52
554.143	36507.64
554.507	36724.13
554.87	36836.67
555.234	37385.13
555.597	37121.86
555.96	37479.59
556.323	37641.62
556.686	37675.97
557.05	37884.55
557.413	38030.99
557.776	38156.19
558.139	38345.56
558.502	38565.67
558.865	38616.06
559.228	38817.41
559.59	39112.77
559.953	39120.91
560.316	39537.39
560.679	39554.34
561.041	39817.39
561.404	39955.23
561.767	40197.49
562.129	40058.06
562.492	40525.62
562.854	40686.97
563.217	40658.04
563.579	40792.05
563.941	41008.77
564.304	41018.26
564.666	41445.59
565.028	41396.78
565.39	41521.75
565.753	41845.35
566.115	41959.48
566.477	42173.26
566.839	42174.39
567.201	42543.42
567.563	42512.91
567.925	42862.95
568.287	42814.14
568.648	43021.14
569.01	43351.08
569.372	43439.89
569.734	43378.65
570.095	43660.45
570.457	43803.5
570.819	43850.95
571.18	43950.61
571.542	44238.06
571.903	44191.73
572.265	44380.2
572.626	44566.86
572.987	44677.37
573.349	44822.23
573.71	45008.66
574.071	44970.02
574.432	45102.67
574.794	45402.55
575.155	45333.4
575.516	45150.58
575.877	45461.08
576.238	45619.04
576.599	45655.42
576.96	45847.74
577.32	45764.35
577.681	45966.6
578.042	46021.06
578.403	45965.92
578.763	46003.21
579.124	46080.05
579.485	46235.3
579.845	46344.45
580.206	46180.61
580.566	46223.09
580.927	46272.81
581.287	46466.48
581.648	46382.18
582.008	46555.74
582.368	46500.6
582.728	46647.04
583.089	46380.15
583.449	46579.02
583.809	46640.71
584.169	46643.65
584.529	46631.9
584.889	47039.34
585.249	46685.45
585.609	46670.54
585.969	46879.35
586.329	46721.84
586.688	46806.81
587.048	46722.97
587.408	46719.58
587.768	46691.1
588.127	46735.17
588.487	46759.8
588.846	47068.72
589.206	46661.5
589.565	46740.82
589.925	46920.7
590.284	46803.42
590.643	46834.83
591.003	46908.27
591.362	47070.08
591.721	47002.06
592.08	46963.64
592.44	47089.74
592.799	46939.68
593.158	46913.24
593.517	47002.73
593.876	46984.88
594.235	46981.49
594.593	46934.49
594.952	47045.9
595.311	46884.09
595.67	47056.29
596.029	47269.62
596.387	47256.51
596.746	47344.42
597.104	47208.6
597.463	47190.52
597.822	47428.94
598.18	47216.29
598.538	47065.78
598.897	47277.08
599.255	47014.26
599.613	47616.73
599.972	47355.27
600.33	47401.37
600.688	47287.25
601.046	47555.03
601.404	47634.58
601.762	47494.7
602.12	47735.14
602.478	47682.26
602.836	47827.34
603.194	47557.75
603.552	47687.91
603.91	47576.5
604.268	47631.64
604.625	47664.41
604.983	47796.61
605.341	47660.12
605.698	47952.09
606.056	47948.92
606.413	47958.87
606.771	48106.21
607.128	48083.61
607.485	47996.83
607.843	48049.71
608.2	48171.97
608.557	48409.02
608.914	48212.42
609.272	48386.43
609.629	48462.81
609.986	48622.58
610.343	48334.68
610.7	48633.65
611.057	48511.85
611.414	48547.55
611.771	48534.22
612.127	48646.98
612.484	48667.55
612.841	48798.17
613.198	48704.61
613.554	48647.44
613.911	48968.11
614.267	48936.92
614.624	48856.47
614.98	48902.12
615.337	49065.73
615.693	48961.33
616.05	49086.29
616.406	49296.23
616.762	49068.89
617.118	49181.66
617.475	49158.38
617.831	49241.77
618.187	49259.4
618.543	49240.19
618.899	49524.47
619.255	49404.25
619.611	49393.4
619.967	49409.22
620.323	49606.96
620.678	49399.73
621.034	49371.48
621.39	49336.68
621.746	49302.11
622.101	49694.87
622.457	49381.43
622.812	49537.58
623.168	49584.13
623.523	49602.66
623.879	49730.8
624.234	49343.69
624.589	49544.36
624.945	49599.05
625.3	49610.35
625.655	49600.18
626.01	49591.82
626.365	49648.31
626.72	49630.01
627.075	49524.25
627.43	49646.05
627.785	49529.9
628.14	49547.75
628.495	49699.39
628.85	49681.98
629.205	49352.73
629.559	49674.08
629.914	49464.59
630.269	49461.65
630.623	49434.08
630.978	49293.97
631.332	49516.57
631.687	49521.08
632.041	49369.9
632.396	49465.27
632.75	49351.6
633.104	49306.18
633.459	49102.11
633.813	49150.7
634.167	49213.97
634.521	49086.97
634.875	49179.85
635.229	49180.98
635.583	48876.58
635.937	48844.72
636.291	48870.93
636.645	49012.62
636.999	48829.58
637.352	48899.86
637.706	48751.61
638.06	48789.13
638.413	48706.87
638.767	48616.25
639.121	48612.63
639.474	48294
639.828	48518.85
640.181	48505.97
640.534	48451.96
640.888	48343.94
641.241	48322.92
641.594	48257.84
641.947	48367.44
642.301	48338.74
642.654	48271.85
643.007	48273.89
643.36	48162.48
643.713	48184.17
644.066	48291.06
644.419	48047.45
644.771	47908.02
645.124	47400.24
645.477	47329.05
645.83	47096.74
646.182	46833.92
646.535	46837.77
646.888	46865.34
647.24	46731.55
647.593	46935.39
647.945	46710.54
648.298	46605
648.65	46383.31
649.002	46420.83
649.355	46590.99
649.707	46543.31
650.059	46611.1
650.411	46926.12
650.763	47078.89
651.115	47477.97
651.467	47326.57
651.819	47289.05
652.171	47223.74
652.523	47063.07
652.875	47120.02
653.227	46834.15
653.578	47185.1
653.93	47139.9
654.282	46913.02
654.633	46832.57
654.985	46920.02
655.337	46886.8
655.688	46804.32
656.039	46959.12
656.391	46467.15
656.742	46789.18
657.094	46705.11
657.445	46912.11
657.796	46650.43
658.147	46555.74
658.498	46482.29
658.849	46689.75
659.2	46656.75
659.551	46512.58
659.902	46658.34
660.253	46501.73
660.604	46461.96
660.955	46283.43
661.306	46505.34
661.656	46250.89
662.007	46564.33
662.358	46407.72
662.708	46346.93
663.059	46305.12
663.409	46117.33
663.76	46366.37
664.11	46385.8
664.461	46411.56
664.811	46330.43
665.161	46418.79
665.511	46196.2
665.862	46140.38
666.212	46266.26
666.562	46358
666.912	46153.04
667.262	46110.33
667.612	46039.59
667.962	46216.09
668.312	45923.67
668.662	46333.37
669.011	46020.39
669.361	45933.61
669.711	45879.6
670.06	45935.42
670.41	45904.91
670.76	45725.48
671.109	45883.21
671.459	45793.05
671.808	45745.82
672.157	45819.26
672.507	45497.69
672.856	45624.92
673.205	45583.11
673.554	45622.43
673.904	45594.41
674.253	45737.46
674.602	45533.62
674.951	45029.68
675.3	44834.65
675.649	45347.64
675.998	45313.06
676.346	45287.75
676.695	45425.15
677.044	45122.33
677.393	45214.08
677.741	45205.04
678.09	45087.3
678.438	44985.38
678.787	45052.05
679.135	45143.35
679.484	44809.57
679.832	45085.95
680.181	44742.45
680.529	44841.89
680.877	44721.66
681.225	44605.28
681.573	44895.67
681.922	44579.29
682.27	44436.02
682.618	44495.23
682.966	44409.81
683.314	44438.73
683.661	44256.82
684.009	44053.66
684.357	43976.37
684.705	43842.36
685.053	43963.04
685.4	43796.72
685.748	43665.42
686.095	43718.98
686.443	43611.64
686.79	43484.86
687.138	43578.87
687.485	43395.82
687.832	43325.32
688.18	43303.85
688.527	43121.48
688.874	43200.8
689.221	42994.93
689.568	42952.44
689.915	42774.6
690.262	42784.76
690.609	42645.56
690.956	42488.73
691.303	42436.98
691.65	42302.97
691.997	42298.45
692.344	42128.96
692.69	42024.78
693.037	42028.85
693.383	41681.74
693.73	42001.06
694.077	41501.41
694.423	41574.63
694.769	41447.85
695.116	41379.38
695.462	41260.29
695.808	41168.76
696.155	41295.99
696.501	40901.65
696.847	40951.82
697.193	40747.76
697.539	40804.7
697.885	40376.69
698.231	40401.1
698.577	40433.87
698.923	40315.9
699.269	40189.58
699.614	39996.59
699.96	39978.28
700.306	39895.58
700.651	39698.07
700.997	39628.46
701.342	39533.55
701.688	39398.64
702.033	39430.73
702.379	39418.98
702.724	39215.59
703.069	39294.01
703.415	38740.35
703.76	38917.97
704.105	38881.82
704.45	38849.95
704.795	38688.6
705.14	38552.33
705.485	38500.36
705.83	38358.21
706.175	38230.53
706.52	38136.98
706.865	37894.5
707.209	38027.6
707.554	37925.23
707.899	37913.25
708.243	37751
708.588	37643.21
708.932	37534.28
709.277	37379.48
709.621	37589.2
709.966	37300.39
710.31	37456.09
710.654	36995.76
710.998	37158.47
711.342	37043.22
711.687	37037.12
712.031	36797.35
712.375	36744.47
712.719	36806.62
713.063	36787.41
713.407	36808.42
713.75	36577.02
714.094	36519.62
714.438	36344.71
714.782	36386.29
715.125	36195.79
715.469	36180.42
715.812	36005.28
716.156	35973.19
716.499	35841.9
716.843	35962.35
717.186	35733.42
717.53	35881.67
717.873	35799.41
718.216	35674.44
718.559	35501.34
718.902	35330.27
719.246	35454.11
719.589	35232.87
719.932	35160.56
720.275	35163.72
720.617	35175.47
720.96	35205.98
721.303	35208.47
721.646	35014.8
721.989	34913.33
722.331	34957.17
722.674	34860.23
723.016	34870.62
723.359	34796.73
723.701	34812.77
724.044	34605.09
724.386	34440.13
724.729	34539.78
725.071	34473.12
725.413	34470.18
725.755	34318.77
726.097	34169.62
726.439	34007.59
726.782	34073.36
727.124	34252.11
727.465	34002.85
727.807	34071.55
728.149	33969.18
728.491	33933.7
728.833	33846.24
729.175	33771.89
729.516	33667.04
729.858	33689.86
730.199	33581.39
730.541	33528.29
730.882	33569.64
731.224	33626.59
731.565	33280.16
731.906	33243.77
732.248	33230.67
732.589	33109.54
732.93	33185.24
733.271	33228.86
733.612	33037.45
733.953	33054.17
734.294	32887.17
734.635	32774.41
734.976	33022.08
735.317	32778.7
735.658	32767.4
735.999	32736.67
736.339	32693.5
736.68	32757.23
737.021	32582.1
737.361	32503.91
737.702	32599.95
738.042	32427.98
738.383	32383.68
738.723	32412.61
739.063	32265.27
739.404	32331.71
739.744	32261.65
740.084	32185.5
740.424	32091.03
740.764	32062.79
741.104	32324.7
741.444	31977.37
741.784	31808.33
742.124	31994.99
742.464	31919.51
742.804	31758.16
743.143	31773.75
743.483	31772.4
743.823	31555.91
744.162	31583.93
744.502	31549.81
744.841	31561.78
745.181	31551.61
745.52	31341.45
745.86	31404.73
746.199	31211.96
746.538	31232.07
746.877	31336.93
747.216	31180.55
747.556	31055.58
747.895	31149.14
748.234	30973.1
748.573	31003.38
748.911	30939.88
749.25	30818.98
749.589	30782.14
749.928	30749.38
750.267	30796.83
750.605	30675.03
750.944	30711.64
751.283	30449.5
751.621	30513.9
751.96	30294.47
752.298	30300.57
752.636	30302.61
752.975	30304.19
753.313	30087.47
753.651	30218.09
753.989	30051.99
754.327	30068.26
754.666	29910.75
755.004	29781.94
755.342	29917.98
755.679	29862.62
756.017	29617.88
756.355	29827.82
756.693	29565.68
757.031	29677.54
757.368	29483.19
757.706	29332.46
758.044	29239.36
758.381	29252.69
758.719	29142.41
759.056	29208.4
759.394	29026.03
759.731	28752.37
760.068	28825.58
760.405	28789.88
760.743	28515.99
761.08	28716.43
761.417	28571.35
761.754	28433.28
762.091	28401.41
762.428	28249.78
762.765	28189.67
763.102	28149.44
763.438	28051.59
763.775	27933.4
764.112	27986.96
764.449	27941.31
764.785	27659.51
765.122	27566.18
765.458	27515.79
765.795	27480.76
766.131	27318.28
766.467	27445.28
766.804	27045.74
767.14	26951.96
767.476	27001.68
767.812	26953.09
768.148	26946.54
768.485	26830.61
768.821	26640.33
769.157	26609.37
769.492	26576.38
769.828	26394.01
770.164	26205.31
770.5	26270.17
770.836	26179.33
771.171	26102.27
771.507	25995.83
771.842	25912.44
772.178	25810.3
772.513	25700.92
772.849	25683.52
773.184	25511.32
773.519	25522.62
773.855	25267.94
774.19	25118.11
774.525	25110.88
774.86	25116.75
775.195	25002.18
775.53	24972.8
775.865	24774.62
776.2	24684.45
776.535	24489.65
776.87	24522.42
777.205	24289.43
777.539	24264.12
777.874	24280.62
778.209	24182.32
778.543	24100.51
778.878	24021.87
779.212	24025.71
779.547	23766.96
779.881	23830.46
780.215	23679.5
780.55	23636.12
780.884	23630.69
781.218	23460.3
781.552	23492.16
781.886	23298.27
782.22	23033.65
782.554	23181.89
782.888	22904.38
783.222	22876.59
783.556	22722.92
783.889	22636.59
784.223	22509.59
784.557	22417.84
784.89	22524.96
785.224	22421.01
785.557	22285.42
785.891	22121.35
786.224	22039.32
786.558	22021.24
786.891	21883.62
787.224	21906.44
787.557	21760.68
787.891	21793.9
788.224	21683.4
788.557	21714.13
788.89	21631.65
789.223	21543.52
789.556	21365.67
789.888	21379
790.221	21288.61
790.554	21181.94
790.887	21109.63
791.219	21023.3
791.552	21035.73
791.884	20890.2
792.217	20845
792.549	20729.3
792.882	20603.2
793.214	20574.73
793.546	20621.96
793.879	20500.38
794.211	20257.9
794.543	20341.51
794.875	20247.73
795.207	20344
795.539	20046.15
795.871	20035.08
796.203	20001.18
796.535	19886.16
796.867	19841.64
797.198	19838.02
797.53	19856.55
797.862	19625.83
798.193	19694.3
798.525	19635.99
798.856	19650.23
799.188	19395.78
799.519	19291.37
799.85	19312.39
800.182	19224.25
800.513	19205.27
800.844	19018.38
801.175	19096.12
801.506	19017.71
801.837	18916.24
802.168	18814.32
802.499	18767.54
802.83	18664.95
803.161	18671.27
803.491	18677.15
803.822	18643.48
804.153	18524.16
804.483	18560.32
804.814	18428.57
805.145	18443.03
805.475	18357.84
805.805	18298.63
806.136	18254.79
806.466	18171.85
806.796	18091.4
807.126	17989.71
807.457	18005.08
807.787	17921.46
808.117	17839.66
808.447	17749.72
808.777	17838.53
809.107	17690.74
809.436	17642.15
809.766	17680.11
810.096	17673.56
810.426	17583.85
810.755	17551.08
811.085	17580.68
811.414	17476.73
811.744	17392.21
812.073	17317.19
812.403	17227.7
812.732	17151.54
813.061	17254.36
813.39	17130.07
813.719	17085.78
814.049	17133.24
814.378	17045.55
814.707	16968.04
815.036	16914.26
815.365	16976.63
815.693	16754.26
816.022	16819.12
816.351	16689.86
816.68	16653.02
817.008	16640.14
817.337	16521.05
817.665	16487.15
817.994	16511.78
818.322	16491.44
818.651	16454.16
818.979	16363.54
819.307	16399.47
819.636	16300.49
819.964	16119.93
820.292	16248.06
820.62	16261.62
820.948	16269.08
821.276	16116.99
821.604	16169.42
821.932	16288.51
822.259	16224.33
822.587	16157.44
822.915	16088.97
823.243	16118.12
823.57	16096.88
823.898	16104.79
824.225	16051
824.553	16013.27
824.88	16079.03
825.207	16138.69
825.535	16023.66
825.862	16139.59
826.189	16044.68
826.516	16162.87
826.843	16235.41
827.17	16138.23
827.497	16195.18
827.824	16161.28
828.151	16116.09
828.478	16128.74
828.805	16154.5
829.131	16060.95
829.458	16082.42
829.785	15988.41
830.111	16053.94
830.438	16137.78
830.764	16029.76
831.09	16113.83
831.417	16008.75
831.743	16076.77
832.069	16017.56
832.395	15945.7
832.722	16027.95
833.048	15916.77
833.374	15924.45
833.7	15876.09
834.026	15821.86
834.351	15884.23
834.677	15862.76
835.003	15897.34
835.329	15860.28
835.654	15929.43
835.98	15773.95
836.306	15949.76
836.631	15753.84
836.956	15778.24
837.282	15846.04
837.607	15672.03
837.932	15737.11
838.258	15642.2
838.583	15612.37
838.908	15529.44
839.233	15590
839.558	15497.57
839.883	15540.74
840.208	15425.48
840.533	15436.78
840.858	15436.78
841.182	15465.71
841.507	15378.93
841.832	15310.01
842.156	15221.65
842.481	15182.78
842.805	15318.14
843.13	15141.2
843.454	15135.32
843.778	15140.97
844.103	15097.13
844.427	14984.59
844.751	15025.49
845.075	14944.59
845.399	14888.55
845.723	14862.79
846.047	14895.55
846.371	14746.86
846.695	14743.02
847.019	14622.34
847.343	14539.63
847.666	14505.51
847.99	14477.71
848.313	14417.15
848.637	14362.91
848.96	14285.4
849.284	14301.9
849.607	14117.95
849.931	14164.95
850.254	14009.48
850.577	14003.15
850.9	13890.16
851.223	13893.1
851.546	13790.05
851.869	13662.59
852.192	13826.66
852.515	13648.13
852.838	13619.88
853.161	13659.88
853.483	13538.75
853.806	13450.85
854.129	13451.07
854.451	13458.3
854.774	13348.48
855.096	13278.2
855.419	13301.25
855.741	13252.21
856.063	13112.1
856.385	13164.75
856.708	13114.58
857.03	13022.16
857.352	13030.52
857.674	13000.24
857.996	12975.83
858.318	12791.2
858.64	12870.3
858.961	12807.93
859.283	12728.15
859.605	12715.5
859.926	12744.65
860.248	12628.27
860.57	12594.37
860.891	12630.98
861.212	12537.42
861.534	12555.96
861.855	12433.25
862.176	12527.71
862.498	12467.14
862.819	12444.77
863.14	12368.62
863.461	12465.56
863.782	12350.08
864.103	12359.35
864.424	12265.34
864.745	12337.2
865.065	12261.95
865.386	12195.96
865.707	12228.51
866.027	12241.16
866.348	12215.4
866.668	12145.34
866.989	12120.26
867.309	11923.2
867.63	12097.21
867.95	12011.11
868.27	11930.89
868.59	12048.4
868.91	12002.07
869.23	11948.29
869.55	11895.86
869.87	11921.17
870.19	11829.65
870.51	11916.65
870.83	11898.57
871.15	11840.27
871.469	11877.55
871.789	11889.53
872.109	11760.27
872.428	11786.94
872.748	11782.42
873.067	11768.18
873.386	11716.66
873.706	11795.3
874.025	11654.06
874.344	11640.95
874.663	11673.04
874.982	11654.96
875.301	11640.27
875.62	11575.19
875.939	11615.87
876.258	11578.58
876.577	11475.53
876.896	11511.91
877.214	11479.15
877.533	11473.5
877.852	11378.13
878.17	11438.92
878.489	11417.68
878.807	11429.66
879.125	11390.79
879.444	11284.35
879.762	11339.72
880.08	11359.83
880.398	11257.68
880.716	11252.26
881.034	11285.71
881.352	11202.54
881.67	11165.94
881.988	11188.76
882.306	11116.67
882.624	11106.28
882.941	11060.63
883.259	11125.71
883.577	11091.36
883.894	11060.85
884.212	10987.18
884.529	11032.61
884.846	10908.99
885.164	10877.36
885.481	10917.35
885.798	10959.16
886.115	10854.98
886.432	10785.15
886.75	10772.05
887.067	10827.41
887.383	10751.71
887.7	10670.13
888.017	10673.97
888.334	10621.09
888.651	10626.06
888.967	10638.04
889.284	10593.52
889.6	10497.7
889.917	10385.39
890.233	10441.21
890.55	10396.01
890.866	10479.4
891.182	10445.05
891.498	10326.41
891.815	10300.2
892.131	10291.16
892.447	10276.69
892.763	10182.68
893.079	10206.41
893.395	10208.22
893.71	10149.24
894.026	10105.85
894.342	10118.51
894.657	10019.75
894.973	9949.7
895.289	9997.83
895.604	9964.16
895.92	9937.49
896.235	9896.59
896.55	9801.68
896.865	9789.93
897.181	9784.5
897.496	9798.51
897.811	9777.72
898.126	9685.3
898.441	9662.47
898.756	9639.65
899.071	9604.39
899.386	9634.9
899.7	9514.68
900.015	9406.43
900.33	9396.04
900.644	9388.58
900.959	9383.38
901.273	9374.8
901.588	9401.46
901.902	9212.09
902.216	9242.6
902.531	9188.36
902.845	9132.32
903.159	9073.11
903.473	9005.09
903.787	9050.28
904.101	8994.92
904.415	8989.5
904.729	8973.22
905.042	8944.52
905.356	8867.01
905.67	8882.61
905.984	8973.22
906.297	8842.61
906.611	8740.69
906.924	8795.6
907.237	8742.5
907.551	8623.4
907.864	8645.1
908.177	8648.26
908.491	8576.17
908.804	8577.3
909.117	8497.08
909.43	8467.7
909.743	8382.73
910.056	8425.89
910.368	8398.1
910.681	8306.35
910.994	8306.58
911.307	8257.99
911.619	8150.42
911.932	8234.49
912.244	8130.76
912.557	8145.9
912.869	8097.99
913.181	8128.95
913.494	8076.98
913.806	8000.14
914.118	7894.61
914.43	7893.25
914.742	7939.58
915.054	7942.52
915.366	7859.81
915.678	7827.04
915.99	7772.13
916.302	7729.87
916.613	7697.55
916.925	7663.65
917.236	7634.5
917.548	7573.94
917.859	7641.28
918.171	7499.36
918.482	7548.18
918.794	7507.27
919.105	7490.1
919.416	7432.93
919.727	7366.94
920.038	7376.88
920.349	7266.83
920.66	7265.02
920.971	7285.36
921.282	7225.25
921.593	7232.71
921.903	7164.46
922.214	7174.85
922.525	7140.5
922.835	7023.45
923.146	7095.08
923.456	6995.2
923.767	6970.11
924.077	6942.09
924.387	6901.19
924.697	6888.08
925.008	6881.53
925.318	6849.89
925.628	6775.54
925.938	6811.7
926.248	6704.81
926.558	6717.24
926.867	6683.79
927.177	6698.71
927.487	6634.08
927.796	6537.81
928.106	6527.19
928.416	6522.89
928.725	6516.11
929.034	6460.52
929.344	6491.03
929.653	6465.72
929.962	6401.77
930.271	6355.67
930.581	6354.08
930.89	6288.78
931.199	6291.71
931.508	6272.96
931.817	6205.39
932.125	6238.16
932.434	6199.06
932.743	6189.34
933.051	6078.39
933.36	6132.62
933.669	6075.22
933.977	6070.48
934.286	6011.49
934.594	6046.3
934.902	5957.03
935.21	5936.47
935.519	5936.02
935.827	5920.88
936.135	5872.97
936.443	5836.81
936.751	5854.66
937.059	5774.89
937.367	5758.39
937.674	5767.43
937.982	5723.37
938.29	5715.23
938.597	5687.21
938.905	5630.26
939.213	5620.32
939.52	5579.19
939.827	5621.67
940.135	5563.14
940.442	5523.6
940.749	5535.8
941.056	5500.32
941.363	5480.43
941.67	5444.28
941.977	5400.89
942.284	5367.9
942.591	5386.88
942.898	5367.22
943.205	5333.32
943.511	5329.7
943.818	5279.31
944.125	5261.91
944.431	5217.39
944.738	5236.83
945.044	5202.25
945.35	5200.89
945.657	5113.44
945.963	5103.04
946.269	5105.3
946.575	5093.1
946.881	5070.73
947.187	5058.3
947.493	5053.33
947.799	4984.18
948.105	4983.5
948.41	4978.98
948.716	4905.53
949.022	4924.52
949.327	4869.83
949.633	4823.5
949.938	4786.44
950.244	4825.76
950.549	4809.94
950.854	4796.16
951.16	4720
951.465	4715.71
951.77	4697.18
952.075	4700.57
952.38	4633.45
952.685	4663.96
952.99	4656.73
953.294	4605.43
953.599	4607.92
953.904	4515.49
954.209	4493.79
954.513	4513.91
954.818	4533.34
955.122	4500.35
955.426	4458.09
955.731	4476.85
956.035	4432.55
956.339	4409.05
956.643	4368.37
956.948	4334.02
957.252	4336.51
957.556	4346.23
957.86	4334.25
958.163	4318.66
958.467	4307.13
958.771	4302.16
959.075	4261.03
959.378	4223.74
959.682	4242.05
959.985	4187.36
960.289	4138.1
960.592	4131.54
960.896	4125.89
961.199	4161.6
961.502	4073.24
961.805	4064.2
962.108	4019.91
962.411	4059.91
962.714	3986.69
963.017	3999.57
963.32	4001.6
963.623	3978.1
963.926	3954.37
964.228	3926.13
964.531	3910.53
964.833	3931.78
965.136	3896.52
965.438	3870.08
965.741	3813.81
966.043	3816.98
966.345	3806.81
966.648	3823.53
966.95	3781.27
967.252	3800.25
967.554	3793.7
967.856	3686.13
968.158	3696.08
968.46	3694.04
968.761	3680.03
969.063	3651.56
969.365	3655.17
969.666	3620.14
969.968	3620.6
970.269	3579.02
970.571	3548.28
970.872	3572.69
971.174	3521.39
971.475	3532.01
971.776	3549.86
972.077	3527.27
972.378	3511.67
972.679	3463.31
972.98	3474.61
973.281	3440.49
973.582	3383.31
973.883	3415.63
974.183	3383.31
974.484	3389.87
974.785	3398.46
975.085	3361.85
975.386	3379.47
975.686	3310.32
975.986	3330.44
976.287	3286.37
976.587	3274.62
976.887	3271
977.187	3282.98
977.487	3223.32
977.787	3236.2
978.087	3194.85
978.387	3193.26
978.687	3206.14
978.987	3178.57
979.286	3161.17
979.586	3148.07
979.885	3085.7
980.185	3119.37
980.484	3056.77
980.784	3065.36
981.083	3060.39
981.382	3042.53
981.682	3077.11
981.981	3019.93
982.28	3055.64
982.579	2985.36
982.878	2995.53
983.177	2961.63
983.475	2990.78
983.774	2961.41
984.073	2914.4
984.372	2896.1
984.67	2911.46
984.969	2931.58
985.267	2885.47
985.566	2856.32
985.864	2854.06
986.162	2848.87
986.461	2813.16
986.759	2815.87
987.057	2787.62
987.355	2755.53
987.653	2781.52
987.951	2785.59
988.249	2764.57
988.547	2745.82
988.844	2732.03
989.142	2742.43
989.44	2722.99
989.737	2690
990.035	2666.05
990.332	2670.79
990.63	2639.15
990.927	2623.33
991.224	2626.95
991.521	2567.52
991.819	2583.11
992.116	2599.15
992.413	2593.05
992.71	2571.58
993.006	2520.29
993.303	2530.68
993.6	2565.94
993.897	2513.51
994.193	2531.81
994.49	2506.73
994.787	2473.96
995.083	2463.11
995.379	2451.59
995.676	2431.02
995.972	2456.11
996.268	2441.42
996.565	2403.45
996.861	2383.34
997.157	2375.66
997.453	2360.29
997.749	2359.61
998.044	2373.4
998.34	2333.4
998.636	2304.7
998.932	2325.94
999.227	2324.13
999.523	2250.46
999.818	2277.36
1000.114	2257.69
1000.409	2255.66
1000.704	2259.05
1001	2245.27
1001.295	2190.8
1001.59	2211.82
1001.885	2194.19
1002.18	2162.1
1002.475	2188.09
1002.77	2152.84
1003.065	2142.67
1003.359	2138.6
1003.654	2140.64
1003.949	2086.4
1004.243	2124.37
1004.538	2063.12
1004.832	2088.21
1005.127	2091.82
1005.421	2040.98
1005.715	2052.5
1006.009	2034.2
1006.304	2032.16
1006.598	1999.85
1006.892	1979.74
1007.186	1962.56
1007.48	1992.84
1007.773	1963.01
1008.067	1934.54
1008.361	1921.66
1008.655	1882.11
1008.948	1934.99
1009.242	1931.83
1009.535	1892.73
1009.829	1865.39
1010.122	1889.12
1010.415	1861.77
1010.708	1854.99
1011.001	1848.21
1011.295	1820.42
1011.588	1828.55
1011.881	1833.53
1012.173	1801.89
1012.466	1790.36
1012.759	1778.16
1013.052	1770.48
1013.344	1750.14
1013.637	1739.97
1013.93	1735.67
1014.222	1723.7
1014.514	1716.01
1014.807	1703.13
1015.099	1685.73
1015.391	1665.85
1015.683	1682.79
1015.976	1674.21
1016.268	1673.98
1016.56	1637.15
1016.851	1616.81
1017.143	1640.54
1017.435	1606.41
1017.727	1606.86
1018.018	1593.76
1018.31	1550.37
1018.602	1594.89
1018.893	1579.75
1019.185	1566.64
1019.476	1530.48
1019.767	1554.66
1020.058	1523.7
1020.35	1513.08
1020.641	1502.46
1020.932	1466.98
1021.223	1493.2
1021.514	1468.34
1021.804	1477.38
1022.095	1445.29
1022.386	1431.95
1022.677	1396.47
1022.967	1453.42
1023.258	1418.17
1023.548	1399.64
1023.839	1427.66
1024.129	1391.05
1024.419	1371.84
1024.709	1365.74
1025	1365.06
1025.29	1352.63
1025.58	1341.79
1025.87	1314.89
1026.16	1299.98
1026.449	1323.71
1026.739	1309.47
1027.029	1295.46
1027.319	1291.84
1027.608	1259.98
1027.898	1252.07
1028.187	1253.65
1028.477	1270.83
1028.766	1268.79
1029.055	1247.78
1029.344	1248.68
1029.634	1224.95
1029.923	1229.25
1030.212	1211.17
1030.501	1202.13
1030.79	1196.03
1031.078	1176.82
1031.367	1177.95
1031.656	1159.42
1031.945	1162.36
1032.233	1155.12
1032.522	1152.19
1032.81	1123.49
1033.099	1126.2
1033.387	1120.78
1033.675	1113.32
1033.963	1111.96
1034.251	1101.79
1034.54	1081.23
1034.828	1094.11
1035.116	1060.66
1035.403	1083.26
1035.691	1081
1035.979	1047.56
1036.267	1053.88
1036.554	1039.42
1036.842	1026.09
1037.129	1028.35
1037.417	1006.43
1037.704	1025.18
1037.992	1026.77
1038.279	1003.72
1038.566	1010.72
1038.853	1010.72
1039.14	1010.72
