Data from white_poster_card_FLMS001491_00078.txt Node
Date: Wed Feb 08 11:51:59 GMT 2017
User: dcchb
Spectrometer: FLMS00149
Trigger mode: 0
Integration Time (sec): 2.000000E-2
Scans to average: 10
Electric dark correction enabled: true
Nonlinearity correction enabled: false
Boxcar width: 0
XAxis mode: Wavelengths
Number of Pixels in Spectrum: 2048
>>>>>Begin Spectral Data<<<<<
341.393	-32.15
341.776	-32.15
342.16	-32.15
342.543	-57.68
342.927	-65.82
343.31	-71.92
343.693	-77.79
344.077	-44.12
344.46	-56.78
344.843	-39.38
345.226	-43.9
345.61	-34.18
345.993	-28.98
346.376	-32.82
346.759	8.76
347.142	27.51
347.525	46.04
347.908	55.08
348.291	78.13
348.674	91.69
349.057	122.65
349.44	146.83
349.823	137.57
350.206	156.1
350.588	199.94
350.971	207.62
351.354	223.67
351.737	239.71
352.119	240.16
352.502	273.83
352.884	284.91
353.267	301.86
353.65	298.92
354.032	300.05
354.414	310.9
354.797	302.08
355.179	334.4
355.562	317.68
355.944	325.58
356.326	322.87
356.709	343.44
357.091	320.39
357.473	339.6
357.855	353.83
358.238	332.82
358.62	352.93
359.002	349.54
359.384	355.64
359.766	336.88
360.148	344.34
360.53	326.26
360.912	344.79
361.294	338.47
361.676	342.76
362.057	332.36
362.439	345.47
362.821	330.33
363.203	337.56
363.584	321.29
363.966	327.17
364.348	327.62
364.729	307.05
365.111	312.25
365.493	326.04
365.874	313.61
366.256	334.4
366.637	324.68
367.019	322.42
367.4	310.67
367.781	324.23
368.163	319.26
368.544	317
368.925	321.29
369.306	316.55
369.688	328.97
370.069	326.49
370.45	328.75
370.831	321.07
371.212	326.04
371.593	331.91
371.974	317.9
372.355	331.69
372.736	307.28
373.117	326.04
373.498	311.8
373.879	303.89
374.26	327.84
374.641	335.75
375.021	313.16
375.402	321.07
375.783	308.86
376.163	350.22
376.544	328.07
376.925	334.4
377.305	325.13
377.686	341.63
378.066	339.14
378.447	330.1
378.827	329.43
379.208	352.25
379.588	346.6
379.968	355.19
380.349	348.41
380.729	349.99
381.109	340.05
381.489	339.82
381.87	340.73
382.25	373.49
382.63	339.82
383.01	346.15
383.39	349.54
383.77	380.5
384.15	364.91
384.53	357.45
384.91	363.1
385.29	330.1
385.67	346.38
386.049	365.13
386.429	372.14
386.809	389.54
387.189	365.58
387.568	376.43
387.948	373.94
388.328	380.95
388.707	374.4
389.087	364.91
389.466	396.09
389.846	397.22
390.225	385.24
390.605	409.88
390.984	404.9
391.363	401.74
391.743	405.81
392.122	384.57
392.501	413.72
392.881	415.53
393.26	419.59
393.639	405.36
394.018	406.49
394.397	424.11
394.776	415.3
395.155	437.22
395.534	441.06
395.913	430.44
396.292	443.1
396.671	433.83
397.05	462.53
397.429	444.68
397.808	453.04
398.186	441.74
398.565	450.55
398.944	448.07
399.323	442.42
399.701	472.93
400.08	456.43
400.458	466.82
400.837	448.52
401.215	465.69
401.594	477.45
401.972	475.64
402.351	488.97
402.729	487.16
403.107	484.9
403.486	498.46
403.864	493.26
404.242	509.53
404.62	511.57
404.999	516.99
405.377	520.16
405.755	507.27
406.133	531.68
406.511	545.47
406.889	539.14
407.267	550.44
407.645	567.84
408.023	556.54
408.401	555.64
408.779	577.56
409.156	592.47
409.534	612.13
409.912	595.41
410.29	616.42
410.667	640.15
411.045	628.4
411.422	648.74
411.8	665.69
412.178	663.65
412.555	685.8
412.933	677.44
413.31	722.41
413.687	739.59
414.065	749.98
414.442	754.5
414.819	780.49
415.197	783.43
415.574	779.36
415.951	800.15
416.328	847.6
416.705	833.59
417.082	849.86
417.46	899.13
417.837	907.04
418.214	924.44
418.591	935.06
418.967	922.86
419.344	978.9
419.721	983.65
420.098	972.8
420.475	994.72
420.852	1022.74
421.228	1034.94
421.605	990.2
421.982	1028.62
422.358	1077.66
422.735	1095.96
423.111	1098.45
423.488	1115.85
423.864	1125.79
424.241	1163.98
424.617	1166.92
424.994	1155.62
425.37	1200.36
425.746	1202.62
426.123	1234.04
426.499	1263.64
426.875	1271.1
427.251	1271.77
427.627	1328.04
428.003	1330.3
428.379	1360.13
428.756	1388.38
429.132	1366.01
429.507	1403.97
429.883	1417.76
430.259	1420.47
430.635	1449.17
431.011	1459.34
431.387	1507.93
431.763	1532.33
432.138	1547.47
432.514	1585.44
432.89	1551.09
433.265	1641.48
433.641	1616.4
434.016	1638.77
434.392	1673.35
434.767	1708.83
435.143	1710.86
435.518	1731.65
435.894	1759.67
436.269	1803.29
436.644	1808.03
437.02	1790.86
437.395	1828.14
437.77	1834.47
438.145	1889.61
438.52	1881.25
438.895	1901.36
439.271	1933
439.646	1955.82
440.021	1951.98
440.395	1972.77
440.77	1959.44
441.145	1995.6
441.52	2040.57
441.895	2034.92
442.27	2041.02
442.645	2051.19
443.019	2071.08
443.394	2078.31
443.769	2086.22
444.143	2100.91
444.518	2139.77
444.892	2129.61
445.267	2129.15
445.641	2171.19
446.016	2191.3
446.39	2229.72
446.764	2219.32
447.139	2219.55
447.513	2219.55
447.887	2247.12
448.262	2295.02
448.636	2261.13
449.01	2266.1
449.384	2319.2
449.758	2305.42
450.132	2353.78
450.506	2375.7
450.88	2397.39
451.254	2384.06
451.628	2443.5
452.002	2480.1
452.376	2477.62
452.75	2493.89
453.123	2515.58
453.497	2570.05
453.871	2555.58
454.244	2574.11
454.618	2615.69
454.992	2666.77
455.365	2662.25
455.739	2735.01
456.112	2760.77
456.486	2779.53
456.859	2789.02
457.232	2851.85
457.606	2837.16
457.979	2906.53
458.352	2968.45
458.725	3037.6
459.099	2990.37
459.472	3044.84
459.845	3071.5
460.218	3129.8
460.591	3132.52
460.964	3152.18
461.337	3223.59
461.71	3233.98
462.083	3303.59
462.456	3311.27
462.829	3353.08
463.201	3398.27
463.574	3382
463.947	3463.36
464.32	3538.83
464.692	3520.53
465.065	3600.53
465.438	3670.58
465.81	3666.97
466.183	3748.09
466.555	3777.02
466.928	3751.48
467.3	3781.31
467.672	3908.09
468.045	3970.46
468.417	4005.04
468.789	3998.48
469.161	4100.4
469.534	4118.48
469.906	4218.36
470.278	4256.55
470.65	4271.02
471.022	4406.83
471.394	4419.49
471.766	4475.08
472.138	4489.77
472.51	4567.51
472.882	4699.25
473.253	4732.7
473.625	4782.87
473.997	4894.28
474.369	4953.71
474.74	4974.5
475.112	5062.41
475.484	5143.09
475.855	5205.68
476.227	5246.13
476.598	5413.13
476.97	5486.35
477.341	5562.51
477.713	5624.65
478.084	5672.34
478.455	5805.21
478.827	5842.28
479.198	6039.56
479.569	6070.97
479.94	6235.03
480.311	6232.77
480.682	6420.79
481.053	6544.4
481.424	6688.36
481.795	6693.33
482.166	6779.2
482.537	6871.18
482.908	7039.76
483.279	7127.44
483.65	7207.44
484.021	7422.8
484.391	7418.28
484.762	7528.11
485.133	7586.18
485.503	7695.11
485.874	7852.84
486.244	7957.47
486.615	8140.75
486.985	8167.19
487.356	8359.72
487.726	8420.51
488.097	8574.63
488.467	8626.38
488.837	8782.99
489.207	8865.47
489.578	9024.79
489.948	9126.03
490.318	9205.8
490.688	9263.65
491.058	9418.23
491.428	9580.03
491.798	9574.83
492.168	9841.27
492.538	9895.05
492.908	10008.49
493.278	10071.32
493.648	10169.85
494.017	10266.11
494.387	10337.98
494.757	10456.62
495.126	10636.73
495.496	10602.15
495.866	10749.04
496.235	10870.39
496.605	10899.54
496.974	10996.72
497.344	11103.61
497.713	11142.48
498.082	11219.54
498.452	11426.99
498.821	11455.69
499.19	11434.9
499.559	11618.62
499.928	11655.91
500.298	11793.08
500.667	11928.67
501.036	11852.06
501.405	12000.08
501.774	12047.99
502.143	12155.56
502.512	12280.3
502.88	12434.64
503.249	12319.17
503.618	12492.95
503.987	12635.54
504.356	12667.63
504.724	12672.15
505.093	12815.88
505.462	12929.32
505.83	12897.91
506.199	13080.28
506.567	13174.96
506.936	13223.1
507.304	13425.35
507.672	13430.55
508.041	13538.57
508.409	13611.56
508.777	13745.12
509.145	13924.1
509.514	13897.88
509.882	13995.51
510.25	14042.29
510.618	14134.26
510.986	14167.93
511.354	14373.8
511.722	14510.52
512.09	14640.69
512.458	14661.7
512.826	14863.51
513.193	14938.31
513.561	14918.42
513.929	15161.8
514.297	15313.44
514.664	15304.63
515.032	15408.58
515.4	15481.8
515.767	15599.76
516.135	15752.3
516.502	15721.11
516.869	15967.89
517.237	16049.69
517.604	16033.19
517.972	16243.13
518.339	16343.69
518.706	16409.91
519.073	16600.41
519.44	16660.97
519.808	16811.48
520.175	16844.25
520.542	17075.65
520.909	17171.92
521.276	17262.54
521.643	17438.58
522.009	17524.91
522.376	17698.46
522.743	17719.93
523.11	17986.36
523.477	18113.59
523.843	18290.54
524.21	18460.7
524.577	18577.31
524.943	18546.12
525.31	18727.13
525.676	18979.11
526.043	19114.02
526.409	19193.34
526.776	19398.98
527.142	19492.54
527.508	19603.5
527.874	19610.95
528.241	19911.96
528.607	20050.72
528.973	20249.58
529.339	20081.9
529.705	20404.83
530.071	20571.15
530.437	20584.04
530.803	20823.58
531.169	20763.24
531.535	20835.78
531.901	20971.37
532.267	21113.74
532.632	21270.34
532.998	21319.38
533.364	21516.89
533.73	21514.41
534.095	21777.68
534.461	21812.48
534.826	22008.86
535.192	22084.56
535.557	22196.2
535.923	22179.7
536.288	22319.36
536.653	22362.07
537.019	22431.9
537.384	22505.11
537.749	22681.61
538.114	22680.7
538.479	22790.3
538.845	22944.2
539.21	22901.04
539.575	22938.1
539.94	23243.63
540.305	23306.22
540.67	23297.18
541.034	23355.71
541.399	23513.45
541.764	23549.61
542.129	23636.84
542.494	23636.84
542.858	23839.32
543.223	23771.97
543.587	24011.06
543.952	23972.19
544.316	24126.09
544.681	24164.28
545.045	24205.41
545.41	24464.38
545.774	24444.5
546.138	24440.66
546.503	24652.4
546.867	24632.06
547.231	24948.67
547.595	24723.81
547.959	24910.7
548.324	24983.47
548.688	25002.45
549.052	25108.44
549.416	25199.96
549.779	25327.87
550.143	25426.17
550.507	25513.4
550.871	25710.45
551.235	25588.88
551.599	25849.21
551.962	25827.06
552.326	26135.98
552.689	26153.38
553.053	26120.39
553.417	26292.81
553.78	26587.27
554.143	26452.36
554.507	26608.51
554.87	26782.52
555.234	26915.85
555.597	26825.9
555.96	26984.77
556.323	27057.31
556.686	27139.34
557.05	27359.9
557.413	27420.69
557.776	27591.99
558.139	27743.85
558.502	27847.12
558.865	27953.33
559.228	28056.61
559.59	28186.77
559.953	28405.52
560.316	28508.8
560.679	28500.89
561.041	28791.95
561.404	28856.13
561.767	29149.91
562.129	28896.58
562.492	29287.99
562.854	29380.41
563.217	29353.97
563.579	29529.56
563.941	29677.58
564.304	29732.04
564.666	29927.97
565.028	29938.14
565.39	30174.07
565.753	30384.46
566.115	30528.18
566.477	30547.61
566.839	30581.96
567.201	30800.94
567.563	30794.39
567.925	31190.76
568.287	30982.86
568.648	31040.48
569.01	31363.19
569.372	31500.81
569.734	31602.73
570.095	31761.14
570.457	31818.99
570.819	31964.3
571.18	31938.54
571.542	32162.94
571.903	32205.88
572.265	32270.51
572.626	32412.88
572.987	32373.56
573.349	32640.89
573.71	32677.5
574.071	32717.5
574.432	32826.43
574.794	32988
575.155	32995.01
575.516	32995.69
575.877	33068
576.238	33108
576.599	33242.69
576.96	33379.18
577.32	33312.06
577.681	33565.16
578.042	33554.54
578.403	33675.89
578.763	33594.99
579.124	33802.22
579.485	33910.46
579.845	33943.68
580.206	33786.4
580.566	33940.75
580.927	33920.86
581.287	34048.09
581.648	33969.45
582.008	34088.99
582.368	33964.93
582.728	34112.04
583.089	34098.48
583.449	34058.48
583.809	34109.78
584.169	34207.86
584.529	34084.7
584.889	34373.05
585.249	34152.49
585.609	34049.44
585.969	34372.83
586.329	34229.1
586.688	34271.13
587.048	34267.97
587.408	34097.58
587.768	34185.49
588.127	34238.14
588.487	34177.12
588.846	34410.11
589.206	34248.08
589.565	34280.85
589.925	34441.52
590.284	34448.3
590.643	34291.25
591.003	34451.92
591.362	34459.15
591.721	34418.02
592.08	34362.43
592.44	34572.59
592.799	34449.43
593.158	34422.32
593.517	34399.94
593.876	34564.68
594.235	34520.39
594.593	34481.52
594.952	34576.21
595.311	34501.18
595.67	34586.83
596.029	34798.58
596.387	34839.25
596.746	34884.45
597.104	34602.42
597.463	34742.76
597.822	34743.66
598.18	34717.22
598.538	34697.79
598.897	34933.26
599.255	34583.89
599.613	35092.58
599.972	34833.83
600.33	34958.12
600.688	34846.26
601.046	34975.97
601.404	35088.74
601.762	34956.31
602.12	35203.54
602.478	35119.25
602.836	35223.65
603.194	34980.04
603.552	35011
603.91	34999.7
604.268	35234.72
604.625	35062.75
604.983	35366.7
605.341	35093.48
605.698	35317.66
606.056	35380.71
606.413	35267.94
606.771	35416.64
607.128	35437.2
607.485	35258
607.843	35267.26
608.2	35543.42
608.557	35845.33
608.914	35528.27
609.272	35751.32
609.629	35699.12
609.986	35790.87
610.343	35756.07
610.7	36025.44
611.057	36000.58
611.414	35967.59
611.771	35960.81
612.127	36096.4
612.484	36120.8
612.841	36121.03
613.198	36160.57
613.554	36086.23
613.911	36274.7
614.267	36135.94
614.624	36178.43
614.98	36267.46
615.337	36420.23
615.693	36288.48
616.05	36261.59
616.406	36522.15
616.762	36325.54
617.118	36437.4
617.475	36418.65
617.831	36590.17
618.187	36540.68
618.543	36668.36
618.899	36787.68
619.255	36648.47
619.611	36639.88
619.967	36638.53
620.323	36869.93
620.678	36654.57
621.034	36710.84
621.39	36605.76
621.746	36591.52
622.101	36911.29
622.457	36680.56
622.812	36735.25
623.168	36991.06
623.523	36801.46
623.879	36967.11
624.234	36693.89
624.589	36762.37
624.945	36859.54
625.3	36868.58
625.655	36705.65
626.01	36841.23
626.365	36743.16
626.72	36773.21
627.075	36829.03
627.43	36786.32
627.785	36595.59
628.14	36770.95
628.495	36710.16
628.85	36783.16
629.205	36502.26
629.559	36772.54
629.914	36681.24
630.269	36756.27
630.623	36607.34
630.978	36355.82
631.332	36487.8
631.687	36645.31
632.041	36501.36
632.396	36495.93
632.75	36497.06
633.104	36563.28
633.459	36310.63
633.813	36224.3
634.167	36193.12
634.521	36183.17
634.875	36258.88
635.229	36161.93
635.583	35988.15
635.937	35922.84
636.291	35983.86
636.645	35972.78
636.999	35938.66
637.352	35919
637.706	35684.65
638.06	35834.93
638.413	35743.41
638.767	35720.13
639.121	35741.38
639.474	35468.84
639.828	35564.66
640.181	35529.4
640.534	35622.96
640.888	35533.02
641.241	35258.23
641.594	35390.88
641.947	35429.97
642.301	35355.85
642.654	35389.97
643.007	35302.52
643.36	35190.66
643.713	35107.95
644.066	35193.14
644.419	34938.23
644.771	34824.34
645.124	34580.05
645.477	34387.97
645.83	34138.03
646.182	34048.99
646.535	33886.74
646.888	34104.36
647.24	33865.95
647.593	34118.37
647.945	33938.94
648.298	33703.92
648.65	33750.92
649.002	33673.18
649.355	33717.25
649.707	33785.72
650.059	33697.59
650.411	34101.65
650.763	34130.57
651.115	34627.51
651.467	34416.21
651.819	34337.57
652.171	34186.39
652.523	34163.79
652.875	34158.82
653.227	33942.78
653.578	34226.61
653.93	34096.67
654.282	33999.05
654.633	33838.38
654.985	34056.9
655.337	34027.3
655.688	34033.4
656.039	34052.61
656.391	33697.14
656.742	33839.51
657.094	33741.66
657.445	33858.04
657.796	33781.65
658.147	33684.26
658.498	33708.44
658.849	33908.43
659.2	33636.57
659.551	33605.84
659.902	33742.79
660.253	33662.11
660.604	33705.05
660.955	33710.24
661.306	33552.06
661.656	33615.56
662.007	33555.9
662.358	33449.91
662.708	33580.08
663.059	33481.78
663.409	33331.72
663.76	33574.88
664.11	33470.02
664.461	33529.46
664.811	33448.56
665.161	33508.67
665.511	33330.14
665.862	33381.21
666.212	33462.11
666.562	33441.55
666.912	33411.72
667.262	33246.07
667.612	33329.46
667.962	33268.45
668.312	33173.99
668.662	33356.35
669.011	33175.34
669.361	33250.14
669.711	33169.47
670.06	33145.74
670.41	33178.96
670.76	33206.75
671.109	33098.51
671.459	33078.17
671.808	33116.81
672.157	33038.85
672.507	32911.39
672.856	32998.17
673.205	33022.8
673.554	33091.5
673.904	32832.53
674.253	33002.24
674.602	32889.25
674.951	32432.09
675.3	32297.4
675.649	32668.01
675.998	32719.31
676.346	32670.5
676.695	32830.72
677.044	32595.47
677.393	32821.91
677.741	32801.11
678.09	32589.6
678.438	32503.72
678.787	32607.67
679.135	32663.49
679.484	32393.22
679.832	32549.6
680.181	32318.19
680.529	32402.03
680.877	32320.68
681.225	32323.84
681.573	32434.57
681.922	32322.03
682.27	32170.62
682.618	32034.81
682.966	32090.17
683.314	32078.42
683.661	31888.14
684.009	31776.51
684.357	31828.71
684.705	31675.49
685.053	31627.59
685.4	31656.74
685.748	31444.09
686.095	31479.79
686.443	31436.41
686.79	31288.84
687.138	31376.07
687.485	31369.74
687.832	31200.03
688.18	31257.65
688.527	30957.55
688.874	30988.73
689.221	30961.39
689.568	30790.55
689.915	30817.66
690.262	30702.19
690.609	30649.53
690.956	30440.73
691.303	30549.42
691.65	30408.18
691.997	30359.15
692.344	30193.27
692.69	30243.44
693.037	30151.69
693.383	29986.5
693.73	30046.61
694.077	29792.83
694.423	29791.93
694.769	29610.69
695.116	29668.99
695.462	29606.62
695.808	29528.21
696.155	29634.42
696.501	29287.08
696.847	29260.42
697.193	29131.15
697.539	29250.47
697.885	28994.66
698.231	28923.93
698.577	28893.2
698.923	28942.01
699.269	28786.98
699.614	28562.58
699.96	28503.6
700.306	28506.99
700.651	28453.43
700.997	28386.32
701.342	28304.06
701.688	28278.52
702.033	28128.24
702.379	28196.49
702.724	27996.04
703.069	28076.04
703.415	27755.82
703.76	27833.56
704.105	27766.9
704.45	27679.89
704.795	27599.9
705.14	27417.53
705.485	27460.46
705.83	27413.69
706.175	27357.64
706.52	27278.55
706.865	27224.09
707.209	27121.26
707.554	26955.17
707.899	27164.65
708.243	26869.52
708.588	26940.93
708.932	26819.58
709.277	26685.8
709.621	26760.37
709.966	26631.56
710.31	26652.35
710.654	26367.39
710.998	26382.98
711.342	26524.67
711.687	26321.96
712.031	26255.07
712.375	26029.99
712.719	26218.01
713.063	26101.18
713.407	26229.31
713.75	25949.32
714.094	26013.5
714.438	25838.13
714.782	25898.02
715.125	25785.25
715.469	25765.37
715.812	25713.17
716.156	25454.42
716.499	25688.08
716.843	25612.15
717.186	25530.8
717.53	25592.94
717.873	25544.13
718.216	25398.82
718.559	25328.09
718.902	25260.97
719.246	25170.13
719.589	25223.69
719.932	25063.47
720.275	25033.86
720.617	24940.98
720.96	25012.62
721.303	25014.65
721.646	24860.31
721.989	24706.41
722.331	24921.55
722.674	24742.34
723.016	24623.48
723.359	24535.8
723.701	24619.86
724.044	24425.06
724.386	24376.93
724.729	24446.76
725.071	24300.55
725.413	24373.77
725.755	24338.29
726.097	24178.74
726.439	24068.24
726.782	24190.49
727.124	24216.71
727.465	24124.96
727.807	23987.34
728.149	24033.44
728.491	23954.34
728.833	23891.52
729.175	23757.74
729.516	23899.2
729.858	23843.84
730.199	23876.83
730.541	23816.04
730.882	23775.82
731.224	23888.58
731.565	23585.76
731.906	23567.91
732.248	23689.26
732.589	23540.34
732.93	23373.34
733.271	23480.91
733.612	23501.47
733.953	23366.56
734.294	23239.11
734.635	23294.7
734.976	23299.44
735.317	23204.53
735.658	23165.66
735.999	23178.32
736.339	23077.3
736.68	23127.02
737.021	23044.31
737.361	22902.62
737.702	23006.57
738.042	22853.13
738.383	22905.33
738.723	22912.34
739.063	22841.15
739.404	22796.63
739.744	22793.92
740.084	22688.84
740.424	22745.33
740.764	22653.81
741.104	22786.24
741.444	22596.86
741.784	22456.3
742.124	22499.92
742.464	22429.41
742.804	22348.96
743.143	22312.35
743.483	22326.59
743.823	22225.12
744.162	22159.59
744.502	22211.11
744.841	22155.52
745.181	22275.29
745.52	22101.51
745.86	22189.64
746.199	22075.97
746.538	22024
746.877	22082.3
747.216	21964.56
747.556	21926.6
747.895	21973.83
748.234	21904.45
748.573	21746.04
748.911	21694.97
749.25	21749.88
749.589	21546.72
749.928	21671.01
750.267	21645.7
750.605	21692.03
750.944	21507.85
751.283	21446.16
751.621	21450.23
751.96	21301.3
752.298	21297.91
752.636	21312.83
752.975	21249.33
753.313	21172.49
753.651	21193.51
753.989	21099.28
754.327	21079.84
754.666	20997.13
755.004	20856.57
755.342	21006.85
755.679	21053.4
756.017	20923.46
756.355	21032.61
756.693	20717.59
757.031	20821.09
757.368	20727.08
757.706	20616.58
758.044	20532.06
758.381	20538.61
758.719	20433.53
759.056	20397.15
759.394	20394.89
759.731	20256.13
760.068	20202.8
760.405	20200.99
760.743	20086.42
761.08	20102.01
761.417	20000.77
761.754	20029.25
762.091	19927.78
762.428	19831.29
762.765	19727.56
763.102	19866.77
763.438	19681.23
763.775	19548.81
764.112	19544.74
764.449	19523.72
764.785	19524.4
765.122	19359.66
765.458	19261.58
765.795	19317.4
766.131	19262.71
766.467	19081.7
766.804	19037.64
767.14	18946.56
767.476	18941.37
767.812	18864.08
768.148	18919.9
768.485	18749.28
768.821	18640.36
769.157	18623.86
769.492	18623.41
769.828	18636.29
770.164	18412.79
770.5	18371.44
770.836	18357.88
771.171	18237.88
771.507	18179.58
771.842	18105
772.178	18047.38
772.513	18017.32
772.849	17958.79
773.184	17875.18
773.519	17781.85
773.855	17707.95
774.19	17731.91
774.525	17533.27
774.86	17541.86
775.195	17654.62
775.53	17413.72
775.865	17326.04
776.2	17251.02
776.535	17238.36
776.87	17197.91
777.205	17011.47
777.539	16923.34
777.874	17033.85
778.209	16808.54
778.543	16827.98
778.878	16672.27
779.212	16782.55
779.547	16647.42
779.881	16720.86
780.215	16565.16
780.55	16543.24
780.884	16460.08
781.218	16439.29
781.552	16412.17
781.886	16317.71
782.22	16157.48
782.554	16174.43
782.888	16061.67
783.222	16013.31
783.556	15915.01
783.889	15843.14
784.223	15735.8
784.557	15819.19
784.89	15752.75
785.224	15579.65
785.557	15660.1
785.891	15465.3
786.224	15549.82
786.558	15429.37
786.891	15308.69
787.224	15211.07
787.557	15173.33
787.891	15211.07
788.224	15057.17
788.557	15088.59
788.89	15125.42
789.223	15062.6
789.556	14991.41
789.888	14859.67
790.221	14899.21
790.554	14740.8
790.887	14752.55
791.219	14741.93
791.552	14703.74
791.884	14652.21
792.217	14557.3
792.549	14487.02
792.882	14381.03
793.214	14427.13
793.546	14376.51
793.879	14250.64
794.211	14129.97
794.543	14267.82
794.875	14106.92
795.207	14214.26
795.539	14106.92
795.871	14026.92
796.203	13964.1
796.535	13873.48
796.867	13926.81
797.198	13866.25
797.53	13854.72
797.862	13733.59
798.193	13768.17
798.525	13638
798.856	13602.3
799.188	13496.09
799.519	13497.67
799.85	13357.11
800.182	13410.66
800.513	13387.61
800.844	13314.17
801.175	13337.22
801.506	13297.9
801.837	13249.99
802.168	13213.61
802.499	13138.81
802.83	12970
803.161	13063.1
803.491	13059.71
803.822	13036.66
804.153	12906.95
804.483	12824.24
804.814	12785.37
805.145	12765.03
805.475	12750.34
805.805	12728.87
806.136	12782.21
806.466	12772.49
806.796	12677.35
807.126	12558.03
807.457	12621.53
807.787	12601.42
808.117	12521.2
808.447	12458.15
808.777	12515.09
809.107	12437.13
809.436	12431.03
809.766	12324.14
810.096	12294.54
810.426	12270.81
810.755	12270.81
811.085	12290.92
811.414	12219.51
811.744	12068.33
812.073	12021.32
812.403	12054.32
812.732	11991.72
813.061	12045.28
813.39	11958.5
813.719	11872.17
814.049	11902
814.378	11851.84
814.707	11808.45
815.036	11841.89
815.365	11832.17
815.693	11630.6
816.022	11750.14
816.351	11600.54
816.68	11574.78
817.008	11719.18
817.337	11507.66
817.665	11527.55
817.994	11505.63
818.322	11495.69
818.651	11464.73
818.979	11435.12
819.307	11505.4
819.636	11472.41
819.964	11346.31
820.292	11358.74
820.62	11382.24
820.948	11329.14
821.276	11311.28
821.604	11264.28
821.932	11316.71
822.259	11307.67
822.587	11327.78
822.915	11236.94
823.243	11225.86
823.57	11186.77
823.898	11347.67
824.225	11212.98
824.553	11137.05
824.88	11205.3
825.207	11311.06
825.535	11215.69
825.862	11237.16
826.189	11233.55
826.516	11270.38
826.843	11321.68
827.17	11313.77
827.497	11292.98
827.824	11294.34
828.151	11270.16
828.478	11245.3
828.805	11295.92
829.131	11208.01
829.458	11209.14
829.785	11197.62
830.111	11170.5
830.438	11253.88
830.764	11178.41
831.09	11269.7
831.417	11163.27
831.743	11222.7
832.069	11230.38
832.395	11060.44
832.722	11102.93
833.048	11126.2
833.374	11140.22
833.7	11047.79
834.026	11093.44
834.351	11091.86
834.677	11139.09
835.003	11114.45
835.329	11035.81
835.654	11059.31
835.98	10950.39
836.306	11002.37
836.631	10973.21
836.956	10999.65
837.282	10974.12
837.607	10895.02
837.932	10877.62
838.258	10988.36
838.583	10904.29
838.908	10892.31
839.233	10899.54
839.558	10868.13
839.883	10820
840.208	10747.01
840.533	10767.8
840.858	10783.39
841.182	10791.75
841.507	10741.81
841.832	10672.21
842.156	10655.71
842.481	10662.26
842.805	10645.31
843.13	10673.11
843.454	10598.08
843.778	10526.45
844.103	10502.27
844.427	10581.59
844.751	10499.1
845.075	10455.71
845.399	10508.37
845.723	10440.12
846.047	10420.69
846.371	10303.63
846.695	10347.24
847.019	10263.18
847.343	10199.22
847.666	10104.54
847.99	10053.46
848.313	10090.07
848.637	9954.71
848.96	10005.1
849.284	9947.7
849.607	9893.92
849.931	9896.86
850.254	9787.48
850.577	9724.89
850.9	9678.33
851.223	9679.24
851.546	9644.66
851.869	9659.58
852.192	9633.59
852.515	9583.87
852.838	9494.16
853.161	9485.57
853.483	9473.14
853.806	9461.62
854.129	9460.71
854.451	9375.97
854.774	9302.3
855.096	9324.44
855.419	9282.64
855.741	9268.17
856.063	9222.3
856.385	9211
856.708	9202.19
857.03	9071.12
857.352	9108.18
857.674	9123.77
857.996	9059.37
858.318	9011.46
858.64	8992.48
858.961	9025.92
859.283	8978.24
859.605	8923.32
859.926	9036.09
860.248	8913.83
860.57	8797.9
860.891	8952.48
861.212	8784.8
861.534	8808.75
861.855	8817.11
862.176	8757.91
862.498	8756.55
862.819	8710.45
863.14	8737.34
863.461	8723.56
863.782	8633.39
864.103	8674.29
864.424	8592.49
864.745	8644.91
865.065	8613.5
865.386	8553.39
865.707	8594.75
866.027	8579.15
866.348	8591.58
866.668	8500.06
866.989	8513.39
867.309	8423.45
867.63	8484.01
867.95	8485.14
868.27	8457.35
868.59	8423.68
868.91	8388.2
869.23	8443.34
869.55	8375.09
869.87	8384.36
870.19	8424.35
870.51	8422.32
870.83	8391.81
871.15	8301.42
871.469	8326.96
871.789	8346.16
872.109	8325.83
872.428	8326.28
872.748	8279.95
873.067	8290.35
873.386	8280.18
873.706	8261.2
874.025	8201.08
874.344	8132.16
874.663	8179.84
874.982	8155.89
875.301	8158.37
875.62	8131.93
875.939	8140.07
876.258	8095.55
876.577	8109.33
876.896	8033.86
877.214	8064.82
877.533	8045.61
877.852	8060.97
878.17	8039.05
878.489	8035.44
878.807	8015.1
879.125	7991.6
879.444	7956.57
879.762	8000.41
880.08	7950.69
880.398	7916.57
880.716	7915.44
881.034	7897.81
881.352	7885.16
881.67	7837.48
881.988	7918.38
882.306	7921.54
882.624	7832.05
882.941	7775.56
883.259	7762.9
883.577	7778.27
883.894	7806.74
884.212	7724.49
884.529	7649.91
884.846	7700.98
885.164	7686.52
885.481	7597.71
885.798	7639.74
886.115	7598.84
886.432	7585.05
886.75	7571.5
887.067	7498.28
887.383	7483.81
887.7	7518.39
888.017	7489.01
888.334	7484.72
888.651	7479.29
888.967	7407.43
889.284	7348.68
889.6	7390.94
889.917	7359.75
890.233	7306.42
890.55	7281.11
890.866	7310.49
891.182	7305.06
891.498	7251.28
891.815	7199.75
892.131	7215.57
892.447	7187.78
892.763	7171.96
893.079	7203.82
893.395	7166.31
893.71	7103.49
894.026	7112.75
894.342	7089.02
894.657	7027.78
894.973	7058.51
895.289	7028.91
895.604	7024.62
895.92	6976.71
896.235	6929.93
896.55	6966.31
896.865	6895.81
897.181	6880.44
897.496	6887.45
897.811	6767.68
898.126	6807.9
898.441	6813.32
898.756	6772.19
899.071	6743.27
899.386	6780.1
899.7	6713.67
900.015	6659.66
900.33	6607.91
900.644	6671.63
900.959	6608.36
901.273	6586.44
901.588	6592.99
901.902	6548.47
902.216	6523.61
902.531	6505.54
902.845	6501.02
903.159	6428.25
903.473	6437.29
903.787	6376.72
904.101	6304.64
904.415	6341.25
904.729	6299.66
905.042	6266.67
905.356	6264.64
905.67	6247.46
905.984	6247.91
906.297	6215.6
906.611	6189.84
906.924	6134.92
907.237	6179.67
907.551	6127.24
907.864	6073.68
908.177	6089.05
908.491	6073
908.804	6056.06
909.117	5998.88
909.43	6018.09
909.743	5941.03
910.056	5982.61
910.368	5868.72
910.681	5880.47
910.994	5869.39
911.307	5864.42
911.619	5742.84
911.932	5798.21
912.244	5751.43
912.557	5751.43
912.869	5745.56
913.181	5735.61
913.494	5688.16
913.806	5643.18
914.118	5613.58
914.43	5592.34
914.742	5620.36
915.054	5497.88
915.366	5519.35
915.678	5509.86
915.99	5495.62
916.302	5527.71
916.613	5439.12
916.925	5415.85
917.236	5388.05
917.548	5397.77
917.859	5369.97
918.171	5367.71
918.482	5283.19
918.794	5293.59
919.105	5288.84
919.416	5228.73
919.727	5238
920.038	5220.15
920.349	5161.39
920.66	5167.49
920.971	5171.33
921.282	5118
921.593	5080.26
921.903	5054.27
922.214	5044.1
922.525	5050.88
922.835	4995.97
923.146	5033.71
923.456	4996.65
923.767	4932.02
924.077	4984.67
924.387	4969.98
924.697	4897.22
925.008	4879.36
925.318	4888.18
925.628	4830.1
925.938	4815.86
926.248	4793.26
926.558	4783.55
926.867	4779.93
927.177	4738.35
927.487	4696.32
927.796	4655.64
928.106	4652.02
928.416	4701.74
928.725	4655.19
929.034	4635.53
929.344	4614.96
929.653	4577
929.962	4553.95
930.271	4599.14
930.581	4521.63
930.89	4467.4
931.199	4435.53
931.508	4460.84
931.817	4439.6
932.125	4461.75
932.434	4431.24
932.743	4439.37
933.051	4401.64
933.36	4350.56
933.669	4348.98
933.977	4291.58
934.286	4322.99
934.594	4311.69
934.902	4321.19
935.21	4257.01
935.519	4260.17
935.827	4243.67
936.135	4229.44
936.443	4175.2
936.751	4165.03
937.059	4170.68
937.367	4159.61
937.674	4130.68
937.982	4154.86
938.29	4095.88
938.597	4105.37
938.905	4065.83
939.213	3973.4
939.52	4015.43
939.827	4045.49
940.135	4008.2
940.442	3984.02
940.749	3946.28
941.056	3996.22
941.363	3968.88
941.67	3882.1
941.977	3883.68
942.284	3852.5
942.591	3852.27
942.898	3808.2
943.205	3815.89
943.511	3818.6
943.818	3764.36
944.125	3728.43
944.431	3741.31
944.738	3721.88
945.044	3764.82
945.35	3732.27
945.657	3724.59
945.963	3689.79
946.269	3655.89
946.575	3671.26
946.881	3647.76
947.187	3603.24
947.493	3582.45
947.799	3613.63
948.105	3568.44
948.41	3528.44
948.716	3541.09
949.022	3503.81
949.327	3520.75
949.633	3482.79
949.938	3473.75
950.244	3454.09
950.549	3444.37
950.854	3430.14
951.16	3403.7
951.465	3443.02
951.77	3358.27
952.075	3384.26
952.38	3344.04
952.685	3360.31
952.99	3308.33
953.294	3305.62
953.599	3286.64
953.904	3276.47
954.209	3290.93
954.513	3253.42
954.818	3293.42
955.122	3214.1
955.426	3251.61
955.731	3211.61
956.035	3212.97
956.339	3207.54
956.643	3177.04
956.948	3186.53
957.252	3151.95
957.556	3149.92
957.86	3128.22
958.163	3137.04
958.467	3105.85
958.771	3056.13
959.075	3067.89
959.378	3087.55
959.682	3073.76
959.985	3036.25
960.289	3013.65
960.592	3029.69
960.896	3009.81
961.199	2988.57
961.502	2988.57
961.805	2962.13
962.108	2926.42
962.411	2964.39
962.714	2945.18
963.017	2891.39
963.32	2881
963.623	2927.1
963.926	2870.38
964.228	2840.09
964.531	2842.81
964.833	2825.18
965.136	2788.34
965.438	2783.83
965.741	2787.21
966.043	2785.18
966.345	2784.05
966.648	2760.55
966.95	2788.34
967.252	2743.15
967.554	2767.1
967.856	2754
968.158	2731.17
968.46	2710.61
968.761	2656.82
969.063	2645.52
969.365	2674.9
969.666	2619.31
969.968	2626.99
970.269	2606.88
970.571	2642.81
970.872	2632.42
971.174	2601.68
971.475	2558.07
971.776	2600.78
972.077	2563.72
972.378	2579.76
972.679	2561.23
972.98	2545.64
973.281	2527.33
973.582	2527.79
973.883	2468.81
974.183	2471.97
974.484	2490.27
974.785	2453.89
975.085	2492.53
975.386	2431.97
975.686	2444.4
975.986	2429.26
976.287	2418.86
976.587	2420.67
976.887	2391.97
977.187	2423.83
977.487	2412.54
977.787	2406.43
978.087	2359.88
978.387	2369.6
978.687	2357.85
978.987	2330.73
979.286	2316.04
979.586	2292.76
979.885	2312.2
980.185	2304.06
980.484	2298.64
980.784	2262.26
981.083	2255.25
981.382	2267.91
981.682	2258.64
981.981	2248.47
982.28	2215.03
982.579	2256.61
982.878	2242.14
983.177	2207.57
983.475	2215.25
983.774	2182.03
984.073	2183.84
984.372	2164.86
984.67	2165.99
984.969	2159.89
985.267	2137.06
985.566	2083.73
985.864	2119.44
986.162	2110.17
986.461	2121.47
986.759	2070.62
987.057	2047.8
987.355	2087.35
987.653	2069.49
987.951	2040.12
988.249	2045.09
988.547	2055.93
988.844	2021.59
989.142	2024.52
989.44	1995.82
989.737	1986.56
990.035	2011.42
990.332	1993.56
990.63	1957.18
990.927	1993.79
991.224	1965.77
991.521	1953.79
991.819	1930.51
992.116	1944.75
992.413	1945.88
992.71	1929.16
993.006	1911.53
993.303	1916.73
993.6	1909.95
993.897	1871.31
994.193	1862.72
994.49	1876.5
994.787	1857.75
995.083	1859.78
995.379	1842.61
995.676	1821.14
995.972	1842.61
996.268	1805.32
996.565	1808.26
996.861	1793.79
997.157	1798.31
997.453	1771.65
997.749	1753.34
998.044	1733.01
998.34	1720.12
998.636	1742.95
998.932	1747.92
999.227	1706.57
999.523	1711.31
999.818	1713.57
1000.114	1711.31
1000.409	1712.44
1000.704	1689.16
1001	1700.69
1001.295	1674.93
1001.59	1663.4
1001.885	1671.31
1002.18	1655.95
1002.475	1613.46
1002.77	1623.63
1003.065	1630.86
1003.359	1604.42
1003.654	1611.43
1003.949	1599.45
1004.243	1576.63
1004.538	1596.51
1004.832	1567.36
1005.127	1572.78
1005.421	1559.22
1005.715	1601.71
1006.009	1559.22
1006.304	1520.81
1006.598	1544.08
1006.892	1516.06
1007.186	1504.08
1007.48	1480.81
1007.773	1476.51
1008.067	1444.88
1008.361	1465.22
1008.655	1459.34
1008.948	1481.71
1009.242	1430.19
1009.535	1441.49
1009.829	1413.24
1010.122	1445.33
1010.415	1405.78
1010.708	1403.97
1011.001	1402.39
1011.295	1408.27
1011.588	1389.06
1011.881	1359.23
1012.173	1341.83
1012.466	1341.83
1012.759	1349.96
1013.052	1370.53
1013.344	1317.2
1013.637	1322.39
1013.93	1335.95
1014.222	1314.49
1014.514	1322.39
1014.807	1324.43
1015.099	1311.55
1015.391	1251.66
1015.683	1280.59
1015.976	1271.1
1016.268	1276.97
1016.56	1253.92
1016.851	1257.76
1017.143	1253.92
1017.435	1228.39
1017.727	1212.34
1018.018	1247.82
1018.31	1233.58
1018.602	1208.5
1018.893	1229.06
1019.185	1214.15
1019.476	1184.32
1019.767	1144.09
1020.058	1152.91
1020.35	1168.5
1020.641	1148.84
1020.932	1149.29
1021.223	1150.42
1021.514	1147.71
1021.804	1126.92
1022.095	1152.91
1022.386	1130.54
1022.677	1084.66
1022.967	1099.12
1023.258	1096.19
1023.548	1094.6
1023.839	1091.67
1024.129	1090.31
1024.419	1075.85
1024.709	1068.62
1025	1068.62
1025.29	1072.68
1025.58	1042.63
1025.87	1030.65
1026.16	1048.5
1026.449	1014.38
1026.739	1026.81
1027.029	1027.49
1027.319	1006.92
1027.608	1003.31
1027.898	1007.6
1028.187	1024.78
1028.477	1004.44
1028.766	979.35
1029.055	968.28
1029.344	959.92
1029.634	959.01
1029.923	965.34
1030.212	941.16
1030.501	925.57
1030.79	955.17
1031.078	940.03
1031.367	921.5
1031.656	907.04
1031.945	918.56
1032.233	917.89
1032.522	915.4
1032.81	894.16
1033.099	926.7
1033.387	897.77
1033.675	900.03
1033.963	871.78
1034.251	884.89
1034.54	866.59
1034.828	853.48
1035.116	877.43
1035.403	874.5
1035.691	829.98
1035.979	842.86
1036.267	841.28
1036.554	833.14
1036.842	821.62
1037.129	829.98
1037.417	824.55
1037.704	821.16
1037.992	813.26
1038.279	829.53
1038.566	794.5
1038.853	794.5
1039.14	794.5
