Data from White_paper_FLMS001491_037.txt Node
Date: Tue Feb 07 10:35:00 GMT 2017
User: dcchb
Spectrometer: FLMS00149
Trigger mode: 0
Integration Time (sec): 2.000000E-2
Scans to average: 10
Electric dark correction enabled: true
Nonlinearity correction enabled: false
Boxcar width: 0
XAxis mode: Wavelengths
Number of Pixels in Spectrum: 2048
>>>>>Begin Spectral Data<<<<<
341.393	-11.27
341.776	-11.27
342.16	-11.27
342.543	-67.77
342.927	-84.72
343.31	-84.26
343.693	-69.57
344.077	-77.26
344.46	-37.48
344.843	-41.78
345.226	-28.67
345.61	-26.86
345.993	-15.34
346.376	-15.11
346.759	19.69
347.142	18.56
347.525	42.96
347.908	59.01
348.291	71.44
348.674	85.45
349.057	99.23
349.44	104.66
349.823	125.45
350.206	167.03
350.588	203.41
350.971	209.97
351.354	245.9
351.737	262.39
352.119	263.75
352.502	287.48
352.884	292.45
353.267	310.08
353.65	331.77
354.032	307.36
354.414	329.51
354.797	326.57
355.179	343.3
355.562	356.4
355.944	342.17
356.326	366.35
356.709	351.88
357.091	340.58
357.473	361.83
357.855	386.01
358.238	376.97
358.62	370.41
359.002	373.8
359.384	368.61
359.766	370.19
360.148	372.9
360.53	349.62
360.912	369.06
361.294	365.22
361.676	360.24
362.057	362.73
362.439	370.87
362.821	369.06
363.203	348.49
363.584	362.05
363.966	348.04
364.348	362.05
364.729	355.05
365.111	357.31
365.493	374.71
365.874	368.61
366.256	345.78
366.637	365.22
367.019	342.84
367.4	364.99
367.781	340.81
368.163	359.34
368.544	356.4
368.925	347.36
369.306	369.74
369.688	363.63
370.069	355.27
370.45	358.21
370.831	367.02
371.212	354.37
371.593	365.67
371.974	390.07
372.355	387.81
372.736	354.6
373.117	373.8
373.498	380.13
373.879	381.71
374.26	376.74
374.641	371.54
375.021	369.51
375.402	368.61
375.783	367.02
376.163	383.52
376.544	397.76
376.925	389.4
377.305	377.87
377.686	383.52
378.066	375.84
378.447	391.43
378.827	383.75
379.208	409.96
379.588	382.17
379.968	414.93
380.349	418.32
380.729	399.79
381.109	406.8
381.489	409.73
381.87	427.36
382.25	419.23
382.63	413.12
383.01	435.5
383.39	446.8
383.77	402.05
384.15	425.55
384.53	459.9
384.91	415.84
385.29	460.13
385.67	448.83
386.049	456.97
386.429	444.54
386.809	467.59
387.189	461.94
387.568	473.69
387.948	465.1
388.328	477.98
388.707	467.36
389.087	462.61
389.466	476.63
389.846	488.38
390.225	505.55
390.605	490.41
390.984	498.09
391.363	504.65
391.743	524.08
392.122	531.54
392.501	515.49
392.881	517.75
393.26	536.51
393.639	552.78
394.018	535.16
394.397	553.01
394.776	555.04
395.155	568.6
395.534	567.02
395.913	577.19
396.292	572.22
396.671	576.74
397.05	562.05
397.429	569.5
397.808	585.55
398.186	630.07
398.565	587.36
398.944	635.94
399.323	602.05
399.701	639.33
400.08	626.45
400.458	630.29
400.837	660.12
401.215	651.99
401.594	643.4
401.972	696.96
402.351	700.12
402.729	726.79
403.107	705.77
403.486	719.33
403.864	722.95
404.242	755.94
404.62	766.79
404.999	756.62
405.377	801.82
405.755	809.27
406.133	814.47
406.511	842.49
406.889	852.89
407.267	861.93
407.645	881.14
408.023	909.16
408.401	927.69
408.779	922.49
409.156	951.64
409.534	980.79
409.912	990.51
410.29	1035.93
410.667	1057.18
411.045	1087.46
411.422	1100.11
411.8	1159.77
412.178	1134.46
412.555	1182.6
412.933	1197.96
413.31	1269.15
413.687	1288.13
414.065	1316.83
414.442	1316.83
414.819	1378.3
415.197	1385.75
415.574	1415.36
415.951	1434.11
416.328	1445.87
416.705	1482.48
417.082	1505.53
417.46	1533.77
417.837	1560.21
418.214	1576.94
418.591	1636.6
418.967	1639.99
419.344	1642.47
419.721	1718.63
420.098	1682.47
420.475	1766.54
420.852	1782.13
421.228	1844.95
421.605	1792.3
421.982	1856.25
422.358	1853.31
422.735	1896.93
423.111	1905.06
423.488	1953.88
423.864	1980.32
424.241	2027.09
424.617	2053.53
424.994	2041.1
425.37	2082.46
425.746	2081.78
426.123	2133.53
426.499	2129.01
426.875	2143.7
427.251	2188.9
427.627	2270.48
428.003	2276.13
428.379	2312.06
428.756	2340.76
429.132	2367.42
429.507	2417.59
429.883	2480.19
430.259	2483.35
430.635	2508.89
431.011	2553.18
431.387	2613.52
431.763	2662.11
432.138	2695.1
432.514	2698.94
432.89	2748.43
433.265	2800.41
433.641	2847.86
434.016	2860.97
434.392	2931.48
434.767	3013.06
435.143	2980.97
435.518	2984.36
435.894	3076.78
436.269	3089.89
436.644	3152.04
437.02	3202.2
437.395	3184.8
437.77	3253.73
438.145	3307.06
438.52	3353.16
438.895	3385.02
439.271	3378.47
439.646	3430.22
440.021	3482.2
440.395	3478.13
440.77	3446.04
441.145	3540.95
441.52	3584.79
441.895	3599.48
442.27	3589.76
442.645	3611.01
443.019	3659.59
443.394	3662.3
443.769	3768.29
444.143	3725.35
444.518	3828.85
444.892	3736.65
445.267	3809.19
445.641	3860.49
446.016	3884.9
446.39	3860.49
446.764	3895.52
447.139	3865.69
447.513	3966.25
447.887	3931.68
448.262	4017.78
448.636	4014.39
449.01	4061.16
449.384	4087.38
449.758	4142.97
450.132	4148.62
450.506	4193.59
450.88	4222.06
451.254	4218.45
451.628	4292.34
452.002	4358.11
452.376	4346.58
452.75	4424.32
453.123	4433.58
453.497	4486.24
453.871	4509.06
454.244	4640.13
454.618	4676.97
454.992	4739.79
455.365	4723.07
455.739	4869.28
456.112	4895.49
456.486	4966.68
456.859	5000.12
457.232	5084.19
457.606	5123.74
457.979	5162.83
458.352	5251.42
458.725	5310.85
459.099	5368.25
459.472	5420.9
459.845	5472.43
460.218	5525.98
460.591	5565.53
460.964	5614.12
461.337	5808.92
461.71	5846.88
462.083	5910.38
462.456	5956.71
462.829	5974.33
463.201	6085.74
463.574	6153.54
463.947	6206.87
464.32	6321.22
464.692	6443.02
465.065	6444.15
465.438	6540.87
465.81	6605.96
466.183	6692.06
466.555	6843.92
466.928	6826.29
467.3	6893.41
467.672	6976.34
468.045	7181.31
468.417	7219.95
468.789	7219.5
469.161	7445.71
469.534	7506.95
469.906	7662.65
470.278	7670.79
470.65	7818.35
471.022	7945.81
471.394	8066.03
471.766	8104.22
472.138	8263.77
472.51	8423.08
472.882	8502.4
473.253	8638.67
473.625	8747.59
473.997	8973.35
474.369	8989.17
474.74	9121.6
475.112	9310.52
475.484	9470.97
475.855	9566.1
476.227	9629.61
476.598	9968.13
476.97	10054.68
477.341	10263.49
477.713	10354.78
478.084	10426.87
478.455	10725.85
478.827	10753.87
479.198	11093.52
479.569	11140.53
479.94	11480.86
480.311	11467.75
480.682	11791.13
481.053	12051.46
481.424	12274.96
481.795	12415.75
482.166	12595.63
482.537	12787.04
482.908	12905.9
483.279	13098.67
483.65	13361.71
484.021	13623.17
484.391	13717.86
484.762	13835.82
485.133	14008.02
485.503	14207.56
485.874	14442.13
486.244	14667.21
486.615	14923.25
486.985	15102.23
487.356	15311.04
487.726	15461.32
488.097	15782.66
488.467	15854.75
488.837	16155.99
489.207	16341.75
489.578	16579.25
489.948	16610.89
490.318	16898.34
490.688	16936.76
491.058	17241.16
491.428	17558.66
491.798	17604.99
492.168	18017.41
492.538	17974.92
492.908	18223.96
493.278	18514.34
493.648	18500.33
494.017	18735.35
494.387	18994.33
494.757	19013.31
495.126	19269.58
495.496	19308.9
495.866	19471.61
496.235	19653.3
496.605	19882.67
496.974	19978.49
497.344	20181.42
497.713	20186.84
498.082	20526.95
498.452	20621.41
498.821	20712.48
499.19	20794.06
499.559	20954.28
499.928	21081.06
500.298	21297.1
500.667	21456.87
501.036	21487.82
501.405	21683.98
501.774	21773.02
502.143	21943.41
502.512	22041.71
502.88	22199.44
503.249	22243.74
503.618	22351.76
503.987	22504.52
504.356	22691.18
504.724	22798.98
505.093	22884.4
505.462	23024.06
505.83	23175.69
506.199	23440.77
506.567	23555.12
506.936	23643.93
507.304	23950.81
507.672	24006.63
508.041	24163.91
508.409	24264.02
508.777	24509.89
509.145	24699.72
509.514	24665.37
509.882	24920.05
510.25	24984
510.618	25190.33
510.986	25219.7
511.354	25497.66
511.722	25774.94
512.09	25931.32
512.458	26008.61
512.826	26250.19
513.193	26299.9
513.561	26427.36
513.929	26623.06
514.297	26856.95
514.664	27028.7
515.032	27253.32
515.4	27348.46
515.767	27519.98
516.135	27658.06
516.502	27533.54
516.869	28055.34
517.237	28046.75
517.604	28049.23
517.972	28411.48
518.339	28566.28
518.706	28610.8
519.073	28841.98
519.44	28989.1
519.808	29384.57
520.175	29267.06
520.542	29663.88
520.909	29916.08
521.276	29863.2
521.643	30237.43
522.009	30375.5
522.376	30560.58
522.743	30899.1
523.11	31055.93
523.477	31305.42
523.843	31588.58
524.21	31869.92
524.577	31995.12
524.943	32211.61
525.31	32403.47
525.676	32556.69
526.043	32808.88
526.409	32925.26
526.776	33236.67
527.142	33314.86
527.508	33567.51
527.874	33721.4
528.241	33943.99
528.607	34169.75
528.973	34541.72
529.339	34539.91
529.705	34872.56
530.071	35247.46
530.437	35162.72
530.803	35381.02
531.169	35710.28
531.535	35640
531.901	35819.2
532.267	35945.52
532.632	36148.46
532.998	36333.54
533.364	36595.22
533.73	36526.07
534.095	36901.2
534.461	37001.09
534.826	37234.76
535.192	37411.47
535.557	37645.82
535.923	37736.89
536.288	37842.42
536.653	38031.57
537.019	38003.32
537.384	38119.7
537.749	38319.7
538.114	38466.36
538.479	38548.85
538.845	38683.98
539.21	38781.61
539.575	39003.52
539.94	39033.13
540.305	39377.98
540.67	39294.14
541.034	39568.48
541.399	39680.34
541.764	39791.98
542.129	39942.71
542.494	39890.73
542.858	40156.49
543.223	40103.61
543.587	40484.39
543.952	40448.91
544.316	40692.29
544.681	40652.97
545.045	40777.26
545.41	41193.07
545.774	41076.01
546.138	41292.5
546.503	41258.6
546.867	41347.87
547.231	41868.76
547.595	41805.26
547.959	42021.52
548.324	42003.9
548.688	42057.91
549.052	42240.27
549.416	42407.73
549.779	42426.48
550.143	42532.47
550.507	43039.8
550.871	43093.13
551.235	43031.89
551.599	43323.63
551.962	43440.92
552.326	43489.96
552.689	43733.34
553.053	43677.52
553.417	43666.45
553.78	44288.81
554.143	44098.53
554.507	44343.5
554.87	44414.23
555.234	44826.65
555.597	44638.4
555.96	44887.89
556.323	44950.48
556.686	45089.69
557.05	45336.46
557.413	45583.46
557.776	45522.9
558.139	45754.76
558.502	45856.45
558.865	46005.37
559.228	46260.28
559.59	46227.29
559.953	46430.45
560.316	46731
560.679	46882.86
561.041	47036.98
561.404	47119.69
561.767	47360.36
562.129	47370.08
562.492	47699.34
562.854	47736.63
563.217	47858.43
563.579	47790.86
563.941	48188.82
564.304	48269.27
564.666	48523.95
565.028	48583.61
565.39	48774.79
565.753	49006.65
566.115	49128.23
566.477	49277.15
566.839	49391.27
567.201	49518.27
567.563	49631.27
567.925	49857.25
568.287	50022.22
568.648	50024.02
569.01	50187.86
569.372	50503.79
569.734	50359.83
570.095	50661.07
570.457	50819.03
570.819	50828.97
571.18	50807.73
571.542	51064.45
571.903	51096.54
572.265	51251.79
572.626	51358.9
572.987	51417.89
573.349	51517.32
573.71	51761.15
574.071	51842.51
574.432	51843.64
574.794	52059.45
575.155	52124.99
575.516	51955.27
575.877	52143.97
576.238	52341.48
576.599	52421.47
576.96	52447.01
577.32	52537.86
577.681	52578.76
578.042	52570.17
578.403	52682.03
578.763	52752.77
579.124	52869.15
579.485	52993.21
579.845	52989.6
580.206	52975.81
580.566	53008.35
580.927	53082.25
581.287	53152.98
581.648	53141.91
582.008	53298.51
582.368	53204.73
582.728	53324.05
583.089	53214.22
583.449	53277.05
583.809	53359.3
584.169	53406.76
584.529	53374.9
584.889	53641.1
585.249	53388
585.609	53379.19
585.969	53674.55
586.329	53465.52
586.688	53554.55
587.048	53487.89
587.408	53532.63
587.768	53575.79
588.127	53573.99
588.487	53585.51
588.846	53844.26
589.206	53527.43
589.565	53645.17
589.925	53760.42
590.284	53735.11
590.643	53756.58
591.003	53842.68
591.362	53862.34
591.721	53809.46
592.08	53840.65
592.44	54018.04
592.799	53964.26
593.158	53921.32
593.517	53939.85
593.876	53993.86
594.235	53976.91
594.593	53936.92
594.952	54049.45
595.311	53940.76
595.67	54138.94
596.029	54216.91
596.387	54152.95
596.746	54213.07
597.104	54222.11
597.463	54126.74
597.822	54261.2
598.18	54173.97
598.538	54214.65
598.897	54325.61
599.255	54106.18
599.613	54513.17
599.972	54370.12
600.33	54454.19
600.688	54243.57
601.046	54465.49
601.404	54547.52
601.762	54509.33
602.12	54600.85
602.478	54566.73
602.836	54581.42
603.194	54501.87
603.552	54526.73
603.91	54462.78
604.268	54599.72
604.625	54603.11
604.983	54738.93
605.341	54532.15
605.698	54711.81
606.056	54685.6
606.413	54714.07
606.771	54786.38
607.128	54830.45
607.485	54705.93
607.843	54830.68
608.2	54900.51
608.557	54995.19
608.914	54835.87
609.272	55018.24
609.629	55084.46
609.986	55134.4
610.343	54973.95
610.7	55225.24
611.057	55103.89
611.414	55074.74
611.771	55162.42
612.127	55260.04
612.484	55244.9
612.841	55297.78
613.198	55186.37
613.554	55218.01
613.911	55396.76
614.267	55379.36
614.624	55333.04
614.98	55413.71
615.337	55579.36
615.693	55492.58
616.05	55443.32
616.406	55493.94
616.762	55461.17
617.118	55479.7
617.475	55508.63
617.831	55568.74
618.187	55570.77
618.543	55580.94
618.899	55702.97
619.255	55655.74
619.611	55637.66
619.967	55737.77
620.323	55809.63
620.678	55729.18
621.034	55639.92
621.39	55612.13
621.746	55650.77
622.101	55942.74
622.457	55716.53
622.812	55796.53
623.168	55878.78
623.523	55733.48
623.879	55862.97
624.234	55680.6
624.589	55762.63
624.945	55744.1
625.3	55870.65
625.655	55808.96
626.01	55805.11
626.365	55891.21
626.72	55766.02
627.075	55850.54
627.43	55773.03
627.785	55753.82
628.14	55856.19
628.495	55867.94
628.85	55826.81
629.205	55764.66
629.559	55895.96
629.914	55786.36
630.269	55830.65
630.623	55716.53
630.978	55716.08
631.332	55838.11
631.687	55879.91
632.041	55711.56
632.396	55800.14
632.75	55709.52
633.104	55724.66
633.459	55608.96
633.813	55627.27
634.167	55634.27
634.521	55608.74
634.875	55636.98
635.229	55576.87
635.583	55431.57
635.937	55544.78
636.291	55531.45
636.645	55539.36
636.999	55421.85
637.352	55453.26
637.706	55385.24
638.06	55495.74
638.413	55423.88
638.767	55360.38
639.121	55384.33
639.474	55291.23
639.828	55307.73
640.181	55319.03
640.534	55333.94
640.888	55207.84
641.241	55124.68
641.594	55230.89
641.947	55307.73
642.301	55155.64
642.654	55155.64
643.007	55173.04
643.36	55134.17
643.713	55152.7
644.066	55160.61
644.419	55020.95
644.771	54851.24
645.124	54552.04
645.477	54502.78
645.83	54416.68
646.182	54341.88
646.535	54284.48
646.888	54334.87
647.24	54177.13
647.593	54331.71
647.945	54280.18
648.298	54138.72
648.65	54071.6
649.002	54065.73
649.355	54232.95
649.707	54117.7
650.059	54215.1
650.411	54577.58
650.763	54624.81
651.115	54946.83
651.467	54756.1
651.819	54705.03
652.171	54714.97
652.523	54708.42
652.875	54678.82
653.227	54589.78
653.578	54749.32
653.93	54663.68
654.282	54618.48
654.633	54581.42
654.985	54601.08
655.337	54623.68
655.688	54581.87
656.039	54655.99
656.391	54394.53
656.742	54450.57
657.094	54451.48
657.445	54491.02
657.796	54504.36
658.147	54414.87
658.498	54422.78
658.849	54576.45
659.2	54519.05
659.551	54431.14
659.902	54422.78
660.253	54383.23
660.604	54427.75
660.955	54293.97
661.306	54410.35
661.656	54307.75
662.007	54374.64
662.358	54276.12
662.708	54365.6
663.059	54379.16
663.409	54103.24
663.76	54296
664.11	54320.18
664.461	54324.02
664.811	54276.57
665.161	54218.26
665.511	54156.57
665.862	54279.5
666.212	54387.07
666.562	54189.34
666.912	54253.52
667.262	54112.96
667.612	54139.4
667.962	54164.03
668.312	54164.93
668.662	54320.63
669.011	54120.41
669.361	54065.5
669.711	54051.49
670.06	53951.38
670.41	53986.18
670.76	53904.83
671.109	54010.36
671.459	54038.61
671.808	53890.14
672.157	53966.07
672.507	53728.11
672.856	53785.73
673.205	53876.13
673.554	53856.69
673.904	53727.43
674.253	53836.35
674.602	53815.56
674.951	53317.95
675.3	53204.51
675.649	53672.52
675.998	53562.24
676.346	53650.82
676.695	53757.26
677.044	53489.92
677.393	53549.81
677.741	53597.04
678.09	53498.73
678.438	53373.99
678.787	53451.28
679.135	53518.4
679.484	53198.63
679.832	53352.52
680.181	53106.65
680.529	53276.59
680.877	53117.5
681.225	53043.61
681.573	53215.13
681.922	53068.69
682.27	52930.39
682.618	52949.82
682.966	52904.63
683.314	52971.29
683.661	52901.69
684.009	52696.04
684.357	52668.93
684.705	52544.86
685.053	52550.06
685.4	52491.3
685.748	52371.98
686.095	52293.12
686.443	52157.3
686.79	52216.06
687.138	52156.17
687.485	52105.78
687.832	52045.44
688.18	52012.22
688.527	51810.42
688.874	51875.27
689.221	51722.74
689.568	51684.77
689.915	51508.28
690.262	51583.98
690.609	51423.53
690.956	51385.8
691.303	51269.19
691.65	51120.94
691.997	51123.88
692.344	50830.33
692.69	50940.38
693.037	50911.01
693.383	50646.83
693.73	50732.25
694.077	50539.94
694.423	50471.7
694.769	50351.92
695.116	50336.11
695.462	50262.21
695.808	50082.78
696.155	50240.97
696.501	49899.73
696.847	49828.77
697.193	49690.7
697.539	49876.46
697.885	49546.52
698.231	49343.59
698.577	49451.61
698.923	49314.89
699.269	49193.76
699.614	48982.24
699.96	49032.19
700.306	49021.11
700.651	48677.84
700.997	48662.03
701.342	48617.96
701.688	48575.25
702.033	48384.74
702.379	48494.57
702.724	48205.99
703.069	48315.59
703.415	47806.68
703.76	47809.39
704.105	47978.2
704.45	47711.54
704.795	47551.77
705.14	47361.04
705.485	47449.63
705.83	47215.28
706.175	47294.38
706.52	47219.13
706.865	47047.38
707.209	47045.12
707.554	46955.63
707.899	46987.49
708.243	46704.34
708.588	46640.84
708.932	46509.31
709.277	46344.8
709.621	46401.97
709.966	46083.56
710.31	46295.08
710.654	45854.87
710.998	45924.47
711.342	46006.95
711.687	45806.73
712.031	45663.46
712.375	45632.95
712.719	45561.77
713.063	45544.59
713.407	45709.56
713.75	45324.94
714.094	45284.04
714.438	45235.9
714.782	45260.76
715.125	44963.59
715.469	44959.3
715.812	44854.22
716.156	44660.55
716.499	44643.6
716.843	44612.64
717.186	44472.53
717.53	44574.9
717.873	44721.34
718.216	44463.49
718.559	44335.36
718.902	44087.91
719.246	44177.85
719.589	44100.11
719.932	43798.2
720.275	43847.69
720.617	43844.98
720.96	43735.83
721.303	43734.25
721.646	43863.28
721.989	43529.05
722.331	43607.24
722.674	43521.82
723.016	43500.58
723.359	43452.9
723.701	43339.91
724.044	43140.14
724.386	42977.43
724.729	43211.77
725.071	42975.85
725.413	42969.29
725.755	42924.32
726.097	42856.98
726.439	42626.25
726.782	42639.13
727.124	42845.91
727.465	42629.64
727.807	42411.57
728.149	42447.73
728.491	42361.63
728.833	42210.67
729.175	42090.67
729.516	42097.45
729.858	42124.8
730.199	42065.81
730.541	42008.19
730.882	41969.09
731.224	41981.75
731.565	41711.47
731.906	41805.26
732.248	41796.9
732.589	41588.09
732.93	41535.89
733.271	41578.37
733.612	41528.2
733.953	41605.04
734.294	41422.44
734.635	41334.08
734.976	41451.59
735.317	41104.03
735.658	41217.25
735.999	40981.78
736.339	40912.4
736.68	41173.41
737.021	40914.21
737.361	40811.38
737.702	40885.96
738.042	40717.15
738.383	40594.22
738.723	40712.4
739.063	40568.45
739.404	40654.33
739.744	40594.44
740.084	40370.72
740.424	40416.82
740.764	40376.82
741.104	40483.94
741.444	40186.77
741.784	40106.77
742.124	40252.98
742.464	40158.07
742.804	40065.42
743.143	40057.73
743.483	40045.98
743.823	39867.68
744.162	39751.53
744.502	39909.04
744.841	39683.5
745.181	39818.42
745.52	39753.79
745.86	39741.81
746.199	39511.53
746.538	39521.02
746.877	39589.72
747.216	39488.48
747.556	39474.7
747.895	39416.39
748.234	39175.5
748.573	39158.32
748.911	39272.44
749.25	39053.01
749.589	38895.95
749.928	38865.9
750.267	38988.83
750.605	38831.32
750.944	38727.82
751.283	38629.07
751.621	38619.58
751.96	38410.09
752.298	38483.99
752.636	38425.01
752.975	38279.25
753.313	38298.46
753.651	38311.11
753.989	38093.72
754.327	38053.72
754.666	37958.13
755.004	38004
755.342	37969.65
755.679	37836.32
756.017	37706.83
756.355	37629.77
756.693	37403.11
757.031	37573.28
757.368	37287.18
757.706	37160.41
758.044	37133.74
758.381	37149.79
758.719	36993.63
759.056	37010.13
759.394	36806.97
759.731	36507.32
760.068	36588.44
760.405	36547.32
760.743	36341.22
761.08	36440.88
761.417	36180.77
761.754	36153.2
762.091	36033.21
762.428	35906.88
762.765	35672.08
763.102	35932.64
763.438	35654.23
763.775	35578.08
764.112	35464.86
764.449	35491.07
764.785	35265.32
765.122	34994.14
765.458	34908.49
765.795	34986.45
766.131	34839.56
766.467	34675.73
766.804	34473.7
767.14	34463.53
767.476	34516.86
767.812	34147.83
768.148	34362.51
768.485	34017.21
768.821	33846.6
769.157	33843.88
769.492	33781.51
769.828	33795.52
770.164	33540.84
770.5	33405.7
770.836	33477.79
771.171	33103.11
771.507	33127.07
771.842	32933.63
772.178	32827.87
772.513	32953.29
772.849	32804.36
773.184	32530.92
773.519	32444.15
773.855	32419.29
774.19	32308.78
774.525	32105.17
774.86	32101.78
775.195	32027.43
775.53	31904.27
775.865	31698.63
776.2	31473.55
776.535	31300.45
776.87	31250.73
777.205	31235.59
777.539	30928.03
777.874	31108.81
778.209	30867.69
778.543	30808.26
778.878	30649.17
779.212	30613.69
779.547	30380.02
779.881	30529.85
780.215	30252.11
780.55	30401.71
780.884	30080.14
781.218	29895.06
781.552	29949.07
781.886	29813.71
782.22	29548.18
782.554	29485.81
782.888	29250.78
783.222	29256.89
783.556	29029.32
783.889	28955.43
784.223	28933.73
784.557	28749.1
784.89	28901.64
785.224	28648.54
785.557	28516.11
785.891	28443.8
786.224	28347.53
786.558	28254.88
786.891	27995.22
787.224	28094.88
787.557	27975.11
787.891	27816.02
788.224	27806.53
788.557	27848.11
788.89	27704.16
789.223	27700.09
789.556	27421.68
789.888	27439.98
790.221	27218.3
790.554	27014.91
790.887	27126.77
791.219	26992.31
791.552	26815.82
791.884	26780.57
792.217	26593.45
792.549	26389.62
792.882	26398.88
793.214	26254.03
793.546	26352.56
793.879	26145.1
794.211	26123.64
794.543	26118.44
794.875	26084.99
795.207	26055.39
795.539	25778.11
795.871	25861.72
796.203	25577.21
796.535	25459.25
796.867	25401.85
797.198	25339.02
797.53	25402.52
797.862	25169.76
798.193	25168.86
798.525	25048.18
798.856	24986.04
799.188	24790.11
799.519	24770.9
799.85	24671.7
800.182	24622.66
800.513	24537.01
800.844	24407.3
801.175	24505.15
801.506	24426.96
801.837	24353.96
802.168	24271.25
802.499	24279.39
802.83	24034.42
803.161	23955.33
803.491	24050.7
803.822	23997.59
804.153	23796.46
804.483	23576.13
804.814	23683.02
805.145	23624.72
805.475	23520.77
805.805	23519.18
806.136	23424.5
806.466	23384.95
806.796	23345.86
807.126	23158.74
807.457	23055.69
807.787	23012.3
808.117	22996.71
808.447	22876.04
808.777	22972.08
809.107	22914
809.436	22697.28
809.766	22718.98
810.096	22642.82
810.426	22616.16
810.755	22484.18
811.085	22491.64
811.414	22409.38
811.744	22135.72
812.073	22165.55
812.403	22214.36
812.732	22183.85
813.061	22054.14
813.39	21965.33
813.719	21993.57
814.049	22017.98
814.378	21833.8
814.707	21793.35
815.036	21747.03
815.365	21685.33
815.693	21531.67
816.022	21501.16
816.351	21359.69
816.68	21219.36
817.008	21366.92
817.337	21215.06
817.665	21207.15
817.994	21207.15
818.322	21149.75
818.651	21131.68
818.979	20931.23
819.307	21069.3
819.636	21064.33
819.964	20822.08
820.292	20851.46
820.62	20850.78
820.948	20825.92
821.276	20961.06
821.604	20730.56
821.932	20897.78
822.259	20818.46
822.587	20801.29
822.915	20614.4
823.243	20817.33
823.57	20763.32
823.898	20733.27
824.225	20716.55
824.553	20707.96
824.88	20622.54
825.207	20709.09
825.535	20685.13
825.862	20683.1
826.189	20666.6
826.516	20795.64
826.843	20782.08
827.17	20636.32
827.497	20712.48
827.824	20717.22
828.151	20735.75
828.478	20640.39
828.805	20744.12
829.131	20652.82
829.458	20656.66
829.785	20540.05
830.111	20619.83
830.438	20690.11
830.764	20654.17
831.09	20613.95
831.417	20423.22
831.743	20618.24
832.069	20663.21
832.395	20467.29
832.722	20551.35
833.048	20503.67
833.374	20487.4
833.7	20462.77
834.026	20460.28
834.351	20461.64
834.677	20350.45
835.003	20481.75
835.329	20391.13
835.654	20373.28
835.98	20253.51
836.306	20295.99
836.631	20191.36
836.956	20315.88
837.282	20219.84
837.607	20118.14
837.932	20028.88
838.258	20129.44
838.583	20150.91
838.908	19936.68
839.233	19939.62
839.558	19992.72
839.883	19922.89
840.208	19834.76
840.533	19869.34
840.858	19898.49
841.182	19756.12
841.507	19832.95
841.832	19652.39
842.156	19578.27
842.481	19580.76
842.805	19557.93
843.13	19575.33
843.454	19478.84
843.778	19421.89
844.103	19364.72
844.427	19282.23
844.751	19360.65
845.075	19272.52
845.399	19106.19
845.723	19033.65
846.047	19124.27
846.371	18882.47
846.695	18892.86
847.019	18776.94
847.343	18655.58
847.666	18553.44
847.99	18485.19
848.313	18479.32
848.637	18443.39
848.96	18293.33
849.284	18343.95
849.607	18079.78
849.931	18088.37
850.254	18044.75
850.577	17886.11
850.9	17823.97
851.223	17795.94
851.546	17682.05
851.869	17507.82
852.192	17665.33
852.515	17541.26
852.838	17464.88
853.161	17383.75
853.483	17380.14
853.806	17192.34
854.129	17225.79
854.451	17216.52
854.774	17114.38
855.096	17001.16
855.419	17010.88
855.741	17012.91
856.063	16855.18
856.385	16827.16
856.708	16805.01
857.03	16692.92
857.352	16723.88
857.674	16599.37
857.996	16569.31
858.318	16440.73
858.64	16573.15
858.961	16436.66
859.283	16508.75
859.605	16207.06
859.926	16379.48
860.248	16244.35
860.57	16182.65
860.891	16158.47
861.212	16115.31
861.534	16076.22
861.855	16030.79
862.176	16088.42
862.498	16021.53
862.819	15960.74
863.14	15868.76
863.461	15952.6
863.782	15872.83
864.103	15841.19
864.424	15757.35
864.745	15776.11
865.065	15661.54
865.386	15725.72
865.707	15711.93
866.027	15791.7
866.348	15728.88
866.668	15612.95
866.989	15552.61
867.309	15559.62
867.63	15512.61
867.95	15496.8
868.27	15439.17
868.59	15430.13
868.91	15370.02
869.23	15381.32
869.55	15220.64
869.87	15358.95
870.19	15299.29
870.51	15338.38
870.83	15264.71
871.15	15298.84
871.469	15273.98
871.789	15200.76
872.109	15141.33
872.428	15049.35
872.748	15174.54
873.067	15109.91
873.386	15121.66
873.706	15052.97
874.025	14878.96
874.344	14899.98
874.663	15013.64
874.982	14952.4
875.301	14857.49
875.62	14876.93
875.939	14818.62
876.258	14852.75
876.577	14778.4
876.896	14759.41
877.214	14788.34
877.533	14744.95
877.852	14689.36
878.17	14632.64
878.489	14647.78
878.807	14601.23
879.125	14634.67
879.444	14580.21
879.762	14548.57
880.08	14582.24
880.398	14465.86
880.716	14511.96
881.034	14403.49
881.352	14406.43
881.67	14246.21
881.988	14339.99
882.306	14265.19
882.624	14274.91
882.941	14244.85
883.259	14116.72
883.577	14153.1
883.894	14140.9
884.212	14098.64
884.529	14079.43
884.846	14012.99
885.164	13964.86
885.481	13933.9
885.798	14024.29
886.115	13869.95
886.432	13872.21
886.75	13863.17
887.067	13833.56
887.383	13747.24
887.7	13811.42
888.017	13733.9
888.334	13639.9
888.651	13588.6
888.967	13644.87
889.284	13570.29
889.6	13478.54
889.917	13479.9
890.233	13415.72
890.55	13413.46
890.866	13325.55
891.182	13325.55
891.498	13311.99
891.815	13236.52
892.131	13250.53
892.447	13186.8
892.763	13128.5
893.079	13052.57
893.395	13013.02
893.71	13044.66
894.026	12943.42
894.342	12920.37
894.657	12834.95
894.973	12789.75
895.289	12815.51
895.604	12806.25
895.92	12751.11
896.235	12648.96
896.55	12563.77
896.865	12610.54
897.181	12545.91
897.496	12484.9
897.811	12494.16
898.126	12424.11
898.441	12484.22
898.756	12361.96
899.071	12299.59
899.386	12329.87
899.7	12197.45
900.015	12165.81
900.33	12031.8
900.644	12128.07
900.959	12103.66
901.273	11973.72
901.588	11990.9
901.902	11846.72
902.216	11888.3
902.531	11804.01
902.845	11705.03
903.159	11684.24
903.473	11713.62
903.787	11551.59
904.101	11559.27
904.415	11524.25
904.729	11489.9
905.042	11462.78
905.356	11370.58
905.67	11338.94
905.984	11328.54
906.297	11309.56
906.611	11167.87
906.924	11182.33
907.237	11202.9
907.551	11111.6
907.864	11076.8
908.177	11053.75
908.491	10995.45
908.804	10922.23
909.117	10860.53
909.43	10819.63
909.743	10735.11
910.056	10791.61
910.368	10701.89
910.681	10674.1
910.994	10662.8
911.307	10559.98
911.619	10471.17
911.932	10466.65
912.244	10428.91
912.557	10368.8
912.869	10352.52
913.181	10367.44
913.494	10313.43
913.806	10225.75
914.118	10214.22
914.43	10122.25
914.742	10067.56
915.054	10012.65
915.366	10067.33
915.678	9938.52
915.99	9925.64
916.302	9906.43
916.613	9805.19
916.925	9809.49
917.236	9781.47
917.548	9651.53
917.859	9651.07
918.171	9594.13
918.482	9601.36
918.794	9504.19
919.105	9549.83
919.416	9404.98
919.727	9366.56
920.038	9391.65
920.349	9319.56
920.66	9301.03
920.971	9312.1
921.282	9170.18
921.593	9177.87
921.903	9081.15
922.214	9159.11
922.525	9093.12
922.835	9007.7
923.146	8954.14
923.456	8948.72
923.767	8870.53
924.077	8911.88
924.387	8810.42
924.697	8785.33
925.008	8769.52
925.318	8771.1
925.628	8679.8
925.938	8720.02
926.248	8515.96
926.558	8575.62
926.867	8473.25
927.177	8513.48
927.487	8485.91
927.796	8329.98
928.106	8358.23
928.416	8301.28
928.725	8282.52
929.034	8235.74
929.344	8243.88
929.653	8253.82
929.962	8151.68
930.271	8070.32
930.581	8040.49
930.89	8048.63
931.199	7978.35
931.508	7991.23
931.817	7950.78
932.125	7914.62
932.434	7907.16
932.743	7848.86
933.051	7854.74
933.36	7763.89
933.669	7690.9
933.977	7710.56
934.286	7645.48
934.594	7645.25
934.902	7565.48
935.21	7503.11
935.519	7562.09
935.827	7511.02
936.135	7435.54
936.443	7455.65
936.751	7408.42
937.059	7386.27
937.367	7317.58
937.674	7286.84
937.982	7287.07
938.29	7249.33
938.597	7255.88
938.905	7140.86
939.213	7120.07
939.52	7091.82
939.827	7080.97
940.135	7059.96
940.442	6953.07
940.749	6952.84
941.056	6998.94
941.363	6838.94
941.67	6941.54
941.977	6844.82
942.284	6816.8
942.591	6868.55
942.898	6702.22
943.205	6731.15
943.511	6691.6
943.818	6666.75
944.125	6598.27
944.431	6529.8
944.738	6559.4
945.044	6532.96
945.35	6522.34
945.657	6458.62
945.963	6446.19
946.269	6355.34
946.575	6393.08
946.881	6319.18
947.187	6355.34
947.493	6284.61
947.799	6302.91
948.105	6182.01
948.41	6247.32
948.716	6201.67
949.022	6154.22
949.327	6094.33
949.633	6077.61
949.938	6051.39
950.244	6114.67
950.549	6004.84
950.854	5996.03
951.16	5968.46
951.465	5943.83
951.77	5962.81
952.075	5912.64
952.38	5866.77
952.685	5867.22
952.99	5797.84
953.294	5758.29
953.599	5775.02
953.904	5728.92
954.209	5675.13
954.513	5680.56
954.818	5652.31
955.122	5667.22
955.426	5616.38
955.731	5594.01
956.035	5515.36
956.339	5532.99
956.643	5504.97
956.948	5473.56
957.252	5473.1
957.556	5511.75
957.86	5412.32
958.163	5345.2
958.467	5347.23
958.771	5283.05
959.075	5325.09
959.378	5252.77
959.682	5221.36
959.985	5266.56
960.289	5220.46
960.592	5170.06
960.896	5146.79
961.199	5172.55
961.502	5125.32
961.805	5095.49
962.108	5043.29
962.411	5027.47
962.714	5017.98
963.017	5056.62
963.32	4989.05
963.623	4980.24
963.926	4921.93
964.228	4918.09
964.531	4867.24
964.833	4855.72
965.136	4786.57
965.438	4814.14
965.741	4809.85
966.043	4792.44
966.345	4715.84
966.648	4721.26
966.95	4721.26
967.252	4707.7
967.554	4690.3
967.856	4696.18
968.158	4603.52
968.46	4587.93
968.761	4576.41
969.063	4582.51
969.365	4537.31
969.666	4549.97
969.968	4540.7
970.269	4500.7
970.571	4476.07
970.872	4439.46
971.174	4417.77
971.475	4375.96
971.776	4377.09
972.077	4366.92
972.378	4338.9
972.679	4372.12
972.98	4313.14
973.281	4282.18
973.582	4238.56
973.883	4258.67
974.183	4202.4
974.484	4227.71
974.785	4152.24
975.085	4145.91
975.386	4202.18
975.686	4118.79
975.986	4112.24
976.287	4125.12
976.587	4057.77
976.887	4038.11
977.187	4041.96
977.487	4007.38
977.787	4031.11
978.087	3943.88
978.387	3987.95
978.687	3934.84
978.987	3930.55
979.286	3911.56
979.586	3873.15
979.885	3865.24
980.185	3866.14
980.484	3830.89
980.784	3810.1
981.083	3786.82
981.382	3773.04
981.682	3785.92
981.981	3759.48
982.28	3691
982.579	3700.72
982.878	3726.94
983.177	3689.2
983.475	3650.78
983.774	3625.47
984.073	3605.81
984.372	3594.96
984.67	3584.79
984.969	3601.97
985.267	3595.64
985.566	3538.01
985.864	3540.95
986.162	3485.13
986.461	3515.42
986.759	3464.34
987.057	3447.17
987.355	3455.53
987.653	3462.99
987.951	3402.65
988.249	3361.75
988.547	3384.35
988.844	3339.15
989.142	3346.38
989.44	3339.83
989.737	3322.2
990.035	3293.05
990.332	3257.34
990.63	3257.34
990.927	3269.09
991.224	3245.82
991.521	3251.02
991.819	3226.61
992.116	3184.13
992.413	3182.09
992.71	3173.73
993.006	3147.29
993.303	3165.14
993.6	3114.3
993.897	3071.13
994.193	3097.57
994.49	3062.09
994.787	3065.26
995.083	3013.51
995.379	3032.26
995.676	3035.65
995.972	3010.57
996.268	2964.47
996.565	2978.71
996.861	2945.49
997.157	2932.83
997.453	2932.61
997.749	2889.44
998.044	2895.09
998.34	2900.52
998.636	2852.38
998.932	2821.2
999.227	2805.6
999.523	2811.71
999.818	2775.1
1000.114	2789.56
1000.409	2733.06
1000.704	2730.35
1001	2722.67
1001.295	2689.9
1001.59	2728.77
1001.885	2661.88
1002.18	2660.75
1002.475	2642.67
1002.77	2637.02
1003.065	2618.94
1003.359	2605.84
1003.654	2553.41
1003.949	2580.53
1004.243	2591.37
1004.538	2509.79
1004.832	2493.3
1005.127	2543.46
1005.421	2466.86
1005.715	2487.42
1006.009	2451.26
1006.304	2448.55
1006.598	2404.48
1006.892	2425.95
1007.186	2400.19
1007.48	2384.37
1007.773	2367.42
1008.067	2345.73
1008.361	2312.28
1008.655	2352.96
1008.948	2322.23
1009.242	2338.27
1009.535	2319.06
1009.829	2278.39
1010.122	2295.34
1010.415	2271.83
1010.708	2237.03
1011.001	2226.86
1011.295	2196.35
1011.588	2226.18
1011.881	2176.47
1012.173	2150.71
1012.466	2140.31
1012.759	2136.02
1013.052	2157.71
1013.344	2124.49
1013.637	2100.54
1013.93	2121.55
1014.222	2075.45
1014.514	2074.55
1014.807	2059.64
1015.099	2034.1
1015.391	2016.92
1015.683	2047.88
1015.976	2051.73
1016.268	1955.01
1016.56	1997.04
1016.851	1979.19
1017.143	1977.83
1017.435	1999.07
1017.727	1932.86
1018.018	1917.94
1018.31	1909.13
1018.602	1918.85
1018.893	1874.56
1019.185	1872.52
1019.476	1861.22
1019.767	1802.69
1020.058	1825.97
1020.35	1814.44
1020.641	1809.7
1020.932	1778.96
1021.223	1783.71
1021.514	1778.06
1021.804	1761.34
1022.095	1715.46
1022.386	1713.2
1022.677	1746.65
1022.967	1667.78
1023.258	1678.18
1023.548	1689.48
1023.839	1703.03
1024.129	1652.41
1024.419	1633.43
1024.709	1613.32
1025	1583.49
1025.29	1588.46
1025.58	1595.24
1025.87	1567.44
1026.16	1607.44
1026.449	1593.43
1026.739	1542.59
1027.029	1559.76
1027.319	1554.56
1027.608	1502.59
1027.898	1497.62
1028.187	1503.49
1028.477	1496.71
1028.766	1488.8
1029.055	1463.04
1029.344	1473.89
1029.634	1449.48
1029.923	1444.96
1030.212	1450.16
1030.501	1404.06
1030.79	1378.3
1031.078	1397.05
1031.367	1407
1031.656	1366.32
1031.945	1352.08
1032.233	1352.76
1032.522	1348.92
1032.81	1343.5
1033.099	1321.35
1033.387	1337.85
1033.675	1324.51
1033.963	1305.76
1034.251	1286.77
1034.54	1285.64
1034.828	1282.03
1035.116	1257.4
1035.403	1261.92
1035.691	1249.26
1035.979	1242.26
1036.267	1222.82
1036.554	1247.91
1036.842	1224.85
1037.129	1195.48
1037.417	1199.54
1037.704	1195.48
1037.992	1176.95
1038.279	1171.97
1038.566	1162.71
1038.853	1162.71
1039.14	1162.71
