Data from White_paper_FLMS001491_026.txt Node
Date: Tue Feb 07 10:34:52 GMT 2017
User: dcchb
Spectrometer: FLMS00149
Trigger mode: 0
Integration Time (sec): 2.000000E-2
Scans to average: 10
Electric dark correction enabled: true
Nonlinearity correction enabled: false
Boxcar width: 0
XAxis mode: Wavelengths
Number of Pixels in Spectrum: 2048
>>>>>Begin Spectral Data<<<<<
341.393	-11.51
341.776	-11.51
342.16	-11.51
342.543	-63.26
342.927	-58.97
343.31	-57.39
343.693	-73.2
344.077	-56.93
344.46	-73.2
344.843	-66.2
345.226	-29.59
345.61	-33.21
345.993	-29.82
346.376	-12.64
346.759	3.18
347.142	36.4
347.525	42.05
347.908	70.75
348.291	68.26
348.674	104.87
349.057	106.68
349.44	122.95
349.823	128.15
350.206	154.81
350.588	210.18
350.971	233.91
351.354	277.52
351.737	270.06
352.119	271.65
352.502	283.62
352.884	285.2
353.267	313
353.65	328.37
354.032	321.14
354.414	345.09
354.797	344.64
355.179	332.43
355.562	347.8
355.944	352.1
356.326	354.58
356.709	362.26
357.091	367.01
357.473	368.59
357.855	367.01
358.238	366.78
358.62	361.81
359.002	381.02
359.384	374.69
359.766	388.48
360.148	396.61
360.53	361.81
360.912	388.48
361.294	347.35
361.676	385.31
362.057	376.05
362.439	367.69
362.821	371.08
363.203	361.13
363.584	372.89
363.966	374.69
364.348	382.6
364.729	353
365.111	371.98
365.493	356.16
365.874	372.43
366.256	333.79
366.637	351.87
367.019	376.5
367.4	358.42
367.781	369.5
368.163	343.96
368.544	359.55
368.925	359.55
369.306	355.71
369.688	351.64
370.069	368.82
370.45	372.21
370.831	387.35
371.212	363.62
371.593	370.63
371.974	368.14
372.355	388.7
372.736	352.77
373.117	377.41
373.498	364.75
373.879	375.37
374.26	369.72
374.641	359.1
375.021	373.56
375.402	379.21
375.783	397.97
376.163	402.72
376.544	404.98
376.925	400.23
377.305	387.35
377.686	376.5
378.066	394.35
378.447	384.86
378.827	405.65
379.208	383.73
379.588	384.41
379.968	403.39
380.349	413.79
380.729	414.24
381.109	418.76
381.489	425.99
381.87	420.34
382.25	433.9
382.63	413.11
383.01	427.8
383.39	430.29
383.77	429.83
384.15	432.55
384.53	437.29
384.91	423.51
385.29	437.06
385.67	442.94
386.049	459.66
386.429	460.57
386.809	460.34
387.189	472.54
387.568	472.09
387.948	464.18
388.328	472.32
388.707	479.78
389.087	488.14
389.466	469.15
389.846	485.88
390.225	498.31
390.605	488.36
390.984	491.98
391.363	493.79
391.743	508.93
392.122	529.72
392.501	523.62
392.881	534.92
393.26	531.53
393.639	531.07
394.018	535.37
394.397	550.51
394.776	541.92
395.155	542.15
395.534	576.5
395.913	583.73
396.292	566.1
396.671	585.08
397.05	583.5
397.429	573.11
397.808	576.72
398.186	581.92
398.565	600
398.944	614.46
399.323	617.17
399.701	623.27
400.08	661.01
400.458	633.9
400.837	639.09
401.215	631.64
401.594	656.27
401.972	673.22
402.351	691.07
402.729	724.06
403.107	713.22
403.486	724.51
403.864	709.83
404.242	743.72
404.62	722.26
404.999	755.7
405.377	775.36
405.755	783.95
406.133	814.23
406.511	811.97
406.889	839.09
407.267	855.81
407.645	886.32
408.023	870.27
408.401	891.29
408.779	909.37
409.156	966.77
409.534	951.85
409.912	1000.44
410.29	1005.41
410.667	1026.2
411.045	1066.2
411.422	1106.2
411.8	1113.66
412.178	1147.33
412.555	1125.18
412.933	1208.57
413.31	1230.49
413.687	1242.92
414.065	1293.31
414.442	1311.39
414.819	1304.84
415.197	1348.23
415.574	1406.53
415.951	1411.73
416.328	1424.16
416.705	1446.53
417.082	1477.49
417.46	1508.45
417.837	1543.48
418.214	1552.29
418.591	1625.96
418.967	1597.49
419.344	1631.38
419.721	1688.11
420.098	1699.18
420.475	1727.65
420.852	1739.63
421.228	1785.73
421.605	1813.3
421.982	1829.8
422.358	1848.78
422.735	1870.7
423.111	1871.6
423.488	1908.89
423.864	1920.64
424.241	1968.1
424.617	2000.87
424.994	2038.6
425.37	2079.28
425.746	2095.1
426.123	2085.16
426.499	2103.24
426.875	2108.43
427.251	2210.8
427.627	2225.49
428.003	2222.55
428.379	2294.19
428.756	2299.61
429.132	2359.73
429.507	2410.12
429.883	2408.76
430.259	2481.08
430.635	2496.9
431.011	2511.59
431.387	2588.65
431.763	2622.77
432.138	2654.18
432.514	2687.18
432.89	2725.59
433.265	2757.91
433.641	2810.34
434.016	2832.71
434.392	2873.61
434.767	2974.85
435.143	2960.16
435.518	2960.84
435.894	3002.2
436.269	3054.62
436.644	3122.42
437.02	3139.37
437.395	3195.64
437.77	3137.78
438.145	3265.69
438.52	3307.27
438.895	3339.14
439.271	3367.38
439.646	3399.25
440.021	3470.43
440.395	3452.35
440.77	3430.88
441.145	3467.27
441.52	3491.67
441.895	3503.42
442.27	3569.64
442.645	3575.51
443.019	3639.24
443.394	3643.76
443.769	3647.38
444.143	3664.78
444.518	3723.76
444.892	3717.66
445.267	3737.99
445.641	3781.61
446.016	3796.52
446.39	3823.87
446.764	3860.7
447.139	3856.86
447.513	3903.64
447.887	3909.74
448.262	3918.33
448.636	3948.84
449.01	4000.36
449.384	4099.34
449.758	4074.03
450.132	4092.79
450.506	4112.22
450.88	4160.58
451.254	4157.87
451.628	4256.17
452.002	4287.36
452.376	4306.12
452.75	4353.35
453.123	4414.59
453.497	4402.16
453.871	4504.3
454.244	4585.43
454.618	4592.89
454.992	4614.58
455.365	4680.8
455.739	4772.54
456.112	4793.79
456.486	4869.94
456.859	4900.22
457.232	5043.72
457.606	5021.13
457.979	5062.93
458.352	5129.6
458.725	5223.15
459.099	5254.79
459.472	5342.25
459.845	5409.82
460.218	5405.75
460.591	5472.41
460.964	5549.7
461.337	5671.96
461.71	5756.02
462.083	5835.34
462.456	5844.83
462.829	5888.67
463.201	5990.37
463.574	6015.22
463.947	6115.79
464.32	6199.85
464.692	6243.24
465.065	6302.45
465.438	6440.97
465.81	6477.81
466.183	6536.34
466.555	6732.49
466.928	6757.8
467.3	6762.1
467.672	6851.59
468.045	7098.58
468.417	7055.2
468.789	7115.76
469.161	7209.99
469.534	7334.06
469.906	7492.02
470.278	7508.97
470.65	7601.4
471.022	7778.57
471.394	7944.21
471.766	7997.09
472.138	8098.56
472.51	8189.4
472.882	8350.3
473.253	8521.82
473.625	8560.92
473.997	8791.2
474.369	8832.55
474.74	8943.51
475.112	9049.49
475.484	9234.35
475.855	9398.86
476.227	9414
476.598	9706.65
476.97	9821.9
477.341	9978.73
477.713	10166.53
478.084	10209.69
478.455	10548.21
478.827	10591.6
479.198	10958.37
479.569	10888.77
479.94	11199.49
480.311	11323.11
480.682	11559.26
481.053	11785.24
481.424	12020.72
481.795	12111.79
482.166	12232.23
482.537	12466.35
482.908	12772.79
483.279	12793.12
483.65	13102.49
484.021	13299.78
484.391	13442.6
484.762	13614.12
485.133	13680.56
485.503	13884.17
485.874	14124.61
486.244	14321.45
486.615	14640.53
486.985	14728.89
487.356	14923.24
487.726	15133.4
488.097	15498.36
488.467	15483.45
488.837	15803.67
489.207	15944.91
489.578	16085.69
489.948	16334.27
490.318	16544.66
490.688	16628.73
491.058	16838.67
491.428	17114.14
491.798	17339.9
492.168	17576.95
492.538	17611.3
492.908	17840.9
493.278	18080.67
493.648	17991.86
494.017	18362.24
494.387	18505.74
494.757	18664.16
495.126	18830.71
495.496	18924.04
495.866	19151.83
496.235	19262.56
496.605	19364.25
496.974	19483.8
497.344	19601.76
497.713	19683.79
498.082	19942.99
498.452	20137.79
498.821	20269.99
499.19	20371.91
499.559	20548.63
499.928	20838.11
500.298	20821.84
500.667	20996.98
501.036	20946.13
501.405	21247.14
501.774	21118.1
502.143	21518.32
502.512	21557.19
502.88	21786.79
503.249	21734.81
503.618	21907.46
503.987	22196.94
504.356	22101.81
504.724	22427.45
505.093	22438.52
505.462	22586.76
505.83	22646.2
506.199	22852.75
506.567	23119.86
506.936	23134.77
507.304	23459.28
507.672	23465.61
508.041	23446.18
508.409	23746.51
508.777	23822.21
509.145	24100.62
509.514	24184.69
509.882	24353.72
510.25	24417.9
510.618	24490.67
510.986	24739.48
511.354	24922.3
511.722	25224.66
512.09	25348.27
512.458	25324.09
512.826	25572
513.193	25760.92
513.561	25678.43
513.929	26026.9
514.297	26209.72
514.664	26362.03
515.032	26430.96
515.4	26723.38
515.767	26827.78
516.135	26977.84
516.502	26877.73
516.869	27353.42
517.237	27419.41
517.604	27442.68
517.972	27729
518.339	27853.29
518.706	27994.31
519.073	28090.35
519.44	28289.89
519.808	28615.31
520.175	28785.25
520.542	29031.57
520.909	29133.94
521.276	29132.81
521.643	29498.45
522.009	29743.64
522.376	29939.57
522.743	30072.22
523.11	30242.38
523.477	30642.6
523.843	30714.91
524.21	31223.6
524.577	31292.98
524.943	31434.22
525.31	31665.62
525.676	31863.58
526.043	32112.62
526.409	32198.04
526.776	32429.22
527.142	32624.92
527.508	32869.66
527.874	33092.03
528.241	33386.93
528.607	33338.8
528.973	33792.35
529.339	33685.46
529.705	34007.71
530.071	34233.69
530.437	34408.15
530.803	34562.95
531.169	34773.56
531.535	34741.02
531.901	35033.67
532.267	35111.41
532.632	35479.76
532.998	35539.64
533.364	35655.12
533.73	35762.01
534.095	35969.69
534.461	36188.89
534.826	36359.06
535.192	36496.91
535.557	36737.58
535.923	36830.01
536.288	36984.8
536.653	37145.7
537.019	37188.87
537.384	37291.01
537.749	37569.65
538.114	37550.89
538.479	37841.73
538.845	37827.04
539.21	37776.87
539.575	38010.99
539.94	38063.87
540.305	38316.97
540.67	38385.22
541.034	38465.67
541.399	38657.98
541.764	38884.64
542.129	39011.64
542.494	38983.4
542.858	39391.07
543.223	39346.55
543.587	39539.31
543.952	39573.66
544.316	39760.1
544.681	39715.58
545.045	39865.18
545.41	40169.13
545.774	40267.43
546.138	40351.95
546.503	40367.54
546.867	40513.53
547.231	40845.04
547.595	40837.58
547.959	40933.18
548.324	41087.75
548.688	41144.69
549.052	41336.33
549.416	41485.25
549.779	41571.8
550.143	41672.59
550.507	41982.19
550.871	41985.12
551.235	42022.41
551.599	42400.71
551.962	42535.84
552.326	42521.83
552.689	42836.85
553.053	42566.58
553.417	42785.33
553.78	43250.85
554.143	43111.65
554.507	43338.08
554.87	43374.92
555.234	43795.47
555.597	43595.7
555.96	43921.35
556.323	44018.29
556.686	44134.67
557.05	44500.09
557.413	44449.24
557.776	44443.59
558.139	44917.25
558.502	44883.58
558.865	44882.68
559.228	45163.12
559.59	45396.79
559.953	45464.36
560.316	45867.28
560.679	45810.79
561.041	46124.9
561.404	46272.7
561.767	46427.27
562.129	46347.27
562.492	46691.22
562.854	46797.2
563.217	46887.37
563.579	47013.92
563.941	47106.12
564.304	47202.39
564.666	47659.55
565.028	47595.37
565.39	47779.77
565.753	47959.21
566.115	48106.77
566.477	48398.74
566.839	48432.86
567.201	48596.25
567.563	48773.19
567.925	48969.12
568.287	49015.67
568.648	49047.31
569.01	49335.89
569.372	49530.46
569.734	49360.98
570.095	49681.42
570.457	49891.58
570.819	49983.56
571.18	50048.87
571.542	50267.62
571.903	50266.49
572.265	50466.94
572.626	50505.13
572.987	50674.61
573.349	50754.61
573.71	50878.68
574.071	51043.42
574.432	51051.1
574.794	51311.21
575.155	51255.62
575.516	51109.4
575.877	51386.46
576.238	51434.59
576.599	51649.05
576.96	51635.94
577.32	51618.54
577.681	51828.26
578.042	51831.19
578.403	51928.14
578.763	51986.67
579.124	52045.2
579.485	52186.21
579.845	52314.12
580.206	52168.13
580.566	52275.48
580.927	52273.44
581.287	52435.47
581.648	52301.24
582.008	52451.97
582.368	52415.36
582.728	52486.32
583.089	52545.3
583.449	52552.76
583.809	52585.07
584.169	52677.5
584.529	52682.92
584.889	52895.8
585.249	52744.39
585.609	52666.88
585.969	52817.16
586.329	52702.81
586.688	52868
587.048	52863.93
587.408	52861.45
587.768	52809.7
588.127	52850.6
588.487	52773.54
588.846	53070.26
589.206	52750.49
589.565	52859.19
589.925	52984.84
590.284	52896.02
590.643	52998.17
591.003	53114.32
591.362	53147.09
591.721	53065.06
592.08	53149.58
592.44	53136.7
592.799	53176.7
593.158	53212.63
593.517	53217.82
593.876	53265.96
594.235	53215.79
594.593	53174.66
594.952	53308.67
595.311	53204.49
595.67	53377.59
596.029	53481.32
596.387	53470.47
596.746	53531.04
597.104	53423.02
597.463	53388.67
597.822	53615.33
598.18	53405.16
598.538	53443.81
598.897	53660.75
599.255	53379.63
599.613	53813.74
599.972	53568.32
600.33	53676.79
600.688	53604.93
601.046	53750.69
601.404	53823.91
601.762	53768.32
602.12	53835.43
602.478	53828.43
602.836	53941.42
603.194	53721.09
603.552	53875.21
603.91	53793.4
604.268	53954.98
604.625	53847.41
604.983	54029.33
605.341	53890.57
605.698	54015.09
606.056	54055.32
606.413	53998.59
606.771	54080.63
607.128	54212.6
607.485	54020.06
607.843	53986.62
608.2	54215.76
608.557	54146.84
608.914	54142.09
609.272	54293.5
609.629	54416.89
609.986	54459.37
610.343	54314.52
610.7	54501.63
611.057	54425.25
611.414	54476.1
611.771	54496.43
612.127	54550.22
612.484	54510.9
612.841	54662.08
613.198	54490.56
613.554	54601.06
613.911	54735.52
614.267	54706.82
614.624	54681.06
614.98	54681.51
615.337	54895.07
615.693	54775.07
616.05	54685.13
616.406	54873.83
616.762	54765.13
617.118	54731.68
617.475	54821.4
617.831	54847.39
618.187	54933.03
618.543	54968.29
618.899	55056.87
619.255	55024.33
619.611	54960.6
619.967	55036.08
620.323	55086.93
620.678	55043.31
621.034	55028.62
621.39	54951.56
621.746	54935.74
622.101	55273.36
622.457	54949.98
622.812	55066.81
623.168	55191.11
623.523	55155.17
623.879	55267.71
624.234	55030.88
624.589	55020.94
624.945	55186.36
625.3	55200.37
625.655	55097.32
626.01	55126.47
626.365	55093.25
626.72	55121.5
627.075	55089.64
627.43	55056.65
627.785	55008.29
628.14	55086.7
628.495	55236.08
628.85	55080.37
629.205	54968.29
629.559	55174.61
629.914	55040.15
630.269	55123.76
630.623	55048.06
630.978	55048.96
631.332	55187.72
631.687	55166.25
632.041	55028.85
632.396	55114.95
632.75	55093.71
633.104	55023.65
633.459	54887.16
633.813	54814.17
634.167	54863.2
634.521	54877.44
634.875	54940.26
635.229	54899.81
635.583	54705.24
635.937	54775.75
636.291	54744.34
636.645	54809.65
636.999	54739.37
637.352	54802.64
637.706	54643.55
638.06	54820.27
638.413	54709.99
638.767	54646.94
639.121	54702.98
639.474	54579.14
639.828	54680.38
640.181	54603.32
640.534	54629.31
640.888	54589.09
641.241	54448.75
641.594	54581.4
641.947	54638.13
642.301	54568.3
642.654	54566.71
643.007	54634.96
643.36	54524.68
643.713	54473.61
644.066	54571.69
644.419	54307.74
644.771	54168.31
645.124	53935.32
645.477	53836.11
645.83	53773.52
646.182	53651.03
646.535	53593.41
646.888	53551.37
647.24	53530.58
647.593	53573.29
647.945	53604.71
648.298	53415.56
648.65	53357.71
649.002	53327.88
649.355	53466.18
649.707	53421.21
650.059	53612.39
650.411	53904.81
650.763	53904.59
651.115	54121.75
651.467	54137.35
651.819	54113.85
652.171	54044.69
652.523	54037.69
652.875	53976.9
653.227	53871.37
653.578	54119.95
653.93	54046.95
654.282	53859.84
654.633	53743.91
654.985	53836.11
655.337	53818.49
655.688	53866.62
656.039	54041.76
656.391	53717.47
656.742	53820.29
657.094	53886.96
657.445	53867.75
657.796	53839.73
658.147	53739.39
658.498	53749.34
658.849	53797.92
659.2	53749.34
659.551	53786.62
659.902	53823.46
660.253	53726.29
660.604	53775.32
660.955	53656.68
661.306	53768.54
661.656	53690.35
662.007	53663.01
662.358	53604.48
662.708	53640.86
663.059	53702.78
663.409	53469.12
663.76	53686.29
664.11	53630.47
664.461	53644.48
664.811	53644.93
665.161	53573.52
665.511	53538.49
665.862	53523.35
666.212	53586.85
666.562	53597.02
666.912	53512.73
667.262	53485.84
667.612	53454.65
667.962	53512.73
668.312	53518.15
668.662	53593.18
669.011	53403.13
669.361	53434.99
669.711	53443.13
670.06	53348.22
670.41	53310.48
670.76	53223.02
671.109	53250.82
671.459	53227.77
671.808	53233.42
672.157	53242.91
672.507	52958.85
672.856	53096.47
673.205	53056.92
673.554	53213.98
673.904	53050.14
674.253	53249.91
674.602	53138.73
674.951	52627.1
675.3	52505.3
675.649	52913.88
675.998	52989.58
676.346	53023.48
676.695	53086.3
677.044	52737.16
677.393	52823.94
677.741	52957.94
678.09	52839.53
678.438	52771.96
678.787	52721.57
679.135	52796.82
679.484	52458.75
679.832	52636.14
680.181	52452.87
680.529	52465.53
680.877	52336.49
681.225	52402.03
681.573	52529.03
681.922	52235.93
682.27	52162.03
682.618	52219.66
682.966	52206.78
683.314	52178.76
683.661	52114.35
684.009	51946.9
684.357	51822.15
684.705	51740.8
685.053	51816.28
685.4	51750.97
685.748	51603.86
686.095	51598.66
686.443	51519.56
686.79	51318.21
687.138	51422.39
687.485	51318.89
687.832	51224.88
688.18	51269.17
688.527	51046.81
688.874	51065.56
689.221	50952.12
689.568	50875.29
689.915	50779.7
690.262	50784.89
690.609	50656.08
690.956	50446.15
691.303	50550.1
691.65	50192.14
691.997	50350.78
692.344	50013.39
692.69	50117.57
693.037	50007.96
693.383	49763.68
693.73	49977.68
694.077	49652.95
694.423	49600.97
694.769	49545.83
695.116	49465.38
695.462	49444.82
695.808	49281.43
696.155	49447.3
696.501	49117.59
696.847	49057.48
697.193	48746.53
697.539	48964.38
697.885	48650.49
698.231	48625.63
698.577	48501.79
698.923	48504.73
699.269	48277.39
699.614	48070.16
699.96	48005.31
700.306	47937.28
700.651	47951.97
700.997	47744.97
701.342	47676.73
701.688	47818.64
702.033	47646.67
702.379	47487.81
702.724	47265.21
703.069	47469.27
703.415	46924.88
703.76	47021.6
704.105	47003.52
704.45	46890.31
704.795	46707.71
705.14	46668.62
705.485	46515.18
705.83	46348.4
706.175	46528.73
706.52	46350.66
706.865	46122.42
707.209	46129.87
707.554	45821.18
707.899	46217.78
708.243	45792.48
708.588	45856.89
708.932	45627.06
709.277	45501.19
709.621	45492.38
709.966	45200.63
710.31	45465.71
710.654	44910.25
710.998	45146.62
711.342	45160.86
711.687	44969.45
712.031	44664.38
712.375	44686.52
712.719	44681.33
713.063	44679.52
713.407	44658.73
713.75	44558.62
714.094	44262.81
714.438	44152.07
714.782	44211.51
715.125	44038.4
715.469	44065.3
715.812	43967.45
716.156	43670.28
716.499	43829.82
716.843	43824.17
717.186	43661.92
717.53	43695.36
717.873	43764.51
718.216	43559.09
718.559	43420.57
718.902	43124.08
719.246	43365.2
719.589	43198.43
719.932	42985.78
720.275	43147.58
720.617	42930.64
720.96	42815.84
721.303	42896.29
721.646	42838.66
721.989	42681.83
722.331	42767.25
722.674	42588.05
723.016	42590.08
723.359	42503.76
723.701	42410.42
724.044	42272.8
724.386	42029.19
724.729	42240.49
725.071	42058.8
725.413	42018.34
725.755	42139.25
726.097	41926.6
726.439	41727.73
726.782	41725.47
727.124	41963.88
727.465	41589.88
727.807	41712.59
728.149	41568.86
728.491	41502.2
728.833	41588.53
729.175	41256.1
729.516	41140.85
729.858	41183.34
730.199	41276.89
730.541	41104.92
730.882	41174.07
731.224	41191.25
731.565	40836.91
731.906	41014.53
732.248	40932.72
732.589	40870.13
732.93	40628.55
733.271	40786.29
733.612	40674.88
733.953	40600.98
734.294	40509.46
734.635	40395.56
734.976	40563.02
735.317	40315.11
735.658	40304.04
735.999	40162.57
736.339	40232.85
736.68	40150.82
737.021	40155.57
737.361	39938.17
737.702	40026.53
738.042	40054.78
738.383	39959.42
738.723	40060.66
739.063	39791.06
739.404	39767.1
739.744	39763.49
740.084	39572.08
740.424	39706.54
740.764	39570.05
741.104	39586.77
741.444	39362.14
741.784	39248.02
742.124	39445.76
742.464	39179.55
742.804	39328.7
743.143	39143.62
743.483	39174.58
743.823	38893
744.162	38861.82
744.502	39001.25
744.841	38955.83
745.181	38986.11
745.52	38879.9
745.86	38857.3
746.199	38762.61
746.538	38671.31
746.877	38645.55
747.216	38655.04
747.556	38565.55
747.895	38557.64
748.234	38397.2
748.573	38366.69
748.911	38389.06
749.25	38260.03
749.589	38103.87
749.928	38228.61
750.267	38109.97
750.605	38026.81
750.944	37923.54
751.283	37727.84
751.621	37924.21
751.96	37700.94
752.298	37628.4
752.636	37614.84
752.975	37466.37
753.313	37439.48
753.651	37524.23
753.989	37277
754.327	37306.38
754.666	37067.06
755.004	37088.76
755.342	37091.24
755.679	37037.01
756.017	36906.16
756.355	36858.25
756.693	36612.16
757.031	36822.77
757.368	36486.74
757.706	36398.15
758.044	36312.05
758.381	36347.53
758.719	36143.47
759.056	36262.56
759.394	36061.66
759.731	35957.49
760.068	35971.27
760.405	35631.62
760.743	35494.22
761.08	35564.5
761.417	35414.22
761.754	35381.46
762.091	35235.02
762.428	35220.56
762.765	35015.59
763.102	34978.76
763.438	34897.63
763.775	34863.5
764.112	34805.88
764.449	34697.63
764.785	34558.65
765.122	34298.1
765.458	34280.69
765.795	34167.25
766.131	34133.13
766.467	34038.67
766.804	33826.24
767.14	33683.87
767.476	33750.31
767.812	33478.68
768.148	33506.93
768.485	33336.99
768.821	33095.64
769.157	33172.7
769.492	33025.59
769.828	33061.97
770.164	32744.69
770.5	32633.73
770.836	32712.6
771.171	32389.9
771.507	32419.73
771.842	32183.8
772.178	32162.11
772.513	31983.13
772.849	31996.69
773.184	31909.68
773.519	31880.31
773.855	31650.93
774.19	31559.64
774.525	31358.29
774.86	31405.29
775.195	31269.25
775.53	31142.02
775.865	30914.68
776.2	30786.78
776.535	30623.62
776.87	30592.66
777.205	30571.19
777.539	30322.83
777.874	30423.17
778.209	30183.18
778.543	30118.09
778.878	29860.7
779.212	29972.56
779.547	29629.52
779.881	29751.55
780.215	29469.07
780.55	29588.61
780.884	29434.95
781.218	29290.09
781.552	29302.52
781.886	29178.46
782.22	28882.64
782.554	28902.53
782.888	28679.71
783.222	28694.17
783.556	28393.17
783.889	28368.08
784.223	28262.55
784.557	28077.47
784.89	28107.98
785.224	28051.71
785.557	27804.71
785.891	27856
786.224	27796.57
786.558	27717.7
786.891	27550.02
787.224	27389.35
787.557	27293.76
787.891	27332.85
788.224	27174.21
788.557	27144.16
788.89	27032.07
789.223	26928.8
789.556	26812.19
789.888	26760.44
790.221	26655.81
790.554	26420.56
790.887	26469.37
791.219	26380.11
791.552	26225.77
791.884	26117.07
792.217	26030.29
792.549	25988.71
792.882	25876.17
793.214	25678.21
793.546	25771.77
793.879	25676.85
794.211	25511.66
794.543	25629.17
794.875	25481.83
795.207	25527.7
795.539	25240.03
795.871	25318.67
796.203	25158.9
796.535	24880.72
796.867	24874.61
797.198	24859.93
797.53	24765.01
797.862	24716.43
798.193	24643.43
798.525	24491.12
798.856	24501.06
799.188	24281.64
799.519	24286.83
799.85	24061.98
800.182	24039.16
800.513	24188.76
800.844	23931.59
801.175	24045.03
801.506	23936.79
801.837	23779.95
802.168	23836.45
802.499	23660.63
802.83	23501.77
803.161	23515.78
803.491	23511.71
803.822	23421.77
804.153	23277.37
804.483	23177.48
804.814	23058.39
805.145	23054.32
805.475	22945.4
805.805	22886.64
806.136	22907.66
806.466	22806.42
806.796	22782.69
807.126	22594.45
807.457	22565.07
807.787	22570.27
808.117	22547.44
808.447	22362.36
808.777	22494.56
809.107	22315.59
809.436	22314.68
809.766	22206.89
810.096	22202.59
810.426	22054.35
810.755	22083.28
811.085	21933.9
811.414	21958.98
811.744	21745.21
812.073	21693.91
812.403	21730.74
812.732	21606
813.061	21669.95
813.39	21517.87
813.719	21342.96
814.049	21552.44
814.378	21437.19
814.707	21301.15
815.036	21236.07
815.365	21189.97
815.693	20986.35
816.022	21030.2
816.351	20997.43
816.68	20888.28
817.008	20957.88
817.337	20746.59
817.665	20755.63
817.994	20835.4
818.322	20742.75
818.651	20614.16
818.979	20530.55
819.307	20676.08
819.636	20497.55
819.964	20384.56
820.292	20478.57
820.62	20485.35
820.948	20441.96
821.276	20479.93
821.604	20341.85
821.932	20350.89
822.259	20434.73
822.587	20382.3
822.915	20281.29
823.243	20402.42
823.57	20285.58
823.898	20293.72
824.225	20192.03
824.553	20290.55
824.88	20284
825.207	20316.77
825.535	20231.57
825.862	20325.81
826.189	20156.09
826.516	20254.17
826.843	20221.86
827.17	20181.18
827.497	20310.89
827.824	20279.71
828.151	20324.45
828.478	20290.1
828.805	20256.88
829.131	20166.94
829.458	20244.91
829.785	20060.28
830.111	20245.36
830.438	20279.48
830.764	20174.85
831.09	20157.45
831.417	20086.49
831.743	20125.13
832.069	20191.35
832.395	20039.26
832.722	20093.72
833.048	20050.33
833.374	20070.22
833.7	19992.71
834.026	20077.68
834.351	20099.15
834.677	19996.1
835.003	19999.04
835.329	19982.77
835.654	19838.59
835.98	19791.81
836.306	19798.14
836.631	19729.66
836.956	19850.34
837.282	19810.34
837.607	19681.98
837.932	19674.75
838.258	19638.14
838.583	19620.74
838.908	19556.56
839.233	19593.62
839.558	19494.87
839.883	19438.37
840.208	19367.19
840.533	19379.62
840.858	19339.84
841.182	19409.45
841.507	19429.11
841.832	19213.75
842.156	19086.97
842.481	19252.16
842.805	19192.96
843.13	19120.64
843.454	19100.75
843.778	19037.25
844.103	18927.65
844.427	18920.19
844.751	18886.52
845.075	18868.44
845.399	18758.39
845.723	18618.06
846.047	18719.75
846.371	18489.25
846.695	18494.67
847.019	18370.83
847.343	18309.14
847.666	18220.1
847.99	18220.55
848.313	18166.09
848.637	18110.95
848.96	18002.25
849.284	17947.79
849.607	17828.47
849.931	17819.66
850.254	17559.1
850.577	17485.66
850.9	17430.29
851.223	17414.7
851.546	17309.62
851.869	17179.9
852.192	17288.15
852.515	17145.78
852.838	17019.68
853.161	17075.27
853.483	17012.22
853.806	16917.08
854.129	16899
854.451	16820.14
854.774	16694.49
855.096	16692.68
855.419	16632.12
855.741	16586.47
856.063	16546.92
856.385	16435.29
856.708	16489.07
857.03	16324.1
857.352	16246.37
857.674	16277.33
857.996	16302.18
858.318	16080.72
858.64	16086.6
858.961	16104.45
859.283	16062.42
859.605	15951.91
859.926	16038.24
860.248	15851.8
860.57	15797.79
860.891	15893.83
861.212	15792.59
861.534	15742.88
861.855	15752.14
862.176	15728.19
862.498	15691.8
862.819	15684.57
863.14	15657.68
863.461	15584.92
863.782	15519.83
864.103	15435.09
864.424	15450.46
864.745	15363.45
865.065	15396.9
865.386	15407.29
865.707	15369.55
866.027	15367.07
866.348	15334.53
866.668	15290.91
866.989	15212.04
867.309	15058.6
867.63	15135.44
867.95	15220.63
868.27	15029.68
868.59	15091.82
868.91	15112.61
869.23	15071.03
869.55	14879.62
869.87	15074.65
870.19	15011.14
870.51	15040.3
870.83	14935.44
871.15	14902
871.469	14946.29
871.789	14902.22
872.109	14889.79
872.428	14767.76
872.748	14767.76
873.067	14754.43
873.386	14744.94
873.706	14775.67
874.025	14642.79
874.344	14622.23
874.663	14695.67
874.982	14645.96
875.301	14682.11
875.62	14548.56
875.939	14596.69
876.258	14479.86
876.577	14516.02
876.896	14412.29
877.214	14299.53
877.533	14411.16
877.852	14392.4
878.17	14364.16
878.489	14372.52
878.807	14321.22
879.125	14302.91
879.444	14292.97
879.762	14245.29
880.08	14196.03
880.398	14133.2
880.716	14237.15
881.034	14044.39
881.352	14078.51
881.67	14091.85
881.988	14118.51
882.306	13990.83
882.624	13981.34
882.941	13892.53
883.259	13915.35
883.577	13872.19
883.894	13832.42
884.212	13763.27
884.529	13798.52
884.846	13704.96
885.164	13690.95
885.481	13641.01
885.798	13691.18
886.115	13618.87
886.432	13625.42
886.75	13499.32
887.067	13561.92
887.383	13438.98
887.7	13510.17
888.017	13301.59
888.334	13404.41
888.651	13347.69
888.967	13288.25
889.284	13158.99
889.6	13197.63
889.917	13121.03
890.233	13146.79
890.55	13049.39
890.866	13069.05
891.182	12993.8
891.498	12982.27
891.815	12913.12
892.131	12862.5
892.447	12883.07
892.763	12779.11
893.079	12783.63
893.395	12708.61
893.71	12780.47
894.026	12677.19
894.342	12615.5
894.657	12608.04
894.973	12580.02
895.289	12542.28
895.604	12517.43
895.92	12496.18
896.235	12372.57
896.55	12335.96
896.865	12333.7
897.181	12309.75
897.496	12231.56
897.811	12236.53
898.126	12231.33
898.441	12141.39
898.756	12029.53
899.071	11993.6
899.386	11951.56
899.7	11812.81
900.015	11886.03
900.33	11844.67
900.644	11751.57
900.959	11837.22
901.273	11641.29
901.588	11664.11
901.902	11567.17
902.216	11521.97
902.531	11486.94
902.845	11458.47
903.159	11436.32
903.473	11435.87
903.787	11361.75
904.101	11293.73
904.415	11316.78
904.729	11261.19
905.042	11190.45
905.356	11113.17
905.67	11019.39
905.984	11092.6
906.297	11068.2
906.611	10985.26
906.924	10945.72
907.237	10887.19
907.551	10883.57
907.864	10875.21
908.177	10821.42
908.491	10691.03
908.804	10690.13
909.117	10611.26
909.43	10574.2
909.743	10561.77
910.056	10558.61
910.368	10474.77
910.681	10443.13
910.994	10357.93
911.307	10366.52
911.619	10212.4
911.932	10301.44
912.244	10181.67
912.557	10190.93
912.869	10086.3
913.181	10033.42
913.494	10017.15
913.806	9998.85
914.118	9952.97
914.43	9875.91
914.742	9866.42
915.054	9783.94
915.366	9872.3
915.678	9739.19
915.99	9670.72
916.302	9628.46
916.613	9615.13
916.925	9577.84
917.236	9537.39
917.548	9563.83
917.859	9488.13
918.171	9369.49
918.482	9344.63
918.794	9290.62
919.105	9250.84
919.416	9219.88
919.727	9231.41
920.038	9167.68
920.349	9113.22
920.66	9097.4
920.971	9074.58
921.282	9044.97
921.593	8994.13
921.903	8956.16
922.214	8918.65
922.525	8873.23
922.835	8810.4
923.146	8720.46
923.456	8778.77
923.767	8689.28
924.077	8645.89
924.387	8608.38
924.697	8574.03
925.008	8553.69
925.318	8525.89
925.628	8546.68
925.938	8448.83
926.248	8402.05
926.558	8354.6
926.867	8299.46
927.177	8313.92
927.487	8235.5
927.796	8171.55
928.106	8147.14
928.416	8161.38
928.725	8121.83
929.034	8073.25
929.344	8065.11
929.653	8028.96
929.962	7946.25
930.271	7933.82
930.581	7930.2
930.89	7838.45
931.199	7736.76
931.508	7796.87
931.817	7780.15
932.125	7757.32
932.434	7669.64
932.743	7642.75
933.051	7594.39
933.36	7628.74
933.669	7559.82
933.977	7542.87
934.286	7492.02
934.594	7463.32
934.902	7416.32
935.21	7380.16
935.519	7372.48
935.827	7330.67
936.135	7276.66
936.443	7202.31
936.751	7245.02
937.059	7177.45
937.367	7123.22
937.674	7120.96
937.982	7143.78
938.29	7005.93
938.597	7047.51
938.905	6956.89
939.213	6993.95
939.52	6885.71
939.827	6928.87
940.135	6862.88
940.442	6882.77
940.749	6843.22
941.056	6834.41
941.363	6711.02
941.67	6748.76
941.977	6678.93
942.284	6611.37
942.591	6648.65
942.898	6610.46
943.205	6632.38
943.511	6522.55
943.818	6530.69
944.125	6420.18
944.431	6438.04
944.738	6408.21
945.044	6352.62
945.35	6293.41
945.657	6271.26
945.963	6283.01
946.269	6280.98
946.575	6247.53
946.881	6224.03
947.187	6153.75
947.493	6151.49
947.799	6136.8
948.105	6070.36
948.41	6032.4
948.716	6032.4
949.022	6043.02
949.327	6062.45
949.633	5998.73
949.938	5966.18
950.244	5944.26
950.549	5903.36
950.854	5878.96
951.16	5873.76
951.465	5794.21
951.77	5789.47
952.075	5759.41
952.38	5737.72
952.685	5696.14
952.99	5655.23
953.294	5635.8
953.599	5637.61
953.904	5631.28
954.209	5533.2
954.513	5543.37
954.818	5526.42
955.122	5525.52
955.426	5485.52
955.731	5466.31
956.035	5469.02
956.339	5364.62
956.643	5385.64
956.948	5371.85
957.252	5339.99
957.556	5347.67
957.86	5250.95
958.163	5310.38
958.467	5222.93
958.771	5235.13
959.075	5159.65
959.378	5171.18
959.682	5168.47
959.985	5099.77
960.289	5119.65
960.592	5068.36
960.896	5073.78
961.199	5050.5
961.502	5018.64
961.805	4987
962.108	4940.9
962.411	4963.05
962.714	4886.67
963.017	4890.96
963.32	4906.78
963.623	4840.56
963.926	4824.97
964.228	4829.72
964.531	4762.15
964.833	4785.2
965.136	4737.97
965.438	4723.05
965.741	4698.87
966.043	4718.31
966.345	4683.05
966.648	4617.52
966.95	4619.1
967.252	4588.14
967.554	4587.69
967.856	4559.89
968.158	4525.54
968.46	4493.91
968.761	4490.97
969.063	4500.69
969.365	4391.31
969.666	4502.72
969.968	4351.31
970.269	4361.48
970.571	4350.18
970.872	4379.79
971.174	4279.45
971.475	4303.63
971.776	4278.32
972.077	4250.52
972.378	4249.39
972.679	4270.86
972.98	4218.43
973.281	4206.46
973.582	4142.05
973.883	4147.25
974.183	4099.34
974.484	4171.2
974.785	4102.28
975.085	4107.7
975.386	4078.78
975.686	4074.94
975.986	4044.2
976.287	4004.88
976.587	3985.67
976.887	3943.87
977.187	3957.65
977.487	3953.81
977.787	3874.94
978.087	3930.76
978.387	3864.55
978.687	3899.12
978.987	3850.31
979.286	3884.43
979.586	3793.81
979.885	3778.9
980.185	3779.35
980.484	3785.45
980.784	3751.78
981.083	3741.61
981.382	3700.93
981.682	3737.09
981.981	3686.47
982.28	3657.09
982.579	3616.42
982.878	3611.9
983.177	3619.13
983.475	3604.44
983.774	3555.85
984.073	3558.11
984.372	3518.79
984.67	3522.86
984.969	3498.45
985.267	3497.1
985.566	3444.44
985.864	3448.51
986.162	3468.4
986.461	3430.43
986.759	3376.87
987.057	3356.54
987.355	3350.43
987.653	3325.35
987.951	3323.77
988.249	3352.02
988.547	3286.71
988.844	3291.23
989.142	3296.65
989.44	3290.32
989.737	3229.76
990.035	3225.01
990.332	3194.51
990.63	3177.78
990.927	3182.98
991.224	3143.89
991.521	3159.25
991.819	3144.79
992.116	3137.78
992.413	3119.71
992.71	3079.48
993.006	3098.69
993.303	3061.85
993.6	3061.85
993.897	3033.15
994.193	3034.06
994.49	2988.64
994.787	2989.09
995.083	2948.41
995.379	2953.61
995.676	2949.77
995.972	2879.49
996.268	2897.11
996.565	2849.43
996.861	2902.08
997.157	2855.08
997.453	2857.79
997.749	2836.1
998.044	2836.55
998.34	2809.21
998.636	2758.13
998.932	2777.12
999.227	2762.65
999.523	2760.39
999.818	2745.25
1000.114	2694.63
1000.409	2693.28
1000.704	2683.11
1001	2652.6
1001.295	2629.78
1001.59	2639.72
1001.885	2618.48
1002.18	2621.87
1002.475	2553.39
1002.77	2587.97
1003.065	2541.42
1003.359	2547.74
1003.654	2530.12
1003.949	2522.66
1004.243	2484.47
1004.538	2507.97
1004.832	2452.15
1005.127	2458.93
1005.421	2464.81
1005.715	2425.71
1006.009	2445.15
1006.304	2408.31
1006.598	2429.1
1006.892	2390.23
1007.186	2353.62
1007.48	2342.1
1007.773	2357.69
1008.067	2322.66
1008.361	2287.19
1008.655	2301.65
1008.948	2320.41
1009.242	2259.62
1009.535	2261.2
1009.829	2234.31
1010.122	2238.6
1010.415	2204.93
1010.708	2218.26
1011.001	2206.06
1011.295	2211.48
1011.588	2160.18
1011.881	2105.04
1012.173	2155.21
1012.466	2128.55
1012.759	2160.41
1013.052	2115.44
1013.344	2075.67
1013.637	2066.85
1013.93	2075.21
1014.222	2046.06
1014.514	2025.5
1014.807	2011.03
1015.099	2047.87
1015.391	1995.89
1015.683	1979.17
1015.976	1983.01
1016.268	1974.88
1016.56	1951.38
1016.851	1931.49
1017.143	1937.36
1017.435	1891.49
1017.727	1910.25
1018.018	1887.65
1018.31	1869.57
1018.602	1846.07
1018.893	1828.67
1019.185	1831.6
1019.476	1815.56
1019.767	1803.36
1020.058	1825.95
1020.35	1759.52
1020.641	1761.1
1020.932	1762
1021.223	1751.38
1021.514	1723.81
1021.804	1697.37
1022.095	1704.15
1022.386	1671.16
1022.677	1679.29
1022.967	1679.74
1023.258	1671.38
1023.548	1630.25
1023.839	1625.96
1024.129	1638.84
1024.419	1634.32
1024.709	1587.09
1025	1609.46
1025.29	1587.09
1025.58	1597.26
1025.87	1562.68
1026.16	1534.89
1026.449	1535.12
1026.739	1529.47
1027.029	1521.1
1027.319	1537.37
1027.608	1516.36
1027.898	1481.78
1028.187	1480.65
1028.477	1453.76
1028.766	1460.09
1029.055	1432.74
1029.344	1449.92
1029.634	1430.71
1029.923	1414.44
1030.212	1400.2
1030.501	1416.93
1030.79	1371.73
1031.078	1380.77
1031.367	1349.58
1031.656	1367.89
1031.945	1356.14
1032.233	1341.67
1032.522	1341.22
1032.81	1283.37
1033.099	1297.83
1033.387	1292.41
1033.675	1294.44
1033.963	1281.79
1034.251	1271.39
1034.54	1244.05
1034.828	1255.8
1035.116	1265.52
1035.403	1240.21
1035.691	1246.31
1035.979	1225.29
1036.267	1202.02
1036.554	1205.41
1036.842	1190.72
1037.129	1182.58
1037.417	1195.91
1037.704	1188.23
1037.992	1172.19
1038.279	1157.27
1038.566	1166.76
1038.853	1166.76
1039.14	1166.76
