Data from White_reflection_standard_FLMS001491_005.txt Node
Date: Tue Feb 07 10:31:56 GMT 2017
User: dcchb
Spectrometer: FLMS00149
Trigger mode: 0
Integration Time (sec): 2.000000E-2
Scans to average: 10
Electric dark correction enabled: true
Nonlinearity correction enabled: false
Boxcar width: 0
XAxis mode: Wavelengths
Number of Pixels in Spectrum: 2048
>>>>>Begin Spectral Data<<<<<
341.393	-8.3
341.776	-8.3
342.16	-8.3
342.543	-57.12
342.927	-62.77
343.31	-72.26
343.693	-57.12
344.077	-59.83
344.46	-60.51
344.843	-47.85
345.226	-32.03
345.61	-26.16
345.993	-27.06
346.376	-0.85
346.759	9.1
347.142	6.38
347.525	46.16
347.908	34.41
348.291	78.02
348.674	101.97
349.057	107.62
349.44	117.79
349.823	120.05
350.206	170.67
350.588	245.25
350.971	264
351.354	285.02
351.737	285.7
352.119	300.16
352.502	306.26
352.884	315.08
353.267	328.86
353.65	329.77
354.032	358.47
354.414	353.95
354.797	356.66
355.179	370.67
355.562	358.47
355.944	380.16
356.326	386.49
356.709	399.82
357.091	403.44
357.473	396.43
357.855	393.72
358.238	420.38
358.62	389.88
359.002	387.39
359.384	428.75
359.766	401.4
360.148	400.72
360.53	398.69
360.912	409.09
361.294	400.95
361.676	405.7
362.057	399.59
362.439	397.79
362.821	399.37
363.203	416.09
363.584	415.86
363.966	401.4
364.348	395.53
364.729	413.6
365.111	385.36
365.493	415.64
365.874	415.41
366.256	421.97
366.637	429.2
367.019	427.84
367.4	404.57
367.781	406.15
368.163	415.19
368.544	428.29
368.925	418.35
369.306	426.71
369.688	422.87
370.069	431.91
370.45	436.2
370.831	431.68
371.212	418.12
371.593	459.48
371.974	456.54
372.355	435.53
372.736	438.69
373.117	469.65
373.498	468.52
373.879	437.79
374.26	462.42
374.641	441.17
375.021	441.17
375.402	450.89
375.783	469.87
376.163	501.29
376.544	503.09
376.925	482.53
377.305	478.69
377.686	479.82
378.066	510.33
378.447	500.38
378.827	490.89
379.208	519.59
379.588	523.66
379.968	535.86
380.349	523.43
380.729	531.79
381.109	531.57
381.489	519.36
381.87	530.66
382.25	534.28
382.63	528.86
383.01	561.17
383.39	558.01
383.77	575.18
384.15	545.35
384.53	558.23
384.91	590.55
385.29	607.5
385.67	595.3
386.049	611.79
386.429	630.32
386.809	593.49
387.189	606.82
387.568	616.76
387.948	616.76
388.328	632.58
388.707	665.58
389.087	675.74
389.466	641.17
389.846	684.33
390.225	694.95
390.605	674.39
390.984	680.26
391.363	699.93
391.743	704.44
392.122	727.95
392.501	738.12
392.881	733.82
393.26	743.09
393.639	753.26
394.018	764.33
394.397	766.59
394.776	791.22
395.155	783.76
395.534	787.83
395.913	792.8
396.292	804.33
396.671	831.22
397.05	834.38
397.429	818.79
397.808	826.25
398.186	863.08
398.565	849.07
398.944	869.41
399.323	877.32
399.701	870.99
400.08	892.46
400.458	895.17
400.837	916.42
401.215	926.59
401.594	920.48
401.972	930.88
402.351	941.73
402.729	978.56
403.107	990.76
403.486	978.56
403.864	978.56
404.242	991.44
404.62	1004.55
404.999	1012.91
405.377	1036.87
405.755	1040.93
406.133	1050.88
406.511	1089.97
406.889	1111.44
407.267	1127.03
407.645	1108.95
408.023	1138.33
408.401	1160.7
408.779	1160.48
409.156	1191.66
409.534	1186.69
409.912	1220.36
410.29	1259.68
410.667	1256.29
411.045	1290.19
411.422	1312.34
411.8	1306.46
412.178	1341.94
412.555	1332.68
412.933	1359.34
413.31	1361.83
413.687	1389.62
414.065	1427.59
414.442	1443.63
414.819	1449.28
415.197	1438.66
415.574	1500.36
415.951	1491.09
416.328	1517.53
416.705	1522.5
417.082	1537.64
417.46	1572.44
417.837	1557.76
418.214	1591.65
418.591	1607.47
418.967	1588.26
419.344	1645.44
419.721	1651.76
420.098	1664.19
420.475	1685.66
420.852	1693.57
421.228	1736.96
421.605	1733.8
421.982	1736.06
422.358	1780.8
422.735	1788.48
423.111	1811.99
423.488	1857.86
423.864	1884.98
424.241	1875.04
424.617	1880.46
424.994	1898.31
425.37	1900.57
425.746	1957.75
426.123	1981.93
426.499	1997.52
426.875	2031.42
427.251	2092.88
427.627	2118.42
428.003	2139.21
428.379	2151.41
428.756	2176.27
429.132	2206.33
429.507	2208.81
429.883	2247.91
430.259	2324.52
430.635	2311.86
431.011	2348.92
431.387	2403.61
431.763	2395.7
432.138	2443.61
432.514	2486.54
432.89	2535.13
433.265	2576.03
433.641	2566.99
434.016	2633.66
434.392	2682.02
434.767	2719.76
435.143	2702.81
435.518	2736.93
435.894	2783.94
436.269	2793.88
436.644	2896.48
437.02	2878.17
437.395	2915.91
437.77	2954.1
438.145	3028.9
438.52	3008.11
438.895	3043.59
439.271	3081.33
439.646	3124.49
440.021	3155
440.395	3139.18
440.77	3176.24
441.145	3225.96
441.52	3276.35
441.895	3280.87
442.27	3329.23
442.645	3296.92
443.019	3355.45
443.394	3355.9
443.769	3417.59
444.143	3435.9
444.518	3473.19
444.892	3425.05
445.267	3519.29
445.641	3520.42
446.016	3547.31
446.39	3630.47
446.764	3616.68
447.139	3644.71
447.513	3657.36
447.887	3650.81
448.262	3713.18
448.636	3711.15
449.01	3739.85
449.384	3828.66
449.758	3821.2
450.132	3887.19
450.506	3920.18
450.88	3927.86
451.254	3933.06
451.628	3997.24
452.002	4047.86
452.376	4099.84
452.75	4128.08
453.123	4188.65
453.497	4232.49
453.871	4250.57
454.244	4343.22
454.618	4389.09
454.992	4482.2
455.365	4458.47
455.739	4595.87
456.112	4619.37
456.486	4676.32
456.859	4738.01
457.232	4801.74
457.606	4846.26
457.979	4893.71
458.352	5007.83
458.725	5088.51
459.099	5068.85
459.472	5111.56
459.845	5234.95
460.218	5279.24
460.591	5331.44
460.964	5400.82
461.337	5476.3
461.71	5588.38
462.083	5604.43
462.456	5655.95
462.829	5676.97
463.201	5786.35
463.574	5808.27
463.947	5926
464.32	6054.36
464.692	6059.11
465.065	6148.82
465.438	6257.29
465.81	6296.39
466.183	6414.13
466.555	6502.48
466.928	6564.4
467.3	6587.23
467.672	6673.55
468.045	6859.09
468.417	6853.44
468.789	6924.39
469.161	7068.35
469.534	7122.13
469.906	7290.49
470.278	7334.78
470.65	7459.97
471.022	7609.35
471.394	7744.71
471.766	7845.27
472.138	7898.61
472.51	8121.88
472.882	8229.9
473.253	8289.56
473.625	8415.65
473.997	8544.92
474.369	8669.66
474.74	8766.15
475.112	8903.78
475.484	9124.79
475.855	9259.25
476.227	9369.75
476.598	9602.97
476.97	9716.86
477.341	9872.34
477.713	10084.09
478.084	10111.43
478.455	10401.82
478.827	10499.44
479.198	10766.55
479.569	10836.83
479.94	11150.72
480.311	11211.97
480.682	11472.98
481.053	11748.9
481.424	11913.42
481.795	12027.31
482.166	12302.11
482.537	12407.41
482.908	12760.62
483.279	12750.91
483.65	13038.36
484.021	13291.91
484.391	13409.42
484.762	13555.41
485.133	13720.6
485.503	13836.98
485.874	14224.54
486.244	14353.13
486.615	14647.13
486.985	14850.74
487.356	15102.26
487.726	15137.96
488.097	15408.92
488.467	15504.06
488.837	15819.98
489.207	16018.84
489.578	16344.94
489.948	16495.22
490.318	16717.81
490.688	16742.22
491.058	17094.97
491.428	17142.66
491.798	17524.12
492.168	17782.87
492.538	17943.54
492.908	18087.26
493.278	18261.05
493.648	18454.71
494.017	18571.09
494.387	18874.36
494.757	19040.23
495.126	19139.21
495.496	19166.33
495.866	19370.85
496.235	19652.42
496.605	19694.45
496.974	19851.74
497.344	20028.23
497.713	20159.3
498.082	20339.86
498.452	20604.03
498.821	20730.36
499.19	20743.47
499.559	20913.4
499.928	21082.44
500.298	21265.03
500.667	21483.33
501.036	21469.32
501.405	21759.94
501.774	21700.28
502.143	21937.33
502.512	22091.68
502.88	22288.51
503.249	22342.97
503.618	22548.62
503.987	22592.68
504.356	22706.58
504.724	22907.7
505.093	23123.06
505.462	23111.54
505.83	23360.12
506.199	23612.09
506.567	23810.5
506.936	23901.57
507.304	24219.98
507.672	24317.84
508.041	24253.88
508.409	24636.7
508.777	24754.66
509.145	24927.76
509.514	25089.57
509.882	25180.86
510.25	25300.86
510.618	25535.2
510.986	25646.61
511.354	25890.68
511.722	26205.47
512.09	26252.02
512.458	26362.08
512.826	26654.95
513.193	26747.6
513.561	26822.85
513.929	27061.94
514.297	27351.2
514.664	27570.63
515.032	27738.99
515.4	27988.47
515.767	28077.74
516.135	28211.52
516.502	28126.77
516.869	28771.96
517.237	28851.73
517.604	28805.63
517.972	29110.25
518.339	29439.96
518.706	29472.28
519.073	29691.71
519.44	29900.29
519.808	30354.96
520.175	30243.56
520.542	30632.02
520.909	30788.63
521.276	30785.01
521.643	31274.49
522.009	31459.79
522.376	31644.65
522.743	31955.6
523.11	32189.94
523.477	32525.75
523.843	32655.92
524.21	33064.72
524.577	33266.07
524.943	33439.18
525.31	33655.44
525.676	33981.99
526.043	34102.44
526.409	34311.7
526.776	34663.55
527.142	34866.71
527.508	35113.94
527.874	35358.22
528.241	35414.72
528.607	35576.52
528.973	36074.81
529.339	36113.91
529.705	36284.07
530.071	36592.99
530.437	36752.54
530.803	37006.99
531.169	37253.54
531.535	37006.77
531.901	37463.25
532.267	37631.38
532.632	37872.96
532.998	37920.42
533.364	38177.13
533.73	38290.58
534.095	38523.11
534.461	38680.62
534.826	38932.82
535.192	39047.17
535.557	39378
535.923	39307.95
536.288	39589.3
536.653	39788.61
537.019	39696.87
537.384	39811.89
537.749	40207.59
538.114	40306.57
538.479	40184.76
538.845	40552.89
539.21	40479.22
539.575	40712.43
539.94	40800.57
540.305	41116.26
540.67	40930.73
541.034	41139.99
541.399	41408.91
541.764	41645.06
542.129	41809.35
542.494	41807.77
542.858	42006.64
543.223	42043.47
543.587	42255.22
543.952	42263.35
544.316	42475.55
544.681	42473.29
545.045	42759.84
545.41	42971.36
545.774	43028.08
546.138	43056.55
546.503	43349.88
546.867	43262.2
547.231	43623.32
547.595	43904.21
547.959	43896.76
548.324	43932.23
548.688	44095.62
549.052	44200.02
549.416	44353.47
549.779	44473.24
550.143	44584.19
550.507	44821.25
550.871	44884.75
551.235	45007.69
551.599	45291.07
551.962	45499.88
552.326	45545.53
552.689	45702.13
553.053	45644.73
553.417	45815.35
553.78	46297.82
554.143	46025.29
554.507	46350.7
554.87	46417.82
555.234	46847.64
555.597	46610.13
555.96	46943.91
556.323	46942.78
556.686	47194.07
557.05	47574.4
557.413	47545.02
557.776	47604.45
558.139	47963.99
558.502	48062.97
558.865	48100.26
559.228	48441.27
559.59	48527.82
559.953	48669.06
560.316	49093.45
560.679	49034.47
561.041	49157.86
561.404	49328.48
561.767	49693.21
562.129	49563.5
562.492	49892.76
562.854	49804.62
563.217	50035.58
563.579	50161.45
563.941	50412.74
564.304	50502.46
564.666	50718.27
565.028	50787.42
565.39	50872.17
565.753	51189.67
566.115	51307.63
566.477	51404.81
566.839	51503.34
567.201	51711.24
567.563	51721.86
567.925	51826.26
568.287	51978.35
568.648	52024
569.01	52190.1
569.372	52342.64
569.734	52391.67
570.095	52579.69
570.457	52761.83
570.819	52736.52
571.18	52717.09
571.542	52886.58
571.903	53067.36
572.265	53140.81
572.626	53217.64
572.987	53228.94
573.349	53365.88
573.71	53462.61
574.071	53594.58
574.432	53683.84
574.794	53877.96
575.155	53899.2
575.516	53752.99
575.877	53920.22
576.238	53911.86
576.599	54111.85
576.96	54075.02
577.32	54162.7
577.681	54174.68
578.042	54331.74
578.403	54274.11
578.763	54353.43
579.124	54385.97
579.485	54515.23
579.845	54644.95
580.206	54465.29
580.566	54521.33
580.927	54510.04
581.287	54693.76
581.648	54526.08
582.008	54642.24
582.368	54664.16
582.728	54782.8
583.089	54588.45
583.449	54693.76
583.809	54762.23
584.169	54766.07
584.529	54711.39
584.889	54913.64
585.249	54736.7
585.609	54618.73
585.969	54838.39
586.329	54825.06
586.688	54876.13
587.048	54801.78
587.408	54804.72
587.768	54780.09
588.127	54753.19
588.487	54727.43
588.846	54890.59
589.206	54764.94
589.565	54753.65
589.925	54886.97
590.284	54854.89
590.643	54869.57
591.003	54952.74
591.362	54940.31
591.721	54914.54
592.08	54905.28
592.44	54973.07
592.799	54969.01
593.158	54912.51
593.517	54894.43
593.876	54937.14
594.235	54952.96
594.593	55026.18
594.952	55044.48
595.311	55000.64
595.67	54997.25
596.029	55125.61
596.387	55208.55
596.746	55158.15
597.104	55143.92
597.463	55055.33
597.822	55196.8
598.18	55097.36
598.538	55004.03
598.897	55279.28
599.255	55058.95
599.613	55440.18
599.972	55274.54
600.33	55340.3
600.688	55182.56
601.046	55355.89
601.404	55483.8
601.762	55457.36
602.12	55440.18
602.478	55413.06
602.836	55426.17
603.194	55439.28
603.552	55410.58
603.91	55369.67
604.268	55476.11
604.625	55430.01
604.983	55580.74
605.341	55443.57
605.698	55579.84
606.056	55674.52
606.413	55579.84
606.771	55630.01
607.128	55716.11
607.485	55588.2
607.843	55628.2
608.2	55775.99
608.557	55891.47
608.914	55765.37
609.272	55910.22
609.629	55871.58
609.986	56043.55
610.343	55936.89
610.7	56168.98
611.057	56049.66
611.414	56046.27
611.771	56088.98
612.127	56161.52
612.484	56133.27
612.841	56218.69
613.198	56143.67
613.554	56162.87
613.911	56309.31
614.267	56288.52
614.624	56242.65
614.98	56230.44
615.337	56405.58
615.693	56318.58
616.05	56374.39
616.406	56434.28
616.762	56401.06
617.118	56368.29
617.475	56360.61
617.831	56482.87
618.187	56440.15
618.543	56472.7
618.899	56647.38
619.255	56551.34
619.611	56550.89
619.967	56645.12
620.323	56563.77
620.678	56566.25
621.034	56494.16
621.39	56453.49
621.746	56474.73
622.101	56783.42
622.457	56514.5
622.812	56569.64
623.168	56615.07
623.523	56588.85
623.879	56741.39
624.234	56477.89
624.589	56583.65
624.945	56673.14
625.3	56605.12
625.655	56575.74
626.01	56654.39
626.365	56619.58
626.72	56558.57
627.075	56622.3
627.43	56589.3
627.785	56584.33
628.14	56568.74
628.495	56633.14
628.85	56521.06
629.205	56468.63
629.559	56557.44
629.914	56482.64
630.269	56466.82
630.623	56442.87
630.978	56286.26
631.332	56483.32
631.687	56417.1
632.041	56357.22
632.396	56392.92
632.75	56318.12
633.104	56330.1
633.459	56206.71
633.813	56170.1
634.167	56152.7
634.521	56182.53
634.875	56176.21
635.229	56112.03
635.583	55950.22
635.937	55897.57
636.291	55913.61
636.645	55956.55
636.999	55868.19
637.352	55972.14
637.706	55743.22
638.06	55852.6
638.413	55727.63
638.767	55716.33
639.121	55785.93
639.474	55665.03
639.828	55613.51
640.181	55552.95
640.534	55608.54
640.888	55488.32
641.241	55424.59
641.594	55439.73
641.947	55494.87
642.301	55455.55
642.654	55483.12
643.007	55380.75
643.36	55374.87
643.713	55310.92
644.066	55420.97
644.419	55178.27
644.771	54968.1
645.124	54745.51
645.477	54668
645.83	54545.29
646.182	54463.26
646.535	54334.67
646.888	54353.66
647.24	54148.46
647.593	54380.32
647.945	54215.81
648.298	54184.39
648.65	54064.62
649.002	53917.73
649.355	54087.9
649.707	54028.69
650.059	54192.3
650.411	54542.35
650.763	54496.02
651.115	54770.82
651.467	54625.06
651.819	54602.01
652.171	54570.37
652.523	54505.52
652.875	54504.16
653.227	54402.69
653.578	54663.25
653.93	54455.35
654.282	54246.99
654.633	54219.65
654.985	54275.47
655.337	54308.23
655.688	54311.4
656.039	54419.64
656.391	54051.29
656.742	54050.84
657.094	54067.56
657.445	54185.52
657.796	54139.42
658.147	53998.86
658.498	54078.63
658.849	54187.11
659.2	54031.63
659.551	53905.76
659.902	54123.15
660.253	53943.27
660.604	53972.65
660.955	53892.42
661.306	54011.74
661.656	53908.24
662.007	53930.62
662.358	53872.76
662.708	53824.18
663.059	53855.59
663.409	53600.46
663.76	53846.32
664.11	53847.45
664.461	53777.4
664.811	53729.27
665.161	53710.73
665.511	53674.13
665.862	53638.42
666.212	53726.33
666.562	53768.36
666.912	53655.82
667.262	53598.42
667.612	53566.33
667.962	53648.59
668.312	53527.24
668.662	53711.86
669.011	53579.44
669.361	53427.13
669.711	53560.46
670.06	53548.25
670.41	53449.95
670.76	53286.34
671.109	53475.03
671.459	53390.29
671.808	53260.58
672.157	53365.21
672.507	53231.2
672.856	53070.98
673.205	53219.67
673.554	53229.39
673.904	53259.45
674.253	53394.13
674.602	53191.2
674.951	52799.57
675.3	52554.15
675.649	53073.46
675.998	53027.14
676.346	53037.76
676.695	53117.3
677.044	52883.86
677.393	53008.38
677.741	53075.27
678.09	52830.53
678.438	52866.69
678.787	52878.67
679.135	52858.33
679.484	52675.28
679.832	52730.42
680.181	52593.48
680.529	52750.08
680.877	52579.46
681.225	52543.31
681.573	52676.64
681.922	52441.16
682.27	52328.85
682.618	52349.19
682.966	52317.55
683.314	52366.82
683.661	52290.43
684.009	52022.64
684.357	51987.84
684.705	51924.11
685.053	51978.8
685.4	51800.28
685.748	51810.22
686.095	51707.85
686.443	51641.64
686.79	51607.97
687.138	51603.9
687.485	51564.8
687.832	51426.05
688.18	51457.46
688.527	51301.31
688.874	51217.24
689.221	51212.5
689.568	50974.54
689.915	50965.72
690.262	50948.1
690.609	50904.71
690.956	50837.14
691.303	50653.19
691.65	50577.94
691.997	50453.65
692.344	50319.86
692.69	50338.62
693.037	50250.03
693.383	49968.01
693.73	50068.57
694.077	49849.59
694.423	49810.95
694.769	49841.01
695.116	49614.57
695.462	49542.48
695.808	49490.73
696.155	49474.91
696.501	49178.42
696.847	49171.19
697.193	48909.05
697.539	49024.08
697.885	48716.52
698.231	48612.34
698.577	48696.4
698.923	48580.7
699.269	48477.43
699.614	48252.57
699.96	48230.88
700.306	48203.76
700.651	48022.52
700.997	48003.09
701.342	47881.96
701.688	47685.58
702.033	47577.34
702.379	47599.48
702.724	47488.53
703.069	47648.52
703.415	47119.72
703.76	47085.82
704.105	47116.33
704.45	46972.83
704.795	46750.47
705.14	46603.8
705.485	46695.33
705.83	46607.42
706.175	46517.7
706.52	46370.14
706.865	46131.5
707.209	46182.8
707.554	45972.18
707.899	46108.45
708.243	45766.99
708.588	45666.65
708.932	45538.75
709.277	45529.93
709.621	45547.33
709.966	45178.98
710.31	45293.33
710.654	44892.66
710.998	44964.52
711.342	44952.09
711.687	44930.17
712.031	44600.01
712.375	44565.21
712.719	44710.75
713.063	44437.76
713.407	44715.94
713.75	44405.89
714.094	44388.72
714.438	44189.63
714.782	44192.79
715.125	43972.46
715.469	44186.47
715.812	43796.42
716.156	43768.85
716.499	43741.05
716.843	43638.46
717.186	43405.47
717.53	43607.05
717.873	43539.93
718.216	43440.95
718.559	43294.51
718.902	42995.08
719.246	43156.44
719.589	42974.07
719.932	42747.41
720.275	42864.24
720.617	42834.64
720.96	42666.73
721.303	42732.72
721.646	42631.03
721.989	42333.63
722.331	42437.13
722.674	42398.49
723.016	42281.43
723.359	42280.07
723.701	42264.93
724.044	41982.46
724.386	41869.46
724.729	41835.79
725.071	41873.53
725.413	41877.37
725.755	41766.42
726.097	41555.8
726.439	41306.77
726.782	41416.59
727.124	41515.8
727.465	41253.66
727.807	41297.73
728.149	41314
728.491	41026.55
728.833	41097.73
729.175	40943.84
729.516	40849.6
729.858	40742.49
730.199	40847.57
730.541	40717.4
730.882	40588.59
731.224	40689.38
731.565	40539.78
731.906	40471.53
732.248	40406.9
732.589	40241.71
732.93	40141.15
733.271	40300.69
733.612	40386.79
733.953	40077.42
734.294	40039.68
734.635	39896.18
734.976	40010.98
735.317	39676.3
735.658	39705.91
735.999	39732.57
736.339	39523.76
736.68	39647.38
737.021	39459.58
737.361	39360.83
737.702	39409.64
738.042	39376.42
738.383	39306.37
738.723	39260.49
739.063	39228.4
739.404	39263.2
739.744	39084.23
740.084	38937.11
740.424	38935.53
740.764	38737.57
741.104	38996.09
741.444	38694.63
741.784	38673.16
742.124	38757.68
742.464	38650.34
742.804	38534.64
743.143	38247.19
743.483	38565.37
743.823	38223.91
744.162	38083.8
744.502	38258.49
744.841	37998.38
745.181	38221.88
745.52	37912.28
745.86	37959.06
746.199	37896.01
746.538	37940.53
746.877	37895.78
747.216	37739.63
747.556	37512.52
747.895	37667.77
748.234	37509.58
748.573	37479.97
748.911	37458.51
749.25	37380.99
749.589	37156.37
749.928	37350.03
750.267	37188.91
750.605	37148.68
750.944	36960.44
751.283	36810.61
751.621	36896.04
751.96	36640
752.298	36640.45
752.636	36704.85
752.975	36513.9
753.313	36276.16
753.651	36627.34
753.989	36188.71
754.327	36164.08
754.666	35939.45
755.004	36098.09
755.342	36004.31
755.679	35977.42
756.017	35653.36
756.355	35711.21
756.693	35610.65
757.031	35520.03
757.368	35285
757.706	35322.07
758.044	35207.72
758.381	35218.11
758.719	35150.77
759.056	35110.09
759.394	34915.3
759.731	34749.2
760.068	34724.12
760.405	34624.23
760.743	34305.6
761.08	34546.72
761.417	34252.49
761.754	34174.53
762.091	34118.93
762.428	33970.01
762.765	33830.81
763.102	33878.04
763.438	33684.14
763.775	33554.65
764.112	33685.72
764.449	33624.03
764.785	33304.49
765.122	33211.16
765.458	33171.16
765.795	33044.16
766.131	32978.62
766.467	32829.48
766.804	32756.71
767.14	32490.73
767.476	32491.86
767.812	32372.09
768.148	32351.97
768.485	32220.9
768.821	32002.15
769.157	31964.87
769.492	31947.92
769.828	31704.53
770.164	31520.36
770.5	31468.61
770.836	31460.25
771.171	31233.59
771.507	31239.24
771.842	31075.85
772.178	31019.58
772.513	30864.33
772.849	30815.97
773.184	30709.31
773.519	30681.96
773.855	30585.92
774.19	30345.02
774.525	30272.03
774.86	30277.23
775.195	30086.5
775.53	29982.54
775.865	29782.55
776.2	29548.43
776.535	29364.93
776.87	29342.56
777.205	29411.49
777.539	29145.73
777.874	29116.81
778.209	28986.64
778.543	28865.96
778.878	28742.13
779.212	28793.65
779.547	28546.42
779.881	28570.38
780.215	28265.08
780.55	28461.91
780.884	28238.18
781.218	28154.8
781.552	28059.43
781.886	27886.33
782.22	27835.26
782.554	27711.42
782.888	27353.24
783.222	27384.42
783.556	27242.05
783.889	27182.84
784.223	27025.11
784.557	27134.71
784.89	27081.83
785.224	26824.89
785.557	26704.89
785.891	26663.31
786.224	26630.77
786.558	26561.17
786.891	26406.59
787.224	26252.93
787.557	26148.3
787.891	26160.27
788.224	26070.33
788.557	26039.15
788.89	25907.4
789.223	25863.11
789.556	25695.65
789.888	25642.77
790.221	25473.51
790.554	25195.1
790.887	25367.75
791.219	25178.6
791.552	25246.85
791.884	25036.91
792.217	24880.98
792.549	24775
792.882	24687.32
793.214	24552.18
793.546	24580.43
793.879	24453.2
794.211	24398.51
794.543	24568.9
794.875	24261.79
795.207	24241.23
795.539	24168.01
795.871	24191.74
796.203	23908.35
796.535	23835.14
796.867	23810.05
797.198	23803.5
797.53	23707.46
797.862	23525.54
798.193	23576.16
798.525	23454.58
798.856	23366.45
799.188	23083.29
799.519	23077.19
799.85	22994.25
800.182	23027.93
800.513	23044.65
800.844	22762.62
801.175	22922.39
801.506	22853.24
801.837	22642.4
802.168	22570.99
802.499	22584.77
802.83	22436.08
803.161	22384.1
803.491	22411.9
803.822	22335.06
804.153	22238.79
804.483	22062.75
804.814	21945.47
805.145	22038.57
805.475	21956.09
805.805	21877.22
806.136	21877
806.466	21763.33
806.796	21766.72
807.126	21616.89
807.457	21557.23
807.787	21564.69
808.117	21369.66
808.447	21403.11
808.777	21394.97
809.107	21198.14
809.436	21263
809.766	21186.84
810.096	21046.51
810.426	21021.2
810.755	21030.24
811.085	20933.07
811.414	20862.56
811.744	20673.19
812.073	20714.54
812.403	20728.1
812.732	20505.28
813.061	20531.95
813.39	20487.88
813.719	20472.51
814.049	20505.51
814.378	20436.36
814.707	20192.52
815.036	20241.33
815.365	20118.4
815.693	19977.38
816.022	20000.21
816.351	19969.93
816.68	19818.29
817.008	19888.57
817.337	19643.61
817.665	19636.6
817.994	19678.41
818.322	19642.03
818.651	19607.68
818.979	19548.02
819.307	19616.94
819.636	19560.9
819.964	19416.72
820.292	19505.08
820.62	19429.83
820.948	19340.79
821.276	19393.22
821.604	19373.56
821.932	19343.95
822.259	19410.85
822.587	19334.92
822.915	19284.07
823.243	19438.87
823.57	19213.34
823.898	19297.63
824.225	19306.22
824.553	19310.28
824.88	19312.54
825.207	19332.43
825.535	19241.81
825.862	19236.16
826.189	19138.76
826.516	19287.91
826.843	19260.34
827.17	19319.1
827.497	19401.81
827.824	19303.5
828.151	19231.19
828.478	19291.53
828.805	19269.83
829.131	19227.57
829.458	19219.89
829.785	18996.39
830.111	19183.05
830.438	19301.7
830.764	19180.57
831.09	19129.5
831.417	19164.07
831.743	19117.52
832.069	19066.67
832.395	18969.05
832.722	19064.19
833.048	18983.51
833.374	19100.8
833.7	19025.54
834.026	19000.46
834.351	19084.75
834.677	19014.7
835.003	19071.42
835.329	18986.45
835.654	18870.07
835.98	18870.29
836.306	18757.98
836.631	18805.66
836.956	18870.07
837.282	18802.95
837.607	18712.33
837.932	18687.7
838.258	18744.2
838.583	18683.63
838.908	18480.7
839.233	18558.66
839.558	18555.73
839.883	18438.89
840.208	18430.76
840.533	18363.19
840.858	18399.35
841.182	18429.63
841.507	18356.86
841.832	18312.8
842.156	18190.76
842.481	18175.62
842.805	18109.41
843.13	18225.11
843.454	18119.58
843.778	17959.13
844.103	17985.35
844.427	17838.46
844.751	17931.56
845.075	17782.41
845.399	17720.27
845.723	17716.43
846.047	17778.12
846.371	17599.82
846.695	17543.1
847.019	17428.52
847.343	17330.22
847.666	17288.64
847.99	17233.28
848.313	17115.31
848.637	17097.91
848.96	17090.91
849.284	16872.61
849.607	16932.04
849.931	16817.69
850.254	16730.01
850.577	16597.59
850.9	16517.36
851.223	16478.95
851.546	16412.73
851.869	16262.68
852.192	16353.52
852.515	16236.24
852.838	16193.53
853.161	16156.24
853.483	16010.26
853.806	16057.26
854.129	15975
854.451	15943.82
854.774	15839.19
855.096	15835.57
855.419	15699.76
855.741	15728.46
856.063	15655.69
856.385	15623.15
856.708	15539.53
857.03	15475.13
857.352	15564.17
857.674	15445.07
857.996	15348.58
858.318	15266.77
858.64	15308.13
858.961	15296.15
859.283	15307
859.605	15089.6
859.926	15141.35
860.248	15108.59
860.57	15007.12
860.891	15076.04
861.212	14905.43
861.534	14958.31
861.855	14831.53
862.176	14965.31
862.498	14829.95
862.819	14860.68
863.14	14748.14
863.461	14689.16
863.782	14755.37
864.103	14756.05
864.424	14596.96
864.745	14723.29
865.065	14493.69
865.386	14537.08
865.707	14519
866.027	14558.32
866.348	14461.15
866.668	14475.38
866.989	14399
867.309	14290.75
867.63	14367.81
867.95	14317.19
868.27	14212.34
868.59	14329.17
868.91	14303.41
869.23	14208.27
869.55	14176.41
869.87	14199.23
870.19	14201.94
870.51	14145.9
870.83	14173.24
871.15	14079.46
871.469	14040.37
871.789	14063.42
872.109	13956.98
872.428	13924.89
872.748	14029.07
873.067	14006.02
873.386	14017.77
873.706	14024.32
874.025	13818.22
874.344	13948.16
874.663	13838.79
874.982	13806.25
875.301	13787.04
875.62	13776.64
875.939	13717.44
876.258	13762.41
876.577	13655.74
876.896	13666.36
877.214	13589.3
877.533	13666.36
877.852	13663.65
878.17	13625.01
878.489	13585.46
878.807	13600.6
879.125	13528.74
879.444	13484.67
879.762	13430.21
880.08	13415.07
880.398	13354.06
880.716	13450.32
881.034	13340.04
881.352	13334.4
881.67	13304.34
881.988	13307.05
882.306	13274.51
882.624	13170.11
882.941	13136.66
883.259	13227.51
883.577	13137.56
883.894	13079.03
884.212	13093.05
884.529	13014.63
884.846	12972.37
885.164	13007.17
885.481	12965.14
885.798	12934.63
886.115	12804.24
886.432	12829.1
886.75	12796.1
887.067	12811.25
887.383	12715.65
887.7	12714.07
888.017	12693.51
888.334	12686.95
888.651	12647.86
888.967	12617.58
889.284	12493.51
889.6	12481.54
889.917	12442.67
890.233	12434.08
890.55	12506.39
890.866	12403.57
891.182	12287.87
891.498	12307.98
891.815	12226.18
892.131	12245.16
892.447	12187.08
892.763	12163.13
893.079	12086.07
893.395	12067.54
893.71	12036.58
894.026	12011.27
894.342	11993.87
894.657	11856.24
894.973	11955.67
895.289	11864.83
895.604	11864.38
895.92	11767.88
896.235	11677.04
896.55	11696.02
896.865	11623.71
897.181	11567.44
897.496	11611.05
897.811	11548
898.126	11425.52
898.441	11433.88
898.756	11407.89
899.071	11458.06
899.386	11386.2
899.7	11320.66
900.015	11209.25
900.33	11178.75
900.644	11164.06
900.959	11186.88
901.273	11122.93
901.588	11051.07
901.902	10943.05
902.216	10945.53
902.531	10886.55
902.845	10868.7
903.159	10865.99
903.473	10814.91
903.787	10788.93
904.101	10756.16
904.415	10665.09
904.729	10635.48
905.042	10557.52
905.356	10590.06
905.67	10496.96
905.984	10447.24
906.297	10480.91
906.611	10330.18
906.924	10335.38
907.237	10329.73
907.551	10319.11
907.864	10244.08
908.177	10256.28
908.491	10164.76
908.804	10091.77
909.117	10080.47
909.43	9943.3
909.743	9983.75
910.056	9969.96
910.368	9882.51
910.681	9893.81
910.994	9866.92
911.307	9750.99
911.619	9789.4
911.932	9776.3
912.244	9680.25
912.557	9679.12
912.869	9556.87
913.181	9565.68
913.494	9527.04
913.806	9395.74
914.118	9416.08
914.43	9369.98
914.742	9358.45
915.054	9253.37
915.366	9318.46
915.678	9240.49
915.99	9210.21
916.302	9145.13
916.613	9087.73
916.925	9031.01
917.236	9012.93
917.548	9006.37
917.859	8964.34
918.171	8874.85
918.482	8891.57
918.794	8846.6
919.105	8806.38
919.416	8723.44
919.727	8719.6
920.038	8738.58
920.349	8625.59
920.66	8626.04
920.971	8616.33
921.282	8537.01
921.593	8527.52
921.903	8362.77
922.214	8433.73
922.525	8436.9
922.835	8327.75
923.146	8386.5
923.456	8280.97
923.767	8273.06
924.077	8245.49
924.387	8185.15
924.697	8121.2
925.008	8075.55
925.318	8115.1
925.628	8039.85
925.938	8010.92
926.248	7931.6
926.558	7873.3
926.867	7930.7
927.177	7872.17
927.487	7814.09
927.796	7727.08
928.106	7708.78
928.416	7689.8
928.725	7679.4
929.034	7673.75
929.344	7685.5
929.653	7641.66
929.962	7547.2
930.271	7509.92
930.581	7478.28
930.89	7404.61
931.199	7386.08
931.508	7390.6
931.817	7366.64
932.125	7384.72
932.434	7340.43
932.743	7238.74
933.051	7186.76
933.36	7197.38
933.669	7157.16
933.977	7129.13
934.286	7092.3
934.594	7051.4
934.902	7016.6
935.21	6983.83
935.519	6966.43
935.827	6972.75
936.135	6885.98
936.443	6861.12
936.751	6832.87
937.059	6796.94
937.367	6777.05
937.674	6782.48
937.982	6681.91
938.29	6704.51
938.597	6653.89
938.905	6621.8
939.213	6546.78
939.52	6559.88
939.827	6550.84
940.135	6513.56
940.442	6491.86
940.749	6481.02
941.056	6480.11
941.363	6367.8
941.67	6376.84
941.977	6297.29
942.284	6344.75
942.591	6311.3
942.898	6217.07
943.205	6242.15
943.511	6199.44
943.818	6182.49
944.125	6152.21
944.431	6126.22
944.738	6105.88
945.044	6068.82
945.35	6006.45
945.657	6003.06
945.963	6011.2
946.269	5924.87
946.575	5951.54
946.881	5904.31
947.187	5902.5
947.493	5841.94
947.799	5818.66
948.105	5816.17
948.41	5760.13
948.716	5729.85
949.022	5705.22
949.327	5768.04
949.633	5643.98
949.938	5639.23
950.244	5622.28
950.549	5593.81
950.854	5594.94
951.16	5598.55
951.465	5492.12
951.77	5522.4
952.075	5496.86
952.38	5446.47
952.685	5458.67
952.99	5367.82
953.294	5410.99
953.599	5299.58
953.904	5304.55
954.209	5285.57
954.513	5289.63
954.818	5279.47
955.122	5220.26
955.426	5236.3
955.731	5153.59
956.035	5139.13
956.339	5150.66
956.643	5119.47
956.948	5079.47
957.252	5098.68
957.556	5028.62
957.86	5034.27
958.163	5053.48
958.467	4967.84
958.771	4934.16
959.075	4928.29
959.378	4912.92
959.682	4917.22
959.985	4903.2
960.289	4846.93
960.592	4869.08
960.896	4822.75
961.199	4805.81
961.502	4783.43
961.805	4705.7
962.108	4725.36
962.411	4736.43
962.714	4697.11
963.017	4672.25
963.32	4651.46
963.623	4575.76
963.926	4588.86
964.228	4606.04
964.531	4553.61
964.833	4551.35
965.136	4510.9
965.438	4470.67
965.741	4455.98
966.043	4454.4
966.345	4420.05
966.648	4399.26
966.95	4404.46
967.252	4375.31
967.554	4365.59
967.856	4345.7
968.158	4313.84
968.46	4246.72
968.761	4261.19
969.063	4276.1
969.365	4231.36
969.666	4202.66
969.968	4165.82
970.269	4206.73
970.571	4186.84
970.872	4151.13
971.174	4108.88
971.475	4114.75
971.776	4100.06
972.077	4128.08
972.378	4036.56
972.679	4008.99
972.98	4024.81
973.281	3978.48
973.582	3973.06
973.883	3954.3
974.183	3920.63
974.484	3924.93
974.785	3918.15
975.085	3873.85
975.386	3892.38
975.686	3867.3
975.986	3808.32
976.287	3793.18
976.587	3795.21
976.887	3789.11
977.187	3775.78
977.487	3747.53
977.787	3743.91
978.087	3669.34
978.387	3698.49
978.687	3710.02
978.987	3689.45
979.286	3664.82
979.586	3589.34
979.885	3592.96
980.185	3570.36
980.484	3625.27
980.784	3570.13
981.083	3572.17
981.382	3526.29
981.682	3539.17
981.981	3497.37
982.28	3518.38
982.579	3504.6
982.878	3479.96
983.177	3436.12
983.475	3429.8
983.774	3418.5
984.073	3371.95
984.372	3396.58
984.67	3374.21
984.969	3368.78
985.267	3335.11
985.566	3336.69
985.864	3305.05
986.162	3296.24
986.461	3263.02
986.759	3247.88
987.057	3180.76
987.355	3208.79
987.653	3175.11
987.951	3169.24
988.249	3185.28
988.547	3161.78
988.844	3118.84
989.142	3126.98
989.44	3117.04
989.737	3070.71
990.035	3083.59
990.332	3042.24
990.63	3052.18
990.927	3035.68
991.224	3047.21
991.521	2982.12
991.819	2993.42
992.116	2973.99
992.413	2965.4
992.71	2937.38
993.006	2928.79
993.303	2941.67
993.6	2904.61
993.897	2914.78
994.193	2895.8
994.49	2849.47
994.787	2846.99
995.083	2797.05
995.379	2806.08
995.676	2804.5
995.972	2801.79
996.268	2801.11
996.565	2730.38
996.861	2760.89
997.157	2744.84
997.453	2735.8
997.749	2740.32
998.044	2696.03
998.34	2694.45
998.636	2661.68
998.932	2672.53
999.227	2639.08
999.523	2616.03
999.818	2607.22
1000.114	2588.24
1000.409	2572.64
1000.704	2576.03
1001	2548.24
1001.295	2550.95
1001.59	2552.08
1001.885	2527.9
1002.18	2504.4
1002.475	2484.28
1002.77	2441.57
1003.065	2432.08
1003.359	2439.09
1003.654	2435.92
1003.949	2387.34
1004.243	2407
1004.538	2373.78
1004.832	2339.2
1005.127	2360.67
1005.421	2322.26
1005.715	2361.35
1006.009	2322.71
1006.304	2307.11
1006.598	2299.43
1006.892	2307.79
1007.186	2250.39
1007.48	2259.21
1007.773	2242.26
1008.067	2239.55
1008.361	2240
1008.655	2173.56
1008.948	2150.06
1009.242	2183.95
1009.535	2177.17
1009.829	2159.1
1010.122	2149.38
1010.415	2126.1
1010.708	2081.81
1011.001	2115.48
1011.295	2073.9
1011.588	2070.28
1011.881	2050.17
1012.173	2024.86
1012.466	2009.04
1012.759	2035.03
1013.052	2010.85
1013.344	1990.96
1013.637	1978.54
1013.93	1962.49
1014.222	1937.63
1014.514	1922.27
1014.807	1926.11
1015.099	1899.22
1015.391	1900.12
1015.683	1876.17
1015.976	1860.35
1016.268	1871.65
1016.56	1847.92
1016.851	1839.1
1017.143	1852.66
1017.435	1824.19
1017.727	1837.52
1018.018	1781.93
1018.31	1794.13
1018.602	1801.82
1018.893	1735.38
1019.185	1732.67
1019.476	1772.67
1019.767	1739.67
1020.058	1750.07
1020.35	1711.2
1020.641	1717.07
1020.932	1696.51
1021.223	1660.35
1021.514	1681.37
1021.804	1636.17
1022.095	1635.04
1022.386	1626.23
1022.677	1625.32
1022.967	1610.18
1023.258	1582.84
1023.548	1610.86
1023.839	1575.83
1024.129	1568.6
1024.419	1546.46
1024.709	1534.25
1025	1518.21
1025.29	1516.4
1025.58	1536.74
1025.87	1512.11
1026.16	1490.41
1026.449	1475.5
1026.739	1476.63
1027.029	1467.59
1027.319	1457.87
1027.608	1436.63
1027.898	1436.85
1028.187	1437.08
1028.477	1415.61
1028.766	1421.49
1029.055	1377.65
1029.344	1345.56
1029.634	1388.49
1029.923	1381.72
1030.212	1356.41
1030.501	1323.64
1030.79	1345.78
1031.078	1347.37
1031.367	1327.25
1031.656	1299.68
1031.945	1282.06
1032.233	1293.36
1032.522	1285.22
1032.81	1257.2
1033.099	1263.07
1033.387	1250.42
1033.675	1244.77
1033.963	1214.26
1034.251	1223.08
1034.54	1206.8
1034.828	1219.69
1035.116	1196.86
1035.403	1205.22
1035.691	1182.85
1035.979	1190.99
1036.267	1182.85
1036.554	1157.54
1036.842	1152.34
1037.129	1150.99
1037.417	1134.94
1037.704	1130.42
1037.992	1124.09
1038.279	1099.91
1038.566	1109.18
1038.853	1109.18
1039.14	1109.18
