Data from white_wall_FLMS001491_010.txt Node
Date: Tue Feb 07 11:03:13 GMT 2017
User: dcchb
Spectrometer: FLMS00149
Trigger mode: 0
Integration Time (sec): 2.000000E-2
Scans to average: 10
Electric dark correction enabled: true
Nonlinearity correction enabled: false
Boxcar width: 0
XAxis mode: Wavelengths
Number of Pixels in Spectrum: 2048
>>>>>Begin Spectral Data<<<<<
341.393	-6.91
341.776	-6.91
342.16	-6.91
342.543	-35.61
342.927	-63.18
343.31	-78.32
343.693	-70.41
344.077	-63.18
344.46	-38.77
344.843	-57.07
345.226	-30.63
345.61	-31.76
345.993	-17.98
346.376	-7.81
346.759	0.55
347.142	22.47
347.525	43.49
347.908	46.65
348.291	62.47
348.674	103.15
349.057	117.16
349.44	121
349.823	164.84
350.206	174.33
350.588	221.11
350.971	230.15
351.354	259.75
351.737	240.09
352.119	270.15
352.502	283.71
352.884	286.65
353.267	301.11
353.65	328
354.032	314.67
354.414	341.33
354.797	337.27
355.179	357.6
355.562	353.08
355.944	330.03
356.326	375.46
356.709	352.63
357.091	347.43
357.473	375
357.855	385.63
358.238	385.17
358.62	343.14
359.002	362.58
359.384	373.87
359.766	364.61
360.148	363.71
360.53	371.16
360.912	371.84
361.294	353.31
361.676	353.54
362.057	362.8
362.439	359.64
362.821	350.6
363.203	353.54
363.584	341.56
363.966	360.54
364.348	357.83
364.729	344.95
365.111	341.11
365.493	353.08
365.874	344.27
366.256	351.5
366.637	326.42
367.019	334.55
367.4	333.42
367.781	367.32
368.163	352.18
368.544	355.8
368.925	329.36
369.306	341.56
369.688	332.07
370.069	331.62
370.45	354.67
370.831	320.77
371.212	348.11
371.593	361.67
371.974	337.94
372.355	344.27
372.736	363.93
373.117	363.03
373.498	354.67
373.879	338.62
374.26	349.02
374.641	350.15
375.021	341.11
375.402	354.89
375.783	359.19
376.163	386.53
376.544	359.19
376.925	337.72
377.305	369.58
377.686	376.13
378.066	372.52
378.447	376.81
378.827	365.51
379.208	384.5
379.588	372.97
379.968	367.09
380.349	373.65
380.729	402.35
381.109	377.26
381.489	382.46
381.87	385.4
382.25	390.37
382.63	384.5
383.01	399.41
383.39	388.79
383.77	397.15
384.15	411.61
384.53	403.7
384.91	396.47
385.29	398.73
385.67	411.84
386.049	439.41
386.429	406.64
386.809	426.98
387.189	436.25
387.568	405.06
387.948	438.96
388.328	428.56
388.707	447.32
389.087	440.99
389.466	450.71
389.846	437.6
390.225	471.95
390.605	488.45
390.984	459.75
391.363	482.57
391.743	466.53
392.122	478.96
392.501	511.5
392.881	499.75
393.26	521.67
393.639	500.42
394.018	539.07
394.397	521.89
394.776	537.49
395.155	546.53
395.534	545.4
395.913	549.69
396.292	551.95
396.671	560.76
397.05	590.37
397.429	598.05
397.808	587.88
398.186	623.81
398.565	626.98
398.944	629.69
399.323	650.25
399.701	666.3
400.08	662.23
400.458	664.94
400.837	676.47
401.215	703.81
401.594	711.94
401.972	693.87
402.351	728.89
402.729	728.67
403.107	745.16
403.486	754.88
403.864	789.46
404.242	795.33
404.62	823.81
404.999	848.66
405.377	832.39
405.755	847.76
406.133	854.09
406.511	903.35
406.889	884.37
407.267	899.96
407.645	939.28
408.023	922.79
408.401	938.15
408.779	966.85
409.156	990.81
409.534	1025.83
409.912	1020.86
410.29	1069.45
410.667	1077.13
411.045	1083.69
411.422	1102.44
411.8	1106.06
412.178	1154.42
412.555	1150.58
412.933	1190.12
413.31	1176.34
413.687	1209.33
414.065	1226.51
414.442	1271.7
414.819	1262.66
415.197	1302.44
415.574	1308.09
415.951	1327.07
416.328	1342.21
416.705	1340.18
417.082	1327.3
417.46	1381.31
417.837	1385.15
418.214	1383.57
418.591	1422.66
418.967	1417.46
419.344	1452.04
419.721	1456.11
420.098	1472.38
420.475	1491.13
420.852	1515.54
421.228	1563.67
421.605	1538.59
421.982	1577.23
422.358	1560.74
422.735	1610.23
423.111	1640.06
423.488	1674.86
423.864	1667.85
424.241	1692.71
424.617	1719.6
424.994	1734.52
425.37	1707.17
425.746	1735.65
426.123	1732.03
426.499	1761.41
426.875	1806.61
427.251	1851.8
427.627	1864
428.003	1873.27
428.379	1906.49
428.756	1912.36
429.132	1979.26
429.507	1999.37
429.883	2031.46
430.259	2059.25
430.635	2054.73
431.011	2061.97
431.387	2126.37
431.763	2179.02
432.138	2146.48
432.514	2187.16
432.89	2237.55
433.265	2289.76
433.641	2289.98
434.016	2303.32
434.392	2346.25
434.767	2420.15
435.143	2366.36
435.518	2426.93
435.894	2457.21
436.269	2489.52
436.644	2518.68
437.02	2588.28
437.395	2583.99
437.77	2617.43
438.145	2660.37
438.52	2677.32
438.895	2711.89
439.271	2720.93
439.646	2794.6
440.021	2796.64
440.395	2829.18
440.77	2804.54
441.145	2841.15
441.52	2895.16
441.895	2872.79
442.27	2921.6
442.645	2920.02
443.019	2965.22
443.394	2976.74
443.769	3008.83
444.143	2983.3
444.518	3059
444.892	3064.65
445.267	3086.8
445.641	3137.87
446.016	3157.53
446.39	3174.7
446.764	3231.65
447.139	3194.37
447.513	3256.74
447.887	3264.65
448.262	3276.85
448.636	3280.92
449.01	3358.43
449.384	3389.84
449.758	3388.26
450.132	3498.54
450.506	3497.63
450.88	3479.56
451.254	3511.42
451.628	3553.23
452.002	3584.19
452.376	3636.84
452.75	3654.01
453.123	3665.99
453.497	3788.25
453.871	3822.37
454.244	3879.32
454.618	3909.15
454.992	3971.52
455.365	3990.05
455.739	4076.83
456.112	4129.48
456.486	4133.78
456.859	4189.37
457.232	4268.91
457.606	4283.15
457.979	4358.4
458.352	4377.61
458.725	4482.69
459.099	4510.49
459.472	4633.2
459.845	4627.55
460.218	4729.92
460.591	4746.19
460.964	4743.7
461.337	4914.09
461.71	4945.73
462.083	5024.15
462.456	5060.08
462.829	5108.21
463.201	5217.36
463.574	5193.41
463.947	5266.18
464.32	5407.41
464.692	5399.96
465.065	5455.55
465.438	5562.89
465.81	5668.2
466.183	5708.2
466.555	5861.64
466.928	5845.37
467.3	5891.47
467.672	5996.33
468.045	6102.09
468.417	6152.71
468.789	6252.82
469.161	6362.64
469.534	6429.31
469.906	6540.49
470.278	6640.38
470.65	6713.82
471.022	6809.41
471.394	6994.72
471.766	6973.7
472.138	7107.71
472.51	7310.19
472.882	7400.36
473.253	7464.99
473.625	7568.04
473.997	7765.32
474.369	7790.4
474.74	7909.27
475.112	8118.98
475.484	8163.5
475.855	8336.38
476.227	8413.21
476.598	8679.42
476.97	8737.5
477.341	8896.14
477.713	9086.19
478.084	9131.16
478.455	9457.03
478.827	9486.4
479.198	9753.29
479.569	9749.22
479.94	10024.02
480.311	10157.35
480.682	10379.26
481.053	10632.36
481.424	10803.43
481.795	10833.26
482.166	11121.16
482.537	11278.67
482.908	11505.11
483.279	11605.67
483.65	11837.08
484.021	12113
484.391	12199.78
484.762	12418.3
485.133	12516.38
485.503	12641.12
485.874	12998.4
486.244	13074.78
486.615	13318.39
486.985	13502.57
487.356	13851.49
487.726	13859.17
488.097	14251.93
488.467	14127.86
488.837	14570.79
489.207	14719.03
489.578	14921.29
489.948	15058.69
490.318	15324.89
490.688	15357.89
491.058	15623.19
491.428	15857.08
491.798	16043.07
492.168	16370.52
492.538	16432.66
492.908	16611.87
493.278	16960.56
493.648	16860.22
494.017	17176.14
494.387	17325.75
494.757	17519.64
495.126	17699.97
495.496	17710.82
495.866	17898.39
496.235	18043.24
496.605	18236.91
496.974	18453.85
497.344	18620.17
497.713	18660.85
498.082	18829.43
498.452	19048.64
498.821	19143.32
499.19	19280.27
499.559	19391.23
499.928	19585.35
500.298	19722.07
500.667	19924.09
501.036	19990.08
501.405	20069.18
501.774	20180.59
502.143	20482.27
502.512	20555.72
502.88	20859.89
503.249	20804.3
503.618	21082.71
503.987	21150.5
504.356	21390.72
504.724	21386.43
505.093	21545.97
505.462	21618.97
505.83	21776.48
506.199	22049.46
506.567	22351.38
506.936	22326.29
507.304	22752.95
507.672	22797.92
508.041	22877.01
508.409	23078.81
508.777	23353.38
509.145	23419.6
509.514	23426.6
509.882	23743.2
510.25	23820.72
510.618	23994.95
510.986	24069.75
511.354	24444.2
511.722	24615.27
512.09	24785.66
512.458	24874.02
512.826	25043.73
513.193	25257.97
513.561	25403.5
513.929	25548.58
514.297	25917.38
514.664	25975.01
515.032	26229.92
515.4	26279.18
515.767	26319.18
516.135	26637.14
516.502	26494.09
516.869	27007.98
517.237	27126.17
517.604	27063.34
517.972	27512.14
518.339	27706.04
518.706	27832.14
519.073	27962.3
519.44	28305.8
519.808	28570.65
520.175	28524.32
520.542	28866.01
520.909	29098.77
521.276	29160.24
521.643	29489.49
522.009	29591.41
522.376	29742.37
522.743	29931.97
523.11	30344.61
523.477	30532.18
523.843	30693.53
524.21	31098.26
524.577	31245.38
524.943	31354.53
525.31	31721.07
525.676	32021.4
526.043	32117.22
526.409	32312.7
526.776	32616.42
527.142	32788.62
527.508	33024.09
527.874	33297.53
528.241	33367.81
528.607	33493
528.973	33831.98
529.339	33798.76
529.705	34209.37
530.071	34419.76
530.437	34454.11
530.803	34829.69
531.169	35079.85
531.535	35057.26
531.901	35280.3
532.267	35450.92
532.632	35688.43
532.998	35826.5
533.364	35899.04
533.73	36107.85
534.095	36343.55
534.461	36547.61
534.826	36662.19
535.192	36869.19
535.557	37019.46
535.923	37050.2
536.288	37152.57
536.653	37441.37
537.019	37316.18
537.384	37611.77
537.749	37890.4
538.114	37896.05
538.479	37984.41
538.845	38130.62
539.21	38225.53
539.575	38463.72
539.94	38477.51
540.305	38790.72
540.67	38784.62
541.034	38974.89
541.399	39069.35
541.764	39272.96
542.129	39421.66
542.494	39677.02
542.858	39803.8
543.223	39673.41
543.587	39900.29
543.952	40100.29
544.316	40367.17
544.681	40248.53
545.045	40463.67
545.41	40773.94
545.774	40946.82
546.138	40878.8
546.503	41049.42
546.867	41068.85
547.231	41392.23
547.595	41664.54
547.959	41703.86
548.324	41856.63
548.688	41980.69
549.052	42112.89
549.416	42262.94
549.779	42295.94
550.143	42491.19
550.507	42774.57
550.871	42921
551.235	42926.2
551.599	43333.87
551.962	43278.28
552.326	43531.38
552.689	43816.8
553.053	43743.36
553.417	43837.82
553.78	44340.4
554.143	44206.85
554.507	44552.15
554.87	44621.52
555.234	45068.52
555.597	44874.63
555.96	45200.94
556.323	45346.7
556.686	45366.14
557.05	45770.42
557.413	45886.58
557.776	46091.99
558.139	46291.09
558.502	46436.62
558.865	46483.62
559.228	46821.92
559.59	47039.31
559.953	47062.36
560.316	47425.97
560.679	47453.77
561.041	47637.94
561.404	47804.27
561.767	48116.35
562.129	48112.28
562.492	48540.29
562.854	48399.96
563.217	48547.07
563.579	48787.52
563.941	48935.54
564.304	49099.37
564.666	49304.57
565.028	49388.86
565.39	49543.2
565.753	49796.98
566.115	49951.1
566.477	50033.81
566.839	50117.65
567.201	50352.67
567.563	50432.22
567.925	50635.6
568.287	50641.93
568.648	50775.94
569.01	50971.87
569.372	51171.41
569.734	51034.46
570.095	51231.29
570.457	51467.67
570.819	51490.72
571.18	51458.86
571.542	51674.45
571.903	51701.11
572.265	51900.88
572.626	51972.74
572.987	51937.94
573.349	52183.81
573.71	52145.62
574.071	52325.73
574.432	52422.22
574.794	52670.35
575.155	52540.64
575.516	52552.39
575.877	52774.53
576.238	52727.07
576.599	52908.54
576.96	52953.51
577.32	52941.53
577.681	53096.33
578.042	53148.31
578.403	53136.33
578.763	53114.18
579.124	53266.49
579.485	53284.57
579.845	53406.15
580.206	53343.56
580.566	53390.56
580.927	53414.97
581.287	53577.22
581.648	53424.68
582.008	53616.99
582.368	53452.25
582.728	53560.05
583.089	53501.52
583.449	53487.73
583.809	53594.17
584.169	53625.36
584.529	53647.73
584.889	53790.1
585.249	53566.15
585.609	53440.5
585.969	53681.63
586.329	53620.61
586.688	53734.73
587.048	53683.66
587.408	53581.74
587.768	53683.89
588.127	53718.01
588.487	53654.28
588.846	53908.29
589.206	53634.62
589.565	53685.47
589.925	53925.23
590.284	53865.8
590.643	53845.01
591.003	53866.25
591.362	53941.73
591.721	53802.53
592.08	53805.92
592.44	54049.07
592.799	53964.78
593.158	53840.72
593.517	53864.45
593.876	53966.82
594.235	53772.7
594.593	53899.47
594.952	53932.24
595.311	53911.22
595.67	53954.84
596.029	54118.22
596.387	54060.6
596.746	54115.29
597.104	54020.37
597.463	54023.31
597.822	54105.79
598.18	54026.7
598.538	54049.53
598.897	54177.66
599.255	53957.78
599.613	54364.09
599.972	54173.14
600.33	54280.71
600.688	54189.63
601.046	54263.3
601.404	54373.81
601.762	54316.86
602.12	54504.88
602.478	54421.72
602.836	54407.71
603.194	54281.16
603.552	54386.47
603.91	54311.44
604.268	54427.14
604.625	54347.82
604.983	54521.15
605.341	54412.68
605.698	54549.4
606.056	54613.13
606.413	54512.34
606.771	54656.51
607.128	54640.02
607.485	54735.16
607.843	54687.25
608.2	54760.69
608.557	54899.67
608.914	54728.6
609.272	54910.97
609.629	54869.16
609.986	55038.2
610.343	54826.91
610.7	55025.77
611.057	54933.12
611.414	54982.38
611.771	55068.26
612.127	55106.22
612.484	55161.59
612.841	55242.26
613.198	55123.4
613.554	55111.64
613.911	55247.01
614.267	55307.57
614.624	55310.51
614.98	55323.84
615.337	55430.73
615.693	55400
616.05	55329.04
616.406	55582.59
616.762	55421.01
617.118	55434.12
617.475	55466.66
617.831	55630.05
618.187	55616.49
618.543	55600.44
618.899	55729.26
619.255	55762.02
619.611	55747.56
619.967	55760.67
620.323	55779.88
620.678	55765.19
621.034	55675.7
621.39	55719.76
621.746	55637.05
622.101	55995.01
622.457	55749.37
622.812	55832.98
623.168	55904.62
623.523	55934.67
623.879	55910.95
624.234	55677.96
624.589	55872.98
624.945	55880.21
625.3	55938.52
625.655	55900.55
626.01	55877.95
626.365	55879.53
626.72	55851.74
627.075	55834.34
627.43	55812.42
627.785	55789.37
628.14	55840.89
628.495	55810.83
628.85	55764.73
629.205	55682.02
629.559	55896.93
629.914	55781.68
630.269	55766.77
630.623	55688.13
630.978	55616.49
631.332	55766.99
631.687	55719.76
632.041	55630.73
632.396	55665.53
632.75	55507.11
633.104	55641.12
633.459	55525.19
633.813	55516.15
634.167	55440.45
634.521	55388.7
634.875	55475.25
635.229	55394.8
635.583	55264.86
635.937	55380.34
636.291	55309.38
636.645	55343.73
636.999	55205.43
637.352	55273.22
637.706	55193.68
638.06	55312.99
638.413	55167.24
638.767	55035.94
639.121	55138.08
639.474	54993.68
639.828	55041.82
640.181	55107.35
640.534	54964.08
640.888	54922.72
641.241	54761.6
641.594	54882.5
641.947	55040.69
642.301	54880.24
642.654	54799.56
643.007	54760.47
643.36	54825.55
643.713	54698.1
644.066	54825.1
644.419	54602.5
644.771	54384.88
645.124	54141.73
645.477	54166.58
645.83	53932.47
646.182	53896.08
646.535	53783.32
646.888	53846.59
647.24	53556.88
647.593	53753.94
647.945	53663.09
648.298	53539.03
648.65	53522.76
649.002	53381.97
649.355	53509.2
649.707	53476.88
650.059	53651.57
650.411	53932.24
650.763	53924.78
651.115	54256.53
651.467	54082.74
651.819	54110.54
652.171	53922.75
652.523	54016.08
652.875	53990.32
653.227	53899.25
653.578	54090.65
653.93	53997.78
654.282	53851.56
654.633	53781.51
654.985	53759.14
655.337	53824.9
655.688	53772.47
656.039	53913.26
656.391	53690.89
656.742	53757.56
657.094	53683.43
657.445	53828.74
657.796	53722.98
658.147	53707.84
658.498	53614.28
658.849	53678.24
659.2	53656.77
659.551	53586.71
659.902	53704
660.253	53600.5
660.604	53659.03
660.955	53460.16
661.306	53615.64
661.656	53540.84
662.007	53566.15
662.358	53483.21
662.708	53482.76
663.059	53447.96
663.409	53300.17
663.76	53481.4
664.11	53449.54
664.461	53427.17
664.811	53420.16
665.161	53334.52
665.511	53312.14
665.862	53301.52
666.212	53401.18
666.562	53447.06
666.912	53346.72
667.262	53282.09
667.612	53314.63
667.962	53261.52
668.312	53292.03
668.662	53331.58
669.011	53288.19
669.361	53167.97
669.711	53210.45
670.06	53079.61
670.41	52979.04
670.76	53013.39
671.109	53126.61
671.459	53113.96
671.808	53021.53
672.157	53069.21
672.507	52865.15
672.856	52894.08
673.205	52886.84
673.554	52962.32
673.904	52839.39
674.253	52932.04
674.602	52748.77
674.951	52297.48
675.3	52205.96
675.649	52658.15
675.998	52590.58
676.346	52648.66
676.695	52796.68
677.044	52502.67
677.393	52609.56
677.741	52674.42
678.09	52485.72
678.438	52374.54
678.787	52511.49
679.135	52480.07
679.484	52292.28
679.832	52364.15
680.181	52179.07
680.529	52349.68
680.877	52295.67
681.225	52224.49
681.573	52363.69
681.922	52059.97
682.27	51964.83
682.618	52032.4
682.966	51813.88
683.314	51996.02
683.661	51838.28
684.009	51657.95
684.357	51665.63
684.705	51630.83
685.053	51549.03
685.4	51523.72
685.748	51393.1
686.095	51232.88
686.443	51152.65
686.79	51167.12
687.138	51207.57
687.485	51213.89
687.832	51065.65
688.18	51150.17
688.527	50862.94
688.874	50815.03
689.221	50723.51
689.568	50613.46
689.915	50568.26
690.262	50581.59
690.609	50422.73
690.956	50336.63
691.303	50330.07
691.65	50139.12
691.997	50114.26
692.344	49849.41
692.69	49886.02
693.037	49853.03
693.383	49602.18
693.73	49598.79
694.077	49398.8
694.423	49468.4
694.769	49315.64
695.116	49159.03
695.462	49276.54
695.808	48999.71
696.155	49105.7
696.501	48719.72
696.847	48885.37
697.193	48545.94
697.539	48746.61
697.885	48429.79
698.231	48320.86
698.577	48228.89
698.923	48238.83
699.269	47987.99
699.614	47809.69
699.96	47793.64
700.306	47759.52
700.651	47578.28
700.997	47526.31
701.342	47460.09
701.688	47275.01
702.033	47272.3
702.379	47247.22
702.724	47202.47
703.069	47293.77
703.415	46823.5
703.76	46752.54
704.105	46749.38
704.45	46701.92
704.795	46444.98
705.14	46273.23
705.485	46275.72
705.83	46083.63
706.175	46158.43
706.52	46019.68
706.865	45863.3
707.209	45747.6
707.554	45754.15
707.899	45707.82
708.243	45586.47
708.588	45547.83
708.932	45170.44
709.277	45257.44
709.621	45284.11
709.966	45055.41
710.31	45080.95
710.654	44861.74
710.998	44850.9
711.342	44901.07
711.687	44816.55
712.031	44559.15
712.375	44329.33
712.719	44596.44
713.063	44415.88
713.407	44620.85
713.75	44244.13
714.094	44194.19
714.438	44127.75
714.782	44046.62
715.125	43977.7
715.469	43969.79
715.812	43787.42
716.156	43548.78
716.499	43576.13
716.843	43573.87
717.186	43385.62
717.53	43484.61
717.873	43507.2
718.216	43340.43
718.559	43107.21
718.902	42898.63
719.246	42953.32
719.589	42747.9
719.932	42674.46
720.275	42730.95
720.617	42760.78
720.96	42617.96
721.303	42770.5
721.646	42740.67
721.989	42368.48
722.331	42518.98
722.674	42408.25
723.016	42342.49
723.359	42196.5
723.701	42311.98
724.044	42002.84
724.386	41854.37
724.729	42067.02
725.071	41932.56
725.413	41769.4
725.755	41727.59
726.097	41658.89
726.439	41458.44
726.782	41497.76
727.124	41514.71
727.465	41443.3
727.807	41321.72
728.149	41341.38
728.491	41111.11
728.833	41223.87
729.175	41061.62
729.516	41075.4
729.858	40934.62
730.199	40907.5
730.541	40798.57
730.882	40811.23
731.224	40867.05
731.565	40673.38
731.906	40691.68
732.248	40619.37
732.589	40516.1
732.93	40399.71
733.271	40433.16
733.612	40357.46
733.953	40415.53
734.294	40100.74
734.635	39941.87
734.976	40200.62
735.317	39978.26
735.658	39988.2
735.999	39982.1
736.339	39811.93
736.68	40030.46
737.021	39822.55
737.361	39613.29
737.702	39883.12
738.042	39666.4
738.383	39635.89
738.723	39706.63
739.063	39431.6
739.404	39434.09
739.744	39279.29
740.084	39237.71
740.424	39270.7
740.764	39080.88
741.104	39344.83
741.444	39089.92
741.784	38844.73
742.124	39070.26
742.464	38854.22
742.804	38878.85
743.143	38747.1
743.483	38795.46
743.823	38628.01
744.162	38519.31
744.502	38612.19
744.841	38360.67
745.181	38514.11
745.52	38190.28
745.86	38371.29
746.199	38267.12
746.538	38218.3
746.877	38282.93
747.216	38107.57
747.556	37945.99
747.895	38014.01
748.234	37882.72
748.573	37747.13
748.911	37636.4
749.25	37691.76
749.589	37361.38
749.928	37418.32
750.267	37504.2
750.605	37373.81
750.944	37361.6
751.283	37186.69
751.621	37349.85
751.96	37066.69
752.298	37037.32
752.636	37088.39
752.975	36792.8
753.313	36658.57
753.651	36829.86
753.989	36561.17
754.327	36613.37
754.666	36393.94
755.004	36437.11
755.342	36401.18
755.679	36302.87
756.017	36044.12
756.355	36132.93
756.693	35987.4
757.031	35994.63
757.368	35786.73
757.706	35868.76
758.044	35645.72
758.381	35581.08
758.719	35529.11
759.056	35592.16
759.394	35492.95
759.731	35125.95
760.068	35117.82
760.405	34962.57
760.743	35025.39
761.08	35074.2
761.417	34770.71
761.754	34745.63
762.091	34645.97
762.428	34382.92
762.765	34338.18
763.102	34377.95
763.438	34175.02
763.775	33996.04
764.112	34203.27
764.449	34027.23
764.785	33910.85
765.122	33535.49
765.458	33529.84
765.795	33521.7
766.131	33526.9
766.467	33343.85
766.804	33188.15
767.14	32998.33
767.476	33057.76
767.812	32723.76
768.148	32802.4
768.485	32629.3
768.821	32584.55
769.157	32515.18
769.492	32412.81
769.828	32407.16
770.164	31970.78
770.5	31924.46
770.836	31969.65
771.171	31782.99
771.507	31722.65
771.842	31524.47
772.178	31455.99
772.513	31488.54
772.849	31301.87
773.184	31116.34
773.519	31175.55
773.855	30923.13
774.19	30863.24
774.525	30720.65
774.86	30767.88
775.195	30552.06
775.53	30448.56
775.865	30319.53
776.2	30031.63
776.535	29855.59
776.87	29779.88
777.205	29809.94
777.539	29722.26
777.874	29664.86
778.209	29495.59
778.543	29442.04
778.878	29259.89
779.212	29206.79
779.547	29036.62
779.881	29077.07
780.215	28905.55
780.55	28918.66
780.884	28712.56
781.218	28695.16
781.552	28629.18
781.886	28474.38
782.22	28242.52
782.554	28299.92
782.888	27965.24
783.222	27940.38
783.556	27801.4
783.889	27678.24
784.223	27611.35
784.557	27481.41
784.89	27523.67
785.224	27461.07
785.557	27254.07
785.891	27237.57
786.224	27050.46
786.558	26942.89
786.891	26891.37
787.224	26751.03
787.557	26756.01
787.891	26579.96
788.224	26640.75
788.557	26685.95
788.89	26363.25
789.223	26323.25
789.556	26188.34
789.888	26212.29
790.221	26126.42
790.554	25808.69
790.887	25804.84
791.219	25717.16
791.552	25584.28
791.884	25528.24
792.217	25420.67
792.549	25445.31
792.882	25198.31
793.214	25090.29
793.546	25142.04
793.879	24952.66
794.211	24885.55
794.543	24970.29
794.875	24803.97
795.207	24890.52
795.539	24817.75
795.871	24723.29
796.203	24443.75
796.535	24278.33
796.867	24248.27
797.198	24256.41
797.53	24233.13
797.862	23978.9
798.193	24127.83
798.525	23901.39
798.856	23913.59
799.188	23701.4
799.519	23606.48
799.85	23545.24
800.182	23511.57
800.513	23457.34
800.844	23237.68
801.175	23436.77
801.506	23330.78
801.837	23231.8
802.168	23222.31
802.499	23027.06
802.83	22937.35
803.161	22898.03
803.491	22874.98
803.822	22792.72
804.153	22608.09
804.483	22535.55
804.814	22496.46
805.145	22423.69
805.475	22484.93
805.805	22278.61
806.136	22455.1
806.466	22392.73
806.796	22206.97
807.126	22020.54
807.457	22083.81
807.787	22035.45
808.117	22004.49
808.447	21941.67
808.777	21907.09
809.107	21703.26
809.436	21726.99
809.766	21733.09
810.096	21712.07
810.426	21540.32
810.755	21497.84
811.085	21405.86
811.414	21341.46
811.744	21300.1
812.073	21172.88
812.403	21224.17
812.732	21068.7
813.061	21092.65
813.39	20860.12
813.719	20916.84
814.049	21055.36
814.378	20870.96
814.707	20763.85
815.036	20712.32
815.365	20696.96
815.693	20380.13
816.022	20522.72
816.351	20386.46
816.68	20288.15
817.008	20423.29
817.337	20234.6
817.665	20190.53
817.994	20318.21
818.322	20212.45
818.651	20151.21
818.979	19958.44
819.307	20141.94
819.636	20026.24
819.964	19854.27
820.292	19925.45
820.62	19882.51
820.948	19853.81
821.276	19947.6
821.604	19788.28
821.932	19906.92
822.259	19951.89
822.587	19859.69
822.915	19873.7
823.243	19790.76
823.57	19779.24
823.898	19677.32
824.225	19672.58
824.553	19635.06
824.88	19705.57
825.207	19746.47
825.535	19658.57
825.862	19811.78
826.189	19690.2
826.516	19694.72
826.843	19699.02
827.17	19827.37
827.497	19802.29
827.824	19696.08
828.151	19761.61
828.478	19759.35
828.805	19708.96
829.131	19694.04
829.458	19643.88
829.785	19555.06
830.111	19576.99
830.438	19693.14
830.764	19758
831.09	19709.86
831.417	19631.22
831.743	19655.4
832.069	19611.33
832.395	19530.43
832.722	19647.27
833.048	19541.51
833.374	19518.68
833.7	19441.17
834.026	19467.16
834.351	19525.91
834.677	19423.09
835.003	19513.71
835.329	19459.93
835.654	19499.02
835.98	19321.17
836.306	19305.35
836.631	19318.91
836.956	19361.4
837.282	19283.89
837.607	19140.61
837.932	19118.01
838.258	19137
838.583	19067.39
838.908	19079.15
839.233	19046.6
839.558	19049.32
839.883	18911.47
840.208	18881.41
840.533	18942.65
840.858	18928.64
841.182	18890
841.507	18840.96
841.832	18863.11
842.156	18745.14
842.481	18764.13
842.805	18718.93
843.13	18611.36
843.454	18643.45
843.778	18568.65
844.103	18522.78
844.427	18460.18
844.751	18425.83
845.075	18380.63
845.399	18312.16
845.723	18224.03
846.047	18292.73
846.371	18065.84
846.695	18045.5
847.019	17945.62
847.343	17825.17
847.666	17774.77
847.99	17684.38
848.313	17603.48
848.637	17618.39
848.96	17574.1
849.284	17532.29
849.607	17276.25
849.931	17197.16
850.254	17098.18
850.577	17112.19
850.9	17034.23
851.223	17016.37
851.546	16928.47
851.869	16774.12
852.192	16850.73
852.515	16678.53
852.838	16680.34
853.161	16650.06
853.483	16680.11
853.806	16528.7
854.129	16454.58
854.451	16360.8
854.774	16341.14
855.096	16297.75
855.419	16238.77
855.741	16201.93
856.063	16077.19
856.385	16019.56
856.708	16027.02
857.03	15878.78
857.352	15891.21
857.674	15872
857.996	15819.34
858.318	15651.89
858.64	15723.08
858.961	15700.48
859.283	15609.18
859.605	15505.91
859.926	15447.38
860.248	15562.4
860.57	15455.51
860.891	15471.78
861.212	15405.8
861.534	15342.52
861.855	15300.71
862.176	15279.92
862.498	15296.19
862.819	15278.57
863.14	15213.03
863.461	15113.6
863.782	15138.01
864.103	15152.47
864.424	14979.82
864.745	15088.74
865.065	15013.04
865.386	14853.49
865.707	14920.84
866.027	14884.45
866.348	14895.98
866.668	14825.02
866.989	14794.96
867.309	14758.13
867.63	14735.98
867.95	14733.5
868.27	14659.15
868.59	14656.66
868.91	14670
869.23	14667.74
869.55	14623.44
869.87	14646.27
870.19	14544.58
870.51	14526.95
870.83	14500.28
871.15	14457.35
871.469	14435.2
871.789	14397.69
872.109	14377.57
872.428	14418.7
872.748	14383.9
873.067	14306.62
873.386	14354.75
873.706	14317.24
874.025	14228.65
874.344	14212.38
874.663	14315.43
874.982	14133.29
875.301	14195.66
875.62	14180.07
875.939	14137.58
876.258	14065.49
876.577	14051.71
876.896	13932.84
877.214	13997.92
877.533	14014.65
877.852	14024.36
878.17	13975.55
878.489	14039.73
878.807	13930.35
879.125	13934.2
879.444	13907.53
879.762	13831.6
880.08	13890.13
880.398	13790.92
880.716	13733.52
881.034	13670.25
881.352	13708.89
881.67	13699.4
881.988	13646.52
882.306	13703.02
882.624	13529.23
882.941	13664.37
883.259	13471.61
883.577	13438.62
883.894	13397.49
884.212	13440.65
884.529	13370.37
884.846	13279.3
885.164	13300.09
885.481	13308.68
885.798	13232.52
886.115	13236.36
886.432	13236.81
886.75	13201.11
887.067	13216.93
887.383	13107.32
887.7	13141.22
888.017	13065.97
888.334	13117.95
888.651	13015.35
888.967	13020.77
889.284	12956.82
889.6	12918.18
889.917	12728.35
890.233	12828.46
890.55	12716.15
890.866	12731.52
891.182	12730.61
891.498	12697.84
891.815	12619.43
892.131	12559.99
892.447	12504.18
892.763	12428.7
893.079	12447
893.395	12418.08
893.71	12402.48
894.026	12419.89
894.342	12295.82
894.657	12245.2
894.973	12218.31
895.289	12233
895.604	12151.64
895.92	12096.73
896.235	12035.49
896.55	12020.8
896.865	11966.56
897.181	12014.92
897.496	11935.38
897.811	11846.79
898.126	11847.02
898.441	11781.03
898.756	11756.85
899.071	11701.94
899.386	11749.39
899.7	11568.83
900.015	11598.66
900.33	11480.47
900.644	11531.32
900.959	11459.46
901.273	11406.8
901.588	11369.97
901.902	11287.71
902.216	11291.78
902.531	11217.21
902.845	11192.8
903.159	11173.82
903.473	11070.54
903.787	10953.71
904.101	11000.49
904.415	10962.3
904.729	10953.71
905.042	10858.12
905.356	10849.08
905.67	10828.06
905.984	10827.61
906.297	10778.35
906.611	10649.54
906.924	10686.82
907.237	10611.57
907.551	10518.92
907.864	10528.86
908.177	10539.71
908.491	10527.05
908.804	10412.71
909.117	10365.93
909.43	10271.69
909.743	10306.04
910.056	10254.97
910.368	10186.05
910.681	10206.16
910.994	10173.39
911.307	10065.37
911.619	10012.72
911.932	10008.2
912.244	9945.6
912.557	9975.66
912.869	9864.25
913.181	9901.76
913.494	9855.88
913.806	9797.36
914.118	9693.18
914.43	9647.98
914.742	9677.13
915.054	9596.46
915.366	9541.32
915.678	9507.87
915.99	9509.45
916.302	9394.88
916.613	9405.28
916.925	9379.29
917.236	9399.63
917.548	9218.16
917.859	9296.13
918.171	9191.5
918.482	9164.83
918.794	9151.5
919.105	9141.78
919.416	8988.11
919.727	8998.73
920.038	8925.29
920.349	8905.85
920.66	8899.07
920.971	8836.93
921.282	8824.05
921.593	8753.99
921.903	8743.6
922.214	8675.35
922.525	8632.64
922.835	8639.87
923.146	8634.67
923.456	8559.2
923.767	8463.83
924.077	8510.16
924.387	8387.45
924.697	8376.15
925.008	8366.88
925.318	8315.13
925.628	8321.91
925.938	8282.59
926.248	8201.69
926.558	8111.75
926.867	8163.27
927.177	8118.98
927.487	8102.48
927.796	8029.72
928.106	8011.41
928.416	7987.91
928.725	7942.49
929.034	7852.32
929.344	7890.06
929.653	7843.96
929.962	7855.49
930.271	7787.46
930.581	7755.83
930.89	7712.44
931.199	7678.77
931.508	7645.77
931.817	7624.98
932.125	7559.9
932.434	7553.12
932.743	7469.28
933.051	7443.74
933.36	7353.8
933.669	7353.35
933.977	7371.88
934.286	7313.35
934.594	7298.89
934.902	7266.12
935.21	7208.5
935.519	7206.92
935.827	7155.84
936.135	7125.34
936.443	7124.21
936.751	7080.82
937.059	6991.78
937.367	6990.42
937.674	6987.03
937.982	6945.9
938.29	6916.98
938.597	6926.02
938.905	6829.52
939.213	6813.25
939.52	6714.5
939.827	6780.71
940.135	6721.05
940.442	6669.3
940.749	6623.43
941.056	6675.18
941.363	6592.02
941.67	6556.99
941.977	6560.6
942.284	6542.75
942.591	6460.72
942.898	6452.58
943.205	6500.04
943.511	6401.51
943.818	6422.98
944.125	6356.32
944.431	6289.65
944.738	6285.13
945.044	6256.66
945.35	6256.43
945.657	6223.66
945.963	6172.59
946.269	6109.99
946.575	6129.88
946.881	6086.04
947.187	6113.16
947.493	6045.82
947.799	6010.34
948.105	5950.9
948.41	5969.43
948.716	5928.98
949.022	5874.52
949.327	5878.59
949.633	5808.08
949.938	5839.95
950.244	5819.38
950.549	5793.39
950.854	5728.08
951.16	5684.92
951.465	5630.46
951.77	5634.75
952.075	5613.51
952.38	5642.21
952.685	5616.45
952.99	5549.11
953.294	5491.93
953.599	5514.98
953.904	5471.37
954.209	5465.04
954.513	5436.79
954.818	5400.86
955.122	5418.49
955.426	5394.99
955.731	5349.79
956.035	5294.2
956.339	5312.95
956.643	5349.11
956.948	5263.46
957.252	5247.42
957.556	5210.81
957.86	5166.06
958.163	5178.72
958.467	5193.63
958.771	5185.27
959.075	5079.51
959.378	5134.88
959.682	5063.02
959.985	5034.99
960.289	5071.6
960.592	5005.84
960.896	5013.3
961.199	4928.56
961.502	4883.81
961.805	4882.91
962.108	4897.6
962.411	4867.54
962.714	4831.84
963.017	4829.35
963.32	4814.44
963.623	4788
963.926	4790.71
964.228	4714.33
964.531	4702.35
964.833	4700.77
965.136	4660.54
965.438	4688.34
965.741	4610.6
966.043	4655.12
966.345	4585.74
966.648	4586.19
966.95	4562.46
967.252	4553.2
967.554	4520.43
967.856	4486.31
968.158	4430.94
968.46	4449.7
968.761	4432.52
969.063	4486.08
969.365	4377.61
969.666	4343.26
969.968	4327.67
970.269	4312.08
970.571	4313.21
970.872	4308.23
971.174	4260.78
971.475	4270.5
971.776	4275.47
972.077	4225.75
972.378	4205.64
972.679	4152.53
972.98	4154.34
973.281	4157.5
973.582	4129.03
973.883	4121.35
974.183	4063.27
974.484	4079.54
974.785	4009.94
975.085	3999.99
975.386	4054.46
975.686	4028.69
975.986	4006.32
976.287	3974.68
976.587	3961.12
976.887	3863.27
977.187	3929.94
977.487	3933.78
977.787	3881.58
978.087	3871.18
978.387	3827.79
978.687	3847.23
978.987	3808.81
979.286	3772.88
979.586	3800
979.885	3759.1
980.185	3749.83
980.484	3713.22
980.784	3735.14
981.083	3669.15
981.382	3625.31
981.682	3652.66
981.981	3617.18
982.28	3631.64
982.579	3563.17
982.878	3612.66
983.177	3578.31
983.475	3582.83
983.774	3546.45
984.073	3486.11
984.372	3466.22
984.67	3489.95
984.969	3500.57
985.267	3447.01
985.566	3428.94
985.864	3446.34
986.162	3383.51
986.461	3358.88
986.759	3392.33
987.057	3333.57
987.355	3348.94
987.653	3319.33
987.951	3311.2
988.249	3267.36
988.547	3271.65
988.844	3265.32
989.142	3268.04
989.44	3236.85
989.737	3224.65
990.035	3181.03
990.332	3175.61
990.63	3172.22
990.927	3164.08
991.224	3188.94
991.521	3112.56
991.819	3119.11
992.116	3141.49
992.413	3083.18
992.71	3048.61
993.006	3038.89
993.303	3028.27
993.6	3021.04
993.897	3023.97
994.193	3009.74
994.49	3004.31
994.787	2941.49
995.083	2952.79
995.379	2965.44
995.676	2904.43
995.972	2885.22
996.268	2914.15
996.565	2839.35
996.861	2821.72
997.157	2827.37
997.453	2829.85
997.749	2838.89
998.044	2782.62
998.34	2783.75
998.636	2760.93
998.932	2732
999.227	2739.24
999.523	2777.65
999.818	2722.74
1000.114	2703.53
1000.409	2677.32
1000.704	2681.38
1001	2648.39
1001.295	2625.11
1001.59	2614.04
1001.885	2647.49
1002.18	2598.22
1002.475	2566.81
1002.77	2578.11
1003.065	2586.92
1003.359	2541.05
1003.654	2557.55
1003.949	2491.11
1004.243	2490.65
1004.538	2448.17
1004.832	2430.09
1005.127	2466.93
1005.421	2443.2
1005.715	2417.66
1006.009	2379.02
1006.304	2395.52
1006.598	2338.34
1006.892	2362.3
1007.186	2336.31
1007.48	2356.42
1007.773	2303.32
1008.067	2308.51
1008.361	2317.1
1008.655	2328.17
1008.948	2298.8
1009.242	2269.42
1009.535	2263.77
1009.829	2256.99
1010.122	2212.92
1010.415	2241.17
1010.708	2203.43
1011.001	2196.43
1011.295	2161.17
1011.588	2173.6
1011.881	2109.2
1012.173	2113.04
1012.466	2124.79
1012.759	2081.4
1013.052	2116.65
1013.344	2059.48
1013.637	2094.28
1013.93	2054.51
1014.222	2056.99
1014.514	2039.37
1014.807	2009.76
1015.099	1969.99
1015.391	1972.48
1015.683	1976.54
1015.976	1997.33
1016.268	1945.81
1016.56	1927.05
1016.851	1933.83
1017.143	1915.98
1017.435	1941.29
1017.727	1875.53
1018.018	1857
1018.31	1877.34
1018.602	1838.69
1018.893	1830.79
1019.185	1862.65
1019.476	1824.91
1019.767	1821.97
1020.058	1773.16
1020.35	1786.72
1020.641	1760.5
1020.932	1787.17
1021.223	1739.94
1021.514	1716.21
1021.804	1715.53
1022.095	1697.23
1022.386	1677.34
1022.677	1666.72
1022.967	1694.07
1023.258	1651.58
1023.548	1641.41
1023.839	1647.97
1024.129	1615.2
1024.419	1619.49
1024.709	1611.81
1025	1612.26
1025.29	1602.54
1025.58	1558.48
1025.87	1563
1026.16	1552.15
1026.449	1549.21
1026.739	1531.36
1027.029	1540.17
1027.319	1523
1027.608	1483.45
1027.898	1509.44
1028.187	1464.47
1028.477	1473.96
1028.766	1470.57
1029.055	1445.26
1029.344	1436.67
1029.634	1441.19
1029.923	1414.52
1030.212	1410.91
1030.501	1390.34
1030.79	1403.9
1031.078	1361.19
1031.367	1378.59
1031.656	1378.14
1031.945	1348.54
1032.233	1328.2
1032.522	1328.88
1032.81	1314.41
1033.099	1329.1
1033.387	1299.05
1033.675	1298.82
1033.963	1268.54
1034.251	1291.59
1034.54	1298.6
1034.828	1208.88
1035.116	1245.94
1035.403	1245.72
1035.691	1226.28
1035.979	1238.71
1036.267	1210.69
1036.554	1221.08
1036.842	1210.46
1037.129	1184.25
1037.417	1166.85
1037.704	1175.89
1037.992	1185.83
1038.279	1167.3
1038.566	1185.15
1038.853	1185.15
1039.14	1185.15
