Data from White_reflection_standard_FLMS001491_088.txt Node
Date: Tue Feb 07 10:32:12 GMT 2017
User: dcchb
Spectrometer: FLMS00149
Trigger mode: 0
Integration Time (sec): 2.000000E-2
Scans to average: 10
Electric dark correction enabled: true
Nonlinearity correction enabled: false
Boxcar width: 0
XAxis mode: Wavelengths
Number of Pixels in Spectrum: 2048
>>>>>Begin Spectral Data<<<<<
341.393	-11.41
341.776	-11.41
342.16	-11.41
342.543	-68.13
342.927	-79.66
343.31	-76.72
343.693	-66.1
344.077	-76.04
344.46	-67.68
344.843	-43.5
345.226	-42.6
345.61	-29.49
345.993	-15.93
346.376	-0.34
346.759	9.15
347.142	26.1
347.525	38.08
347.908	56.83
348.291	67.68
348.674	88.25
349.057	132.31
349.44	116.49
349.823	139.32
350.206	144.74
350.588	228.58
350.971	245.08
351.354	274.91
351.737	294.12
352.119	305.19
352.502	303.61
352.884	327.11
353.267	319.88
353.65	331.63
354.032	354.45
354.414	344.74
354.797	373.89
355.179	349.93
355.562	389.03
355.944	402.14
356.326	389.71
356.709	363.72
357.091	394.45
357.473	394
357.855	387.67
358.238	394.9
358.62	406.43
359.002	397.16
359.384	400.33
359.766	392.19
360.148	415.7
360.53	387.22
360.912	417.28
361.294	397.62
361.676	403.27
362.057	407.11
362.439	414.11
362.821	408.92
363.203	428.12
363.584	411.63
363.966	416.15
364.348	377.5
364.729	395.36
365.111	408.46
365.493	413.89
365.874	396.03
366.256	405.75
366.637	404.4
367.019	399.65
367.4	434.68
367.781	379.99
368.163	425.41
368.544	413.89
368.925	416.6
369.306	415.02
369.688	405.75
370.069	424.06
370.45	421.8
370.831	432.19
371.212	439.88
371.593	444.4
371.974	441.23
372.355	451.4
372.736	436.49
373.117	443.72
373.498	435.58
373.879	455.69
374.26	434.9
374.641	421.12
375.021	421.57
375.402	462.7
375.783	460.44
376.163	478.52
376.544	502.92
376.925	492.98
377.305	486.2
377.686	497.95
378.066	498.4
378.447	497.73
378.827	517.39
379.208	538.4
379.588	502.47
379.968	521.91
380.349	536.82
380.729	542.47
381.109	526.65
381.489	569.14
381.87	521
382.25	545.18
382.63	549.7
383.01	542.7
383.39	554.22
383.77	573.66
384.15	574.34
384.53	603.26
384.91	576.6
385.29	576.14
385.67	602.81
386.049	601.45
386.429	605.97
386.809	633.77
387.189	625.86
387.568	628.8
387.948	639.64
388.328	671.51
388.707	659.98
389.087	657.27
389.466	650.04
389.846	675.8
390.225	695.24
390.605	676.48
390.984	709.92
391.363	692.75
391.743	684.16
392.122	706.76
392.501	744.73
392.881	729.13
393.26	749.02
393.639	754.22
394.018	762.8
394.397	774.1
394.776	793.99
395.155	774.78
395.534	793.54
395.913	783.82
396.292	804.39
396.671	805.74
397.05	846.87
397.429	837.83
397.808	838.96
398.186	850.03
398.565	859.98
398.944	863.37
399.323	881.45
399.701	878.73
400.08	886.64
400.458	906.08
400.837	920.54
401.215	914.89
401.594	905.4
401.972	941.33
402.351	942.91
402.729	976.81
403.107	966.64
403.486	958.28
403.864	985.62
404.242	1017.94
404.62	1005.28
404.999	1003.25
405.377	1040.54
405.755	1070.59
406.133	1068.11
406.511	1079.18
406.889	1084.6
407.267	1096.36
407.645	1154.88
408.023	1136.35
408.401	1154.88
408.779	1158.95
409.156	1172.96
409.534	1198.73
409.912	1233.53
410.29	1218.39
410.667	1260.87
411.045	1291.6
411.422	1284.82
411.8	1299.29
412.178	1293.19
412.555	1342
412.933	1346.29
413.31	1362.11
413.687	1404.14
414.065	1433.3
414.442	1426.06
414.819	1432.39
415.197	1437.14
415.574	1493.86
415.951	1478.94
416.328	1503.35
416.705	1553.07
417.082	1525.27
417.46	1549.22
417.837	1579.51
418.214	1560.07
418.591	1596.91
418.967	1611.37
419.344	1640.75
419.721	1675.78
420.098	1651.82
420.475	1702.67
420.852	1684.14
421.228	1718.26
421.605	1735.21
421.982	1767.75
422.358	1800.74
422.735	1807.07
423.111	1805.72
423.488	1839.16
423.864	1861.08
424.241	1900.85
424.617	1897.46
424.994	1875.54
425.37	1905.15
425.746	1960.29
426.123	1985.6
426.499	2007.97
426.875	2033.96
427.251	2070.12
427.627	2098.14
428.003	2111.24
428.379	2174.52
428.756	2192.37
429.132	2210.22
429.507	2226.27
429.883	2291.35
430.259	2289.54
430.635	2310.11
431.011	2341.52
431.387	2402.54
431.763	2430.56
432.138	2471.01
432.514	2457.9
432.89	2509.2
433.265	2564.79
433.641	2604.79
434.016	2624.45
434.392	2656.77
434.767	2742.64
435.143	2731.57
435.518	2785.35
435.894	2805.91
436.269	2817.44
436.644	2877.55
437.02	2904.9
437.395	2903.31
437.77	2962.29
438.145	2998.68
438.52	3023.76
438.895	3075.74
439.271	3070.99
439.646	3122.97
440.021	3171.1
440.395	3178.33
440.77	3200.93
441.145	3198.45
441.52	3235.28
441.895	3262.17
442.27	3323.64
442.645	3277.31
443.019	3337.65
443.394	3386.92
443.769	3384.88
444.143	3414.49
444.518	3461.49
444.892	3451.1
445.267	3496.29
445.641	3520.7
446.016	3519.57
446.39	3596.85
446.764	3569.74
447.139	3605.22
447.513	3657.64
447.887	3638.89
448.262	3715.04
448.636	3731.54
449.01	3741.03
449.384	3794.82
449.758	3850.18
450.132	3879.78
450.506	3902.16
450.88	3931.54
451.254	3942.83
451.628	4009.27
452.002	4080.68
452.376	4100.12
452.75	4138.99
453.123	4161.81
453.497	4264.18
453.871	4223.96
454.244	4350.28
454.618	4414.46
454.992	4478.64
455.365	4491.29
455.739	4572.65
456.112	4642.48
456.486	4686.77
456.859	4703.72
457.232	4771.74
457.606	4739.88
457.979	4868.69
458.352	4970.6
458.725	5066.65
459.099	5078.17
459.472	5118.17
459.845	5185.74
460.218	5255.34
460.591	5325.4
460.964	5343.93
461.337	5497.82
461.71	5526.07
462.083	5659.85
462.456	5647.65
462.829	5695.33
463.201	5750.02
463.574	5843.8
463.947	5900.3
464.32	6066.85
464.692	6105.72
465.065	6121.31
465.438	6191.36
465.81	6308.2
466.183	6340.96
466.555	6480.62
466.928	6579.6
467.3	6580.73
467.672	6695.08
468.045	6869.08
468.417	6903.66
468.789	6889.42
469.161	7032.92
469.534	7149.3
469.906	7356.53
470.278	7349.3
470.65	7510.88
471.022	7603.53
471.394	7737.76
471.766	7813.47
472.138	7905.44
472.51	8079.67
472.882	8229.05
473.253	8344.07
473.625	8437.41
473.997	8627.46
474.369	8647.8
474.74	8781.58
475.112	8945.41
475.484	9125.75
475.855	9277.61
476.227	9338.17
476.598	9654.1
476.97	9694.55
477.341	9913.98
477.713	10026.97
478.084	10074.42
478.455	10427.64
478.827	10537.46
479.198	10849.55
479.569	10850.45
479.94	11146.03
480.311	11202.3
480.682	11443.43
481.053	11746.7
481.424	11993.92
481.795	11985.33
482.166	12320.24
482.537	12421.71
482.908	12650.18
483.279	12766.78
483.65	13001.35
484.021	13260.33
484.391	13408.8
484.762	13554.33
485.133	13701.9
485.503	13885.17
485.874	14218.72
486.244	14375.33
486.615	14533.97
486.985	14771.25
487.356	15035.42
487.726	15164.91
488.097	15545.47
488.467	15640.83
488.837	15867.04
489.207	16030.65
489.578	16336.41
489.948	16460.02
490.318	16667.47
490.688	16822.72
491.058	17029.95
491.428	17270.39
491.798	17461.35
492.168	17813.66
492.538	17845.97
492.908	18077.38
493.278	18329.35
493.648	18297.26
494.017	18663.35
494.387	18802.1
494.757	18937.02
495.126	19221.75
495.496	19152.15
495.866	19292.49
496.235	19570.9
496.605	19822.87
496.974	19794.85
497.344	20116.19
497.713	20244.78
498.082	20393.02
498.452	20589.63
498.821	20728.83
499.19	20810.19
499.559	20976.96
499.928	21101.25
500.298	21191.65
500.667	21482.94
501.036	21551.41
501.405	21712.76
501.774	21737.85
502.143	21943.04
502.512	22071.62
502.88	22329.92
503.249	22286.08
503.618	22631.38
503.987	22692.85
504.356	22813.52
504.724	22948.89
505.093	23157.92
505.462	23226.62
505.83	23445.37
506.199	23613.96
506.567	23861.63
506.936	23857.34
507.304	24207.16
507.672	24374.84
508.041	24338.68
508.409	24619.35
508.777	24787.71
509.145	24935.28
509.514	25038.78
509.882	25240.81
510.25	25278.09
510.618	25586.11
510.986	25736.16
511.354	25957.62
511.722	26063.16
512.09	26359.42
512.458	26352.64
512.826	26661.56
513.193	26803.7
513.561	26888.22
513.929	27182.22
514.297	27380.41
514.664	27482.1
515.032	27582.21
515.4	28070.79
515.767	28163.44
516.135	28310.1
516.502	28218.35
516.869	28741.96
517.237	28739.02
517.604	28685.23
517.972	29295.61
518.339	29371.54
518.706	29569.28
519.073	29694.02
519.44	29839.78
519.808	30186.89
520.175	30269.37
520.542	30726.31
520.909	30810.83
521.276	30867.78
521.643	31317.93
522.009	31463.01
522.376	31738.71
522.743	31818.71
523.11	32325.36
523.477	32508.64
523.843	32591.35
524.21	32949.3
524.577	33134.16
524.943	33363.53
525.31	33609.85
525.676	33927.58
526.043	34261.13
526.409	34269.04
526.776	34705.87
527.142	34792.87
527.508	35012.3
527.874	35325.29
528.241	35476.92
528.607	35596.01
528.973	35964.82
529.339	35917.13
529.705	36340.63
530.071	36747.4
530.437	36910.55
530.803	36987.84
531.169	37313.71
531.535	37247.5
531.901	37363.2
532.267	37563.42
532.632	37833.47
532.998	37932.67
533.364	38166.79
533.73	38219.22
534.095	38595.48
534.461	38760.68
534.826	38877.51
535.192	39114.56
535.557	39326.99
535.923	39305.29
536.288	39601.33
536.653	39741.89
537.019	39677.04
537.384	39937.82
537.749	40192.05
538.114	40258.94
538.479	40225.72
538.845	40473.85
539.21	40646.05
539.575	40643.11
539.94	40825.71
540.305	41229.31
540.67	41109.09
541.034	41226.83
541.399	41451
541.764	41414.62
542.129	41734.61
542.494	41913.36
542.858	42022.51
543.223	42072.23
543.587	42354.03
543.952	42324.42
544.316	42509.05
544.681	42525.32
545.045	42786.78
545.41	43034.46
545.774	43010.73
546.138	43046.21
546.503	43243.5
546.867	43222.93
547.231	43765.29
547.595	43775.23
547.959	44028.79
548.324	44035.11
548.688	44061.55
549.052	44189.23
549.416	44346.52
549.779	44411.37
550.143	44627.19
550.507	44922.1
550.871	44936.11
551.235	44942.43
551.599	45350.11
551.962	45367.28
552.326	45472.82
552.689	45805.69
553.053	45643.43
553.417	45738.12
553.78	46272.57
554.143	46169.07
554.507	46414.26
554.87	46565.22
555.234	46866
555.597	46726.12
555.96	46899.9
556.323	47130.4
556.686	47283.39
557.05	47372.65
557.413	47487.9
557.776	47650.61
558.139	47965.18
558.502	48049.92
558.865	48178.06
559.228	48413.76
559.59	48583.02
559.953	48497.14
560.316	49131.93
560.679	49037.24
561.041	49270
561.404	49382.09
561.767	49551.58
562.129	49563.78
562.492	49932.59
562.854	49891.68
563.217	50045.12
563.579	50193.37
563.941	50472.91
564.304	50519.69
564.666	50756.07
565.028	50818.44
565.39	50937.3
565.753	51098.43
566.115	51160.12
566.477	51441.02
566.839	51489.61
567.201	51729.37
567.563	51718.98
567.925	51979.54
568.287	52023.83
568.648	52011.63
569.01	52281.9
569.372	52441.67
569.734	52375.46
570.095	52613.19
570.457	52723.47
570.819	52773.87
571.18	52800.31
571.542	52963.01
571.903	53011.37
572.265	53141.54
572.626	53215.66
572.987	53305.38
573.349	53357.13
573.71	53544.92
574.071	53542.43
574.432	53712.6
574.794	53787.17
575.155	53765.93
575.516	53713.73
575.877	53899.94
576.238	54009.99
576.599	54078.69
576.96	54148.52
577.32	54207.95
577.681	54244.34
578.042	54325.69
578.403	54285.69
578.763	54311.45
579.124	54447.27
579.485	54473.03
579.845	54621.05
580.206	54589.64
580.566	54549.41
580.927	54583.08
581.287	54746.02
581.648	54610.2
582.008	54748.05
582.368	54723.65
582.728	54715.28
583.089	54601.62
583.449	54572.69
583.809	54779.24
584.169	54751.44
584.529	54733.14
584.889	54923.19
585.249	54711.67
585.609	54654.04
585.969	54856.3
586.329	54769.97
586.688	54814.94
587.048	54787.6
587.408	54733.14
587.768	54783.08
588.127	54791.67
588.487	54750.09
588.846	54989.63
589.206	54832.8
589.565	54781.05
589.925	54923.19
590.284	54775.17
590.643	54822.17
591.003	54940.36
591.362	55008.61
591.721	54903.98
592.08	54940.59
592.44	54968.39
592.799	54988.95
593.158	54943.98
593.517	54916.41
593.876	55022.62
594.235	54889.74
594.593	55003.64
594.952	55039.8
595.311	54960.93
595.67	55040.02
596.029	55173.13
596.387	55215.84
596.746	55209.73
597.104	55108.49
597.463	55088.38
597.822	55272.11
598.18	55092.45
598.538	55061.04
598.897	55248.15
599.255	55016.97
599.613	55423.06
599.972	55218.1
600.33	55390.07
600.688	55236.4
601.046	55250.19
601.404	55472.78
601.762	55429.62
602.12	55455.6
602.478	55534.25
602.836	55554.58
603.194	55346
603.552	55463.51
603.91	55320.01
604.268	55576.73
604.625	55456.73
604.983	55599.78
605.341	55500.35
605.698	55601.14
606.056	55644.75
606.413	55633
606.771	55751.19
607.128	55754.35
607.485	55623.74
607.843	55696.73
608.2	55856.72
608.557	55877.74
608.914	55792.77
609.272	55927
609.629	55903.73
609.986	56055.59
610.343	55887.23
610.7	56073.21
611.057	56060.11
611.414	56059.2
611.771	56070.28
612.127	56177.62
612.484	56147.11
612.841	56209.03
613.198	56116.38
613.554	56167.22
613.911	56237.28
614.267	56257.16
614.624	56225.3
614.98	56307.33
615.337	56425.3
615.693	56362.02
616.05	56287.9
616.406	56479.76
616.762	56378.29
617.118	56406.31
617.475	56351.63
617.831	56540.1
618.187	56433.66
618.543	56454
618.899	56618.06
619.255	56552.3
619.611	56555.46
619.967	56566.08
620.323	56680.2
620.678	56557.95
621.034	56486.31
621.39	56564.95
621.746	56561.79
622.101	56763.82
622.457	56503.94
622.812	56581.9
623.168	56660.54
623.523	56602.47
623.879	56711.62
624.234	56505.75
624.589	56690.37
624.945	56669.58
625.3	56701.45
625.655	56641.11
626.01	56639.53
626.365	56635.01
626.72	56618.74
627.075	56546.87
627.43	56637.72
627.785	56576.93
628.14	56630.71
628.495	56603.82
628.85	56540.55
629.205	56500.55
629.559	56600.66
629.914	56477.95
630.269	56565.18
630.623	56334.45
630.978	56467.33
631.332	56508.23
631.687	56521.79
632.041	56385.52
632.396	56418.06
632.75	56255.13
633.104	56362.25
633.459	56145.76
633.813	56236.83
634.167	56166.55
634.521	56177.62
634.875	56169.71
635.229	56031.86
635.583	56044.74
635.937	56004.97
636.291	55950.05
636.645	55948.02
636.999	55903.05
637.352	55961.35
637.706	55751.42
638.06	55885.42
638.413	55842.94
638.767	55744.64
639.121	55809.94
639.474	55627.12
639.828	55637.75
640.181	55689.04
640.534	55624.19
640.888	55548.48
641.241	55447.69
641.594	55492.44
641.947	55492.67
642.301	55498.31
642.654	55468.03
643.007	55385.1
643.36	55400.46
643.713	55273.69
644.066	55341.71
644.419	55202.5
644.771	54984.43
645.124	54654.72
645.477	54688.62
645.83	54490.66
646.182	54394.84
646.535	54315.3
646.888	54359.14
647.24	54178.12
647.593	54379.25
647.945	54321.4
648.298	54136.54
648.65	54121.63
649.002	53973.16
649.355	54085.02
649.707	54075.53
650.059	54151.68
650.411	54529.98
650.763	54492.47
651.115	54821.72
651.467	54686.81
651.819	54666.92
652.171	54587.38
652.523	54439.59
652.875	54499.24
653.227	54353.71
653.578	54572.69
653.93	54431.45
654.282	54352.81
654.633	54267.84
654.985	54349.42
655.337	54330.89
655.688	54249.53
656.039	54334.28
656.391	54031.91
656.742	54167.73
657.094	54109.2
657.445	54209.99
657.796	54170.67
658.147	54072.36
658.498	54085.92
658.849	54121.63
659.2	54018.81
659.551	53986.72
659.902	54103.1
660.253	54002.08
660.604	53992.14
660.955	53810.9
661.306	54007.73
661.656	53870.11
662.007	53935.19
662.358	53888.41
662.708	53856.78
663.059	53815.2
663.409	53643.9
663.76	53809.77
664.11	53802.99
664.461	53819.49
664.811	53767.96
665.161	53692.94
665.511	53644.35
665.862	53719.83
666.212	53742.43
666.562	53763.22
666.912	53717.12
667.262	53649.32
667.612	53645.48
667.962	53697.46
668.312	53638.25
668.662	53680.96
669.011	53542.66
669.361	53509.44
669.711	53560.51
670.06	53471.48
670.41	53417.92
670.76	53324.36
671.109	53470.12
671.459	53429.44
671.808	53291.14
672.157	53398.48
672.507	53129.56
672.856	53226.74
673.205	53205.49
673.554	53312.61
673.904	53206.85
674.253	53291.14
674.602	53240.52
674.951	52834.66
675.3	52622.91
675.649	53066.29
675.998	53031.03
676.346	53100.64
676.695	53102.9
677.044	52882.11
677.393	52970.02
677.741	52979.96
678.09	52961.43
678.438	52857.93
678.787	52880.76
679.135	52916.69
679.484	52602.57
679.832	52868.33
680.181	52653.64
680.529	52670.37
680.877	52511.05
681.225	52558.51
681.573	52710.37
681.922	52403.71
682.27	52424.95
682.618	52319.64
682.966	52330.94
683.314	52395.57
683.661	52270.38
684.009	52114.22
684.357	52028.35
684.705	51926.88
685.053	52091.62
685.4	51900.44
685.748	51797.17
686.095	51718.75
686.443	51673.78
686.79	51576.38
687.138	51527.57
687.485	51495.71
687.832	51444.86
688.18	51529.38
688.527	51207.35
688.874	51215.94
689.221	51229.5
689.568	51049.62
689.915	50946.57
690.262	50821.38
690.609	50729.4
690.956	50716.75
691.303	50688.72
691.65	50498.67
691.997	50466.13
692.344	50257.55
692.69	50279.69
693.037	50336.64
693.383	49994.5
693.73	50112.02
694.077	49948.18
694.423	49919.7
694.769	49704.79
695.116	49666.38
695.462	49665.47
695.808	49528.98
696.155	49486.95
696.501	49251.25
696.847	49145.49
697.193	48947.3
697.539	49176
697.885	48707.76
698.231	48691.71
698.577	48676.35
698.923	48699.85
699.269	48424.15
699.614	48205.4
699.96	48225.51
700.306	48224.83
700.651	47984.84
700.997	47912.3
701.342	47708.46
701.688	47749.37
702.033	47672.08
702.379	47677.28
702.724	47505.76
703.069	47564.06
703.415	47121.81
703.76	47069.38
704.105	47021.25
704.45	46875.26
704.795	46821.25
705.14	46700.81
705.485	46671.88
705.83	46348.72
706.175	46440.02
706.52	46340.14
706.865	46207.49
707.209	46133.82
707.554	46021.5
707.899	46071.9
708.243	45772.69
708.588	45793.03
708.932	45518.92
709.277	45519.59
709.621	45664.45
709.966	45311.69
710.31	45471.69
710.654	44995.31
710.998	45098.36
711.342	45155.54
711.687	44850.69
712.031	44732.5
712.375	44557.81
712.719	44689.33
713.063	44590.35
713.407	44658.37
713.75	44433.52
714.094	44280.3
714.438	44170.25
714.782	44235.33
715.125	43925.96
715.469	44071.5
715.812	43949.01
716.156	43600.32
716.499	43668.12
716.843	43645.75
717.186	43405.07
717.53	43707.89
717.873	43525.97
718.216	43364.4
718.559	43374.57
718.902	42922.37
719.246	43039.66
719.589	42899.32
719.932	42742.04
720.275	42775.71
720.617	42653.91
720.96	42714.92
721.303	42608.48
721.646	42655.49
721.989	42395.16
722.331	42416.17
722.674	42324.2
723.016	42266.57
723.359	42201.49
723.701	42224.54
724.044	41854.38
724.386	41707.26
724.729	41944.55
725.071	41863.65
725.413	41924.21
725.755	41694.16
726.097	41551.11
726.439	41332.81
726.782	41427.27
727.124	41609.41
727.465	41333.04
727.807	41277.9
728.149	41174.4
728.491	41136.88
728.833	41069.09
729.175	41004.23
729.516	40872.71
729.858	40907.06
730.199	40924.91
730.541	40761.53
730.882	40811.47
731.224	40823.9
731.565	40553.85
731.906	40572.15
732.248	40380.52
732.589	40226.4
732.93	40176.01
733.271	40331.03
733.612	40328.09
733.953	40239.51
734.294	40050.59
734.635	39982.11
734.976	40031.15
735.317	39773.53
735.658	39836.81
735.999	39671.61
736.339	39565.4
736.68	39665.51
737.021	39555.68
737.361	39448.12
737.702	39556.59
738.042	39352.98
738.383	39284.5
738.723	39373.54
739.063	39103.72
739.404	39120.44
739.744	39028.01
740.084	38995.25
740.424	39074.34
740.764	38826.21
741.104	38900.11
741.444	38705.08
741.784	38565.88
742.124	38687.91
742.464	38781.69
742.804	38565.2
743.143	38333.57
743.483	38400.46
743.823	38258.09
744.162	38214.93
744.502	38224.19
744.841	38003.18
745.181	38080.69
745.52	37949.4
745.86	38026.91
746.199	38107.81
746.538	37749.18
746.877	37982.17
747.216	37751.89
747.556	37610.65
747.895	37687.03
748.234	37495.62
748.573	37421.5
748.911	37454.27
749.25	37438.45
749.589	37106.48
749.928	37218.57
750.267	37248.85
750.605	37150.55
750.944	37042.3
751.283	36986.26
751.621	36833.04
751.96	36612.26
752.298	36713.5
752.636	36565.25
752.975	36470.34
753.313	36340.4
753.651	36515.09
753.989	36259.27
754.327	36148.99
754.666	35930.47
755.004	36092.27
755.342	36015.66
755.679	36055.44
756.017	35712.17
756.355	35808.21
756.693	35601.44
757.031	35604.83
757.368	35368.67
757.706	35450.03
758.044	35285.06
758.381	35165.52
758.719	34995.58
759.056	35141.79
759.394	35106.08
759.731	34663.16
760.068	34545.65
760.405	34540.45
760.743	34407.8
761.08	34457.74
761.417	34230.4
761.754	34172.77
762.091	34123.51
762.428	33985.66
762.765	33848.94
763.102	33932.33
763.438	33708.83
763.775	33582.73
764.112	33563.07
764.449	33596.52
764.785	33450.98
765.122	33263.65
765.458	33129.19
765.795	33116.98
766.131	32980.49
766.467	32817.1
766.804	32688.52
767.14	32592.7
767.476	32446.49
767.812	32257.34
768.148	32407.62
768.485	32063.9
768.821	31907.75
769.157	31899.61
769.492	31906.62
769.828	31770.58
770.164	31512.05
770.5	31530.36
770.836	31493.52
771.171	31194.55
771.507	31254.21
771.842	30985.96
772.178	30843.6
772.513	30976.47
772.849	30795.46
773.184	30624.62
773.519	30614.9
773.855	30505.98
774.19	30304.63
774.525	30205.65
774.86	30226.89
775.195	30067.35
775.53	29974.01
775.865	29831.19
776.2	29757.97
776.535	29397.98
776.87	29536.29
777.205	29195.73
777.539	29365.22
777.874	29357.53
778.209	28975.85
778.543	28917.77
778.878	28702.86
779.212	28785.57
779.547	28591.45
779.881	28478.01
780.215	28376.77
780.55	28473.04
780.884	28292.02
781.218	28187.85
781.552	28158.24
781.886	28059.04
782.22	27854.3
782.554	27680.52
782.888	27492.27
783.222	27446.17
783.556	27335.89
783.889	27219.74
784.223	27057.93
784.557	26922.57
784.89	27081.43
785.224	26997.37
785.557	26794.44
785.891	26652.29
786.224	26502.47
786.558	26426.76
786.891	26329.59
787.224	26252.53
787.557	26182.48
787.891	26269.48
788.224	26074.91
788.557	26067
788.89	25931.18
789.223	25872.88
789.556	25598.76
789.888	25655.26
790.221	25514.24
790.554	25253.91
790.887	25262.27
791.219	25176.63
791.552	25113.8
791.884	24944.54
792.217	25030.19
792.549	24799.69
792.882	24672.46
793.214	24581.16
793.546	24607.15
793.879	24422.97
794.211	24341.85
794.543	24362.18
794.875	24260.27
795.207	24207.61
795.539	24099.59
795.871	24040.16
796.203	24003.1
796.535	23780.05
796.867	23821.63
797.198	23733.27
797.53	23632.49
797.862	23477.69
798.193	23563.79
798.525	23382.78
798.856	23380.06
799.188	23114.76
799.519	23117.92
799.85	23087.64
800.182	23057.36
800.513	23005.61
800.844	22740.53
801.175	22929.45
801.506	22846.97
801.837	22764.03
802.168	22656.01
802.499	22553.87
802.83	22434.55
803.161	22477.04
803.491	22445.17
803.822	22382.58
804.153	22254.9
804.483	22090.61
804.814	22019.42
805.145	21992.08
805.475	21976.71
805.805	21915.92
806.136	21825.75
806.466	21871.63
806.796	21867.33
807.126	21638.64
807.457	21479.55
807.787	21642.93
808.117	21430.74
808.447	21330.85
808.777	21433.45
809.107	21296.05
809.436	21245.43
809.766	21224.87
810.096	21113.91
810.426	21069.62
810.755	21044.98
811.085	20946.68
811.414	20831.66
811.744	20668.95
812.073	20718.66
812.403	20690.19
812.732	20562.51
813.061	20608.61
813.39	20409.75
813.719	20448.84
814.049	20487.26
814.378	20265.57
814.707	20366.13
815.036	20206.59
815.365	20135.85
815.693	19953.26
816.022	19992.36
816.351	19965.46
816.68	19810.44
817.008	19849.08
817.337	19673.04
817.665	19710.56
817.994	19679.37
818.322	19726.37
818.651	19654.29
818.979	19540.16
819.307	19631.24
819.636	19480.5
819.964	19467.62
820.292	19496.1
820.62	19403.9
820.948	19400.28
821.276	19395.76
821.604	19406.38
821.932	19335.88
822.259	19399.6
822.587	19379.26
822.915	19238.48
823.243	19332.71
823.57	19285.71
823.898	19340.4
824.225	19284.8
824.553	19198.93
824.88	19315.09
825.207	19318.93
825.535	19313.28
825.862	19347.4
826.189	19194.86
826.516	19361.41
826.843	19398.47
827.17	19248.87
827.497	19193.05
827.824	19309.44
828.151	19246.84
828.478	19202.09
828.805	19307.18
829.131	19301.75
829.458	19169.33
829.785	19174.07
830.111	19174.3
830.438	19203
830.764	19185.82
831.09	19158.03
831.417	19055.66
831.743	19168.2
832.069	19174.52
832.395	19076.22
832.722	19072.38
833.048	19077.13
833.374	19101.98
833.7	18996.22
834.026	19002.33
834.351	19037.35
834.677	18936.11
835.003	19078.26
835.329	18904.93
835.654	18951.25
835.98	18809.34
836.306	18843.91
836.631	18750.35
836.956	18880.52
837.282	18807.08
837.607	18753.07
837.932	18628.1
838.258	18774.53
838.583	18669.23
838.908	18562.11
839.233	18478.72
839.558	18537.03
839.883	18429.68
840.208	18405.96
840.533	18453.64
840.858	18368.9
841.182	18412.28
841.507	18315.79
841.832	18186.98
842.156	18280.99
842.481	18183.36
842.805	18132.97
843.13	18169.8
843.454	18191.95
843.778	18049.81
844.103	17995.57
844.427	17988.34
844.751	17897.72
845.075	17871.28
845.399	17711.51
845.723	17648.91
846.047	17764.84
846.371	17644.39
846.695	17595.58
847.019	17447.11
847.343	17400.56
847.666	17212.77
847.99	17233.11
848.313	17296.16
848.637	17139.78
848.96	17078.53
849.284	17036.5
849.607	16896.62
849.931	16769.39
850.254	16784.98
850.577	16732.55
850.9	16514.71
851.223	16504.99
851.546	16383.41
851.869	16331.89
852.192	16388.16
852.515	16195.39
852.838	16190.87
853.161	16160.59
853.483	16131.21
853.806	16056.41
854.129	15970.54
854.451	15904.78
854.774	15900.03
855.096	15784.56
855.419	15769.87
855.741	15735.29
856.063	15613.94
856.385	15692.81
856.708	15577.33
857.03	15610.78
857.352	15497.56
857.674	15447.62
857.996	15337.11
858.318	15306.83
858.64	15333.04
858.961	15244.91
859.283	15099.83
859.605	15069.32
859.926	15140.73
860.248	15122.88
860.57	15004.69
860.891	15119.72
861.212	14965.6
861.534	14997.01
861.855	14937.35
862.176	14998.59
862.498	14856.67
862.819	14826.39
863.14	14785.71
863.461	14822.77
863.782	14684.47
864.103	14608.77
864.424	14580.29
864.745	14651.71
865.065	14592.72
865.386	14551.82
865.707	14562.44
866.027	14514.31
866.348	14489.9
866.668	14532.61
866.989	14416.91
867.309	14346.18
867.63	14418.94
867.95	14352.28
868.27	14293.3
868.59	14310.02
868.91	14271.38
869.23	14272.05
869.55	14184.6
869.87	14256.46
870.19	14163.13
870.51	14225.05
870.83	14164.94
871.15	14049.91
871.469	14081.55
871.789	14116.35
872.109	14152.06
872.428	13985.06
872.748	13984.83
873.067	13998.39
873.386	14063.25
873.706	13978.73
874.025	13836.59
874.344	13812.86
874.663	13822.57
874.982	13849.01
875.301	13801.11
875.62	13821.9
875.939	13749.13
876.258	13670.94
876.577	13667.1
876.896	13703.48
877.214	13600.43
877.533	13591.17
877.852	13638.62
878.17	13658.51
878.489	13594.78
878.807	13563.6
879.125	13538.06
879.444	13498.06
879.762	13464.39
880.08	13442.7
880.398	13365.86
880.716	13432.08
881.034	13382.13
881.352	13367.67
881.67	13325.86
881.988	13360.67
882.306	13219.88
882.624	13194.34
882.941	13170.61
883.259	13129.03
883.577	13137.85
883.894	13036.38
884.212	13027.79
884.529	13057.62
884.846	12954.8
885.164	13008.13
885.481	12971.3
885.798	12863.28
886.115	12821.47
886.432	12925.2
886.75	12864.86
887.067	12856.5
887.383	12742.38
887.7	12752.77
888.017	12688.37
888.334	12682.94
888.651	12689.72
888.967	12627.58
889.284	12523.85
889.6	12473.23
889.917	12410.63
890.233	12453.34
890.55	12471.88
890.866	12370.18
891.182	12303.74
891.498	12298.09
891.815	12257.87
892.131	12228.04
892.447	12151.43
892.763	12214.93
893.079	12065.11
893.395	12111.21
893.71	12040.93
894.026	12050.42
894.342	11995.73
894.657	11871.67
894.973	11851.33
895.289	11908.05
895.604	11945.11
895.92	11833.02
896.235	11714.38
896.55	11736.08
896.865	11616.76
897.181	11652.91
897.496	11671.9
897.811	11516.65
898.126	11487.95
898.441	11456.08
898.756	11477.33
899.071	11406.37
899.386	11396.88
899.7	11322.53
900.015	11197.11
900.33	11123.21
900.644	11166.6
900.959	11138.8
901.273	11188.52
901.588	11052.93
901.902	10953.05
902.216	10960.5
902.531	10946.27
902.845	10936.77
903.159	10856.78
903.473	10849.09
903.787	10842.31
904.101	10636.9
904.415	10642.32
904.729	10648.87
905.042	10601.64
905.356	10536.33
905.67	10453.85
905.984	10548.08
906.297	10520.74
906.611	10435.54
906.924	10386.51
907.237	10326.17
907.551	10330.91
907.864	10288.88
908.177	10226.28
908.491	10143.58
908.804	10075.55
909.117	10045.95
909.43	10037.59
909.743	9965.27
910.056	9983.13
910.368	9934.99
910.681	9872.17
910.994	9833.07
911.307	9832.62
911.619	9726.18
911.932	9753.3
912.244	9737.71
912.557	9653.64
912.869	9589.92
913.181	9522.12
913.494	9532.52
913.806	9438.06
914.118	9400.09
914.43	9384.27
914.742	9373.2
915.054	9295.46
915.366	9288
915.678	9213.2
915.99	9154
916.302	9194.45
916.613	9136.82
916.925	9087.56
917.236	9064.06
917.548	8970.95
917.859	8978.63
918.171	8876.26
918.482	8934.79
918.794	8831.07
919.105	8874.68
919.416	8775.93
919.727	8678.3
920.038	8758.98
920.349	8740
920.66	8600.79
920.971	8642.82
921.282	8567.8
921.593	8535.48
921.903	8433.79
922.214	8462.04
922.525	8369.84
922.835	8369.84
923.146	8307.01
923.456	8253.23
923.767	8186.79
924.077	8271.08
924.387	8175.94
924.697	8161.03
925.008	8102.5
925.318	8072.9
925.628	8101.59
925.938	8018.89
926.248	7979.11
926.558	7881.71
926.867	7934.59
927.177	7851.21
927.487	7849.4
927.796	7763.3
928.106	7705
928.416	7672.68
928.725	7717.88
929.034	7680.14
929.344	7684.88
929.653	7653.7
929.962	7513.36
930.271	7456.87
930.581	7472.23
930.89	7415.96
931.199	7436.53
931.508	7353.82
931.817	7333.93
932.125	7336.19
932.434	7310.2
932.743	7208.74
933.051	7174.61
933.36	7162.86
933.669	7136.2
933.977	7093.94
934.286	7124.9
934.594	6998.12
934.902	7014.17
935.21	6980.49
935.519	6966.26
935.827	6946.15
936.135	6895.52
936.443	6847.62
936.751	6878.35
937.059	6861.4
937.367	6746.6
937.674	6750.67
937.982	6759.48
938.29	6704.34
938.597	6711.8
938.905	6652.37
939.213	6556.32
939.52	6588.64
939.827	6606.04
940.135	6538.92
940.442	6540.05
940.749	6498.47
941.056	6456.67
941.363	6371.47
941.67	6331.7
941.977	6385.93
942.284	6330.79
942.591	6310
942.898	6233.85
943.205	6211.02
943.511	6199.05
943.818	6189.78
944.125	6143.68
944.431	6085.83
944.738	6070.01
945.044	6082.21
945.35	6036.79
945.657	6032.72
945.963	5999.5
946.269	5967.87
946.575	5962.89
946.881	5856.68
947.187	5926.28
947.493	5857.81
947.799	5841.09
948.105	5784.14
948.41	5814.88
948.716	5760.87
949.022	5771.03
949.327	5733.07
949.633	5661.43
949.938	5620.53
950.244	5655.56
950.549	5561.55
950.854	5609.23
951.16	5568.33
951.465	5529.23
951.77	5487.65
952.075	5467.09
952.38	5435
952.685	5446.52
952.99	5436.81
953.294	5410.59
953.599	5338.5
953.904	5321.78
954.209	5293.08
954.513	5325.62
954.818	5275
955.122	5225.96
955.426	5196.81
955.731	5198.39
956.035	5180.77
956.339	5149.13
956.643	5072.75
956.948	5045.86
957.252	5070.49
957.556	5098.96
957.86	5048.34
958.163	5060.32
958.467	4984.61
958.771	4950.27
959.075	5001.56
959.378	4899.19
959.682	4911.85
959.985	4857.16
960.289	4861.68
960.592	4866.88
960.896	4768.12
961.199	4773.77
961.502	4785.98
961.805	4744.85
962.108	4683.15
962.411	4687.9
962.714	4626.66
963.017	4607
963.32	4658.75
963.623	4601.12
963.926	4592.31
964.228	4559.32
964.531	4569.94
964.833	4561.35
965.136	4500.11
965.438	4478.41
965.741	4515.47
966.043	4457.17
966.345	4416.49
966.648	4422.14
966.95	4391.64
967.252	4362.03
967.554	4369.94
967.856	4338.08
968.158	4270.96
968.46	4300.11
968.761	4312.77
969.063	4244.75
969.365	4258.98
969.666	4215.6
969.968	4185.31
970.269	4194.35
970.571	4146.9
970.872	4118.65
971.174	4130.4
971.475	4104.41
971.776	4066.67
972.077	4079.55
972.378	4046.11
972.679	4033.68
972.98	4017.41
973.281	3957.98
973.582	4009.73
973.883	3967.47
974.183	3938.54
974.484	3925.89
974.785	3878.88
975.085	3908.71
975.386	3927.02
975.686	3846.57
975.986	3825.78
976.287	3817.64
976.587	3755.49
976.887	3791.88
977.187	3769.28
977.487	3754.14
977.787	3758.21
978.087	3752.1
978.387	3659.9
978.687	3681.82
978.987	3667.14
979.286	3628.72
979.586	3629.85
979.885	3605.22
980.185	3568.61
980.484	3590.98
980.784	3533.81
981.083	3543.52
981.382	3536.52
981.682	3512.56
981.981	3495.61
982.28	3463.07
982.579	3468.5
982.878	3473.69
983.177	3483.86
983.475	3456.52
983.774	3395.96
984.073	3376.07
984.372	3402.51
984.67	3383.75
984.969	3344.66
985.267	3355.73
985.566	3303.3
985.864	3283.87
986.162	3296.07
986.461	3257.2
986.759	3239.58
987.057	3227.37
987.355	3212.46
987.653	3233.47
987.951	3195.06
988.249	3173.59
988.547	3176.3
988.844	3167.49
989.142	3120.93
989.44	3135.85
989.737	3109.41
990.035	3057.66
990.332	3070.99
990.63	3049.98
990.927	3047.26
991.224	3026.25
991.521	3026.93
991.819	3003.42
992.116	2976.98
992.413	2969.53
992.71	2966.59
993.006	2918.68
993.303	2930.88
993.6	2899.7
993.897	2896.99
994.193	2892.24
994.49	2875.52
994.787	2865.8
995.083	2845.24
995.379	2813.82
995.676	2834.39
995.972	2791.45
996.268	2739.02
996.565	2797.1
996.861	2713.71
997.157	2729.08
997.453	2736.99
997.749	2664.68
998.044	2669.65
998.34	2714.84
998.636	2691.79
998.932	2637.56
999.227	2611.12
999.523	2610.44
999.818	2599.82
1000.114	2592.81
1000.409	2593.27
1000.704	2566.83
1001	2516.66
1001.295	2524.57
1001.59	2575.64
1001.885	2547.84
1002.18	2506.26
1002.475	2447.28
1002.77	2491.35
1003.065	2492.7
1003.359	2470.33
1003.654	2431.91
1003.949	2415.64
1004.243	2401.86
1004.538	2371.58
1004.832	2403.44
1005.127	2359.6
1005.421	2335.19
1005.715	2338.58
1006.009	2327.06
1006.304	2275.76
1006.598	2293.84
1006.892	2267.85
1007.186	2257.45
1007.48	2238.25
1007.773	2233.5
1008.067	2245.03
1008.361	2207.74
1008.655	2167.29
1008.948	2161.64
1009.242	2183.78
1009.535	2133.62
1009.829	2140.4
1010.122	2113.5
1010.415	2112.15
1010.708	2124.8
1011.001	2082.32
1011.295	2076.22
1011.588	2082.77
1011.881	2043.45
1012.173	2034.41
1012.466	2065.37
1012.759	2024.92
1013.052	2016.11
1013.344	1981.3
1013.637	1994.64
1013.93	2004.81
1014.222	1958.25
1014.514	1963
1014.807	1947.63
1015.099	1914.64
1015.391	1912.38
1015.683	1895.88
1015.976	1885.26
1016.268	1852.49
1016.56	1864.47
1016.851	1837.35
1017.143	1845.94
1017.435	1825.83
1017.727	1823.34
1018.018	1786.96
1018.31	1785.6
1018.602	1758.26
1018.893	1747.41
1019.185	1748.54
1019.476	1760.07
1019.767	1729.11
1020.058	1730.91
1020.35	1705.15
1020.641	1689.33
1020.932	1693.85
1021.223	1653.85
1021.514	1661.54
1021.804	1631.93
1022.095	1654.31
1022.386	1621.99
1022.677	1632.16
1022.967	1593.74
1023.258	1603.46
1023.548	1564.82
1023.839	1579.73
1024.129	1579.96
1024.419	1563.46
1024.709	1540.64
1025	1510.81
1025.29	1520.52
1025.58	1493.18
1025.87	1508.1
1026.16	1492.5
1026.449	1462
1026.739	1453.63
1027.029	1455.22
1027.319	1436.69
1027.608	1426.52
1027.898	1412.05
1028.187	1441.66
1028.477	1431.71
1028.766	1415.22
1029.055	1404.37
1029.344	1376.12
1029.634	1388.78
1029.923	1382
1030.212	1384.26
1030.501	1333.64
1030.79	1322.34
1031.078	1334.32
1031.367	1302.9
1031.656	1309.68
1031.945	1300.64
1032.233	1277.59
1032.522	1273.53
1032.81	1273.07
1033.099	1248.44
1033.387	1276.46
1033.675	1234.2
1033.963	1239.18
1034.251	1226.75
1034.54	1230.59
1034.828	1198.73
1035.116	1217.03
1035.403	1186.07
1035.691	1202.57
1035.979	1155.79
1036.267	1169.8
1036.554	1169.12
1036.842	1179.07
1037.129	1146.98
1037.417	1153.53
1037.704	1135.22
1037.992	1109.46
1038.279	1125.06
1038.566	1102.23
1038.853	1102.23
1039.14	1102.23
