Data from white_poster_card_FLMS001491_00015.txt Node
Date: Wed Feb 08 11:51:09 GMT 2017
User: dcchb
Spectrometer: FLMS00149
Trigger mode: 0
Integration Time (sec): 2.000000E-2
Scans to average: 10
Electric dark correction enabled: true
Nonlinearity correction enabled: false
Boxcar width: 0
XAxis mode: Wavelengths
Number of Pixels in Spectrum: 2048
>>>>>Begin Spectral Data<<<<<
341.393	-19.53
341.776	-19.53
342.16	-19.53
342.543	-65.18
342.927	-55.01
343.31	-61.11
343.693	-62.7
344.077	-78.74
344.46	-58.85
344.843	-60.44
345.226	-43.49
345.61	-26.31
345.993	-12.75
346.376	-7.78
346.759	0.58
347.142	22.95
347.525	25.44
347.908	73.57
348.291	78.77
348.674	98.66
349.057	112.21
349.44	118.77
349.823	147.02
350.206	168.48
350.588	182.5
350.971	188.6
351.354	219.56
351.737	231.53
352.119	252.1
352.502	238.99
352.884	280.35
353.267	283.96
353.65	283.51
354.032	297.52
354.414	304.98
354.797	319.67
355.179	324.86
355.562	311.53
355.944	313.57
356.326	323.51
356.709	349.72
357.091	320.57
357.473	356.05
357.855	342.49
358.238	349.95
358.62	336.62
359.002	340.01
359.384	360.34
359.766	326.9
360.148	345.65
360.53	339.78
360.912	323.73
361.294	319.21
361.676	340.23
362.057	340.68
362.439	320.57
362.821	322.6
363.203	330.51
363.584	339.33
363.966	311.76
364.348	326.67
364.729	324.64
365.111	326.22
365.493	325.77
365.874	324.19
366.256	316.95
366.637	311.53
367.019	302.49
367.4	316.73
367.781	319.67
368.163	326.67
368.544	333
368.925	305.43
369.306	312.44
369.688	328.93
370.069	294.81
370.45	306.79
370.831	301.14
371.212	315.15
371.593	319.44
371.974	296.84
372.355	317.41
372.736	328.93
373.117	317.18
373.498	316.5
373.879	324.64
374.26	325.54
374.641	290.06
375.021	315.37
375.402	330.51
375.783	339.33
376.163	335.94
376.544	337.52
376.925	337.75
377.305	337.07
377.686	325.32
378.066	317.86
378.447	338.88
378.827	332.1
379.208	338.88
379.588	335.94
379.968	339.1
380.349	350.63
380.729	328.71
381.109	336.39
381.489	357.18
381.87	342.27
382.25	339.78
382.63	344.75
383.01	355.6
383.39	361.02
383.77	359.44
384.15	336.39
384.53	365.09
384.91	356.5
385.29	365.09
385.67	370.51
386.049	355.37
386.429	361.25
386.809	349.04
387.189	363.96
387.568	382.26
387.948	374.58
388.328	379.55
388.707	361.25
389.087	376.61
389.466	370.74
389.846	388.14
390.225	385.2
390.605	389.04
390.984	394.92
391.363	392.21
391.743	395.14
392.122	357.86
392.501	389.04
392.881	394.69
393.26	380.46
393.639	399.89
394.018	420.46
394.397	395.82
394.776	368.7
395.155	394.47
395.534	403.28
395.913	424.3
396.292	432.43
396.671	413.45
397.05	425.65
397.429	448.7
397.808	414.81
398.186	438.31
398.565	429.49
398.944	429.72
399.323	439.89
399.701	442.83
400.08	426.56
400.458	432.66
400.837	451.19
401.215	462.94
401.594	441.25
401.972	456.61
402.351	463.84
402.729	453.45
403.107	471.53
403.486	458.65
403.864	460.45
404.242	478.31
404.62	464.75
404.999	482.6
405.377	488.25
405.755	495.93
406.133	471.53
406.511	487.8
406.889	514.24
407.267	520.34
407.645	522.37
408.023	535.93
408.401	547.91
408.779	537.97
409.156	574.8
409.534	572.54
409.912	554.24
410.29	586.33
410.667	582.71
411.045	598.98
411.422	594.46
411.8	605.99
412.178	620.9
412.555	658.64
412.933	648.02
413.31	659.54
413.687	676.27
414.065	684.85
414.442	676.04
414.819	719.2
415.197	713.1
415.574	717.4
415.951	756.04
416.328	782.03
416.705	786.1
417.082	785.87
417.46	811.86
417.837	829.26
418.214	853.89
418.591	833.33
418.967	852.76
419.344	891.86
419.721	885.98
420.098	907.45
420.475	918.3
420.852	946.09
421.228	951.06
421.605	935.02
421.982	967.33
422.358	987.45
422.735	972.98
423.111	1003.94
423.488	1037.61
423.864	1026.31
424.241	1035.81
424.617	1037.16
424.994	1062.7
425.37	1082.58
425.746	1089.82
426.123	1106.76
426.499	1130.27
426.875	1123.94
427.251	1173.88
427.627	1170.27
428.003	1170.49
428.379	1184.73
428.756	1228.34
429.132	1262.92
429.507	1259.08
429.883	1275.57
430.259	1322.58
430.635	1319.19
431.011	1301.79
431.387	1320.77
431.763	1380.88
432.138	1382.24
432.514	1409.58
432.89	1412.07
433.265	1462.46
433.641	1458.85
434.016	1471.05
434.392	1516.7
434.767	1528.9
435.143	1552.4
435.518	1544.27
435.894	1572.29
436.269	1583.81
436.644	1608.22
437.02	1650.93
437.395	1626.07
437.77	1640.08
438.145	1700.65
438.52	1699.52
438.895	1695.45
439.271	1731.16
439.646	1762.79
440.021	1774.77
440.395	1797.14
440.77	1772.96
441.145	1813.41
441.52	1841.66
441.895	1834.2
442.27	1844.82
442.645	1843.24
443.019	1886.18
443.394	1868.55
443.769	1886.18
444.143	1845.05
444.518	1951.04
444.892	1909.46
445.267	1958.95
445.641	1959.17
446.016	1983.13
446.39	1974.76
446.764	2001.2
447.139	2009.79
447.513	2055.44
447.887	2051.15
448.262	2055.44
448.636	2057.02
449.01	2078.49
449.384	2108.32
449.758	2133.18
450.132	2149
450.506	2131.82
450.88	2138.6
451.254	2198.49
451.628	2201.43
452.002	2252.72
452.376	2247.75
452.75	2242.1
453.123	2265.15
453.497	2299.28
453.871	2325.94
454.244	2371.59
454.618	2376.56
454.992	2408.2
455.365	2400.97
455.739	2460.85
456.112	2511.93
456.486	2518.48
456.859	2554.86
457.232	2563.45
457.606	2582.21
457.979	2605.48
458.352	2674.41
458.725	2691.58
459.099	2714.63
459.472	2748.76
459.845	2757.12
460.218	2768.19
460.591	2767.96
460.964	2806.38
461.337	2906.49
461.71	2894.97
462.083	2948.07
462.456	2980.61
462.829	3010.67
463.201	3044.11
463.574	3017.9
463.947	3060.61
464.32	3133.83
464.692	3173.38
465.065	3218.12
465.438	3271
465.81	3299.02
466.183	3336.99
466.555	3380.15
466.928	3422.41
467.3	3407.27
467.672	3494.05
468.045	3552.12
468.417	3583.54
468.789	3572.69
469.161	3622.63
469.534	3671.44
469.906	3752.34
470.278	3765.68
470.65	3813.36
471.022	3871.21
471.394	3946.46
471.766	4002.51
472.138	4015.61
472.51	4112.79
472.882	4159.57
473.253	4223.97
473.625	4248.38
473.997	4322.73
474.369	4368.83
474.74	4450.86
475.112	4482.72
475.484	4588.26
475.855	4661.7
476.227	4680.23
476.598	4810.85
476.97	4885.87
477.341	4964.52
477.713	5023.5
478.084	4992.76
478.455	5231.4
478.827	5257.84
479.198	5394.34
479.569	5348.69
479.94	5503.03
480.311	5543.26
480.682	5640.2
481.053	5813.53
481.424	5888.33
481.795	5895.57
482.166	6020.76
482.537	6098.27
482.908	6249.45
483.279	6293.75
483.65	6388.89
484.021	6530.8
484.391	6628.65
484.762	6642.44
485.133	6761.53
485.503	6783.68
485.874	7017.57
486.244	7032.94
486.615	7128.3
486.985	7211.46
487.356	7354.28
487.726	7507.95
488.097	7541.4
488.467	7626.37
488.837	7815.51
489.207	7902.29
489.578	8082.4
489.948	8057.32
490.318	8194.04
490.688	8241.94
491.058	8356.07
491.428	8461.83
491.798	8537.3
492.168	8754.93
492.538	8668.37
492.908	8808.94
493.278	8911.31
493.648	9051.64
494.017	9080.11
494.387	9234.91
494.757	9259.32
495.126	9386.55
495.496	9412.76
495.866	9486.88
496.235	9623.38
496.605	9647.78
496.974	9774.56
497.344	9789.47
497.713	9905.86
498.082	9974.1
498.452	10085.96
498.821	10136.36
499.19	10184.27
499.559	10269.46
499.928	10390.14
500.298	10438.95
500.667	10477.59
501.036	10495.67
501.405	10674.65
501.774	10651.15
502.143	10784.48
502.512	10843.68
502.88	10956.45
503.249	10937.69
503.618	11048.2
503.987	11127.74
504.356	11186.27
504.724	11183.56
505.093	11312.6
505.462	11391.24
505.83	11404.12
506.199	11598.69
506.567	11701.06
506.936	11685.7
507.304	11868.29
507.672	11866.03
508.041	12022.64
508.409	12093.59
508.777	12166.36
509.145	12269.86
509.514	12318.22
509.882	12517.76
510.25	12455.39
510.618	12571.55
510.986	12597.54
511.354	12741.04
511.722	12929.28
512.09	12972.44
512.458	13016.73
512.826	13067.58
513.193	13177.63
513.561	13204.98
513.929	13362.49
514.297	13450.17
514.664	13648.81
515.032	13574.91
515.4	13799.31
515.767	13787.34
516.135	13889.71
516.502	13952.08
516.869	14132.41
517.237	14240.66
517.604	14244.27
517.972	14398.62
518.339	14476.81
518.706	14495.34
519.073	14525.62
519.44	14763.13
519.808	14857.36
520.175	14838.83
520.542	15106.62
520.909	15172.61
521.276	15302.32
521.643	15428.2
522.009	15477.91
522.376	15611.02
522.743	15783.67
523.11	15865.47
523.477	16037.9
523.843	16190.66
524.21	16330.32
524.577	16392.92
524.943	16476.3
525.31	16578.45
525.676	16756.52
526.043	16871.55
526.409	16991.09
526.776	17121.26
527.142	17231.76
527.508	17334.13
527.874	17447.35
528.241	17577.97
528.607	17662.04
528.973	17809.6
529.339	17822.26
529.705	18109.71
530.071	18205.07
530.437	18250.04
530.803	18345.18
531.169	18412.52
531.535	18455.01
531.901	18589.24
532.267	18748.79
532.632	18728.9
532.998	18942.45
533.364	18900.87
533.73	18998.27
534.095	19264.93
534.461	19231.26
534.826	19444.14
535.192	19519.16
535.557	19614.53
535.923	19653.62
536.288	19684.13
536.653	19890.45
537.019	19863.33
537.384	19918.93
537.749	20027.85
538.114	20058.81
538.479	20158.02
538.845	20281.18
539.21	20281.63
539.575	20414.73
539.94	20433.49
540.305	20590.32
540.67	20545.58
541.034	20667.83
541.399	20738.34
541.764	20844.32
542.129	20904.21
542.494	20943.76
542.858	21066.92
543.223	21096.3
543.587	21178.78
543.952	21248.61
544.316	21359.57
544.681	21322.73
545.045	21459.9
545.41	21656.28
545.774	21562.5
546.138	21595.27
546.503	21739.22
546.867	21785.99
547.231	21905.99
547.595	21985.54
547.959	22070.06
548.324	22153.67
548.688	22122.26
549.052	22263.27
549.416	22329.71
549.779	22398.18
550.143	22500.33
550.507	22605.86
550.871	22680.43
551.235	22723.6
551.599	22831.62
551.962	22851.05
552.326	22988.68
552.689	23123.81
553.053	23105.73
553.417	23199.74
553.78	23428.44
554.143	23358.38
554.507	23437.48
554.87	23568.55
555.234	23688.32
555.597	23753.17
555.96	23890.35
556.323	23907.75
556.686	23971.7
557.05	24203.11
557.413	24331.46
557.776	24280.84
558.139	24594.06
558.502	24602.87
558.865	24700.72
559.228	24740.72
559.59	24947.95
559.953	25084.44
560.316	25248.5
560.679	25263.87
561.041	25385
561.404	25606.23
561.767	25660.92
562.129	25550.19
562.492	25745.44
562.854	25894.14
563.217	25872.44
563.579	26012.32
563.941	26210.06
564.304	26365.31
564.666	26497.74
565.028	26392.2
565.39	26669.03
565.753	26769.14
566.115	26853.66
566.477	27104.73
566.839	27082.35
567.201	27252.97
567.563	27267.43
567.925	27502.23
568.287	27539.52
568.648	27548.78
569.01	27728.21
569.372	27925.49
569.734	27751.49
570.095	28049.79
570.457	28131.82
570.819	28205.49
571.18	28198.71
571.542	28458.36
571.903	28406.61
572.265	28546.95
572.626	28678.24
572.987	28679.6
573.349	28779.48
573.71	28927.05
574.071	28978.35
574.432	29020.38
574.794	29253.14
575.155	29296.76
575.516	29197.1
575.877	29424.89
576.238	29457.43
576.599	29477.54
576.96	29436.19
577.32	29495.4
577.681	29644.77
578.042	29687.26
578.403	29720.7
578.763	29803.41
579.124	29798.44
579.485	29883.41
579.845	30056.74
580.206	29787.59
580.566	30042.95
580.927	29930.64
581.287	30068.26
581.648	29840.92
582.008	30227.58
582.368	30140.35
582.728	30160.46
583.089	30217.86
583.449	30178.77
583.809	30197.3
584.169	30191.65
584.529	30203.4
584.889	30426.45
585.249	30202.27
585.609	30261.93
585.969	30413.56
586.329	30040.69
586.688	30492.88
587.048	30322.95
587.408	30245.66
587.768	30340.8
588.127	30334.7
588.487	30036.4
588.846	30390.74
589.206	30280.46
589.565	30359.55
589.925	30449.04
590.284	30326.34
590.643	30308.03
591.003	30406.33
591.362	30410.17
591.721	30442.94
592.08	30386.67
592.44	30511.64
592.799	30483.39
593.158	30324.98
593.517	30543.28
593.876	30538.76
594.235	30444.75
594.593	30654.69
594.952	30501.7
595.311	30470.51
595.67	30614.69
596.029	30731.97
596.387	30690.39
596.746	30814.46
597.104	30710.73
597.463	30622.15
597.822	30816.49
598.18	30599.32
598.538	30651.07
598.897	30856.04
599.255	30543.73
599.613	31016.94
599.972	30913.89
600.33	31039.99
600.688	30732.65
601.046	30877.28
601.404	31031.63
601.762	31016.94
602.12	31085.41
602.478	31093.77
602.836	31053.77
603.194	31033.44
603.552	31057.16
603.91	31110.95
604.268	31132.64
604.625	31077.28
604.983	31192.08
605.341	30990.95
605.698	31255.12
606.056	31284.05
606.413	31139.2
606.771	31327.44
607.128	31377.38
607.485	31208.12
607.843	31271.17
608.2	31477.27
608.557	31657.15
608.914	31518.85
609.272	31693.98
609.629	31693.31
609.986	31816.92
610.343	31651.5
610.7	31971.94
611.057	31724.94
611.414	31703.25
611.771	31792.06
612.127	31829.12
612.484	31783.02
612.841	31924.49
613.198	31807.88
613.554	31859.85
613.911	32101.2
614.267	31960.87
614.624	31966.29
614.98	31979.17
615.337	32152.28
615.693	32106.18
616.05	32154.31
616.406	32356.11
616.762	32114.99
617.118	32071.37
617.475	32155.67
617.831	32233.18
618.187	32283.57
618.543	32333.51
618.899	32523.34
619.255	32310.92
619.611	32459.39
619.967	32499.39
620.323	32512.94
620.678	32472.95
621.034	32295.32
621.39	32256.91
621.746	32357.69
622.101	32647.63
622.457	32326.73
622.812	32489.67
623.168	32588.42
623.523	32638.59
623.879	32535.09
624.234	32334.19
624.589	32564.02
624.945	32434.3
625.3	32665.26
625.655	32521.53
626.01	32583.9
626.365	32418.94
626.72	32490.57
627.075	32553.17
627.43	32503.91
627.785	32391.59
628.14	32489.22
628.495	32608.08
628.85	32380.97
629.205	32406.73
629.559	32458.93
629.914	32347.53
630.269	32416.68
630.623	32320.63
630.978	32196.34
631.332	32393.85
631.687	32388.65
632.041	32260.75
632.396	32345.49
632.75	32214.87
633.104	32231.82
633.459	32085.16
633.813	31946.86
634.167	31939.17
634.521	31941.66
634.875	32065.27
635.229	31993.86
635.583	31685.17
635.937	31874.77
636.291	31864.37
636.645	31819.63
636.999	31733.76
637.352	31761.1
637.706	31663.48
638.06	31609.69
638.413	31498.51
638.767	31607.21
639.121	31646.07
639.474	31424.16
639.828	31404.73
640.181	31436.14
640.534	31425.52
640.888	31405.4
641.241	31178.52
641.594	31244.5
641.947	31401.56
642.301	31222.58
642.654	31246.31
643.007	31115.69
643.36	31158.86
643.713	31031.85
644.066	31085.19
644.419	30878.19
644.771	30712.54
645.124	30376.05
645.477	30384.19
645.83	30157.75
646.182	29932.45
646.535	29922.28
646.888	30009.51
647.24	29779.01
647.593	30103.74
647.945	29907.82
648.298	29763.86
648.65	29586.92
649.002	29542.85
649.355	29741.04
649.707	29662.85
650.059	29847.7
650.411	30198.66
650.763	30268.03
651.115	30497.4
651.467	30350.29
651.819	30199.79
652.171	30218.99
652.523	30229.16
652.875	30197.75
653.227	29958.66
653.578	30287.92
653.93	30210.18
654.282	30031.43
654.633	30003.86
654.985	30051.54
655.337	30028.49
655.688	30008.83
656.039	30028.49
656.391	29795.73
656.742	29851.77
657.094	30033.01
657.445	29989.4
657.796	29887.93
658.147	29779.46
658.498	29629.18
658.849	29746.46
659.2	29768.61
659.551	29623.3
659.902	29809.96
660.253	29787.82
660.604	29624.43
660.955	29554.6
661.306	29679.8
661.656	29610.42
662.007	29583.53
662.358	29605
662.708	29536.98
663.059	29614.49
663.409	29378.34
663.76	29630.08
664.11	29487.71
664.461	29575.62
664.811	29489.97
665.161	29490.2
665.511	29245.91
665.862	29505.34
666.212	29466.47
666.562	29578.56
666.912	29426.25
667.262	29370.65
667.612	29279.13
667.962	29396.19
668.312	29254.27
668.662	29456.53
669.011	29298.79
669.361	29252.69
669.711	29220.6
670.06	29059.93
670.41	29124.56
670.76	29120.94
671.109	29247.95
671.459	29151.9
671.808	29043.21
672.157	29143.54
672.507	28878.92
672.856	28836.66
673.205	28964.56
673.554	28998.23
673.904	28979.48
674.253	29018.57
674.602	28998.69
674.951	28530.45
675.3	28327.29
675.649	28838.46
675.998	28763.44
676.346	28834.4
676.695	28829.88
677.044	28758.92
677.393	28782.65
677.741	28847.96
678.09	28686.15
678.438	28581.3
678.787	28686.38
679.135	28729.54
679.484	28635.76
679.832	28754.17
680.181	28427.4
680.529	28531.35
680.877	28481.19
681.225	28425.14
681.573	28507.4
681.922	28417.23
682.27	28294.98
682.618	28292.49
682.966	28143.79
683.314	28309.67
683.661	28168.65
684.009	27978.15
684.357	28025.6
684.705	27838.04
685.053	27939.96
685.4	27803.69
685.748	27782
686.095	27858.15
686.443	27608.67
686.79	27676.69
687.138	27690.47
687.485	27684.37
687.832	27569.35
688.18	27427.65
688.527	27401.89
688.874	27464.26
689.221	27241.9
689.568	27153.99
689.915	27116.25
690.262	26992.19
690.609	26992.86
690.956	26937.95
691.303	26906.54
691.65	26739.99
691.997	26761.23
692.344	26594.46
692.69	26569.15
693.037	26538.64
693.383	26384.52
693.73	26483.95
694.077	26253.67
694.423	26196.05
694.769	26138.2
695.116	26150.63
695.462	26046.67
695.808	26025.43
696.155	26052.78
696.501	25756.96
696.847	25718.32
697.193	25663.41
697.539	25675.38
697.885	25486.69
698.231	25518.33
698.577	25450.53
698.923	25389.06
699.269	25275.62
699.614	25166.02
699.96	25122.4
700.306	25072.46
700.651	25081.28
700.997	24910.43
701.342	24989.53
701.688	24914.05
702.033	24833.37
702.379	24838.8
702.724	24655.75
703.069	24751.34
703.415	24461.18
703.76	24520.39
704.105	24435.19
704.45	24497.79
704.795	24168.31
705.14	24235.2
705.485	24167.4
705.83	24038.37
706.175	24179.6
706.52	23985.03
706.865	23934.87
707.209	23884.02
707.554	23860.74
707.899	23940.51
708.243	23667.53
708.588	23664.14
708.932	23483.58
709.277	23458.04
709.621	23526.51
709.966	23401.77
710.31	23449.68
710.654	23172.17
710.998	23241.32
711.342	23263.92
711.687	23096.24
712.031	22984.83
712.375	23002.46
712.719	23018.5
713.063	22955
713.407	23026.19
713.75	22810.83
714.094	22819.19
714.438	22673.43
714.782	22762.47
715.125	22566.77
715.469	22623.04
715.812	22539.65
716.156	22411.74
716.499	22330.39
716.843	22369.03
717.186	22314.79
717.53	22519.76
717.873	22425.07
718.216	22337.17
718.559	22121.58
718.902	22065.54
719.246	22079.09
719.589	22066.21
719.932	21944.18
720.275	21966.1
720.617	21949.38
720.96	21863.73
721.303	21873.22
721.646	21753.91
721.989	21673.46
722.331	21779.44
722.674	21752.55
723.016	21696.51
723.359	21657.86
723.701	21647.47
724.044	21505.78
724.386	21418.55
724.729	21450.64
725.071	21463.97
725.413	21412.45
725.755	21466.46
726.097	21347.81
726.439	21244.09
726.782	21238.44
727.124	21268.49
727.465	21197.99
727.807	21165.22
728.149	21074.6
728.491	20962.29
728.833	21083.64
729.175	20917.32
729.516	20959.58
729.858	20896.98
730.199	20927.94
730.541	20928.39
730.882	20852.46
731.224	20863.08
731.565	20743.08
731.906	20649.3
732.248	20641.17
732.589	20736.53
732.93	20583.77
733.271	20514.84
733.612	20578.57
733.953	20544.9
734.294	20479.36
734.635	20489.31
734.976	20452.02
735.317	20406.37
735.658	20244.57
735.999	20294.51
736.339	20260.16
736.68	20368.86
737.021	20237.79
737.361	20104.91
737.702	20234.4
738.042	20009.54
738.383	20080.28
738.723	20068.53
739.063	19981.07
739.404	20067.17
739.744	19945.82
740.084	19936.1
740.424	19875.31
740.764	19791.92
741.104	19893.16
741.444	19868.53
741.784	19772.04
742.124	19793.73
742.464	19776.1
742.804	19720.06
743.143	19572.72
743.483	19678.93
743.823	19677.58
744.162	19589.67
744.502	19518.03
744.841	19471.03
745.181	19615.66
745.52	19468.09
745.86	19573.17
746.199	19441.88
746.538	19343.35
746.877	19476.23
747.216	19335.89
747.556	19250.47
747.895	19221.54
748.234	19223.35
748.573	19147.65
748.911	19090.25
749.25	19048.21
749.589	19027.42
749.928	18973.87
750.267	19150.81
750.605	18923.47
750.944	18893.64
751.283	18780.2
751.621	18865.85
751.96	18795.57
752.298	18729.58
752.636	18641.22
752.975	18660.2
753.313	18599.41
753.651	18671.05
753.989	18555.57
754.327	18506.99
754.666	18472.18
755.004	18458.62
755.342	18431.96
755.679	18374.79
756.017	18252.98
756.355	18325.75
756.693	18265.18
757.031	18328.68
757.368	18118.29
757.706	18093.66
758.044	18063.38
758.381	18096.6
758.719	17998.3
759.056	17979.99
759.394	17916.49
759.731	17757.4
760.068	17691.87
760.405	17712.43
760.743	17668.36
761.08	17622.26
761.417	17551.08
761.754	17442.15
762.091	17437.86
762.428	17356.28
762.765	17269.73
763.102	17318.77
763.438	17231.31
763.775	17145.89
764.112	17140.24
764.449	17215.27
764.785	17078.55
765.122	16929.63
765.458	16889.17
765.795	16899.57
766.131	16975.05
766.467	16883.07
766.804	16680.59
767.14	16660.48
767.476	16721.72
767.812	16616.41
768.148	16570.99
768.485	16427.72
768.821	16371.67
769.157	16353.82
769.492	16253.26
769.828	16287.61
770.164	16159.48
770.5	16189.31
770.836	16063.21
771.171	16082.87
771.507	15933.72
771.842	15796.1
772.178	15760.62
772.513	15750.67
772.849	15789.77
773.184	15658.92
773.519	15646.04
773.855	15569.21
774.19	15520.85
774.525	15535.09
774.86	15465.94
775.195	15451.47
775.53	15321.76
775.865	15239.73
776.2	15075.21
776.535	14979.85
776.87	15107.07
777.205	14960.64
777.539	14960.19
777.874	14917.47
778.209	14811.26
778.543	14832.96
778.878	14645.84
779.212	14670.02
779.547	14615.34
779.881	14569.24
780.215	14480.2
780.55	14492.85
780.884	14433.42
781.218	14390.26
781.552	14422.12
781.886	14308.68
782.22	14214.22
782.554	14148.68
782.888	14008.8
783.222	14058.74
783.556	13943.04
783.889	13924.05
784.223	13874.34
784.557	13786.21
784.89	13807.9
785.224	13791.18
785.557	13738.3
785.891	13684.97
786.224	13668.02
786.558	13620.79
786.891	13549.83
787.224	13408.81
787.557	13386.89
787.891	13397.74
788.224	13330.17
788.557	13320.45
788.89	13278.2
789.223	13227.8
789.556	13153.91
789.888	13179.89
790.221	13025.55
790.554	12973.35
790.887	12943.06
791.219	12875.95
791.552	12868.94
791.884	12793.46
792.217	12847.25
792.549	12769.06
792.882	12665.56
793.214	12596.86
793.546	12562.28
793.879	12544.88
794.211	12412.46
794.543	12522.96
794.875	12482.28
795.207	12458.33
795.539	12370.88
795.871	12383.53
796.203	12302.85
796.535	12188.96
796.867	12183.08
797.198	12141.95
797.53	12108.96
797.862	12088.62
798.193	12060.37
798.525	12020.15
798.856	12000.26
799.188	11858.8
799.519	11862.19
799.85	11767.95
800.182	11680.27
800.513	11773.38
800.844	11729.76
801.175	11742.19
801.506	11645.47
801.837	11680.72
802.168	11605.92
802.499	11528.64
802.83	11469.43
803.161	11482.99
803.491	11537.9
803.822	11482.54
804.153	11329.77
804.483	11339.04
804.814	11330
805.145	11212.94
805.475	11267.4
805.805	11198.7
806.136	11204.13
806.466	11161.42
806.796	11184.24
807.126	11055.2
807.457	11036.22
807.787	11013.85
808.117	11038.71
808.447	11053.4
808.777	10981.99
809.107	10908.09
809.436	10930.69
809.766	10796.45
810.096	10807.3
810.426	10752.84
810.755	10763.91
811.085	10774.99
811.414	10721.65
811.744	10646.17
812.073	10614.76
812.403	10680.75
812.732	10585.39
813.061	10521.66
813.39	10485.5
813.719	10421.32
814.049	10503.35
814.378	10396.92
814.707	10364.6
815.036	10396.69
815.365	10285.73
815.693	10212.29
816.022	10289.8
816.351	10235.34
816.68	10212.97
817.008	10213.42
817.337	10141.33
817.665	10136.58
817.994	10127.32
818.322	10128
818.651	10076.25
818.979	10003.25
819.307	10109.92
819.636	9970.71
819.964	9944.95
820.292	10034.67
820.62	9994.89
820.948	9924.84
821.276	9979.75
821.604	9899.98
821.932	9920.54
822.259	9920.32
822.587	9954.67
822.915	9914.44
823.243	9917.83
823.57	9909.7
823.898	9877.16
824.225	9890.94
824.553	9909.92
824.88	9829.93
825.207	9963.03
825.535	9875.35
825.862	9856.82
826.189	9861.34
826.516	9854.33
826.843	9921
827.17	9953.31
827.497	9995.12
827.824	9883.03
828.151	9952.18
828.478	9921
828.805	9996.7
829.131	9842.81
829.458	9859.98
829.785	9800.55
830.111	9754.22
830.438	9880.77
830.764	9854.56
831.09	9892.97
831.417	9814.78
831.743	9818.4
832.069	9832.86
832.395	9812.98
832.722	9910.15
833.048	9798.06
833.374	9766.2
833.7	9803.03
834.026	9803.26
834.351	9855.01
834.677	9794.45
835.003	9714.67
835.329	9765.97
835.654	9762.58
835.98	9709.02
836.306	9729.14
836.631	9679.42
836.956	9704.73
837.282	9648.69
837.607	9621.12
837.932	9681.45
838.258	9649.14
838.583	9633.77
838.908	9564.17
839.233	9589.48
839.558	9547.45
839.883	9487.79
840.208	9556.49
840.533	9542.7
840.858	9449.37
841.182	9445.98
841.507	9463.61
841.832	9403.27
842.156	9396.49
842.481	9363.5
842.805	9378.19
843.13	9299.54
843.454	9363.27
843.778	9279.43
844.103	9220.45
844.427	9261.35
844.751	9304.74
845.075	9212.77
845.399	9225.2
845.723	9154.24
846.047	9187.46
846.371	9087.8
846.695	9100.45
847.019	9005.54
847.343	8983.39
847.666	9002.15
847.99	8918.31
848.313	8856.17
848.637	8786.34
848.96	8856.39
849.284	8789.73
849.607	8735.94
849.931	8668.15
850.254	8616.17
850.577	8599.9
850.9	8516.74
851.223	8509.73
851.546	8500.02
851.869	8392.22
852.192	8544.54
852.515	8402.62
852.838	8380.47
853.161	8389.06
853.483	8349.29
853.806	8314.94
854.129	8236.97
854.451	8304.54
854.774	8242.85
855.096	8159.91
855.419	8203.53
855.741	8154.26
856.063	8046.02
856.385	8050.99
856.708	8103.64
857.03	8022.29
857.352	7990.88
857.674	7979.13
857.996	8018.45
858.318	7890.32
858.64	7888.28
858.961	7902.52
859.283	7828.62
859.605	7781.39
859.926	7843.54
860.248	7773.03
860.57	7806.93
860.891	7787.94
861.212	7726.25
861.534	7673.6
861.855	7699.13
862.176	7727.61
862.498	7699.13
862.819	7704.33
863.14	7702.52
863.461	7634.95
863.782	7652.36
864.103	7617.33
864.424	7586.82
864.745	7662.07
865.065	7589.31
865.386	7544.11
865.707	7541.62
866.027	7503.43
866.348	7516.99
866.668	7582.98
866.989	7528.29
867.309	7462.08
867.63	7432.47
867.95	7449.87
868.27	7427.5
868.59	7445.81
868.91	7398.12
869.23	7296.21
869.55	7381.85
869.87	7342.08
870.19	7398.58
870.51	7401.51
870.83	7332.82
871.15	7305.02
871.469	7309.54
871.789	7341.18
872.109	7305.25
872.428	7274.29
872.748	7274.74
873.067	7280.84
873.386	7274.96
873.706	7269.77
874.025	7227.06
874.344	7173.05
874.663	7233.38
874.982	7117
875.301	7164.46
875.62	7130.11
875.939	7128.75
876.258	7140.5
876.577	7134.18
876.896	7142.54
877.214	7066.38
877.533	7072.71
877.852	7057.34
878.17	6996.1
878.489	7031.13
878.807	7050.56
879.125	6992.71
879.444	7030.45
879.762	6989.32
880.08	6968.08
880.398	6938.02
880.716	6993.39
881.034	6943.67
881.352	6905.03
881.67	6910.45
881.988	6915.43
882.306	6905.26
882.624	6852.15
882.941	6857.35
883.259	6809.89
883.577	6816.67
883.894	6753.17
884.212	6782.32
884.529	6785.49
884.846	6773.06
885.164	6718.37
885.481	6751.59
885.798	6766.95
886.115	6678.14
886.432	6629.78
886.75	6598.6
887.067	6646.96
887.383	6568.32
887.7	6634.53
888.017	6596.56
888.334	6593.85
888.651	6574.19
888.967	6582.33
889.284	6530.35
889.6	6482.22
889.917	6477.02
890.233	6423.91
890.55	6430.47
890.866	6443.57
891.182	6404.93
891.498	6418.49
891.815	6365.61
892.131	6378.49
892.447	6313.18
892.763	6329.68
893.079	6254.43
893.395	6349.11
893.71	6244.71
894.026	6227.31
894.342	6240.87
894.657	6180.08
894.973	6228.89
895.289	6167.87
895.604	6192.28
895.92	6105.05
896.235	6130.81
896.55	6031.38
896.865	6056.47
897.181	6063.02
897.496	6035
897.811	6026.64
898.126	6012.17
898.441	6002.46
898.756	5967.2
899.071	5886.75
899.386	5965.62
899.7	5884.04
900.015	5872.29
900.33	5868.67
900.644	5828.22
900.959	5832.29
901.273	5818.05
901.588	5755
901.902	5760.2
902.216	5723.59
902.531	5697.6
902.845	5651.96
903.159	5651.5
903.473	5600.43
903.787	5615.12
904.101	5581.45
904.415	5604.05
904.729	5552.07
905.042	5547.78
905.356	5564.73
905.67	5550.94
905.984	5559.98
906.297	5488.12
906.611	5487.44
906.924	5408.35
907.237	5395.92
907.551	5402.24
907.864	5374.68
908.177	5368.57
908.491	5290.84
908.804	5348.01
909.117	5301.23
909.43	5293.55
909.743	5241.35
910.056	5217.39
910.368	5260.55
910.681	5184.4
910.994	5156.6
911.307	5180.1
911.619	5161.35
911.932	5077.73
912.244	5087.9
912.557	5086.32
912.869	5065.3
913.181	5053.33
913.494	5050.16
913.806	4994.12
914.118	4990.28
914.43	4904.18
914.742	4929.49
915.054	4916.83
915.366	4869.38
915.678	4878.19
915.99	4871.41
916.302	4815.82
916.613	4763.84
916.925	4798.42
917.236	4796.84
917.548	4744.41
917.859	4723.84
918.171	4702.83
918.482	4702.83
918.794	4664.64
919.105	4681.59
919.416	4593.45
919.727	4639.78
920.038	4569.27
920.349	4591.19
920.66	4584.64
920.971	4557.07
921.282	4554.13
921.593	4528.37
921.903	4486.11
922.214	4494.47
922.525	4435.49
922.835	4455.83
923.146	4385.77
923.456	4397.3
923.767	4427.81
924.077	4389.62
924.387	4375.15
924.697	4317.75
925.008	4325.89
925.318	4350.75
925.628	4338.54
925.938	4265.78
926.248	4247.7
926.558	4250.41
926.867	4228.49
927.177	4194.82
927.487	4135.16
927.796	4140.58
928.106	4137.42
928.416	4123.18
928.725	4101.26
929.034	4081.83
929.344	4057.2
929.653	4089.51
929.962	4033.24
930.271	4035.95
930.581	4014.48
930.89	4019.23
931.199	3993.69
931.508	3964.09
931.817	3993.69
932.125	3928.16
932.434	3899.69
932.743	3834.6
933.051	3867.14
933.36	3845
933.669	3850.2
933.977	3852.23
934.286	3829.63
934.594	3825.34
934.902	3736.07
935.21	3776.52
935.519	3791.21
935.827	3736.07
936.135	3728.39
936.443	3737.88
936.751	3712.8
937.059	3661.5
937.367	3606.36
937.674	3666.47
937.982	3666.25
938.29	3680.71
938.597	3626.47
938.905	3551.67
939.213	3569.98
939.52	3535.85
939.827	3531.79
940.135	3536.31
940.442	3552.8
940.749	3535.4
941.056	3532.24
941.363	3492.92
941.67	3455.86
941.977	3441.62
942.284	3443.88
942.591	3432.81
942.898	3384.22
943.205	3404.33
943.511	3358.46
943.818	3376.31
944.125	3341.51
944.431	3309.64
944.738	3353.49
945.044	3336.76
945.35	3311.45
945.657	3248.63
945.963	3288.18
946.269	3247.73
946.575	3235.75
946.881	3207.5
947.187	3235.52
947.493	3209.08
947.799	3207.73
948.105	3154.62
948.41	3127.73
948.716	3112.59
949.022	3120.27
949.327	3129.54
949.633	3076.66
949.938	3081.85
950.244	3105.81
950.549	3041.63
950.854	3067.17
951.16	3030.1
951.465	3020.84
951.77	3029.88
952.075	3031.01
952.38	2978.13
952.685	3019.03
952.99	2946.04
953.294	2924.57
953.599	2906.94
953.904	2921.18
954.209	2899.49
954.513	2898.81
954.818	2893.61
955.122	2885.02
955.426	2857.68
955.731	2864.23
956.035	2852.48
956.339	2845.48
956.643	2847.51
956.948	2826.04
957.252	2796.21
957.556	2790.34
957.86	2767.74
958.163	2791.01
958.467	2739.26
958.771	2770.22
959.075	2747.4
959.378	2721.86
959.682	2705.14
959.985	2714.41
960.289	2687.06
960.592	2691.58
960.896	2694.97
961.199	2677.12
961.502	2637.35
961.805	2600.28
962.108	2616.56
962.411	2619.72
962.714	2591.25
963.017	2614.75
963.32	2580.4
963.623	2540.4
963.926	2578.59
964.228	2552.15
964.531	2524.81
964.833	2548.08
965.136	2529.78
965.438	2478.48
965.741	2521.42
966.043	2466.28
966.345	2479.16
966.648	2446.16
966.95	2448.88
967.252	2448.88
967.554	2433.06
967.856	2415.88
968.158	2393.74
968.46	2445.94
968.761	2380.63
969.063	2389.67
969.365	2428.99
969.666	2391.93
969.968	2342.66
970.269	2302.67
970.571	2312.83
970.872	2321.65
971.174	2302.67
971.475	2304.47
971.776	2305.83
972.077	2300.41
972.378	2258.6
972.679	2308.09
972.98	2263.8
973.281	2254.31
973.582	2266.51
973.883	2230.58
974.183	2213.4
974.484	2205.27
974.785	2210.69
975.085	2177.47
975.386	2181.76
975.686	2179.05
975.986	2195.55
976.287	2186.74
976.587	2162.33
976.887	2147.19
977.187	2167.75
977.487	2142.22
977.787	2143.35
978.087	2147.19
978.387	2107.64
978.687	2118.94
978.987	2086.63
979.286	2058.83
979.586	2075.1
979.885	2040.98
980.185	2049.79
980.484	2049.11
980.784	2040.53
981.083	2007.08
981.382	2019.51
981.682	1990.36
981.981	2017.7
982.28	2005.95
982.579	1996.01
982.878	1974.31
983.177	1965.27
983.475	1931.83
983.774	1963.92
984.073	1967.76
984.372	1939.74
984.67	1931.6
984.969	1938.83
985.267	1889.34
985.566	1918.72
985.864	1903.81
986.162	1877.59
986.461	1876.24
986.759	1865.84
987.057	1847.99
987.355	1823.36
987.653	1834.88
987.951	1822.68
988.249	1859.06
988.547	1838.5
988.844	1828.33
989.142	1799.18
989.44	1820.19
989.737	1774.09
990.035	1785.84
990.332	1765.05
990.63	1758.95
990.927	1745.39
991.224	1774.77
991.521	1751.49
991.819	1743.58
992.116	1754.88
992.413	1732.28
992.71	1676.02
993.006	1698.61
993.303	1710.82
993.6	1669.46
993.897	1680.53
994.193	1692.96
994.49	1660.2
994.787	1631.72
995.083	1646.64
995.379	1672.63
995.676	1647.77
995.972	1636.92
996.268	1633.53
996.565	1606.19
996.861	1624.94
997.157	1607.99
997.453	1593.53
997.749	1586.75
998.044	1580.42
998.34	1575.23
998.636	1564.38
998.932	1574.1
999.227	1556.92
999.523	1540.65
999.818	1526.64
1000.114	1515.34
1000.409	1510.14
1000.704	1529.35
1001	1509.01
1001.295	1505.17
1001.59	1496.36
1001.885	1526.64
1002.18	1468.34
1002.475	1466.98
1002.77	1452.97
1003.065	1426.98
1003.359	1452.52
1003.654	1462.91
1003.949	1447.32
1004.243	1425.85
1004.538	1405.74
1004.832	1414.55
1005.127	1409.13
1005.421	1388.11
1005.715	1403.71
1006.009	1369.36
1006.304	1394.89
1006.598	1370.03
1006.892	1375.68
1007.186	1356.02
1007.48	1320.32
1007.773	1358.74
1008.067	1349.24
1008.361	1325.74
1008.655	1318.28
1008.948	1326.65
1009.242	1309.92
1009.535	1292.07
1009.829	1304.05
1010.122	1314.44
1010.415	1266.99
1010.708	1257.95
1011.001	1266.31
1011.295	1277.61
1011.588	1240.32
1011.881	1242.13
1012.173	1260.66
1012.466	1220.89
1012.759	1238.96
1013.052	1243.26
1013.344	1198.29
1013.637	1207.33
1013.93	1180.21
1014.222	1194.45
1014.514	1179.31
1014.807	1170.72
1015.099	1176.37
1015.391	1178.4
1015.683	1159.87
1015.976	1153.54
1016.268	1130.04
1016.56	1135.92
1016.851	1123.94
1017.143	1168.46
1017.435	1130.27
1017.727	1124.39
1018.018	1116.03
1018.31	1129.36
1018.602	1113.09
1018.893	1097.95
1019.185	1108.8
1019.476	1057.5
1019.767	1089.82
1020.058	1063.15
1020.35	1053.88
1020.641	1062.02
1020.932	1050.95
1021.223	1055.47
1021.514	1041
1021.804	1022.47
1022.095	1048.69
1022.386	1009.14
1022.677	1018.86
1022.967	1029.25
1023.258	991.97
1023.548	983.6
1023.839	999.2
1024.129	991.74
1024.419	991.74
1024.709	977.73
1025	983.15
1025.29	957.84
1025.58	944.06
1025.87	978.63
1026.16	923.04
1026.449	974.11
1026.739	936.6
1027.029	914.23
1027.319	905.41
1027.608	912.87
1027.898	922.81
1028.187	922.59
1028.477	913.1
1028.766	915.13
1029.055	914
1029.344	883.72
1029.634	884.17
1029.923	883.27
1030.212	869.03
1030.501	868.58
1030.79	883.27
1031.078	883.95
1031.367	861.57
1031.656	838.98
1031.945	854.12
1032.233	841.23
1032.522	841.23
1032.81	826.55
1033.099	831.74
1033.387	791.29
1033.675	822.7
1033.963	812.99
1034.251	825.87
1034.54	800.56
1034.828	803.04
1035.116	800.11
1035.403	788.35
1035.691	798.75
1035.979	791.74
1036.267	790.16
1036.554	768.24
1036.842	777.73
1037.129	767.11
1037.417	730.05
1037.704	765.53
1037.992	759.88
1038.279	755.81
1038.566	756.72
1038.853	756.72
1039.14	756.72
