Data from whiteboard_FLMS001491_00077.txt Node
Date: Wed Feb 08 11:28:03 GMT 2017
User: dcchb
Spectrometer: FLMS00149
Trigger mode: 0
Integration Time (sec): 2.000000E-2
Scans to average: 10
Electric dark correction enabled: true
Nonlinearity correction enabled: false
Boxcar width: 0
XAxis mode: Wavelengths
Number of Pixels in Spectrum: 2048
>>>>>Begin Spectral Data<<<<<
341.393	9.48
341.776	9.48
342.16	9.48
342.543	-70.97
342.927	-65.1
343.31	-58.32
343.693	-75.49
344.077	-88.37
344.46	-80.69
344.843	-50.86
345.226	-44.53
345.61	-52.44
345.993	-13.8
346.376	-3.4
346.759	-4.53
347.142	31.62
347.525	43.15
347.908	63.94
348.291	82.02
348.674	117.5
349.057	134.22
349.44	148.46
349.823	140.32
350.206	178.06
350.588	228.45
350.971	239.75
351.354	272.75
351.737	252.18
352.119	267.32
352.502	293.31
352.884	305.97
353.267	326.3
353.65	320.2
354.032	336.25
354.414	350.49
354.797	350.03
355.179	354.55
355.562	348
355.944	360.43
356.326	363.37
356.709	358.39
357.091	375.12
357.473	380.99
357.855	359.98
358.238	372.41
358.62	376.25
359.002	394.78
359.384	392.07
359.766	374.21
360.148	331.73
360.53	367.21
360.912	376.02
361.294	378.51
361.676	350.71
362.057	375.12
362.439	355.91
362.821	352.52
363.203	362.69
363.584	345.74
363.966	340.77
364.348	353.65
364.729	354.78
365.111	356.81
365.493	368.34
365.874	349.58
366.256	348.45
366.637	355.46
367.019	373.76
367.4	363.59
367.781	362.01
368.163	368.79
368.544	353.42
368.925	357.72
369.306	369.47
369.688	372.41
370.069	351.62
370.45	379.41
370.831	355.46
371.212	381.22
371.593	352.52
371.974	357.49
372.355	365.4
372.736	364.04
373.117	370.82
373.498	378.28
373.879	383.7
374.26	359.3
374.641	367.43
375.021	362.46
375.402	365.63
375.783	397.72
376.163	404.04
376.544	396.13
376.925	379.64
377.305	393.65
377.686	410.37
378.066	386.19
378.447	385.06
378.827	396.59
379.208	378.73
379.588	409.47
379.968	400.88
380.349	413.99
380.729	409.69
381.109	402.24
381.489	415.79
381.87	413.53
382.25	419.41
382.63	412.63
383.01	389.81
383.39	406.53
383.77	428.68
384.15	422.8
384.53	418.73
384.91	428.45
385.29	442.23
385.67	464.38
386.049	433.87
386.429	452.86
386.809	455.34
387.189	453.31
387.568	464.15
387.948	470.26
388.328	460.09
388.707	511.38
389.087	462.8
389.466	482.46
389.846	491.95
390.225	505.28
390.605	480.2
390.984	484.27
391.363	505.74
391.743	505.74
392.122	499.41
392.501	521.78
392.881	515.9
393.26	547.77
393.639	549.8
394.018	550.71
394.397	525.4
394.776	571.72
395.155	571.04
395.534	573.76
395.913	574.66
396.292	582.34
396.671	611.72
397.05	607.88
397.429	618.73
397.808	635
398.186	633.42
398.565	635.22
398.944	644.26
399.323	657.37
399.701	671.38
400.08	671.15
400.458	701.89
400.837	720.87
401.215	734.43
401.594	716.13
401.972	736.46
402.351	740.53
402.729	762
403.107	770.59
403.486	797.93
403.864	803.81
404.242	836.12
404.62	839.06
404.999	860.3
405.377	858.72
405.755	875.44
406.133	890.36
406.511	922.45
406.889	945.5
407.267	940.98
407.645	977.81
408.023	986.85
408.401	1004.25
408.779	1017.81
409.156	1055.33
409.534	1054.2
409.912	1081.99
410.29	1121.76
410.667	1139.39
411.045	1151.14
411.422	1171.03
411.8	1225.94
412.178	1239.28
412.555	1229.56
412.933	1264.36
413.31	1284.25
413.687	1296.45
414.065	1328.76
414.442	1328.31
414.819	1344.36
415.197	1408.99
415.574	1453.73
415.951	1431.81
416.328	1466.16
416.705	1481.3
417.082	1491.02
417.46	1517.23
417.837	1524.47
418.214	1525.6
418.591	1556.78
418.967	1581.41
419.344	1606.05
419.721	1601.07
420.098	1617.12
420.475	1665.25
420.852	1675.87
421.228	1678.81
421.605	1698.47
421.982	1739.83
422.358	1774.4
422.735	1796.55
423.111	1802.65
423.488	1818.24
423.864	1858.02
424.241	1859.37
424.617	1921.74
424.994	1910.22
425.37	1945.47
425.746	1929.65
426.123	2003.1
426.499	1989.54
426.875	2009.88
427.251	2068.41
427.627	2070.67
428.003	2124.9
428.379	2142.98
428.756	2136.65
429.132	2211.45
429.507	2245.35
429.883	2290.1
430.259	2295.97
430.635	2329.87
431.011	2342.75
431.387	2436.76
431.763	2444.89
432.138	2465.68
432.514	2511.56
432.89	2518.11
433.265	2594.27
433.641	2623.19
434.016	2617.32
434.392	2664.77
434.767	2707.26
435.143	2723.98
435.518	2781.38
435.894	2832
436.269	2854.15
436.644	2859.8
437.02	2909.97
437.395	2911.1
437.77	2954.48
438.145	3016.4
438.52	3007.59
438.895	3079
439.271	3050.3
439.646	3180.47
440.021	3176.85
440.395	3212.78
440.77	3210.3
441.145	3205.55
441.52	3295.72
441.895	3276.06
442.27	3308.83
442.645	3317.19
443.019	3372.78
443.394	3381.82
443.769	3422.49
444.143	3394.92
444.518	3469.5
444.892	3487.35
445.267	3560.57
445.641	3529.16
446.016	3568.71
446.39	3572.32
446.764	3582.72
447.139	3607.12
447.513	3641.7
447.887	3665.88
448.262	3662.26
448.636	3706.56
449.01	3733.45
449.384	3834.46
449.758	3818.19
450.132	3875.14
450.506	3917.17
450.88	3912.2
451.254	3967.11
451.628	4054.12
452.002	4037.17
452.376	4080.56
452.75	4146.09
453.123	4177.5
453.497	4273.77
453.871	4278.97
454.244	4343.6
454.618	4401
454.992	4447.33
455.365	4425.41
455.739	4546.31
456.112	4584.5
456.486	4638.73
456.859	4679.18
457.232	4790.82
457.606	4790.59
457.979	4864.72
458.352	5019.97
458.725	5002.11
459.099	5087.99
459.472	5110.36
459.845	5217.25
460.218	5270.81
460.591	5322.11
460.964	5311.94
461.337	5492.27
461.71	5578.6
462.083	5587.86
462.456	5609.78
462.829	5645.94
463.201	5773.39
463.574	5792.15
463.947	5869.66
464.32	6013.84
464.692	6086.38
465.065	6122.54
465.438	6190.11
465.81	6288.41
466.183	6352.36
466.555	6477.78
466.928	6474.62
467.3	6557.33
467.672	6707.83
468.045	6788.28
468.417	6807.04
468.789	6891.56
469.161	7000.48
469.534	7061.27
469.906	7272.11
470.278	7330.41
470.65	7412.9
471.022	7567.02
471.394	7716.85
471.766	7745.77
472.138	7892.89
472.51	7965.65
472.882	8120.68
473.253	8245.64
473.625	8331.29
473.997	8536.94
474.369	8572.87
474.74	8694.9
475.112	8907.55
475.484	8971.5
475.855	9154.32
476.227	9252.4
476.598	9506.18
476.97	9560.86
477.341	9799.5
477.713	9912.04
478.084	9974.19
478.455	10279.72
478.827	10378.24
479.198	10710.66
479.569	10626.83
479.94	10948.85
480.311	11036.31
480.682	11278.33
481.053	11529.63
481.424	11751.99
481.795	11794.25
482.166	12029.27
482.537	12256.16
482.908	12494.57
483.279	12614.12
483.65	12787.67
484.021	13125.97
484.391	13290.71
484.762	13339.97
485.133	13494.77
485.503	13573.87
485.874	14035.1
486.244	14049.33
486.615	14457.01
486.985	14535.65
487.356	14764.34
487.726	14845.92
488.097	15155.29
488.467	15247.49
488.837	15553.02
489.207	15765.22
489.578	16028.94
489.948	16054.25
490.318	16413.57
490.688	16445.66
491.058	16631.86
491.428	16970.16
491.798	17174
492.168	17404.5
492.538	17488.57
492.908	17688.33
493.278	17926.07
493.648	17972.39
494.017	18145.27
494.387	18372.16
494.757	18512.72
495.126	18680.17
495.496	18814.63
495.866	18956.78
496.235	19164
496.605	19239.48
496.974	19417.33
497.344	19642.41
497.713	19625.46
498.082	19780.03
498.452	20004.88
498.821	20113.58
499.19	20137.08
499.559	20467.7
499.928	20601.48
500.298	20735.26
500.667	20873.34
501.036	20913.11
501.405	21179.77
501.774	21107.68
502.143	21309.93
502.512	21592.41
502.88	21697.04
503.249	21678.96
503.618	21970.26
503.987	21986.3
504.356	22117.37
504.724	22246.41
505.093	22412.28
505.462	22572.05
505.83	22688.88
506.199	22893.4
506.567	23167.06
506.936	23108.3
507.304	23503.32
507.672	23523.21
508.041	23586.71
508.409	23856.99
508.777	23938.79
509.145	24143.08
509.514	24214.04
509.882	24404.77
510.25	24503.52
510.618	24715.04
510.986	24739
511.354	25044.3
511.722	25319.32
512.09	25541.69
512.458	25505.98
512.826	25737.39
513.193	25814
513.561	26005.86
513.929	26249.01
514.297	26359.52
514.664	26596.8
515.032	26691.94
515.4	26934.42
515.767	27127.63
516.135	27201.98
516.502	27198.37
516.869	27603.33
517.237	27719.26
517.604	27752.7
517.972	28160.38
518.339	28252.35
518.706	28335.96
519.073	28433.14
519.44	28656.41
519.808	29027.7
520.175	29048.94
520.542	29329.38
520.909	29474.24
521.276	29591.52
521.643	29811.86
522.009	30051.4
522.376	30298.17
522.743	30512.18
523.11	30722.12
523.477	31124.82
523.843	31171.6
524.21	31550.34
524.577	31778.81
524.943	31933.61
525.31	32080.95
525.676	32438.91
526.043	32567.72
526.409	32669.86
526.776	33225.78
527.142	33208.6
527.508	33454.25
527.874	33731.08
528.241	33812.43
528.607	33901.69
528.973	34380.78
529.339	34330.38
529.705	34577.61
530.071	34883.36
530.437	35091.94
530.803	35161.55
531.169	35407.19
531.535	35426.62
531.901	35599.73
532.267	35946.61
532.632	36067.06
532.998	36123.56
533.364	36349.99
533.73	36547.27
534.095	36782.97
534.461	36909.98
534.826	37047.83
535.192	37189.74
535.557	37416.86
535.923	37484.42
536.288	37736.17
536.653	37754.7
537.019	37902.72
537.384	37977.52
537.749	38250.28
538.114	38220.22
538.479	38340.45
538.845	38588.58
539.21	38489.6
539.575	38652.53
539.94	38939.08
540.305	39123.02
540.67	39109.69
541.034	39171.16
541.399	39443.47
541.764	39603.01
542.129	39614.99
542.494	39878.49
542.858	39951.48
543.223	39832.38
543.587	40195.99
543.952	40144.24
544.316	40416.32
544.681	40424.69
545.045	40675.53
545.41	40850.21
545.774	40979.7
546.138	40950.77
546.503	41227.6
546.867	41240.03
547.231	41626.24
547.595	41702.84
547.959	41826.68
548.324	41926.57
548.688	41980.8
549.052	42135.83
549.416	42248.59
549.779	42214.47
550.143	42424.41
550.507	42609.94
550.871	42764.29
551.235	42785.98
551.599	43223.71
551.962	43306.87
552.326	43432.29
552.689	43471.61
553.053	43385.06
553.417	43612.62
553.78	44111.59
554.143	43972.84
554.507	44168.99
554.87	44316.33
555.234	44777.11
555.597	44551.58
555.96	44832.93
556.323	44810.11
556.686	45048.52
557.05	45354.95
557.413	45195.18
557.776	45442.18
558.139	45721.27
558.502	45744.77
558.865	45966.23
559.228	46224.53
559.59	46226.79
559.953	46529.84
560.316	46948.13
560.679	46653.67
561.041	47198.07
561.404	47244.62
561.767	47428.12
562.129	47362.36
562.492	47768.45
562.854	47763.93
563.217	47844.6
563.579	48041.66
563.941	48139.06
564.304	48417.02
564.666	48715.09
565.028	48747.4
565.39	48740.17
565.753	49042.54
566.115	49028.3
566.477	49380.16
566.839	49266.04
567.201	49600.04
567.563	49643.43
567.925	49991.21
568.287	49923.42
568.648	49995.96
569.01	50170.87
569.372	50329.74
569.734	50312.34
570.095	50573.57
570.457	50658.77
570.819	50715.71
571.18	50896.05
571.542	50966.78
571.903	51108.47
572.265	51257.85
572.626	51188.92
572.987	51272.08
573.349	51475.47
573.71	51577.84
574.071	51659.19
574.432	51836.14
574.794	51944.38
575.155	51901.67
575.516	51919.98
575.877	51992.74
576.238	52035.23
576.599	52288.1
576.96	52259.85
577.32	52354.54
577.681	52407.42
578.042	52571.48
578.403	52423.69
578.763	52520.64
579.124	52474.54
579.485	52755.21
579.845	52777.13
580.206	52757.47
580.566	52751.14
580.927	52784.36
581.287	52918.37
581.648	52829.78
582.008	52939.16
582.368	52877.47
582.728	52994.07
583.089	52936.45
583.449	52965.37
583.809	52973.73
584.169	53043.56
584.529	52959.95
584.889	53171.7
585.249	53020.51
585.609	53047.86
585.969	53117.69
586.329	53081.75
586.688	53204.01
587.048	53105.03
587.408	53039.5
587.768	53158.81
588.127	53217.34
588.487	53068.2
588.846	53223.22
589.206	53098.02
589.565	53072.26
589.925	53208.98
590.284	52996.11
590.643	53201.75
591.003	53295.99
591.362	53333.72
591.721	53317.23
592.08	53278.81
592.44	53333.05
592.799	53353.39
593.158	53279.26
593.517	53347.74
593.876	53385.25
594.235	53299.38
594.593	53337.79
594.952	53401.75
595.311	53244.24
595.67	53284.23
596.029	53493.27
596.387	53415.98
596.746	53421.41
597.104	53341.63
597.463	53341.63
597.822	53415.98
598.18	53396.55
598.538	53323.33
598.897	53522.19
599.255	53331.69
599.613	53770.32
599.972	53513.38
600.33	53686.26
600.688	53574.85
601.046	53628.18
601.404	53702.98
601.762	53620.72
602.12	53755.41
602.478	53846.03
602.836	53722.87
603.194	53586.15
603.552	53653.26
603.91	53616.66
604.268	53713.15
604.625	53579.14
604.983	53753.6
605.341	53626.15
605.698	53789.08
606.056	53883.31
606.413	53779.36
606.771	53890.77
607.128	53863.88
607.485	53792.7
607.843	53914.5
608.2	54073.14
608.557	54124.21
608.914	53960.37
609.272	54135.29
609.629	54195.62
609.986	54244.89
610.343	54122.86
610.7	54300.7
611.057	54310.87
611.414	54258.9
611.771	54257.32
612.127	54393.81
612.484	54457.09
612.841	54351.33
613.198	54372.34
613.554	54366.01
613.911	54492.34
614.267	54475.16
614.624	54422.28
614.98	54504.09
615.337	54573.92
615.693	54640.81
616.05	54447.59
616.406	54728.49
616.762	54620.92
617.118	54590.19
617.475	54546.12
617.831	54693.24
618.187	54650.75
618.543	54722.16
618.899	54814.14
619.255	54684.88
619.611	54754.48
619.967	54847.81
620.323	54826.57
620.678	54681.71
621.034	54738.43
621.39	54718.55
621.746	54694.37
622.101	54912.89
622.457	54588.83
622.812	54730.98
623.168	54723.97
623.523	54794.48
623.879	54881.93
624.234	54622.05
624.589	54669.96
624.945	54764.2
625.3	54787.7
625.655	54725.1
626.01	54725.55
626.365	54688.27
626.72	54737.08
627.075	54690.98
627.43	54753.8
627.785	54572.56
628.14	54620.02
628.495	54704.31
628.85	54567.36
629.205	54541.15
629.559	54734.14
629.914	54499.12
630.269	54566.91
630.623	54395.17
630.978	54288.95
631.332	54437.65
631.687	54520.81
632.041	54351.55
632.396	54411.21
632.75	54303.64
633.104	54371.44
633.459	54183.19
633.813	54199.69
634.167	54214.38
634.521	54102.07
634.875	54150.43
635.229	54042.18
635.583	54025.91
635.937	53947.27
636.291	53894.61
636.645	53977.78
636.999	53831.34
637.352	53906.59
637.706	53745.69
638.06	53800.83
638.413	53762.87
638.767	53656.2
639.121	53675.64
639.474	53531.46
639.828	53569.2
640.181	53650.1
640.534	53514.51
640.888	53488.52
641.241	53412.37
641.594	53477.22
641.947	53489.2
642.301	53376.66
642.654	53332.59
643.007	53375.53
643.36	53412.37
643.713	53246.95
644.066	53435.87
644.419	53145.71
644.771	52917.46
645.124	52663.01
645.477	52594.76
645.83	52350.25
646.182	52263.24
646.535	52164.26
646.888	52305.28
647.24	52031.84
647.593	52291.94
647.945	52186.18
648.298	51981.9
648.65	52056.02
649.002	51891.73
649.355	52002.23
649.707	51924.95
650.059	52017.38
650.411	52473.41
650.763	52407.2
651.115	52759.05
651.467	52540.53
651.819	52589.34
652.171	52516.8
652.523	52458.49
652.875	52472.5
653.227	52349.57
653.578	52606.74
653.93	52487.65
654.282	52262.57
654.633	52228.67
654.985	52199.07
655.337	52261.66
655.688	52254.43
656.039	52329.91
656.391	52016.02
656.742	52053.31
657.094	51995.23
657.445	52096.47
657.796	52040.88
658.147	51902.35
658.498	51889.92
658.849	51997.49
659.2	51938.06
659.551	51803.14
659.902	51896.25
660.253	51875.23
660.604	51892.86
660.955	51660.32
661.306	51761.56
661.656	51781.68
662.007	51637.5
662.358	51641.57
662.708	51583.26
663.059	51599.76
663.409	51405.87
663.76	51706.2
664.11	51648.8
664.461	51678.85
664.811	51526.31
665.161	51584.39
665.511	51449.93
665.862	51440.89
666.212	51471.4
666.562	51560.44
666.912	51425.75
667.262	51420.78
667.612	51260.78
667.962	51354.79
668.312	51336.49
668.662	51492.19
669.011	51241.58
669.361	51253.55
669.711	51343.27
670.06	51261.01
670.41	51083.61
670.76	51092.88
671.109	51211.75
671.459	51103.95
671.808	51043.16
672.157	51219.66
672.507	50992.77
672.856	51027.34
673.205	50977.18
673.554	50977.85
673.904	50891.53
674.253	50959.1
674.602	50958.65
674.951	50428.26
675.3	50100.14
675.649	50768.14
675.998	50683.85
676.346	50620.35
676.695	50883.62
677.044	50587.58
677.393	50601.59
677.741	50575.61
678.09	50595.94
678.438	50392.56
678.787	50504.65
679.135	50471.2
679.484	50227.14
679.832	50348.49
680.181	50025.56
680.529	50232.56
680.877	50062.4
681.225	50078.9
681.573	50191.21
681.922	49864.66
682.27	49892.91
682.618	49857.88
682.966	49730.66
683.314	49908.73
683.661	49669.19
684.009	49473.71
684.357	49444.56
684.705	49472.36
685.053	49429.65
685.4	49313.49
685.748	49018.36
686.095	49153.04
686.443	48949.43
686.79	48971.58
687.138	49019.94
687.485	48948.76
687.832	48824.24
688.18	48861.3
688.527	48598.26
688.874	48573.85
689.221	48398.26
689.568	48404.14
689.915	48230.13
690.262	48158.27
690.609	48041.21
690.956	47928.9
691.303	47967.99
691.65	47587.44
691.997	47725.96
692.344	47511.96
692.69	47430.6
693.037	47307.89
693.383	47134.11
693.73	47226.99
694.077	46984.51
694.423	46997.62
694.769	46805.99
695.116	46678.98
695.462	46566.22
695.808	46490.29
696.155	46664.52
696.501	46172.11
696.847	46310.18
697.193	45981.6
697.539	46154.25
697.885	45741.38
698.231	45689.41
698.577	45758.33
698.923	45521.73
699.269	45283.99
699.614	45169.65
699.96	45160.15
700.306	45055.75
700.651	44913.38
700.997	44800.84
701.342	44639.26
701.688	44596.78
702.033	44488.53
702.379	44335.09
702.724	44347.07
703.069	44350.91
703.415	43988.43
703.76	43735.11
704.105	43784.82
704.45	43770.59
704.795	43643.81
705.14	43421.22
705.485	43395
705.83	43216.93
706.175	43298.51
706.52	43261.9
706.865	43026.88
707.209	42877.5
707.554	42807.67
707.899	42926.54
708.243	42618.3
708.588	42577.62
708.932	42357.74
709.277	42301.25
709.621	42367.01
709.966	42061.48
710.31	42192.77
710.654	41935.15
710.998	41981.93
711.342	41920.47
711.687	41656.29
712.031	41499.69
712.375	41449.52
712.719	41517.99
713.063	41450.87
713.407	41536.52
713.75	41110.77
714.094	41290.65
714.438	41015.4
714.782	41034.84
715.125	40871.45
715.469	40970.89
715.812	40623.55
716.156	40514.4
716.499	40526.38
716.843	40679.59
717.186	40215.65
717.53	40331.58
717.873	40418.13
718.216	40346.5
718.559	40139.27
718.902	39763.91
719.246	39826.51
719.589	39797.13
719.932	39700.41
720.275	39625.38
720.617	39483.92
720.96	39467.87
721.303	39383.58
721.646	39520.3
721.989	39120.09
722.331	39281.44
722.674	39085.51
723.016	39066.08
723.359	39066.76
723.701	39093.42
724.044	38754.22
724.386	38690.72
724.729	38795.12
725.071	38633.32
725.413	38597.84
725.755	38632.64
726.097	38420.67
726.439	38187.91
726.782	38182.03
727.124	38210.28
727.465	37922.15
727.807	38016.39
728.149	37851.42
728.491	37824.53
728.833	37817.97
729.175	37686.68
729.516	37655.94
729.858	37489.4
730.199	37595.16
730.541	37434.03
730.882	37373.69
731.224	37506.34
731.565	37008.96
731.906	37137.77
732.248	37159.91
732.589	36984.32
732.93	36873.59
733.271	36917.43
733.612	36936.42
733.953	36690.77
734.294	36803.76
734.635	36534.62
734.976	36723.31
735.317	36429.76
735.658	36452.13
735.999	36346.37
736.339	36292.14
736.68	36393.15
737.021	36225.7
737.361	36149.77
737.702	36317.68
738.042	36122.65
738.383	36011.47
738.723	35980.51
739.063	35853.51
739.404	35883.11
739.744	35682.21
740.084	35632.04
740.424	35565.6
740.764	35385.72
741.104	35664.36
741.444	35413.74
741.784	35132.17
742.124	35355.21
742.464	35180.76
742.804	35266.86
743.143	35119.06
743.483	35162.68
743.823	34864.61
744.162	34841.56
744.502	34844.49
744.841	34719.3
745.181	34820.54
745.52	34684.05
745.86	34670.03
746.199	34488.8
746.538	34622.35
746.877	34566.08
747.216	34621.22
747.556	34427.78
747.895	34515.24
748.234	34328.35
748.573	34258.97
748.911	34199.54
749.25	34182.82
749.589	33956.38
749.928	33977.85
750.267	34103.27
750.605	33875.71
750.944	33839.77
751.283	33644.98
751.621	33692.89
751.96	33541.48
752.298	33528.6
752.636	33664.19
752.975	33243.18
753.313	33272.56
753.651	33439.33
753.989	33084.77
754.327	33072.34
754.666	32857.65
755.004	32823.08
755.342	32947.82
755.679	32772.23
756.017	32522.07
756.355	32752.12
756.693	32536.31
757.031	32610.65
757.368	32367.95
757.706	32258.35
758.044	32240.95
758.381	32136.09
758.719	32095.19
759.056	31982.42
759.394	31908.98
759.731	31613.62
760.068	31636.22
760.405	31405.94
760.743	31432.83
761.08	31383.12
761.417	31319.84
761.754	31258.6
762.091	31205.27
762.428	31019.51
762.765	30806.86
763.102	31018.15
763.438	30771.83
763.775	30645.28
764.112	30634.89
764.449	30558.05
764.785	30427.89
765.122	30111.51
765.458	30214.56
765.795	30125.52
766.131	30171.62
766.467	29928.46
766.804	29845.98
767.14	29665.65
767.476	29553.79
767.812	29392.89
768.148	29504.97
768.485	29307.46
768.821	29057.75
769.157	28961.94
769.492	28936.63
769.828	28936.63
770.164	28743.64
770.5	28651.66
770.836	28598.78
771.171	28297.55
771.507	28356.08
771.842	28164.9
772.178	28147.27
772.513	28064.11
772.849	27942.53
773.184	27770.33
773.519	27787.96
773.855	27613.95
774.19	27546.83
774.525	27431.13
774.86	27485.59
775.195	27255.77
775.53	27202.43
775.865	27005.6
776.2	26928.09
776.535	26731.49
776.87	26766.74
777.205	26534.66
777.539	26337.6
777.874	26551.6
778.209	26336.92
778.543	26226.87
778.878	26118.4
779.212	26062.35
779.547	25757.5
779.881	26055.12
780.215	25699.42
780.55	25872.53
780.884	25562.03
781.218	25496.49
781.552	25458.75
781.886	25320.9
782.22	25228.48
782.554	25149.38
782.888	24852.89
783.222	24781.93
783.556	24725.89
783.889	24627.36
784.223	24619.9
784.557	24499.23
784.89	24433.24
785.224	24303.75
785.557	24185.56
785.891	24108.96
786.224	23889.98
786.558	23994.84
786.891	23719.14
787.224	23760.94
787.557	23531.8
787.891	23567.73
788.224	23387.62
788.557	23475.3
788.89	23320.95
789.223	23314.18
789.556	23093.39
789.888	23003.67
790.221	22907.41
790.554	22745.38
790.887	22729.56
791.219	22577.25
791.552	22609.56
791.884	22401.2
792.217	22406.18
792.549	22231.27
792.882	22240.08
793.214	22135.9
793.546	22190.14
793.879	21960.76
794.211	21896.36
794.543	21805.06
794.875	21835.8
795.207	21833.76
795.539	21735.69
795.871	21627.67
796.203	21444.17
796.535	21445.75
796.867	21442.81
797.198	21327.11
797.53	21230.39
797.862	21092.54
798.193	21118.07
798.525	21065.19
798.856	21106.78
799.188	20828.82
799.519	20785.43
799.85	20645.54
800.182	20774.13
800.513	20631.08
800.844	20454.82
801.175	20613.46
801.506	20581.37
801.837	20403.74
802.168	20252.11
802.499	20241.26
802.83	20088.5
803.161	20055.96
803.491	20052.11
803.822	19946.13
804.153	19919.69
804.483	19816.19
804.814	19640.6
805.145	19624.55
805.475	19645.57
805.805	19501.85
806.136	19535.74
806.466	19577.1
806.796	19474.05
807.126	19404.67
807.457	19244.9
807.787	19308.86
808.117	19121.97
808.447	19082.42
808.777	19177.11
809.107	19101.63
809.436	19100.05
809.766	19015.53
810.096	18993.84
810.426	18990
810.755	18932.82
811.085	18812.37
811.414	18899.83
811.744	18612.15
812.073	18635.2
812.403	18574.19
812.732	18502.1
813.061	18479.27
813.39	18397.24
813.719	18276.57
814.049	18494.41
814.378	18361.76
814.707	18150.7
815.036	18220.52
815.365	18110.7
815.693	17964.71
816.022	17977.82
816.351	17907.99
816.68	17839.74
817.008	17940.31
817.337	17756.81
817.665	17812.4
817.994	17820.76
818.322	17790.25
818.651	17679.52
818.979	17541.67
819.307	17657.15
819.636	17551.61
819.964	17396.14
820.292	17530.6
820.62	17353.2
820.948	17398.17
821.276	17400.66
821.604	17443.14
821.932	17416.93
822.259	17372.86
822.587	17337.38
822.915	17278.18
823.243	17387.78
823.57	17249.7
823.898	17276.82
824.225	17296.93
824.553	17231.62
824.88	17263.26
825.207	17264.62
825.535	17160.89
825.862	17181.23
826.189	17163.83
826.516	17271.4
826.843	17300.1
827.17	17286.99
827.497	17264.39
827.824	17237.27
828.151	17312.98
828.478	17211.74
828.805	17258.97
829.131	17154.79
829.458	17106.43
829.785	17189.36
830.111	17144.17
830.438	17178.97
830.764	17072.31
831.09	17112.98
831.417	16978.75
831.743	17246.76
832.069	17089.93
832.395	17031.4
832.722	17049.93
833.048	16965.42
833.374	16998.18
833.7	16903.95
834.026	16899.2
834.351	17014.68
834.677	16933.33
835.003	16905.08
835.329	16837.06
835.654	16852.88
835.98	16667.8
836.306	16729.26
836.631	16694.46
836.956	16868.02
837.282	16751.64
837.607	16633.22
837.932	16598.65
838.258	16556.61
838.583	16544.86
838.908	16532.66
839.233	16470.29
839.558	16430.74
839.883	16406.33
840.208	16381.93
840.533	16299.67
840.858	16280.91
841.182	16324.08
841.507	16335.83
841.832	16243.85
842.156	16207.7
842.481	16176.06
842.805	16204.53
843.13	16012.9
843.454	16054.7
843.778	16042.5
844.103	15832.56
844.427	15906.46
844.751	15874.37
845.075	15799.57
845.399	15709.86
845.723	15708.95
846.047	15715.96
846.371	15566.36
846.695	15601.38
847.019	15415.17
847.343	15317.1
847.666	15353.03
847.99	15194.61
848.313	15163.2
848.637	15048.86
848.96	15090.89
849.284	15050.89
849.607	14951.01
849.931	14905.13
850.254	14853.61
850.577	14690.22
850.9	14628.75
851.223	14671.01
851.546	14537.23
851.869	14471.24
852.192	14549.43
852.515	14390.79
852.838	14303.11
853.161	14280.06
853.483	14238.71
853.806	14173.85
854.129	14204.36
854.451	14075.1
854.774	14052.5
855.096	13946.96
855.419	13973.4
855.741	13887.3
856.063	13854.54
856.385	13820.19
856.708	13723.47
857.03	13761.21
857.352	13723.01
857.674	13710.13
857.996	13691.83
858.318	13550.14
858.64	13602.79
858.961	13551.72
859.283	13368
859.605	13316.02
859.926	13453.87
860.248	13307.88
860.57	13238.06
860.891	13385.62
861.212	13195.57
861.534	13120.77
861.855	13208.23
862.176	13150.83
862.498	13099.08
862.819	13170.71
863.14	13103.37
863.461	12964.39
863.782	12950.61
864.103	12940.21
864.424	12974.79
864.745	13001.68
865.065	12856.6
865.386	12860.21
865.707	12848.91
866.027	12815.69
866.348	12846.43
866.668	12809.59
866.989	12762.59
867.309	12714.91
867.63	12721.46
867.95	12730.27
868.27	12611.18
868.59	12599.43
868.91	12574.57
869.23	12695.02
869.55	12556.27
869.87	12602.82
870.19	12466.78
870.51	12524.18
870.83	12463.16
871.15	12414.8
871.469	12487.57
871.789	12474.91
872.109	12454.12
872.428	12367.12
872.748	12339.77
873.067	12268.14
873.386	12362.6
873.706	12233.56
874.025	12287.12
874.344	12246.22
874.663	12205.99
874.982	12159.21
875.301	12157.86
875.62	12121.48
875.939	12172.77
876.258	12095.04
876.577	12023.17
876.896	12024.08
877.214	12044.19
877.533	11970.07
877.852	11929.39
878.17	11916.28
878.489	11980.46
878.807	11970.07
879.125	11976.85
879.444	12012.78
879.762	11859.34
880.08	11867.24
880.398	11815.04
880.716	11891.88
881.034	11752.22
881.352	11819.34
881.67	11731.88
881.988	11721.49
882.306	11690.53
882.624	11650.53
882.941	11631.09
883.259	11532.56
883.577	11535.95
883.894	11499.12
884.212	11494.37
884.529	11512
884.846	11454.15
885.164	11446.24
885.481	11331.44
885.798	11362.62
886.115	11287.6
886.432	11269.75
886.75	11232.01
887.067	11240.37
887.383	11159.01
887.7	11168.28
888.017	11160.82
888.334	11136.87
888.651	11155.62
888.967	11110.88
889.284	11111.78
889.6	10979.81
889.917	10876.31
890.233	10998.57
890.55	10909.53
890.866	10954.5
891.182	10831.34
891.498	10803.54
891.815	10810.55
892.131	10680.83
892.447	10668.63
892.763	10653.27
893.079	10662.08
893.395	10617.56
893.71	10519.71
894.026	10508.64
894.342	10513.38
894.657	10440.16
894.973	10454.17
895.289	10404.91
895.604	10405.36
895.92	10289.88
896.235	10179.61
896.55	10246.27
896.865	10182.54
897.181	10139.83
897.496	10135.76
897.811	10102.09
898.126	10044.69
898.441	9975.32
898.756	9932.38
899.071	9882.44
899.386	9970.35
899.7	9867.97
900.015	9811.71
900.33	9712.05
900.644	9767.41
900.959	9763.8
901.273	9685.61
901.588	9608.09
901.902	9569.9
902.216	9510.47
902.531	9551.15
902.845	9466.86
903.159	9407.65
903.473	9396.12
903.787	9346.63
904.101	9392.06
904.415	9295.11
904.729	9311.15
905.042	9248.1
905.356	9198.61
905.67	9185.28
905.984	9199.07
906.297	9093.31
906.611	9060.54
906.924	8995.91
907.237	9055.12
907.551	8970.15
907.864	8884.95
908.177	8917.72
908.491	8883.37
908.804	8844.73
909.117	8736.03
909.43	8755.24
909.743	8678.4
910.056	8695.8
910.368	8657.16
910.681	8596.14
910.994	8521.8
911.307	8550.27
911.619	8458.97
911.932	8487.9
912.244	8303.5
912.557	8382.59
912.869	8351.86
913.181	8273.44
913.494	8244.06
913.806	8247
914.118	8170.62
914.43	8232.76
914.742	8208.58
915.054	8082.71
915.366	8060.11
915.678	7976.05
915.99	8040.68
916.302	8000.68
916.613	7923.17
916.925	7966.56
917.236	7904.18
917.548	7829.61
917.859	7908.25
918.171	7722.72
918.482	7756.17
918.794	7770.4
919.105	7678.65
919.416	7643.85
919.727	7605.89
920.038	7622.38
920.349	7544.19
920.66	7477.53
920.971	7524.31
921.282	7460.81
921.593	7390.3
921.903	7369.28
922.214	7317.99
922.525	7318.66
922.835	7277.76
923.146	7230.53
923.456	7195.5
923.767	7148.5
924.077	7146.01
924.387	7108.73
924.697	7140.82
925.008	7042.96
925.318	6996.41
925.628	7017.43
925.938	6984.66
926.248	6884.32
926.558	6862.4
926.867	6858.56
927.177	6844.1
927.487	6820.37
927.796	6778.34
928.106	6730.2
928.416	6717.78
928.725	6704.22
929.034	6654.5
929.344	6681.39
929.653	6660.6
929.962	6572.02
930.271	6524.56
930.581	6525.24
930.89	6472.81
931.199	6495.86
931.508	6450.66
931.817	6443.88
932.125	6401.63
932.434	6411.34
932.743	6305.58
933.051	6289.76
933.36	6240.95
933.669	6240.5
933.977	6183.55
934.286	6207.96
934.594	6184.68
934.902	6094.97
935.21	6077.34
935.519	6042.54
935.827	6084.8
936.135	5993.5
936.443	5956.44
936.751	5920.28
937.059	5931.81
937.367	5833.05
937.674	5862.88
937.982	5833.5
938.29	5789.44
938.597	5807.52
938.905	5720.06
939.213	5712.6
939.52	5707.63
939.827	5711.47
940.135	5624.47
940.442	5634.87
940.749	5595.09
941.056	5619.05
941.363	5518.03
941.67	5562.1
941.977	5460.86
942.284	5433.97
942.591	5383.35
942.898	5408.21
943.205	5428.54
943.511	5398.94
943.818	5328.21
944.125	5274.65
944.431	5301.32
944.738	5247.76
945.044	5300.64
945.35	5218.38
945.657	5178.83
945.963	5210.47
946.269	5137.7
946.575	5206.4
946.881	5106.07
947.187	5088.89
947.493	5070.59
947.799	5018.84
948.105	4980.19
948.41	4995.79
948.716	4959.18
949.022	4900.87
949.327	4961.66
949.633	4883.47
949.938	4883.7
950.244	4864.04
950.549	4847.09
950.854	4822.91
951.16	4810.48
951.465	4758.96
951.77	4762.8
952.075	4715.34
952.38	4712.63
952.685	4726.19
952.99	4705.4
953.294	4635.57
953.599	4608.9
953.904	4566.42
954.209	4573.42
954.513	4643.71
954.818	4525.06
955.122	4511.96
955.426	4479.64
955.731	4492.07
956.035	4434.22
956.339	4431.51
956.643	4444.84
956.948	4408.68
957.252	4380.89
957.556	4327.56
957.86	4366.42
958.163	4298.4
958.467	4297.05
958.771	4292.3
959.075	4255.69
959.378	4234.22
959.682	4224.28
959.985	4217.28
960.289	4198.75
960.592	4152.19
960.896	4165.75
961.199	4132.53
961.502	4132.76
961.805	4114
962.108	4044.4
962.411	4080.1
962.714	4020.45
963.017	4041.01
963.32	4041.91
963.623	3989.94
963.926	3968.02
964.228	3954.23
964.531	3959.2
964.833	3924.4
965.136	3869.71
965.438	3888.47
965.741	3873.33
966.043	3842.37
966.345	3791.98
966.648	3806.21
966.95	3815.48
967.252	3775.71
967.554	3771.41
967.856	3737.74
968.158	3728.93
968.46	3671.75
968.761	3678.76
969.063	3691.64
969.365	3653
969.666	3647.8
969.968	3642.38
970.269	3621.13
970.571	3611.19
970.872	3577.97
971.174	3537.29
971.475	3540.23
971.776	3520.57
972.077	3513.57
972.378	3537.75
972.679	3543.4
972.98	3504.98
973.281	3478.76
973.582	3454.81
973.883	3418.43
974.183	3407.58
974.484	3398.99
974.785	3360.35
975.085	3359.45
975.386	3377.98
975.686	3323.29
975.986	3325.55
976.287	3362.16
976.587	3307.24
976.887	3282.61
977.187	3339.33
977.487	3284.42
977.787	3210.75
978.087	3234.93
978.387	3229.96
978.687	3228.83
978.987	3205.33
979.286	3217.08
979.586	3187.92
979.885	3141.6
980.185	3124.65
980.484	3117.19
980.784	3129.85
981.083	3108.15
981.382	3101.83
981.682	3083.75
981.981	3035.39
982.28	3055.05
982.579	3019.34
982.878	3027.48
983.177	3018.21
983.475	3004.88
983.774	2947.7
984.073	2934.15
984.372	2930.3
984.67	2920.81
984.969	2920.14
985.267	2853.02
985.566	2933.69
985.864	2864.09
986.162	2860.02
986.461	2853.47
986.759	2834.26
987.057	2809.4
987.355	2831.32
987.653	2813.02
987.951	2761.72
988.249	2749.97
988.547	2742.74
988.844	2720.37
989.142	2769.63
989.44	2681.95
989.737	2667.03
990.035	2640.14
990.332	2714.49
990.63	2679.01
990.927	2652.35
991.224	2636.75
991.521	2632.01
991.819	2624.32
992.116	2574.83
992.413	2611.67
992.71	2548.62
993.006	2582.52
993.303	2514.04
993.6	2544.78
993.897	2527.15
994.193	2513.14
994.49	2490.77
994.787	2475.63
995.083	2478.56
995.379	2465.01
995.676	2485.8
995.972	2428.85
996.268	2408.74
996.565	2426.59
996.861	2411.9
997.157	2409.41
997.453	2370.77
997.749	2366.7
998.044	2370.32
998.34	2343.2
998.636	2311.11
998.932	2337.33
999.227	2284.67
999.523	2291.68
999.818	2269.98
1000.114	2249.87
1000.409	2252.13
1000.704	2218.01
1001	2225.01
1001.295	2217.55
1001.59	2232.7
1001.885	2191.79
1002.18	2176.65
1002.475	2159.7
1002.77	2175.3
1003.065	2114.05
1003.359	2110.66
1003.654	2114.73
1003.949	2096.2
1004.243	2099.59
1004.538	2068.63
1004.832	2035.41
1005.127	2029.54
1005.421	2039.93
1005.715	2020.27
1006.009	2012.36
1006.304	1994.74
1006.598	1994.28
1006.892	1965.58
1007.186	1978.92
1007.48	1944.12
1007.773	1971.01
1008.067	1942.53
1008.361	1910.44
1008.655	1897.34
1008.948	1875.19
1009.242	1895.53
1009.535	1870.67
1009.829	1853.5
1010.122	1860.95
1010.415	1837.23
1010.708	1835.42
1011.001	1785.02
1011.295	1829.54
1011.588	1767.4
1011.881	1787.06
1012.173	1773.05
1012.466	1754.74
1012.759	1765.59
1013.052	1751.8
1013.344	1726.49
1013.637	1719.04
1013.93	1705.03
1014.222	1723.56
1014.514	1700.28
1014.807	1688.08
1015.099	1665.7
1015.391	1660.73
1015.683	1677
1015.976	1647.17
1016.268	1618.7
1016.56	1622.54
1016.851	1625.03
1017.143	1619.6
1017.435	1603.33
1017.727	1575.76
1018.018	1571.47
1018.31	1571.47
1018.602	1558.14
1018.893	1518.36
1019.185	1531.25
1019.476	1481.3
1019.767	1514.97
1020.058	1504.35
1020.35	1503.22
1020.641	1478.82
1020.932	1457.57
1021.223	1467.07
1021.514	1481.3
1021.804	1447.63
1022.095	1416.9
1022.386	1431.59
1022.677	1411.25
1022.967	1391.59
1023.258	1379.61
1023.548	1369.67
1023.839	1368.54
1024.129	1364.7
1024.419	1362.21
1024.709	1335.54
1025	1349.33
1025.29	1321.53
1025.58	1292.38
1025.87	1310.91
1026.16	1280.86
1026.449	1314.3
1026.739	1293.96
1027.029	1282.89
1027.319	1252.38
1027.608	1268.88
1027.898	1223.91
1028.187	1224.13
1028.477	1227.75
1028.766	1213.29
1029.055	1232.95
1029.344	1194.76
1029.634	1171.25
1029.923	1201.54
1030.212	1192.5
1030.501	1167.64
1030.79	1164.25
1031.078	1150.01
1031.367	1115.21
1031.656	1156.34
1031.945	1147.07
1032.233	1120.18
1032.522	1112.5
1032.81	1105.04
1033.099	1112.72
1033.387	1131.71
1033.675	1107.08
1033.963	1087.87
1034.251	1098.71
1034.54	1077.02
1034.828	1079.05
1035.116	1040.41
1035.403	1053.07
1035.691	1073.63
1035.979	1052.84
1036.267	1022.33
1036.554	999.51
1036.842	1003.12
1037.129	1032.73
1037.417	979.17
1037.704	1017.13
1037.992	988.43
1038.279	966.74
1038.566	960.19
1038.853	960.19
1039.14	960.19
