Data from white_wall_FLMS001491_007.txt Node
Date: Tue Feb 07 11:03:12 GMT 2017
User: dcchb
Spectrometer: FLMS00149
Trigger mode: 0
Integration Time (sec): 2.000000E-2
Scans to average: 10
Electric dark correction enabled: true
Nonlinearity correction enabled: false
Boxcar width: 0
XAxis mode: Wavelengths
Number of Pixels in Spectrum: 2048
>>>>>Begin Spectral Data<<<<<
341.393	-5.44
341.776	-5.44
342.16	-5.44
342.543	-48.83
342.927	-68.03
343.31	-65.1
343.693	-59.22
344.077	-64.87
344.46	-52.22
344.843	-54.7
345.226	-60.13
345.61	-29.62
345.993	-20.8
346.376	-4.53
346.759	21.45
347.142	37.72
347.525	34.79
347.908	43.83
348.291	69.36
348.674	87.44
349.057	116.59
349.44	127.21
349.823	143.71
350.206	182.81
350.588	201.11
350.971	228.68
351.354	252.41
351.737	275.23
352.119	259.87
352.502	292.86
352.884	291.73
353.267	313.2
353.65	316.59
354.032	310.03
354.414	311.39
354.797	328.56
355.179	327.66
355.562	338.73
355.944	352.07
356.326	348.23
356.709	353.87
357.091	357.26
357.473	358.39
357.855	359.75
358.238	346.87
358.62	371.28
359.002	373.08
359.384	356.59
359.766	355.23
360.148	359.75
360.53	338.51
360.912	367.21
361.294	369.47
361.676	364.72
362.057	346.42
362.439	382.57
362.821	338.06
363.203	340.54
363.584	350.26
363.966	355.46
364.348	340.32
364.729	349.58
365.111	331.5
365.493	352.74
365.874	330.15
366.256	346.64
366.637	340.32
367.019	344.16
367.4	348.23
367.781	345.06
368.163	362.24
368.544	350.49
368.925	343.03
369.306	347.77
369.688	341.45
370.069	349.81
370.45	342.58
370.831	337.15
371.212	351.62
371.593	344.38
371.974	369.02
372.355	344.61
372.736	360.43
373.117	363.14
373.498	328.11
373.879	353.2
374.26	374.67
374.641	337.83
375.021	338.73
375.402	334.89
375.783	375.8
376.163	358.62
376.544	387.32
376.925	371.05
377.305	358.17
377.686	385.51
378.066	368.79
378.447	382.8
378.827	353.2
379.208	363.59
379.588	357.04
379.968	366.98
380.349	374.89
380.729	376.25
381.109	378.96
381.489	386.87
381.87	376.25
382.25	385.51
382.63	377.6
383.01	371.73
383.39	391.84
383.77	404.5
384.15	381.44
384.53	406.3
384.91	391.84
385.29	415.57
385.67	408.56
386.049	432.06
386.429	406.3
386.809	423.7
387.189	413.76
387.568	406.08
387.948	428
388.328	407.43
388.707	436.13
389.087	434.55
389.466	438.17
389.846	437.26
390.225	447.43
390.605	448.56
390.984	463.02
391.363	477.71
391.743	478.62
392.122	486.07
392.501	491.05
392.881	507.09
393.26	493.08
393.639	487.43
394.018	511.61
394.397	526.98
394.776	529.92
395.155	525.85
395.534	532.63
395.913	553.87
396.292	545.28
396.671	587.09
397.05	573.76
397.429	583.25
397.808	587.09
398.186	600.42
398.565	628.9
398.944	644.04
399.323	636.35
399.701	617.37
400.08	656.47
400.458	663.47
400.837	694.43
401.215	688.78
401.594	680.42
401.972	680.65
402.351	712.74
402.729	734.88
403.107	739.4
403.486	761.77
403.864	771.72
404.242	770.14
404.62	809
404.999	817.37
405.377	812.17
405.755	857.82
406.133	847.87
406.511	874.54
406.889	911.15
407.267	885.39
407.645	902.79
408.023	911.37
408.401	940.75
408.779	970.36
409.156	980.98
409.534	986.85
409.912	1015.33
410.29	1024.82
410.667	1073.86
411.045	1066.4
411.422	1105.95
411.8	1087.64
412.178	1148.66
412.555	1150.24
412.933	1155.44
413.31	1156.11
413.687	1210.35
414.065	1196.79
414.442	1216
414.819	1217.13
415.197	1269.56
415.574	1293.51
415.951	1289.22
416.328	1308.65
416.705	1341.19
417.082	1343
417.46	1377.58
417.837	1380.74
418.214	1405.37
418.591	1391.14
418.967	1421.64
419.344	1476.56
419.721	1441.98
420.098	1444.24
420.475	1458.93
420.852	1477.91
421.228	1513.17
421.605	1549.1
421.982	1565.59
422.358	1593.39
422.735	1571.24
423.111	1614.86
423.488	1617.12
423.864	1650.34
424.241	1678.36
424.617	1677.91
424.994	1687.85
425.37	1726.95
425.746	1713.16
426.123	1730.34
426.499	1763.1
426.875	1773.5
427.251	1826.15
427.627	1846.04
428.003	1865.47
428.379	1861.18
428.756	1906.83
429.132	1916.55
429.507	1988.86
429.883	1982.98
430.259	2031.12
430.635	2032.7
431.011	2085.81
431.387	2099.37
431.763	2124.9
432.138	2127.39
432.514	2204.45
432.89	2186.82
433.265	2267.5
433.641	2275.41
434.016	2293.71
434.392	2319.47
434.767	2383.65
435.143	2385.69
435.518	2406.25
435.894	2412.8
436.269	2454.84
436.644	2531.67
437.02	2505
437.395	2545.46
437.77	2579.58
438.145	2651.44
438.52	2685.34
438.895	2728.5
439.271	2693.02
439.646	2774.6
440.021	2783.19
440.395	2756.52
440.77	2732.34
441.145	2797.65
441.52	2849.63
441.895	2835.17
442.27	2909.97
442.645	2919.23
443.019	2954.26
443.394	2952.9
443.769	2995.61
444.143	2942.06
444.518	3059.34
444.892	3024.77
445.267	3083.29
445.641	3089.4
446.016	3100.92
446.39	3140.69
446.764	3167.13
447.139	3151.77
447.513	3221.6
447.887	3179.34
448.262	3281.71
448.636	3269.28
449.01	3309.05
449.384	3373
449.758	3377.52
450.132	3422.49
450.506	3440.57
450.88	3503.17
451.254	3497.97
451.628	3518.09
452.002	3558.31
452.376	3627.46
452.75	3665.2
453.123	3685.54
453.497	3735.71
453.871	3742.03
454.244	3826.55
454.618	3862.94
454.992	3931.18
455.365	3882.6
455.739	4050.5
456.112	4065.42
456.486	4091.86
456.859	4137.96
457.232	4235.81
457.606	4186.99
457.979	4268.12
458.352	4341.11
458.725	4442.58
459.099	4478.06
459.472	4573.88
459.845	4601.67
460.218	4659.3
460.591	4693.42
460.964	4702.91
461.337	4844.83
461.71	4890.48
462.083	4993.75
462.456	5012.28
462.829	5062.68
463.201	5142.22
463.574	5174.54
463.947	5203.46
464.32	5341.31
464.692	5443.46
465.065	5454.98
465.438	5487.3
465.81	5563.46
466.183	5695.66
466.555	5779.27
466.928	5799.83
467.3	5824.24
467.672	5877.8
468.045	6073.95
468.417	6097.45
468.789	6155.08
469.161	6249.77
469.534	6372.02
469.906	6508.74
470.278	6531.57
470.65	6635.07
471.022	6740.15
471.394	6888.62
471.766	6919.13
472.138	7037.77
472.51	7234.82
472.882	7318.21
473.253	7446.34
473.625	7536.06
473.997	7659.22
474.369	7801.59
474.74	7846.56
475.112	7965.43
475.484	8164.97
475.855	8262.37
476.227	8377.39
476.598	8582.13
476.97	8621
477.341	8875.68
477.713	9037.26
478.084	9101.89
478.455	9355.45
478.827	9423.47
479.198	9698.26
479.569	9707.75
479.94	9952.04
480.311	9998.59
480.682	10294.4
481.053	10490.11
481.424	10709.31
481.795	10871.79
482.166	10978
482.537	11143.2
482.908	11376.86
483.279	11504.99
483.65	11696.4
484.021	12019.1
484.391	12085.77
484.762	12158.31
485.133	12359.66
485.503	12534.12
485.874	12794.68
486.244	12908.12
486.615	13269.47
486.985	13335.91
487.356	13650.02
487.726	13742.22
488.097	14099.73
488.467	14114.64
488.837	14464.69
489.207	14592.37
489.578	14817.45
489.948	14947.62
490.318	15119.36
490.688	15210.89
491.058	15548.73
491.428	15741.49
491.798	15870.3
492.168	16207.47
492.538	16278.43
492.908	16478.2
493.278	16700.79
493.648	16663.95
494.017	17041.35
494.387	17192.08
494.757	17250.15
495.126	17501.22
495.496	17604.27
495.866	17733.3
496.235	17994.99
496.605	18141.88
496.974	18224.82
497.344	18401.76
497.713	18452.83
498.082	18660.51
498.452	18858.7
498.821	19020.73
499.19	19090.56
499.559	19199.26
499.928	19370.32
500.298	19563.99
500.667	19730.99
501.036	19769.86
501.405	19947.71
501.774	20026.13
502.143	20304.54
502.512	20316.74
502.88	20462.27
503.249	20580.91
503.618	20846.44
503.987	20910.17
504.356	21160.33
504.724	21343.38
505.093	21325.3
505.462	21500.44
505.83	21649.59
506.199	21835.8
506.567	22232.17
506.936	22188.1
507.304	22503.57
507.672	22590.35
508.041	22600.3
508.409	22775.66
508.777	23050
509.145	23226.04
509.514	23258.58
509.882	23374.74
510.25	23550.1
510.618	23829.19
510.986	23878.23
511.354	24095.85
511.722	24371.32
512.09	24612.22
512.458	24454.94
512.826	24855.15
513.193	25073.45
513.561	25078.42
513.929	25314.35
514.297	25645.19
514.664	25846.99
515.032	25830.95
515.4	26098.51
515.767	26286.07
516.135	26427.77
516.502	26316.13
516.869	26783.46
517.237	26921.54
517.604	26887.64
517.972	27168.31
518.339	27390.45
518.706	27552.48
519.073	27716.77
519.44	27956.99
519.808	28239.02
520.175	28308.39
520.542	28644.88
520.909	28821.15
521.276	28863.18
521.643	29138.43
522.009	29378.65
522.376	29601.47
522.743	29732.76
523.11	30099.08
523.477	30342.24
523.843	30463.59
524.21	30733.42
524.577	30991.04
524.943	31073.75
525.31	31302.89
525.676	31694.29
526.043	31838.47
526.409	31915.3
526.776	32386.03
527.142	32443.65
527.508	32691.33
527.874	32969.97
528.241	33105.56
528.607	33200.47
528.973	33598.65
529.339	33513.45
529.705	33892.88
530.071	34072.08
530.437	34214.91
530.803	34536.93
531.169	34673.42
531.535	34666.19
531.901	34899.86
532.267	35153.19
532.632	35411.71
532.998	35470.69
533.364	35510.01
533.73	35725.15
534.095	35977.34
534.461	36118.81
534.826	36378.46
535.192	36468.63
535.557	36736.65
535.923	36572.58
536.288	36834.05
536.653	37116.07
537.019	36981.61
537.384	37253.92
537.749	37311.55
538.114	37512.45
538.479	37655.49
538.845	37793.34
539.21	37818.88
539.575	38042.6
539.94	38187
540.305	38354.91
540.67	38327.34
541.034	38651.62
541.399	38750.38
541.764	38870.6
542.129	39053.42
542.494	39205.73
542.858	39343.36
543.223	39368.89
543.587	39588.1
543.952	39753.74
544.316	39855.89
544.681	39884.81
545.045	40039.16
545.41	40400.28
545.774	40413.61
546.138	40436.66
546.503	40717.33
546.867	40768.18
547.231	40978.34
547.595	41138.11
547.959	41298.34
548.324	41372.46
548.688	41532
549.052	41739.91
549.416	41775.16
549.779	42001.59
550.143	41980.8
550.507	42461.47
550.871	42476.16
551.235	42442.26
551.599	42866.2
551.962	43050.15
552.326	43067.1
552.689	43296.25
553.053	43280.88
553.417	43522.23
553.78	43868.66
554.143	43720.19
554.507	44045.61
554.87	44300.97
555.234	44658.92
555.597	44488.76
555.96	44808.3
556.323	44962.42
556.686	45007.84
557.05	45305.01
557.413	45451.9
557.776	45551.78
558.139	45938.66
558.502	46030.64
558.865	46118.55
559.228	46453.91
559.59	46546.78
559.953	46757.63
560.316	47013.66
560.679	47078.75
561.041	47291.62
561.404	47374.11
561.767	47788.79
562.129	47733.42
562.492	48054.77
562.854	48159.85
563.217	48248.66
563.579	48373.63
563.941	48617.24
564.304	48773.17
564.666	48998.7
565.028	49071.69
565.39	49249.31
565.753	49336.77
566.115	49571.56
566.477	49567.27
566.839	49766.36
567.201	49981.04
567.563	50105.79
567.925	50303.75
568.287	50351.88
568.648	50409.06
569.01	50498.32
569.372	50754.58
569.734	50747.13
570.095	50945.76
570.457	51124.52
570.819	51175.59
571.18	51237.51
571.542	51407.22
571.903	51407.45
572.265	51473.21
572.626	51609.93
572.987	51688.8
573.349	51796.82
573.71	51934.44
574.071	51985.06
574.432	52141.21
574.794	52323.81
575.155	52318.16
575.516	52204.94
575.877	52416.23
576.238	52484.26
576.599	52592.5
576.96	52637.92
577.32	52686.06
577.681	52704.14
578.042	52790.01
578.403	52792.5
578.763	52829.78
579.124	52920.85
579.485	53050.12
579.845	53088.31
580.206	52992.26
580.566	52971.02
580.927	53049.66
581.287	53173.73
581.648	53177.8
582.008	53307.28
582.368	53206.72
582.728	53366.94
583.089	53241.07
583.449	53234.74
583.809	53344.35
584.169	53388.64
584.529	53245.82
584.889	53595.19
585.249	53278.81
585.609	53248.76
585.969	53351.13
586.329	53405.81
586.688	53475.64
587.048	53352.93
587.408	53387.96
587.768	53419.6
588.127	53428.64
588.487	53333.27
588.846	53562.65
589.206	53380.96
589.565	53517
589.925	53641.06
590.284	53532.59
590.643	53534.62
591.003	53538.24
591.362	53581.4
591.721	53601.74
592.08	53584.79
592.44	53705.01
592.799	53524.91
593.158	53565.13
593.517	53638.12
593.876	53585.02
594.235	53500.95
594.593	53557
594.952	53730.55
595.311	53617.33
595.67	53616.2
596.029	53790.44
596.387	53780.72
596.746	53873.6
597.104	53715.41
597.463	53742.53
597.822	53803.54
598.18	53703.66
598.538	53722.42
598.897	53907.95
599.255	53655.98
599.613	54052.12
599.972	53848.06
600.33	53955.4
600.688	53834.95
601.046	53930.09
601.404	54062.75
601.762	54061.39
602.12	54119.24
602.478	54092.35
602.836	54107.49
603.194	54006.02
603.552	54098.45
603.91	53988.4
604.268	54133.03
604.625	54072.91
604.983	54182.52
605.341	54075.63
605.698	54266.13
606.056	54285.11
606.413	54295.73
606.771	54374.6
607.128	54442.62
607.485	54256.86
607.843	54360.36
608.2	54533.02
608.557	54525.78
608.914	54420.48
609.272	54598.1
609.629	54681.03
609.986	54782.95
610.343	54637.87
610.7	54817.98
611.057	54719.68
611.414	54702.5
611.771	54706.57
612.127	54840.13
612.484	54821.82
612.841	54865.66
613.198	54799
613.554	54871.54
613.911	55047.58
614.267	55043.96
614.624	55014.13
614.98	55005.77
615.337	55196.73
615.693	55097.52
616.05	55033.12
616.406	55329.6
616.762	55117.63
617.118	55209.38
617.475	55239.89
617.831	55312.43
618.187	55376.16
618.543	55385.2
618.899	55488.7
619.255	55434.01
619.611	55445.99
619.967	55538.19
620.323	55475.14
620.678	55377.96
621.034	55355.82
621.39	55388.81
621.746	55332.09
622.101	55715.13
622.457	55389.94
622.812	55478.98
623.168	55523.5
623.523	55560.33
623.879	55666.09
624.234	55433.1
624.589	55610.95
624.945	55652.31
625.3	55628.13
625.655	55623.83
626.01	55656.83
626.365	55624.51
626.72	55584.97
627.075	55586.32
627.43	55572.99
627.785	55369.6
628.14	55562.37
628.495	55517.4
628.85	55497.06
629.205	55394.24
629.559	55627.68
629.914	55409.6
630.269	55491.18
630.623	55418.64
630.978	55402.82
631.332	55432.65
631.687	55508.58
632.041	55311.07
632.396	55430.39
632.75	55253.9
633.104	55371.86
633.459	55211.42
633.813	55253.67
634.167	55196.73
634.521	55250.06
634.875	55194.92
635.229	55178.65
635.583	55020.69
635.937	55043.51
636.291	54987.92
636.645	55086
636.999	54954.02
637.352	55073.79
637.706	54821.82
638.06	54993.57
638.413	54839.45
638.767	54758.77
639.121	54843.52
639.474	54693.24
639.828	54756.06
640.181	54726.23
640.534	54727.81
640.888	54639.68
641.241	54541.15
641.594	54535.73
641.947	54693.91
642.301	54567.36
642.654	54503.41
643.007	54585.22
643.36	54460.7
643.713	54428.39
644.066	54510.64
644.419	54330.99
644.771	54088.96
645.124	53796.54
645.477	53770.55
645.83	53667.05
646.182	53590.22
646.535	53483.55
646.888	53468.86
647.24	53233.16
647.593	53449.88
647.945	53438.81
648.298	53248.53
648.65	53152.71
649.002	53090.34
649.355	53302.99
649.707	53157.01
650.059	53197.68
650.411	53621.85
650.763	53623.66
651.115	53876.54
651.467	53866.59
651.819	53836.31
652.171	53708.86
652.523	53716.99
652.875	53699.36
653.227	53654.62
653.578	53854.16
653.93	53760.61
654.282	53551.12
654.633	53442.42
654.985	53544.79
655.337	53507.96
655.688	53524.23
656.039	53626.15
656.391	53316.78
656.742	53421.41
657.094	53411.69
657.445	53495.3
657.796	53429.32
658.147	53386.83
658.498	53298.25
658.849	53434.06
659.2	53361.52
659.551	53299.6
659.902	53382.99
660.253	53223.45
660.604	53364.46
660.955	53182.32
661.306	53248.53
661.656	53193.84
662.007	53208.53
662.358	53197.68
662.708	53229.55
663.059	53197.01
663.409	53053.05
663.76	53180.06
664.11	53151.58
664.461	53199.72
664.811	53126.5
665.161	53096.89
665.511	52952.94
665.862	53091.02
666.212	53061.19
666.562	53103.9
666.912	53069.32
667.262	52992.04
667.612	52986.62
667.962	52994.52
668.312	52995.43
668.662	53000.17
669.011	53005.82
669.361	52942.1
669.711	52822.55
670.06	52783
670.41	52743.46
670.76	52843.12
671.109	52783.68
671.459	52787.98
671.808	52637.47
672.157	52845.38
672.507	52557.02
672.856	52593.41
673.205	52612.39
673.554	52693.52
673.904	52532.84
674.253	52772.38
674.602	52428.44
674.951	52023.93
675.3	51903.03
675.649	52382.11
675.998	52288.1
676.346	52366.97
676.695	52515.22
677.044	52192.51
677.393	52385.05
677.741	52304.15
678.09	52173.76
678.438	52091.5
678.787	52265.05
679.135	52237.03
679.484	51948.45
679.832	52128.11
680.181	51968.79
680.529	51956.81
680.877	51802.69
681.225	51897.83
681.573	52059.18
681.922	51661.9
682.27	51674.33
682.618	51710.72
682.966	51613.77
683.314	51597.95
683.661	51420.78
684.009	51381.91
684.357	51321.35
684.705	51197.96
685.053	51289.48
685.4	51173.33
685.748	50984.63
686.095	51022.15
686.443	50829.16
686.79	50784.19
687.138	50728.82
687.485	50864.19
687.832	50630.29
688.18	50732.89
688.527	50503.52
688.874	50463.29
689.221	50465.33
689.568	50443.63
689.915	50253.81
690.262	50171.77
690.609	50125.9
690.956	49996.86
691.303	49942.4
691.65	49765.91
691.997	49618.12
692.344	49576.08
692.69	49461.96
693.037	49521.17
693.383	49190.1
693.73	49304.23
694.077	49014.06
694.423	49120.73
694.769	48864.24
695.116	48738.37
695.462	48749.66
695.808	48678.03
696.155	48664.47
696.501	48534.53
696.847	48461.99
697.193	48132.28
697.539	48335.21
697.885	47949.23
698.231	47845.06
698.577	47809.12
698.923	47799.63
699.269	47751.27
699.614	47365.07
699.96	47525.74
700.306	47538.85
700.651	47301.12
700.997	47119.65
701.342	47041.91
701.688	47064.51
702.033	46751.98
702.379	46812.09
702.724	46837.17
703.069	46852.54
703.415	46348.6
703.76	46375.04
704.105	46352.21
704.45	46281.25
704.795	45938.89
705.14	45947.7
705.485	45776.18
705.83	45626.58
706.175	45782.74
706.52	45520.6
706.865	45429.07
707.209	45364.89
707.554	45204.22
707.899	45408.06
708.243	45138.91
708.588	45088.74
708.932	44826.15
709.277	44757.45
709.621	44894.4
709.966	44529.21
710.31	44688.08
710.654	44270.69
710.998	44458.25
711.342	44394.07
711.687	44255.09
712.031	44176.45
712.375	43987.08
712.719	44152.5
713.063	43902.79
713.407	44082.44
713.75	43859.62
714.094	43736.91
714.438	43591.16
714.782	43723.36
715.125	43430.71
715.469	43425.96
715.812	43325.4
716.156	43056.71
716.499	43119.53
716.843	43265.74
717.186	42920.89
717.53	43106.2
717.873	43165.18
718.216	42976.03
718.559	42744.62
718.902	42507.57
719.246	42579.43
719.589	42511.64
719.932	42273.45
720.275	42395.71
720.617	42353.9
720.96	42365.43
721.303	42308.03
721.646	42144.41
721.989	41929.28
722.331	42117.52
722.674	41943.97
723.016	42125.66
723.359	41858.09
723.701	41779.9
724.044	41478.67
724.386	41479.12
724.729	41644.31
725.071	41467.6
725.413	41426.02
725.755	41330.88
726.097	41230.99
726.439	41015.86
726.782	41115.06
727.124	41222.18
727.465	40870.32
727.807	40920.72
728.149	40878.91
728.491	40792.81
728.833	40717.11
729.175	40691.57
729.516	40487.51
729.858	40457
730.199	40535.19
730.541	40395.53
730.882	40360.51
731.224	40511.46
731.565	40101.3
731.906	40252.26
732.248	40393.95
732.589	40260.4
732.93	40078.25
733.271	39989.67
733.612	39948.09
733.953	39954.87
734.294	39815.66
734.635	39771.82
734.976	39844.81
735.317	39567.76
735.658	39612.28
735.999	39654.31
736.339	39468.1
736.68	39737.92
737.021	39422.9
737.361	39201.89
737.702	39622.9
738.042	39225.85
738.383	39191.05
738.723	39241.67
739.063	39164.15
739.404	39134.1
739.744	38906.53
740.084	38754.22
740.424	38911.96
740.764	38842.13
741.104	38945.4
741.444	38623.6
741.784	38565.3
742.124	38590.16
742.464	38554.23
742.804	38574.11
743.143	38382.25
743.483	38344.51
743.823	38130.28
744.162	38169.38
744.502	38088.93
744.841	37982.26
745.181	37963.96
745.52	37824.08
745.86	38122.37
746.199	37911.53
746.538	37802.16
746.877	37922.15
747.216	37773.23
747.556	37569.62
747.895	37535.95
748.234	37505.67
748.573	37293.47
748.911	37331.89
749.25	37368.72
749.589	37073.36
749.928	37062.74
750.267	37104.32
750.605	36927.83
750.944	36935.96
751.283	36828.85
751.621	37021.39
751.96	36732.35
752.298	36724.67
752.636	36835.85
752.975	36499.37
753.313	36278.35
753.651	36491.23
753.989	36313.38
754.327	36191.58
754.666	36107.06
755.004	36064.35
755.342	36007.4
755.679	35900.06
756.017	35747.75
756.355	35781.87
756.693	35640.63
757.031	35614.87
757.368	35468.21
757.706	35371.71
758.044	35311.15
758.381	35424.82
758.719	35200.19
759.056	35223.01
759.394	35027.54
759.731	34890.59
760.068	34743.71
760.405	34687.21
760.743	34604.95
761.08	34659.64
761.417	34297.16
761.754	34455.13
762.091	34199.76
762.428	34037.51
762.765	33950.51
763.102	33999.09
763.438	33833.9
763.775	33707.57
764.112	33760.91
764.449	33745.99
764.785	33523.17
765.122	33350.07
765.458	33178.32
765.795	33228.49
766.131	33201.6
766.467	33166.12
766.804	32805
767.14	32723.19
767.476	32605
767.812	32497.66
768.148	32587.6
768.485	32352.58
768.821	32224.68
769.157	32096.54
769.492	32139.03
769.828	31970.44
770.164	31778.36
770.5	31640.74
770.836	31623.79
771.171	31390.12
771.507	31344.7
771.842	31263.57
772.178	31221.31
772.513	31015.67
772.849	30840.76
773.184	30860.64
773.519	30685.05
773.855	30501.78
774.19	30482.35
774.525	30375.46
774.86	30386.31
775.195	30301.11
775.53	30205.75
775.865	29926.2
776.2	29811.63
776.535	29669.49
776.87	29602.6
777.205	29507.68
777.539	29319.89
777.874	29364.41
778.209	29166.22
778.543	29100.69
778.878	28818.21
779.212	28905.44
779.547	28668.38
779.881	28787.03
780.215	28642.17
780.55	28627.48
780.884	28471.33
781.218	28336.87
781.552	28359.47
781.886	28231.11
782.22	28056.88
782.554	27874.06
782.888	27704.79
783.222	27642.65
783.556	27507.06
783.889	27504.12
784.223	27230.46
784.557	27262.77
784.89	27338.25
785.224	27074.08
785.557	26959.05
785.891	27046.05
786.224	26831.14
786.558	26805.61
786.891	26590.7
787.224	26440.87
787.557	26286.53
787.891	26376.92
788.224	26327.66
788.557	26234.1
788.89	26227.09
789.223	26155
789.556	25917.72
789.888	25898.06
790.221	25703.04
790.554	25559.77
790.887	25544.17
791.219	25411.3
791.552	25383.73
791.884	25286.33
792.217	25138.76
792.549	25118.42
792.882	24907.35
793.214	24875.49
793.546	24902.61
793.879	24747.13
794.211	24743.52
794.543	24683.86
794.875	24564.54
795.207	24577.42
795.539	24431.21
795.871	24477.08
796.203	24162.74
796.535	24018.34
796.867	24057.66
797.198	24034.61
797.53	23964.1
797.862	23713.71
798.193	23850.66
798.525	23676.43
798.856	23731.57
799.188	23470.33
799.519	23299.71
799.85	23303.33
800.182	23348.75
800.513	23172.48
800.844	23056.78
801.175	23145.37
801.506	23092.26
801.837	22975.2
802.168	22899.72
802.499	22707.86
802.83	22668.32
803.161	22663.12
803.491	22650.01
803.822	22521.2
804.153	22443.69
804.483	22280.3
804.814	22229.46
805.145	22189.68
805.475	22200.08
805.805	22013.19
806.136	22067.88
806.466	22027.2
806.796	21942.23
807.126	21784.5
807.457	21711.05
807.787	21711.28
808.117	21704.95
808.447	21552.41
808.777	21670.6
809.107	21634.9
809.436	21506.54
809.766	21556.71
810.096	21400.55
810.426	21346.54
810.755	21277.62
811.085	21181.12
811.414	21106.55
811.744	20978.87
812.073	21035.59
812.403	20893.9
812.732	20890.51
813.061	20878.31
813.39	20712.89
813.719	20703.4
814.049	20769.16
814.378	20610.52
814.707	20685.32
815.036	20600.57
815.365	20442.84
815.693	20309.96
816.022	20243.52
816.351	20121.49
816.68	20059.35
817.008	20171.66
817.337	19944.09
817.665	20038.33
817.994	19982.06
818.322	19927.37
818.651	19790.2
818.979	19856.64
819.307	19853.93
819.636	19753.82
819.964	19589.3
820.292	19798.79
820.62	19639.92
820.948	19577.32
821.276	19641.73
821.604	19607.38
821.932	19602.63
822.259	19588.17
822.587	19616.65
822.915	19509.3
823.243	19546.14
823.57	19546.14
823.898	19537.78
824.225	19533.03
824.553	19477.21
824.88	19448.29
825.207	19519.25
825.535	19461.17
825.862	19660.94
826.189	19536.42
826.516	19622.75
826.843	19519.7
827.17	19564.9
827.497	19497.33
827.824	19500.94
828.151	19568.51
828.478	19457.33
828.805	19571
829.131	19386.59
829.458	19494.39
829.785	19311.34
830.111	19378.69
830.438	19536.2
830.764	19506.37
831.09	19480.15
831.417	19338.69
831.743	19456.88
832.069	19359.48
832.395	19320.38
832.722	19424.33
833.048	19312.25
833.374	19288.52
833.7	19234.96
834.026	19239.93
834.351	19321.51
834.677	19356.99
835.003	19279.25
835.329	19284
835.654	19203.77
835.98	19131.23
836.306	19243.1
836.631	19098.24
836.956	19170.78
837.282	19101.18
837.607	18998.58
837.932	18942.54
838.258	18925.82
838.583	18992.03
838.908	18828.19
839.233	18802.2
839.558	18837.23
839.883	18785.03
840.208	18697.57
840.533	18745.03
840.858	18801.75
841.182	18797.68
841.507	18658.48
841.832	18565.83
842.156	18626.84
842.481	18545.49
842.805	18568.99
843.13	18439.5
843.454	18442.66
843.778	18356.79
844.103	18346.85
844.427	18319.5
844.751	18276.34
845.075	18252.61
845.399	18156.8
845.723	18044.03
846.047	18025.27
846.371	17851.04
846.695	17912.51
847.019	17751.61
847.343	17688.79
847.666	17526.76
847.99	17494.22
848.313	17501.67
848.637	17392.3
848.96	17372.18
849.284	17243.37
849.607	17161.12
849.931	17058.52
850.254	17009.03
850.577	16900.11
850.9	16812.88
851.223	16865.08
851.546	16743.27
851.869	16653.56
852.192	16698.53
852.515	16521.59
852.838	16550.96
853.161	16528.36
853.483	16405.2
853.806	16270.74
854.129	16270.52
854.451	16188.94
854.774	16175.61
855.096	16030.52
855.419	16021.26
855.741	16045.89
856.063	15872.11
856.385	15864.65
856.708	15826.69
857.03	15747.37
857.352	15742.17
857.674	15724.54
857.996	15656.75
858.318	15620.59
858.64	15536.3
858.961	15497.21
859.283	15424.44
859.605	15317.32
859.926	15351.9
860.248	15359.36
860.57	15273.93
860.891	15293.6
861.212	15199.36
861.534	15188.06
861.855	15148.74
862.176	15168.4
862.498	15139.93
862.819	15101.51
863.14	15013.6
863.461	14876.2
863.782	14942.87
864.103	14986.26
864.424	14889.99
864.745	14875.07
865.065	14833.72
865.386	14760.28
865.707	14758.69
866.027	14763.89
866.348	14846.15
866.668	14750.11
866.989	14708.53
867.309	14642.31
867.63	14646.38
867.95	14591.69
868.27	14509.43
868.59	14503.11
868.91	14526.84
869.23	14484.8
869.55	14351.47
869.87	14456.33
870.19	14373.17
870.51	14413.39
870.83	14394.18
871.15	14278.25
871.469	14286.84
871.789	14335.88
872.109	14296.79
872.428	14181.76
872.748	14259.72
873.067	14168.88
873.386	14205.71
873.706	14130.69
874.025	14104.7
874.344	14012.72
874.663	14073.97
874.982	14024.25
875.301	14118.94
875.62	14035.78
875.939	13910.35
876.258	13950.58
876.577	13890.47
876.896	13819.74
877.214	13812.05
877.533	13847.76
877.852	13856.57
878.17	13841.88
878.489	13906.06
878.807	13703.58
879.125	13660.64
879.444	13719.17
879.762	13694.32
880.08	13718.5
880.398	13613.19
880.716	13565.96
881.034	13579.29
881.352	13698.16
881.67	13526.64
881.988	13537.71
882.306	13501.55
882.624	13407.32
882.941	13353.31
883.259	13382.46
883.577	13282.57
883.894	13315.12
884.212	13252.29
884.529	13222.46
884.846	13173.2
885.164	13163.93
885.481	13144.95
885.798	13152.41
886.115	13063.15
886.432	13071.51
886.75	12996.93
887.067	13019.3
887.383	12990.6
887.7	12969.14
888.017	12892.3
888.334	12918.97
888.651	12803.72
888.967	12814.56
889.284	12769.37
889.6	12710.61
889.917	12715.13
890.233	12701.35
890.55	12598.07
890.866	12674.23
891.182	12569.15
891.498	12552.88
891.815	12427.68
892.131	12525.08
892.447	12428.81
892.763	12320.57
893.079	12280.34
893.395	12290.06
893.71	12335.03
894.026	12240.57
894.342	12213
894.657	12069.05
894.973	12074.24
895.289	12058.65
895.604	12087.35
895.92	12055.26
896.235	11855.49
896.55	11880.35
896.865	11907.92
897.181	11831.77
897.496	11849.62
897.811	11810.07
898.126	11689.85
898.441	11630.41
898.756	11614.82
899.071	11594.94
899.386	11602.62
899.7	11478.55
900.015	11441.27
900.33	11348.84
900.644	11303.19
900.959	11367.37
901.273	11340.48
901.588	11231.1
901.902	11119.69
902.216	11098.23
902.531	11120.82
902.845	11044.22
903.159	11019.58
903.473	10966.93
903.787	10965.12
904.101	10889.87
904.415	10891
904.729	10832.92
905.042	10777.1
905.356	10807.84
905.67	10767.16
905.984	10641.97
906.297	10689.65
906.611	10613.27
906.924	10535.3
907.237	10510.67
907.551	10479.26
907.864	10422.54
908.177	10389.54
908.491	10322.2
908.804	10333.27
909.117	10247.85
909.43	10165.14
909.743	10103.22
910.056	10166.5
910.368	10099.38
910.681	10077.46
910.994	9984.36
911.307	9981.64
911.619	9946.62
911.932	9979.61
912.244	9821.2
912.557	9884.25
912.869	9706.4
913.181	9803.34
913.494	9698.49
913.806	9659.84
914.118	9627.76
914.43	9566.97
914.742	9525.84
915.054	9437.93
915.366	9476.57
915.678	9398.38
915.99	9328.78
916.302	9370.36
916.613	9315.9
916.925	9271.61
917.236	9240.19
917.548	9123.81
917.859	9185.73
918.171	9122.23
918.482	9067.54
918.794	9014.21
919.105	9029.35
919.416	8939.86
919.727	8922.46
920.038	8910.26
920.349	8824.16
920.66	8788
920.971	8733.54
921.282	8764.95
921.593	8691.51
921.903	8595.01
922.214	8571.51
922.525	8575.58
922.835	8517.5
923.146	8546.65
923.456	8471.4
923.767	8471.4
924.077	8472.53
924.387	8406.09
924.697	8266.89
925.008	8315.7
925.318	8222.37
925.628	8203.39
925.938	8205.65
926.248	8120.68
926.558	8088.36
926.867	8073.22
927.177	8080.68
927.487	8012.66
927.796	7903.05
928.106	7923.39
928.416	7856.28
928.725	7871.19
929.034	7758.88
929.344	7836.39
929.653	7791.65
929.962	7717.75
930.271	7687.69
930.581	7635.04
930.89	7610.18
931.199	7616.73
931.508	7538.54
931.817	7539.22
932.125	7539
932.434	7460.35
932.743	7391.2
933.051	7350.3
933.36	7333.35
933.669	7296.52
933.977	7284.99
934.286	7237.08
934.594	7264.65
934.902	7127.93
935.21	7156.86
935.519	7118.67
935.827	7080.48
936.135	7069.18
936.443	7038.9
936.751	6994.6
937.059	7002.29
937.367	7000.25
937.674	6910.09
937.982	6866.25
938.29	6826.25
938.597	6810.2
938.905	6753.25
939.213	6753.71
939.52	6718.23
939.827	6705.57
940.135	6671.9
940.442	6624.22
940.749	6617.44
941.056	6585.12
941.363	6510.32
941.67	6525.24
941.977	6422.19
942.284	6459.93
942.591	6440.04
942.898	6442.75
943.205	6371.12
943.511	6380.38
943.818	6367.28
944.125	6283.44
944.431	6220.84
944.738	6214.51
945.044	6145.81
945.35	6101.07
945.657	6104.23
945.963	6090.45
946.269	6101.29
946.575	6056.55
946.881	6045.93
947.187	6004.8
947.493	5967.29
947.799	5925.71
948.105	5833.96
948.41	5908.53
948.716	5859.94
949.022	5819.72
949.327	5813.84
949.633	5748.31
949.938	5720.29
950.244	5747.63
950.549	5675.77
950.854	5688.88
951.16	5686.62
951.465	5613.85
951.77	5616.34
952.075	5622.89
952.38	5570.01
952.685	5558.03
952.99	5458.6
953.294	5457.7
953.599	5487.07
953.904	5443.23
954.209	5414.76
954.513	5398.26
954.818	5370.24
955.122	5366.17
955.426	5344.7
955.731	5338.38
956.035	5285.95
956.339	5304.25
956.643	5241.43
956.948	5219.06
957.252	5179.28
957.556	5238.04
957.86	5135.67
958.163	5123.47
958.467	5086.18
958.771	5078.72
959.075	5033.53
959.378	5056.12
959.682	5009.8
959.985	4950.59
960.289	4980.19
960.592	4984.71
960.896	4971.61
961.199	4888.22
961.502	4860.2
961.805	4839.86
962.108	4834.89
962.411	4805.06
962.714	4766.64
963.017	4761.67
963.32	4783.81
963.623	4747.88
963.926	4655
964.228	4702.01
964.531	4675.8
964.833	4642.35
965.136	4652.97
965.438	4616.36
965.741	4537.27
966.043	4583.14
966.345	4547.89
966.648	4531.17
966.95	4497.95
967.252	4502.69
967.554	4481.9
967.856	4437.61
968.158	4397.84
968.46	4432.64
968.761	4392.64
969.063	4350.61
969.365	4345.18
969.666	4276.03
969.968	4309.03
970.269	4314.22
970.571	4242.13
970.872	4232.19
971.174	4201.23
971.475	4176.6
971.776	4202.59
972.077	4154.68
972.378	4118.52
972.679	4134.34
972.98	4121.69
973.281	4094.12
973.582	4081.91
973.883	4083.95
974.183	4045.98
974.484	4054.79
974.785	4013.89
975.085	3958.75
975.386	4014.12
975.686	3994.23
975.986	3938.19
976.287	3947.9
976.587	3913.1
976.887	3868.58
977.187	3867
977.487	3873.33
977.787	3819.55
978.087	3830.39
978.387	3778.19
978.687	3802.37
978.987	3757.85
979.286	3730.06
979.586	3744.52
979.885	3688.02
980.185	3678.08
980.484	3689.15
980.784	3662.04
981.083	3654.13
981.382	3622.94
981.682	3622.49
981.981	3597.18
982.28	3551.76
982.579	3555.82
982.878	3559.44
983.177	3558.99
983.475	3490.52
983.774	3483.28
984.073	3461.14
984.372	3456.39
984.67	3465.66
984.969	3428.37
985.267	3384.76
985.566	3389.95
985.864	3354.25
986.162	3401.93
986.461	3342.04
986.759	3344.08
987.057	3333.91
987.355	3300.01
987.653	3268.15
987.951	3277.41
988.249	3250.75
988.547	3248.26
988.844	3226.34
989.142	3229.96
989.44	3226.79
989.737	3157.42
990.035	3154.93
990.332	3123.75
990.63	3126.46
990.927	3088.94
991.224	3109.06
991.521	3106.12
991.819	3088.49
992.116	3032.45
992.413	3071.09
992.71	3043.97
993.006	3010.53
993.303	2999.46
993.6	2974.6
993.897	2973.92
994.193	2979.34
994.49	2943.64
994.787	2899.8
995.083	2908.84
995.379	2919.68
995.676	2879.01
995.972	2894.15
996.268	2898.21
996.565	2848.27
996.861	2826.58
997.157	2801.04
997.453	2799.01
997.749	2810.53
998.044	2748.84
998.34	2791.32
998.636	2761.72
998.932	2718.33
999.227	2727.82
999.523	2720.14
999.818	2661.38
1000.114	2679.46
1000.409	2654.83
1000.704	2632.46
1001	2626.58
1001.295	2602.4
1001.59	2594.27
1001.885	2598.34
1002.18	2566.25
1002.475	2570.09
1002.77	2516.76
1003.065	2536.87
1003.359	2508.17
1003.654	2510.65
1003.949	2499.36
1004.243	2462.97
1004.538	2447.15
1004.832	2428.85
1005.127	2444.67
1005.421	2413.71
1005.715	2388.4
1006.009	2409.41
1006.304	2386.82
1006.598	2360.15
1006.892	2345.46
1007.186	2327.61
1007.48	2319.92
1007.773	2285.58
1008.067	2276.31
1008.361	2266.37
1008.655	2296.87
1008.948	2242.86
1009.242	2273.6
1009.535	2242.64
1009.829	2216.88
1010.122	2205.8
1010.415	2191.57
1010.708	2169.42
1011.001	2139.82
1011.295	2121.51
1011.588	2127.16
1011.881	2130.55
1012.173	2107.28
1012.466	2108.41
1012.759	2088.29
1013.052	2056.65
1013.344	2061.17
1013.637	2044.68
1013.93	2032.02
1014.222	2028.18
1014.514	2014.62
1014.807	2012.81
1015.099	1984.11
1015.391	1977.79
1015.683	1973.72
1015.976	1934.4
1016.268	1929.2
1016.56	1940.73
1016.851	1936.21
1017.143	1869.77
1017.435	1893.72
1017.727	1878.35
1018.018	1856.89
1018.31	1850.11
1018.602	1843.33
1018.893	1828.41
1019.185	1796.77
1019.476	1788.87
1019.767	1806.27
1020.058	1768.3
1020.35	1754.74
1020.641	1765.82
1020.932	1731.69
1021.223	1733.95
1021.514	1691.01
1021.804	1694.63
1022.095	1681.98
1022.386	1675.42
1022.677	1659.38
1022.967	1642.43
1023.258	1611.69
1023.548	1668.42
1023.839	1633.39
1024.129	1605.37
1024.419	1603.79
1024.709	1585.25
1025	1597.46
1025.29	1577.8
1025.58	1543.45
1025.87	1553.17
1026.16	1524.92
1026.449	1538.48
1026.739	1536.44
1027.029	1483.11
1027.319	1475.2
1027.608	1467.52
1027.898	1472.72
1028.187	1487.4
1028.477	1456.67
1028.766	1463.68
1029.055	1458.03
1029.344	1424.36
1029.634	1410.57
1029.923	1392.04
1030.212	1383.9
1030.501	1386.16
1030.79	1381.19
1031.078	1383.23
1031.367	1375.09
1031.656	1327.18
1031.945	1338.03
1032.233	1345.49
1032.522	1303
1032.81	1316.11
1033.099	1300.29
1033.387	1294.64
1033.675	1284.92
1033.963	1253.06
1034.251	1262.78
1034.54	1246.51
1034.828	1252.83
1035.116	1240.63
1035.403	1230.69
1035.691	1211.93
1035.979	1241.31
1036.267	1187.3
1036.554	1182.1
1036.842	1176.45
1037.129	1143.91
1037.417	1156.34
1037.704	1154.53
1037.992	1132.39
1038.279	1135.32
1038.566	1157.24
1038.853	1157.24
1039.14	1157.24
