Data from whiteboard_FLMS001491_00085.txt Node
Date: Wed Feb 08 11:28:29 GMT 2017
User: dcchb
Spectrometer: FLMS00149
Trigger mode: 0
Integration Time (sec): 2.000000E-2
Scans to average: 10
Electric dark correction enabled: true
Nonlinearity correction enabled: false
Boxcar width: 0
XAxis mode: Wavelengths
Number of Pixels in Spectrum: 2048
>>>>>Begin Spectral Data<<<<<
341.393	-1.53
341.776	-1.53
342.16	-1.53
342.543	-56.89
342.927	-68.19
343.31	-82.65
343.693	-51.02
344.077	-65.7
344.46	-51.24
344.843	-48.3
345.226	-34.07
345.61	-47.85
345.993	-21.64
346.376	0.06
346.759	10.9
347.142	18.36
347.525	43.22
347.908	51.81
348.291	87.29
348.674	83.9
349.057	106.95
349.44	137.91
349.823	173.16
350.206	176.32
350.588	220.16
350.971	243.44
351.354	239.82
351.737	268.75
352.119	266.72
352.502	296.32
352.884	320.27
353.267	308.3
353.65	323.66
354.032	326.6
354.414	321.86
354.797	337.9
355.179	358.47
355.562	363.66
355.944	352.82
356.326	382.65
356.709	360.5
357.091	382.87
357.473	369.76
357.855	368.86
358.238	369.99
358.62	359.14
359.002	377.9
359.384	356.43
359.766	364.11
360.148	374.06
360.53	372.7
360.912	373.83
361.294	385.13
361.676	364.79
362.057	353.72
362.439	366.15
362.821	353.49
363.203	361.85
363.584	369.99
363.966	367.73
364.348	359.82
364.729	353.27
365.111	335.87
365.493	368.18
365.874	364.57
366.256	361.85
366.637	337.9
367.019	351.01
367.4	360.27
367.781	350.33
368.163	365.24
368.544	374.06
368.925	363.89
369.306	358.69
369.688	375.41
370.069	358.69
370.45	374.51
370.831	367.96
371.212	355.3
371.593	364.79
371.974	355.53
372.355	372.7
372.736	368.18
373.117	374.28
373.498	387.16
373.879	381.74
374.26	382.87
374.641	365.02
375.021	372.02
375.402	403.66
375.783	382.65
376.163	388.97
376.544	391.23
376.925	382.65
377.305	378.35
377.686	381.29
378.066	391.91
378.447	404.34
378.827	397.79
379.208	391.23
379.588	398.46
379.968	410.22
380.349	391.68
380.729	410.22
381.109	405.24
381.489	441.4
381.87	421.74
382.25	436.66
382.63	421.74
383.01	439.82
383.39	425.58
383.77	442.53
384.15	436.2
384.53	425.58
384.91	450.44
385.29	434.4
385.67	455.86
386.049	457.45
386.429	457.67
386.809	450.44
387.189	445.02
387.568	466.26
387.948	502.64
388.328	482.53
388.707	508.97
389.087	474.17
389.466	511.68
389.846	495.86
390.225	509.65
390.605	478.91
390.984	512.81
391.363	520.72
391.743	526.37
392.122	524.79
392.501	561.85
392.881	531.57
393.26	523.66
393.639	547.39
394.018	555.07
394.397	567.5
394.776	582.87
395.155	580.38
395.534	580.61
395.913	585.35
396.292	572.47
396.671	624.22
397.05	614.96
397.429	647.72
397.808	651.56
398.186	648.63
398.565	655.63
398.944	659.25
399.323	669.19
399.701	680.04
400.08	692.92
400.458	710.77
400.837	702.41
401.215	709.87
401.594	755.52
401.972	739.92
402.351	747.61
402.729	740.83
403.107	798.91
403.486	803.65
403.864	780.6
404.242	812.01
404.62	843.65
404.999	856.76
405.377	878.9
405.755	898.34
406.133	883.88
406.511	924.1
406.889	930.88
407.267	953.7
407.645	959.35
408.023	971.33
408.401	1011.33
408.779	1035.51
409.156	1047.94
409.534	1061.5
409.912	1086.58
410.29	1104.21
410.667	1159.57
411.045	1173.58
411.422	1197.54
411.8	1210.42
412.178	1234.83
412.555	1252
412.933	1274.37
413.31	1287.03
413.687	1316.63
414.065	1324.77
414.442	1353.24
414.819	1375.39
415.197	1374.94
415.574	1432.56
415.951	1457.65
416.328	1441.6
416.705	1487.7
417.082	1504.42
417.46	1518.43
417.837	1539.9
418.214	1567.92
418.591	1578.09
418.967	1586.46
419.344	1617.87
419.721	1654.93
420.098	1661.26
420.475	1683.4
420.852	1679.79
421.228	1722.72
421.605	1723.63
421.982	1767.24
422.358	1770.63
422.735	1773.34
423.111	1829.16
423.488	1851.31
423.864	1841.59
424.241	1889.27
424.617	1898.99
424.994	1926.33
425.37	1962.72
425.746	1990.96
426.123	2006.11
426.499	2021.92
426.875	2065.09
427.251	2079.1
427.627	2117.74
428.003	2143.73
428.379	2160.68
428.756	2208.36
429.132	2271.64
429.507	2263.05
429.883	2324.52
430.259	2291.3
430.635	2378.3
431.011	2368.81
431.387	2434.34
431.763	2482.93
432.138	2488.13
432.514	2529.71
432.89	2557.5
433.265	2601.8
433.641	2633.89
434.016	2681.34
434.392	2700.32
434.767	2761.11
435.143	2765.18
435.518	2808.34
435.894	2847.89
436.269	2883.6
436.644	2889.7
437.02	2935.8
437.395	2939.19
437.77	3018.96
438.145	3046.76
438.52	3110.71
438.895	3127.21
439.271	3137.15
439.646	3190.71
440.021	3218.28
440.395	3216.24
440.77	3214.89
441.145	3274.55
441.52	3318.16
441.895	3313.64
442.27	3392.96
442.645	3394.32
443.019	3413.98
443.394	3411.72
443.769	3477.03
444.143	3420.98
444.518	3510.47
444.892	3519.96
445.267	3553.64
445.641	3552.96
446.016	3620.3
446.39	3606.97
446.764	3648.55
447.139	3631.83
447.513	3693.52
447.887	3713.41
448.262	3728.09
448.636	3777.58
449.01	3804.02
449.384	3835.21
449.758	3912.95
450.132	3890.8
450.506	3978.71
450.88	4020.06
451.254	3981.42
451.628	4051.25
452.002	4123.34
452.376	4144.81
452.75	4185.94
453.123	4257.57
453.497	4323.33
453.871	4329.43
454.244	4383.67
454.618	4428.41
454.992	4460.28
455.365	4519.94
455.739	4635.64
456.112	4670.89
456.486	4746.6
456.859	4805.35
457.232	4856.2
457.606	4821.62
457.979	4918.12
458.352	5072.47
458.725	5065.91
459.099	5116.76
459.472	5225.91
459.845	5341.16
460.218	5327.6
460.591	5391.33
460.964	5429.07
461.337	5578.21
461.71	5629.29
462.083	5696.4
462.456	5699.79
462.829	5720.36
463.201	5861.82
463.574	5873.57
463.947	5980.69
464.32	6124.19
464.692	6124.42
465.065	6193.57
465.438	6261.13
465.81	6364.18
466.183	6452.09
466.555	6612.54
466.928	6587.68
467.3	6644.63
467.672	6727.79
468.045	6940.89
468.417	6880.1
468.789	7035.8
469.161	7044.17
469.534	7250.71
469.906	7365.51
470.278	7395.79
470.65	7519.86
471.022	7692.74
471.394	7771.6
471.766	7873.97
472.138	7979.06
472.51	8120.75
472.882	8228.99
473.253	8356.45
473.625	8415.2
473.997	8663.56
474.369	8696.33
474.74	8817.68
475.112	8988.97
475.484	9130.66
475.855	9288.85
476.227	9352.8
476.598	9638.67
476.97	9757.77
477.341	9971.55
477.713	10075.72
478.084	10084.99
478.455	10418.77
478.827	10542.38
479.198	10825.99
479.569	10841.13
479.94	11122.7
480.311	11226.2
480.682	11508.23
481.053	11727.43
481.424	11855.11
481.795	12070.47
482.166	12240.41
482.537	12429.56
482.908	12695.99
483.279	12782.55
483.65	12967.4
484.021	13309.31
484.391	13432.02
484.762	13487.61
485.133	13758.56
485.503	13948.62
485.874	14154.71
486.244	14350.41
486.615	14549.5
486.985	14728.03
487.356	15004.18
487.726	15093.22
488.097	15458.63
488.467	15523.49
488.837	15817.04
489.207	16102.68
489.578	16201.44
489.948	16402.34
490.318	16667.64
490.688	16739.05
491.058	17028.76
491.428	17152.83
491.798	17429.65
492.168	17705.81
492.538	17876.2
492.908	17990.09
493.278	18231.89
493.648	18298.78
494.017	18564.54
494.387	18647.93
494.757	18755.04
495.126	18973.34
495.496	19073.23
495.866	19204.07
496.235	19491.3
496.605	19625.3
496.974	19728.13
497.344	19865.3
497.713	20070.04
498.082	20146.42
498.452	20318.17
498.821	20462.57
499.19	20518.84
499.559	20787.53
499.928	20871.82
500.298	21064.36
500.667	21158.6
501.036	21251.93
501.405	21474.29
501.774	21535.76
502.143	21774.85
502.512	21839.26
502.88	22129.42
503.249	22127.16
503.618	22283.76
503.987	22440.82
504.356	22587.94
504.724	22759.46
505.093	22840.81
505.462	22980.92
505.83	23137.98
506.199	23317.64
506.567	23575.93
506.936	23591.53
507.304	23908.13
507.672	23967.56
508.041	24072.42
508.409	24211.4
508.777	24491.62
509.145	24503.37
509.514	24722.12
509.882	24958.72
510.25	25001.88
510.618	25110.58
510.986	25271.93
511.354	25513.28
511.722	25637.12
512.09	25910.79
512.458	25882.99
512.826	26196.2
513.193	26235.3
513.561	26424.45
513.929	26679.81
514.297	26814.72
514.664	27003.87
515.032	27134.94
515.4	27388.94
515.767	27478.88
516.135	27724.98
516.502	27646.34
516.869	28054.23
517.237	28312.31
517.604	28209.48
517.972	28649.47
518.339	28783.93
518.706	28791.84
519.073	29084.04
519.44	29296.69
519.808	29630.92
520.175	29606.74
520.542	30046.72
520.909	30203.1
521.276	30119.49
521.643	30567.84
522.009	30766.25
522.376	30876.08
522.743	31071.78
523.11	31464.09
523.477	31719.22
523.843	31797.19
524.21	32102.04
524.577	32482.59
524.943	32419.09
525.31	32720.78
525.676	33106.53
526.043	33100.2
526.409	33352.17
526.776	33656.35
527.142	33793.74
527.508	33960.07
527.874	34163.45
528.241	34402.54
528.607	34539.49
528.973	34858.35
529.339	34852.7
529.705	35209.53
530.071	35597.76
530.437	35503.76
530.803	35913.69
531.169	36072.33
531.535	36091.08
531.901	36418.53
532.267	36545.76
532.632	36828.47
532.998	36907.11
533.364	37138.97
533.73	37264.84
534.095	37634.32
534.461	37559.29
534.826	37785.96
535.192	37978.49
535.557	38308.65
535.923	38323.57
536.288	38415.32
536.653	38547.74
537.019	38436.33
537.384	38744.35
537.749	38891.01
538.114	39052.59
538.479	39106.15
538.845	39396.99
539.21	39297.1
539.575	39461.84
539.94	39641.95
540.305	39937.31
540.67	39811.67
541.034	40159.45
541.399	40166.46
541.764	40247.81
542.129	40413.91
542.494	40476.28
542.858	40658.87
543.223	40633.79
543.587	40978.41
543.952	40857.06
544.316	41090.73
544.681	41057.06
545.045	41483.03
545.41	41641.9
545.774	41763.7
546.138	41680.99
546.503	41887.54
546.867	41946.75
547.231	42365.5
547.595	42510.58
547.959	42425.61
548.324	42597.58
548.688	42647.52
549.052	42979.72
549.416	43001.41
549.779	43036.67
550.143	43235.53
550.507	43663.77
550.871	43645.69
551.235	43858.11
551.599	44129.52
551.962	44155.05
552.326	44176.97
552.689	44361.83
553.053	44368.16
553.417	44455.16
553.78	45053.56
554.143	44731.08
554.507	45060.34
554.87	45214.69
555.234	45663.26
555.597	45348.24
555.96	45515.92
556.323	45744.16
556.686	45754.79
557.05	45980.32
557.413	46110.26
557.776	46171.05
558.139	46600.41
558.502	46544.14
558.865	46698.72
559.228	46950.46
559.59	47079.27
559.953	47038.37
560.316	47575.98
560.679	47571.69
561.041	47700.27
561.404	47985.01
561.767	48132.8
562.129	48126.25
562.492	48604.43
562.854	48454.6
563.217	48576.18
563.579	48807.81
563.941	48981.59
564.304	49118.76
564.666	49236.5
565.028	49449.38
565.39	49475.82
565.753	49696.38
566.115	49800.33
566.477	50042.13
566.839	50169.36
567.201	50330.26
567.563	50373.42
567.925	50760.53
568.287	50655
568.648	50749.68
569.01	50925.05
569.372	51079.39
569.734	50965.27
570.095	51283
570.457	51435.77
570.819	51388.08
571.18	51499.95
571.542	51808.86
571.903	51754.18
572.265	51896.32
572.626	51861.97
572.987	52010.89
573.349	52108.06
573.71	52149.42
574.071	52292.69
574.432	52447.04
574.794	52634.83
575.155	52516.87
575.516	52515.74
575.877	52617.43
576.238	52736.07
576.599	52909.17
576.96	52879.57
577.32	52900.81
577.681	53104.65
578.042	53098.32
578.403	53143.29
578.763	53174.03
579.124	53277.75
579.485	53293.8
579.845	53406.56
580.206	53259.22
580.566	53315.49
580.927	53347.81
581.287	53549.16
581.648	53390.74
582.008	53569.5
582.368	53529.95
582.728	53439.1
583.089	53467.58
583.449	53511.87
583.809	53622.38
584.169	53663.73
584.529	53657.18
584.889	53805.2
585.249	53679.77
585.609	53574.02
585.969	53804.29
586.329	53644.07
586.688	53744.41
587.048	53722.03
587.408	53675.03
587.768	53696.5
588.127	53664.18
588.487	53592.77
588.846	53769.94
589.206	53615.14
589.565	53648.14
589.925	53865.98
590.284	53766.55
590.643	53772.65
591.003	53888.58
591.362	53876.15
591.721	53927.9
592.08	53846.78
592.44	54004.29
592.799	53976.26
593.158	53822.6
593.517	53905.98
593.876	53873.44
594.235	53821.01
594.593	53876.15
594.952	53974.68
595.311	53873.67
595.67	53942.59
596.029	54006.77
596.387	54083.15
596.746	54117.28
597.104	54000.22
597.463	53931.52
597.822	54043.61
598.18	53983.27
598.538	54053.55
598.897	54141.01
599.255	53928.81
599.613	54410.15
599.972	54189.14
600.33	54254.68
600.688	54211.06
601.046	54274.11
601.404	54393.43
601.762	54323.83
602.12	54463.03
602.478	54414.9
602.836	54388.23
603.194	54254.68
603.552	54384.16
603.91	54243.15
604.268	54401.11
604.625	54275.01
604.983	54338.74
605.341	54263.26
605.698	54370.15
606.056	54412.86
606.413	54327.67
606.771	54487.89
607.128	54497.38
607.485	54299.19
607.843	54412.41
608.2	54503.48
608.557	54636.13
608.914	54533.76
609.272	54673.87
609.629	54691.73
609.986	54767.43
610.343	54655.12
610.7	54816.47
611.057	54818.05
611.414	54720.43
611.771	54736.7
612.127	54951.83
612.484	54856.69
612.841	54953.41
613.198	54844.72
613.554	54939.4
613.911	55029.57
614.267	54991.83
614.624	54893.75
614.98	55082
615.337	55200.41
615.693	55115.9
616.05	55159.06
616.406	55307.75
616.762	55155.44
617.118	55166.06
617.475	55263.24
617.831	55257.36
618.187	55209.23
618.543	55245.61
618.899	55434.98
619.255	55399.05
619.611	55371.93
619.967	55366.74
620.323	55463.68
620.678	55347.98
621.034	55273.18
621.39	55289.9
621.746	55298.72
622.101	55525.15
622.457	55293.07
622.812	55257.81
623.168	55363.8
623.523	55366.96
623.879	55448.32
624.234	55239.96
624.589	55305.95
624.945	55257.59
625.3	55420.75
625.655	55334.42
626.01	55378.71
626.365	55359.05
626.72	55309.79
627.075	55277.25
627.43	55296.91
627.785	55149.34
628.14	55184.14
628.495	55263.69
628.85	55129
629.205	55158.15
629.559	55251.03
629.914	55094.88
630.269	55060.3
630.623	54972.85
630.978	54936.01
631.332	55081.32
631.687	55097.59
632.041	54930.59
632.396	54947.31
632.75	54774.21
633.104	54908.44
633.459	54807.2
633.813	54822.12
634.167	54798.39
634.521	54747.32
634.875	54820.08
635.229	54690.82
635.583	54647.21
635.937	54585.74
636.291	54645.17
636.645	54620.99
636.999	54529.47
637.352	54616.02
637.706	54425.52
638.06	54524.5
638.413	54485.18
638.767	54341
639.121	54442.69
639.474	54250.83
639.828	54319.98
640.181	54348.68
640.534	54390.72
640.888	54197.05
641.241	54130.16
641.594	54159.08
641.947	54231.17
642.301	54123.61
642.654	54077.05
643.007	54139.2
643.36	54181.46
643.713	53962.71
644.066	54039.77
644.419	53860.34
644.771	53674.8
645.124	53386.45
645.477	53185.78
645.83	53079.79
646.182	52984.65
646.535	52954.14
646.888	53103.74
647.24	52792.57
647.593	52993.24
647.945	52903.98
648.298	52720.25
648.65	52674.83
649.002	52560.26
649.355	52733.81
649.707	52582.85
650.059	52742.4
650.411	53089.96
650.763	53116.63
651.115	53328.37
651.467	53282.27
651.819	53207.7
652.171	53174.03
652.523	53026.01
652.875	53060.13
653.227	52915.05
653.578	53161.82
653.93	53026.46
654.282	52931.32
654.633	52764.77
654.985	52901.26
655.337	52854.03
655.688	52855.16
656.039	52936.52
656.391	52632.12
656.742	52668.28
657.094	52707.37
657.445	52792.11
657.796	52619.24
658.147	52495.4
658.498	52640.48
658.849	52610.88
659.2	52568.84
659.551	52466.25
659.902	52596.87
660.253	52450.2
660.604	52467.6
660.955	52327.27
661.306	52449.07
661.656	52392.13
662.007	52404.55
662.358	52457.66
662.708	52422.63
663.059	52301.51
663.409	52151
663.76	52462.86
664.11	52348.06
664.461	52358.23
664.811	52277.1
665.161	52268.51
665.511	52179.25
665.862	52209.31
666.212	52288.17
666.562	52257.89
666.912	52212.24
667.262	52211.79
667.612	52131.57
667.962	52240.26
668.312	52122.53
668.662	52238.46
669.011	52106.48
669.361	52145.13
669.711	52001.85
670.06	51997.79
670.41	51901.74
670.76	51880.27
671.109	51908.97
671.459	51834.17
671.808	51817
672.157	51847.96
672.507	51694.97
672.856	51581.98
673.205	51642.99
673.554	51662.88
673.904	51531.58
674.253	51820.61
674.602	51537.01
674.951	51198.26
675.3	50978.38
675.649	51378.14
675.998	51320.06
676.346	51381.53
676.695	51444.13
677.044	51202.33
677.393	51221.99
677.741	51254.53
678.09	51186.28
678.438	51141.76
678.787	51145.15
679.135	51195.77
679.484	50960.52
679.832	50989.45
680.181	50815.9
680.529	50938.83
680.877	50730.7
681.225	50683.02
681.573	50863.13
681.922	50702
682.27	50542.68
682.618	50510.59
682.966	50393.99
683.314	50468.11
683.661	50273.31
684.009	50194.89
684.357	50094.56
684.705	49999.42
685.053	50055.24
685.4	50193.31
685.748	49891.85
686.095	49791.52
686.443	49679.2
686.79	49628.13
687.138	49682.82
687.485	49693.89
687.832	49510.85
688.18	49535.03
688.527	49445.31
688.874	49342.49
689.221	49319.21
689.568	49062.04
689.915	49048.03
690.262	49064.98
690.609	48987.47
690.956	48815.04
691.303	48747.25
691.65	48542.28
691.997	48534.6
692.344	48273.14
692.69	48301.16
693.037	48202.86
693.383	47863.66
693.73	48028.4
694.077	47844.9
694.423	47813.71
694.769	47556.09
695.116	47462.09
695.462	47446.72
695.808	47462.31
696.155	47551.35
696.501	47080.17
696.847	47239.27
697.193	47008.99
697.539	46991.14
697.885	46708.21
698.231	46545.27
698.577	46614.2
698.923	46566.52
699.269	46367.2
699.614	46165.4
699.96	46157.49
700.306	46026.19
700.651	45770.15
700.997	45671.17
701.342	45717.05
701.688	45526.54
702.033	45397.96
702.379	45428.01
702.724	45127.46
703.069	45287.91
703.415	44804.98
703.76	44806.34
704.105	44781.25
704.45	44707.36
704.795	44458.55
705.14	44346.46
705.485	44345.56
705.83	44169.29
706.175	44296.74
706.52	44059.24
706.865	43929.3
707.209	43907.6
707.554	43634.62
707.899	43792.13
708.243	43522.3
708.588	43373.83
708.932	43157.79
709.277	43261.74
709.621	43244.8
709.966	42992.15
710.31	42969.77
710.654	42593.96
710.998	42862.88
711.342	42715.09
711.687	42531.37
712.031	42288.21
712.375	42255.44
712.719	42200.53
713.063	42206.63
713.407	42190.59
713.75	42039.18
714.094	42024.94
714.438	41793.76
714.782	41862.46
715.125	41660.66
715.469	41663.82
715.812	41487.1
716.156	41218.86
716.499	41265.19
716.843	41436.93
717.186	41072.65
717.53	41203.72
717.873	41226.54
718.216	41037.17
718.559	40789.04
718.902	40455.72
719.246	40554.24
719.589	40449.84
719.932	40487.13
720.275	40366.45
720.617	40241.94
720.96	40137.08
721.303	40306.79
721.646	40096.18
721.989	40048.72
722.331	40114.71
722.674	39960.14
723.016	39838.78
723.359	39786.35
723.701	39826.13
724.044	39485.12
724.386	39329.64
724.729	39448.74
725.071	39386.59
725.413	39368.29
725.755	39352.02
726.097	39000.39
726.439	38871.58
726.782	39120.16
727.124	39055.53
727.465	38834.06
727.807	38863.89
728.149	38600.17
728.491	38680.4
728.833	38657.12
729.175	38531.25
729.516	38446.28
729.858	38404.92
730.199	38318.6
730.541	38232.95
730.882	38160.64
731.224	38284.02
731.565	37978.49
731.906	38083.35
732.248	38040.64
732.589	37796.58
732.93	37561.78
733.271	37858.95
733.612	37696.47
733.953	37666.86
734.294	37588.22
734.635	37472.52
734.976	37665.51
735.317	37321.56
735.658	37396.36
735.999	37402.91
736.339	37261.68
736.68	37297.38
737.021	37058.07
737.361	37032.3
737.702	37240.43
738.042	36940.55
738.383	36826.88
738.723	36787.56
739.063	36758.41
739.404	36872.76
739.744	36552.09
740.084	36661.92
740.424	36550.96
740.764	36437.97
741.104	36475.71
741.444	36373.11
741.784	36149.61
742.124	36161.14
742.464	36102.61
742.804	36051.09
743.143	36011.54
743.483	36016.28
743.823	35783.75
744.162	35665.11
744.502	35834.59
744.841	35662.62
745.181	35741.49
745.52	35373.59
745.86	35543.3
746.199	35417.43
746.538	35454.49
746.877	35409.52
747.216	35301.73
747.556	35251.33
747.895	35228.96
748.234	35018.57
748.573	34972.24
748.911	34818.8
749.25	34915.75
749.589	34706.94
749.928	34647.06
750.267	34607.96
750.605	34529.32
750.944	34446.16
751.283	34241.64
751.621	34336.55
751.96	34163.23
752.298	34116.22
752.636	34141.08
752.975	33964.36
753.313	33887.98
753.651	33876.68
753.989	33684.59
754.327	33716.23
754.666	33454.54
755.004	33464.71
755.342	33517.59
755.679	33388.78
756.017	33112.63
756.355	33291.61
756.693	32996.93
757.031	33068.57
757.368	32931.17
757.706	32777.5
758.044	32658.18
758.381	32724.85
758.719	32482.14
759.056	32546.32
759.394	32467.45
759.731	32153.56
760.068	32175.71
760.405	32000.57
760.743	31998.76
761.08	32041.7
761.417	31862.72
761.754	31865.43
762.091	31623.18
762.428	31619.79
762.765	31327.82
763.102	31443.52
763.438	31104.78
763.775	31165.34
764.112	31123.31
764.449	31184.1
764.785	30968.06
765.122	30684.67
765.458	30608.52
765.795	30535.07
766.131	30535.07
766.467	30379.6
766.804	30297.34
767.14	30109.1
767.476	30132.15
767.812	29987.97
768.148	29996.78
768.485	29814.64
768.821	29681.54
769.157	29721.31
769.492	29559.05
769.828	29590.46
770.164	29297.59
770.5	29202.68
770.836	29305.73
771.171	28973.53
771.507	29053.53
771.842	28820.77
772.178	28769.24
772.513	28577.61
772.849	28494.45
773.184	28326.54
773.519	28347.33
773.855	28219.65
774.19	28157.96
774.525	28039.32
774.86	28021.69
775.195	27989.6
775.53	27834.58
775.865	27671.87
776.2	27613.79
776.535	27352.33
776.87	27364.08
777.205	27172
777.539	27032.34
777.874	27082.96
778.209	26931.78
778.543	26874.38
778.878	26635.29
779.212	26653.37
779.547	26489.76
779.881	26568.4
780.215	26276.43
780.55	26346.71
780.884	26160.95
781.218	26132.7
781.552	26109.65
781.886	25831.02
782.22	25654.52
782.554	25583.79
782.888	25494.98
783.222	25293.85
783.556	25268.77
783.889	25130.7
784.223	25057.93
784.557	24979.96
784.89	24899.29
785.224	24724.83
785.557	24711.05
785.891	24644.15
786.224	24540.2
786.558	24514.21
786.891	24144.51
787.224	24112.87
787.557	24069.93
787.891	24137.5
788.224	24013.66
788.557	23896.38
788.89	23846.44
789.223	23786.55
789.556	23652.77
789.888	23508.36
790.221	23379.1
790.554	23213.91
790.887	23219.33
791.219	23213.91
791.552	23150.63
791.884	23043.52
792.217	22895.73
792.549	22875.84
792.882	22668.84
793.214	22620.25
793.546	22645.11
793.879	22517.2
794.211	22349.07
794.543	22484.66
794.875	22450.99
795.207	22336.42
795.539	22256.87
795.871	22211.45
796.203	21886.49
796.535	21842.87
796.867	21854.85
797.198	21695.76
797.53	21746.15
797.862	21578.7
798.193	21646.72
798.525	21592.94
798.856	21571.01
799.188	21340.51
799.519	21273.17
799.85	21096.9
800.182	21136.22
800.513	21129.67
800.844	20865.72
801.175	21092.16
801.506	20940.97
801.837	20835.67
802.168	20817.36
802.499	20669.34
802.83	20490.82
803.161	20549.57
803.491	20565.62
803.822	20438.39
804.153	20343.48
804.483	20214.21
804.814	20174.44
805.145	20214.67
805.475	20119.53
805.805	20024.39
806.136	19943.94
806.466	20012.86
806.796	19919.31
807.126	19806.99
807.457	19750.95
807.787	19765.64
808.117	19690.61
808.447	19563.16
808.777	19614.68
809.107	19615.13
809.436	19490.62
809.766	19393.44
810.096	19384.86
810.426	19242.26
810.755	19327.68
811.085	19227.12
811.414	19195.94
811.744	19055.6
812.073	18982.16
812.403	19037.75
812.732	18877.98
813.061	18847.02
813.39	18650.87
813.719	18673.46
814.049	18807.92
814.378	18690.64
814.707	18675.05
815.036	18708.27
815.365	18537.65
815.693	18398.89
816.022	18355.73
816.351	18366.58
816.68	18242.06
817.008	18257.88
817.337	18057.66
817.665	18099.69
817.994	18154.83
818.322	18037.1
818.651	17886.37
818.979	17867.16
819.307	17970.66
819.636	17877.55
819.964	17868.06
820.292	17798.91
820.62	17797.1
820.948	17678.91
821.276	17694.73
821.604	17685.02
821.932	17757.56
822.259	17634.62
822.587	17721.85
822.915	17605.92
823.243	17516.88
823.57	17607.05
823.898	17553.95
824.225	17518.47
824.553	17504
824.88	17558.46
825.207	17636.65
825.535	17471.91
825.862	17616.32
826.189	17494.96
826.516	17602.31
826.843	17602.08
827.17	17574.74
827.497	17551.69
827.824	17524.57
828.151	17594.4
828.478	17574.51
828.805	17627.16
829.131	17487.05
829.458	17443.67
829.785	17508.52
830.111	17438.02
830.438	17521.18
830.764	17439.6
831.09	17522.31
831.417	17405.47
831.743	17425.14
832.069	17334.29
832.395	17422.2
832.722	17334.29
833.048	17375.42
833.374	17384.23
833.7	17368.41
834.026	17340.84
834.351	17236.44
834.677	17339.71
835.003	17315.99
835.329	17301.52
835.654	17162.77
835.98	17093.84
836.306	17184.46
836.631	17098.59
836.956	17174.07
837.282	17168.19
837.607	17016.33
837.932	16993.28
838.258	16973.85
838.583	16950.12
838.908	16852.49
839.233	16854.3
839.558	16894.98
839.883	16796
840.208	16805.04
840.533	16732.72
840.858	16771.37
841.182	16682.33
841.507	16653.63
841.832	16590.58
842.156	16532.5
842.481	16509.45
842.805	16451.38
843.13	16466.29
843.454	16382.45
843.778	16383.81
844.103	16387.2
844.427	16341.77
844.751	16299.29
845.075	16174.09
845.399	16122.12
845.723	16069.46
846.047	16015.23
846.371	15876.02
846.695	15930.03
847.019	15874.89
847.343	15730.72
847.666	15649.36
847.99	15579.53
848.313	15612.53
848.637	15512.87
848.96	15394.91
849.284	15355.81
849.607	15328.92
849.931	15342.03
850.254	15118.53
850.577	15114.69
850.9	14902.04
851.223	14953.79
851.546	14955.6
851.869	14725.09
852.192	14862.26
852.515	14706.11
852.838	14660.24
853.161	14648.94
853.483	14553.57
853.806	14443.74
854.129	14534.14
854.451	14417.98
854.774	14361.71
855.096	14262.96
855.419	14323.97
855.741	14285.78
856.063	14197.88
856.385	14221.6
856.708	14187.71
857.03	14016.41
857.352	14050.76
857.674	13985.68
857.996	13980.48
858.318	13908.17
858.64	13873.59
858.961	13701.62
859.283	13739.13
859.605	13716.76
859.926	13717.44
860.248	13690.09
860.57	13636.08
860.891	13610.55
861.212	13466.37
861.534	13534.16
861.855	13569.19
862.176	13523.77
862.498	13417.56
862.819	13459.59
863.14	13347.05
863.461	13314.28
863.782	13297.79
864.103	13303.44
864.424	13234.06
864.745	13299.14
865.065	13215.3
865.386	13196.77
865.707	13196.09
866.027	13196.55
866.348	13099.83
866.668	13150.9
866.989	13091.69
867.309	13003.78
867.63	13016.44
867.95	12966.72
868.27	12916.78
868.59	12938.7
868.91	12930.56
869.23	12891.47
869.55	12881.53
869.87	12883.56
870.19	12837.69
870.51	12871.36
870.83	12805.14
871.15	12702.32
871.469	12690.57
871.789	12710.23
872.109	12703
872.428	12591.14
872.748	12684.92
873.067	12670.68
873.386	12677.01
873.706	12588.65
874.025	12569.67
874.344	12458.71
874.663	12547.3
874.982	12502.55
875.301	12465.94
875.62	12423.23
875.939	12349.11
876.258	12314.31
876.577	12288.32
876.896	12296.68
877.214	12211.26
877.533	12253.97
877.852	12177.59
878.17	12279.73
878.489	12157.02
878.807	12222.56
879.125	12276.57
879.444	12170.13
879.762	12153.41
880.08	12093.52
880.398	12086.07
880.716	12087.87
881.034	12004.03
881.352	12004.71
881.67	11938.95
881.988	11976.01
882.306	11839.29
882.624	11922.23
882.941	11850.37
883.259	11741.89
883.577	11798.39
883.894	11763.36
884.212	11692.86
884.529	11715
884.846	11614.44
885.164	11689.01
885.481	11610.37
885.798	11675.91
886.115	11546.42
886.432	11583.03
886.75	11415.35
887.067	11465.52
887.383	11453.31
887.7	11436.59
888.017	11402.69
888.334	11391.85
888.651	11370.38
888.967	11302.36
889.284	11262.59
889.6	11198.41
889.917	11148.69
890.233	11122.7
890.55	11086.77
890.866	11120.89
891.182	11106.88
891.498	10981.24
891.815	10977.62
892.131	10933.78
892.447	10903.5
892.763	10919.09
893.079	10865.08
893.395	10787.8
893.71	10797.74
894.026	10785.31
894.342	10697.63
894.657	10687.69
894.973	10621.7
895.289	10624.41
895.604	10533.79
895.92	10468.93
896.235	10489.27
896.55	10424.87
896.865	10476.17
897.181	10339.45
897.496	10440.01
897.811	10324.98
898.126	10304.42
898.441	10236.4
898.756	10162.5
899.071	10155.27
899.386	10122.73
899.7	10051.54
900.015	10063.07
900.33	10027.82
900.644	9964.77
900.959	9980.59
901.273	9958.89
901.588	9882.96
901.902	9777.88
902.216	9756.18
902.531	9806.58
902.845	9739.01
903.159	9632.8
903.473	9699.69
903.787	9629.63
904.101	9509.18
904.415	9598.67
904.729	9557.09
905.042	9495.63
905.356	9449.53
905.67	9412.01
905.984	9385.57
906.297	9397.1
906.611	9249.3
906.924	9303.77
907.237	9224.22
907.551	9187.61
907.864	9098.8
908.177	9191
908.491	9100.38
908.804	9033.27
909.117	8995.3
909.43	9027.62
909.743	8932.25
910.056	8873.04
910.368	8901.29
910.681	8806.6
910.994	8757.11
911.307	8775.64
911.619	8694.74
911.932	8672.82
912.244	8647.51
912.557	8621.3
912.869	8606.61
913.181	8531.36
913.494	8514.18
913.806	8441.87
914.118	8399.16
914.43	8365.71
914.742	8408.65
915.054	8306.05
915.366	8282.78
915.678	8268.77
915.99	8155.77
916.302	8085.27
916.613	8188.09
916.925	8165.94
917.236	8113.52
917.548	7982.22
917.859	8047.08
918.171	7951.49
918.482	7903.35
918.794	7899.74
919.105	7858.15
919.416	7809.34
919.727	7836.91
920.038	7778.84
920.349	7672.62
920.66	7628.56
920.971	7665.62
921.282	7631.27
921.593	7553.08
921.903	7527.99
922.214	7477.15
922.525	7493.42
922.835	7408.45
923.146	7369.81
923.456	7371.84
923.767	7312.63
924.077	7309.47
924.387	7325.74
924.697	7149.25
925.008	7201.9
925.318	7181.56
925.628	7211.62
925.938	7181.56
926.248	7099.08
926.558	7017.73
926.867	6994
927.177	6997.61
927.487	6959.42
927.796	6925.75
928.106	6899.54
928.416	6853.21
928.725	6815.92
929.034	6837.84
929.344	6838.75
929.653	6777.96
929.962	6743.16
930.271	6651.63
930.581	6663.38
930.89	6606.21
931.199	6572.99
931.508	6599.88
931.817	6517.85
932.125	6534.12
932.434	6504.74
932.743	6442.37
933.051	6423.16
933.36	6389.94
933.669	6355.14
933.977	6310.63
934.286	6286.44
934.594	6263.85
934.902	6224.07
935.21	6207.8
935.519	6201.48
935.827	6227.01
936.135	6141.36
936.443	6107.01
936.751	6101.82
937.059	6044.19
937.367	6036.73
937.674	6061.37
937.982	5998.09
938.29	5959.9
938.597	5970.75
938.905	5879.68
939.213	5871.31
939.52	5875.61
939.827	5826.12
940.135	5809.62
940.442	5760.36
940.749	5755.84
941.056	5729.62
941.363	5678.55
941.67	5644.88
941.977	5641.94
942.284	5569.18
942.591	5616.41
942.898	5545.67
943.205	5469.29
943.511	5501.83
943.818	5478.33
944.125	5436.07
944.431	5446.01
944.738	5428.16
945.044	5393.36
945.35	5350.2
945.657	5279.92
945.963	5322.4
946.269	5279.24
946.575	5249.41
946.881	5207.83
947.187	5208.96
947.493	5220.94
947.799	5180.49
948.105	5133.48
948.41	5089.87
948.716	5141.62
949.022	5009.64
949.327	5048.96
949.633	5033.14
949.938	4991.56
950.244	5020.72
950.549	4915.18
950.854	4958.34
951.16	4888.74
951.465	4906.14
951.77	4878.35
952.075	4869.98
952.38	4796.77
952.685	4814.85
952.99	4789.08
953.294	4755.86
953.599	4765.35
953.904	4711.57
954.209	4687.39
954.513	4699.82
954.818	4639.03
955.122	4695.98
955.426	4629.99
955.731	4564.46
956.035	4546.15
956.339	4560.39
956.643	4539.6
956.948	4494.63
957.252	4508.86
957.556	4479.71
957.86	4500.28
958.163	4460.96
958.467	4448.3
958.771	4400.17
959.075	4385.48
959.378	4367.63
959.682	4363.78
959.985	4357.68
960.289	4309.77
960.592	4281.3
960.896	4315.2
961.199	4263
961.502	4211.7
961.805	4237.69
962.108	4201.3
962.411	4151.36
962.714	4168.76
963.017	4144.13
963.32	4149.1
963.623	4107.97
963.926	4068.2
964.228	4027.75
964.531	4017.8
964.833	4038.82
965.136	4005.15
965.438	3963.57
965.741	3991.82
966.043	3910.69
966.345	3918.82
966.648	3893.51
966.95	3914.08
967.252	3850.58
967.554	3848.99
967.856	3851.03
968.158	3821.88
968.46	3799.96
968.761	3742.1
969.063	3774.65
969.365	3771.03
969.666	3715.89
969.968	3703.46
970.269	3712.73
970.571	3684.93
970.872	3683.8
971.174	3634.54
971.475	3660.53
971.776	3604.48
972.077	3627.98
972.378	3579.17
972.679	3556.57
972.98	3533.97
973.281	3514.31
973.582	3526.07
973.883	3465.73
974.183	3502.56
974.484	3475.9
974.785	3444.71
975.085	3437.48
975.386	3442.23
975.686	3446.07
975.986	3384.83
976.287	3383.02
976.587	3329.01
976.887	3297.14
977.187	3383.7
977.487	3335.79
977.787	3298.5
978.087	3284.94
978.387	3254.43
978.687	3256.24
978.987	3247.88
979.286	3210.82
979.586	3221.21
979.885	3187.09
980.185	3163.59
980.484	3133.08
980.784	3158.39
981.083	3158.84
981.382	3145.06
981.682	3097.38
981.981	3093.99
982.28	3098.28
982.579	3026.64
982.878	3049.47
983.177	3033.65
983.475	3007.44
983.774	3046.53
984.073	2977.15
984.372	2976.7
984.67	2954.33
984.969	2959.53
985.267	2929.02
985.566	2938.28
985.864	2919.08
986.162	2917.27
986.461	2884.27
986.759	2910.49
987.057	2867.33
987.355	2857.61
987.653	2851.73
987.951	2815.58
988.249	2796.82
988.547	2830.94
988.844	2796.59
989.142	2762.24
989.44	2759.98
989.737	2753.88
990.035	2752.75
990.332	2703.94
990.63	2686.54
990.927	2647.67
991.224	2699.19
991.521	2671.17
991.819	2628.01
992.116	2625.75
992.413	2613.55
992.71	2590.27
993.006	2620.33
993.303	2600.21
993.6	2562.93
993.897	2564.51
994.193	2548.24
994.49	2512.31
994.787	2528.58
995.083	2514.79
995.379	2489.48
995.676	2520.89
995.972	2450.16
996.268	2447.22
996.565	2456.49
996.861	2428.47
997.157	2412.65
997.453	2406.55
997.749	2411.52
998.044	2381.01
998.34	2369.94
998.636	2376.27
998.932	2344.63
999.227	2352.31
999.523	2314.57
999.818	2265.53
1000.114	2283.16
1000.409	2306.21
1000.704	2253.56
1001	2257.62
1001.295	2240.22
1001.59	2216.95
1001.885	2234.35
1002.18	2202.48
1002.475	2200.22
1002.77	2183.28
1003.065	2157.97
1003.359	2128.81
1003.654	2134.92
1003.949	2143.95
1004.243	2131.75
1004.538	2089.49
1004.832	2115.26
1005.127	2083.17
1005.421	2092.43
1005.715	2060.12
1006.009	2026.9
1006.304	2052.43
1006.598	2031.64
1006.892	2040
1007.186	2018.31
1007.48	1970.85
1007.773	1991.87
1008.067	1939.89
1008.361	1922.94
1008.655	1955.03
1008.948	1926.33
1009.242	1920.46
1009.535	1889.05
1009.829	1902.83
1010.122	1887.01
1010.415	1866.22
1010.708	1860.12
1011.001	1861.93
1011.295	1845.66
1011.588	1846.11
1011.881	1811.76
1012.173	1787.13
1012.466	1762.04
1012.759	1822.16
1013.052	1763.63
1013.344	1769.95
1013.637	1786
1013.93	1757.07
1014.222	1771.08
1014.514	1744.42
1014.807	1687.24
1015.099	1744.42
1015.391	1674.59
1015.683	1715.04
1015.976	1675.04
1016.268	1670.07
1016.56	1665.55
1016.851	1635.04
1017.143	1629.62
1017.435	1644.08
1017.727	1635.49
1018.018	1620.35
1018.31	1622.61
1018.602	1602.5
1018.893	1562.05
1019.185	1552.56
1019.476	1553.91
1019.767	1534.71
1020.058	1558.43
1020.35	1542.84
1020.641	1512.56
1020.932	1502.84
1021.223	1509.85
1021.514	1468.94
1021.804	1456.52
1022.095	1481.83
1022.386	1465.55
1022.677	1443.18
1022.967	1413.13
1023.258	1439.79
1023.548	1425.33
1023.839	1398.21
1024.129	1410.19
1024.419	1366.12
1024.709	1397.76
1025	1366.8
1025.29	1373.58
1025.58	1350.08
1025.87	1332.68
1026.16	1351.66
1026.449	1342.39
1026.739	1322.73
1027.029	1291.32
1027.319	1280.02
1027.608	1278.21
1027.898	1291.55
1028.187	1281.15
1028.477	1256.97
1028.766	1264.88
1029.055	1258.55
1029.344	1248.39
1029.634	1206.8
1029.923	1201.61
1030.212	1237.09
1030.501	1217.88
1030.79	1186.47
1031.078	1190.99
1031.367	1158.44
1031.656	1153.25
1031.945	1169.07
1032.233	1164.55
1032.522	1133.36
1032.81	1129.97
1033.099	1138.11
1033.387	1112.12
1033.675	1127.71
1033.963	1126.13
1034.251	1105.79
1034.54	1079.12
1034.828	1069.86
1035.116	1087.49
1035.403	1085.68
1035.691	1052.68
1035.979	1077.32
1036.267	1057.2
1036.554	1045.9
1036.842	1046.58
1037.129	1050.65
1037.417	1019.69
1037.704	1009.07
1037.992	1012.23
1038.279	1016.3
1038.566	976.08
1038.853	976.08
1039.14	976.08
