Data from white_poster_card_FLMS001491_00075.txt Node
Date: Wed Feb 08 11:51:59 GMT 2017
User: dcchb
Spectrometer: FLMS00149
Trigger mode: 0
Integration Time (sec): 2.000000E-2
Scans to average: 10
Electric dark correction enabled: true
Nonlinearity correction enabled: false
Boxcar width: 0
XAxis mode: Wavelengths
Number of Pixels in Spectrum: 2048
>>>>>Begin Spectral Data<<<<<
341.393	-33.77
341.776	-33.77
342.16	-33.77
342.543	-78.74
342.927	-76.03
343.31	-50.04
343.693	-57.05
344.077	-83.71
344.46	-76.48
344.843	-41
345.226	-44.84
345.61	-18.63
345.993	-17.05
346.376	-3.04
346.759	-8.69
347.142	20.24
347.525	37.87
347.908	56.85
348.291	83.29
348.674	99.79
349.057	102.5
349.44	125.32
349.823	146.34
350.206	169.84
350.588	191.31
350.971	216.17
351.354	203.29
351.737	232.66
352.119	235.83
352.502	264.3
352.884	277.63
353.267	269.95
353.65	284.64
354.032	311.76
354.414	310.85
354.797	305.66
355.179	336.16
355.562	311.53
355.944	322.83
356.326	330.29
356.709	354.92
357.091	337.52
357.473	341.14
357.855	364.64
358.238	367.35
358.62	342.49
359.002	328.48
359.384	349.04
359.766	339.78
360.148	359.89
360.53	343.17
360.912	341.59
361.294	335.49
361.676	349.95
362.057	347.91
362.439	337.75
362.821	330.51
363.203	348.59
363.584	316.73
363.966	321.47
364.348	339.78
364.729	323.06
365.111	317.63
365.493	338.65
365.874	314.92
366.256	346.78
366.637	314.47
367.019	317.63
367.4	322.6
367.781	324.64
368.163	318.54
368.544	316.95
368.925	319.89
369.306	311.76
369.688	319.89
370.069	303.17
370.45	308.14
370.831	322.6
371.212	332.55
371.593	326.45
371.974	318.31
372.355	318.08
372.736	329.61
373.117	343.85
373.498	319.67
373.879	340.46
374.26	310.4
374.641	325.99
375.021	315.6
375.402	327.12
375.783	336.84
376.163	322.38
376.544	344.75
376.925	344.98
377.305	327.35
377.686	313.11
378.066	338.65
378.447	335.26
378.827	343.85
379.208	335.71
379.588	342.94
379.968	321.47
380.349	349.5
380.729	360.12
381.109	351.53
381.489	353.11
381.87	358.99
382.25	324.41
382.63	336.62
383.01	349.72
383.39	361.02
383.77	334.36
384.15	359.21
384.53	361.47
384.91	331.64
385.29	360.12
385.67	353.79
386.049	382.26
386.429	371.87
386.809	374.81
387.189	387.24
387.568	381.59
387.948	382.26
388.328	381.59
388.707	376.16
389.087	339.78
389.466	380.68
389.846	388.14
390.225	404.64
390.605	392.66
390.984	396.95
391.363	391.98
391.743	391.76
392.122	416.16
392.501	423.39
392.881	429.72
393.26	394.02
393.639	412.55
394.018	400.34
394.397	434.69
394.776	419.78
395.155	413.22
395.534	423.84
395.913	427.69
396.292	448.93
396.671	443.51
397.05	442.38
397.429	441.02
397.808	438.31
398.186	437.63
398.565	437.18
398.944	460.68
399.323	453
399.701	468.14
400.08	456.84
400.458	458.87
400.837	477.4
401.215	473.11
401.594	485.76
401.972	476.27
402.351	475.82
402.729	469.04
403.107	484.86
403.486	485.99
403.864	487.12
404.242	495.48
404.62	508.81
404.999	507.23
405.377	510.85
405.755	504.97
406.133	535.71
406.511	541.58
406.889	539.32
407.267	528.93
407.645	557.17
408.023	555.59
408.401	586.78
408.779	569.83
409.156	597.63
409.534	605.08
409.912	594.46
410.29	620.68
410.667	629.94
411.045	628.13
411.422	644.86
411.8	666.32
412.178	659.32
412.555	707
412.933	704.74
413.31	743.16
413.687	731.63
414.065	740.9
414.442	740.22
414.819	767.79
415.197	798.98
415.574	779.99
415.951	822.7
416.328	841.01
416.705	841.01
417.082	870.84
417.46	892.53
417.837	898.63
418.214	884.17
418.591	930.95
418.967	957.16
419.344	968.24
419.721	956.03
420.098	980.44
420.475	1009.14
420.852	1014.34
421.228	1005.07
421.605	1033.77
421.982	1051.4
422.358	1076.48
422.735	1093.43
423.111	1075.13
423.488	1092.53
423.864	1125.75
424.241	1162.58
424.617	1162.36
424.994	1161
425.37	1205.07
425.746	1242.35
426.123	1214.11
426.499	1277.83
426.875	1280.32
427.251	1282.81
427.627	1277.61
428.003	1313.09
428.379	1318.06
428.756	1333.88
429.132	1357.61
429.507	1376.36
429.883	1422.01
430.259	1475.12
430.635	1441.22
431.011	1469.69
431.387	1489.35
431.763	1551.27
432.138	1551.27
432.514	1572.52
432.89	1583.36
433.265	1622.46
433.641	1598.05
434.016	1639.63
434.392	1676.47
434.767	1693.42
435.143	1687.54
435.518	1714.21
435.894	1756.47
436.269	1782.23
436.644	1798.27
437.02	1794.43
437.395	1821.55
437.77	1855.22
438.145	1884.6
438.52	1880.53
438.895	1939.51
439.271	1953.97
439.646	1958.95
440.021	1997.36
440.395	1984.26
440.77	1975.89
441.145	1998.04
441.52	2054.76
441.895	2047.98
442.27	2063.35
442.645	2030.36
443.019	2103.8
443.394	2107.42
443.769	2115.78
444.143	2096.34
444.518	2131.6
444.892	2125.04
445.267	2179.73
445.641	2196.45
446.016	2197.81
446.39	2176.34
446.764	2189
447.139	2233.74
447.513	2248.2
447.887	2264.93
448.262	2268.77
448.636	2270.58
449.01	2285.72
449.384	2318.26
449.758	2333.85
450.132	2367.52
450.506	2371.59
450.88	2360.97
451.254	2397.35
451.628	2437.13
452.002	2461.31
452.376	2472.38
452.75	2474.64
453.123	2527.07
453.497	2571.81
453.871	2556.44
454.244	2600.96
454.618	2664.46
454.992	2652.26
455.365	2699.72
455.739	2716.21
456.112	2762.31
456.486	2774.29
456.859	2807.74
457.232	2819.26
457.606	2853.39
457.979	2899.26
458.352	2949.88
458.725	2999.14
459.099	3002.76
459.472	3039.82
459.845	3052.48
460.218	3080.5
460.591	3131.12
460.964	3174.05
461.337	3227.61
461.71	3252.7
462.083	3322.3
462.456	3327.5
462.829	3363.43
463.201	3365.69
463.574	3416.08
463.947	3455.86
464.32	3528.17
464.692	3547.38
465.065	3557.55
465.438	3610.65
465.81	3717.77
466.183	3730.2
466.555	3788.28
466.928	3843.19
467.3	3859.23
467.672	3889.52
468.045	3983.07
468.417	3965.9
468.789	3967.71
469.161	4029.63
469.534	4111.66
469.906	4204.08
470.278	4291.77
470.65	4284.08
471.022	4338.77
471.394	4422.38
471.766	4492.89
472.138	4554.13
472.51	4626.45
472.882	4687.46
473.253	4748.25
473.625	4774.69
473.997	4854.46
474.369	4929.49
474.74	4991.41
475.112	5059.88
475.484	5127.68
475.855	5232.31
476.227	5296.71
476.598	5400.89
476.97	5442.92
477.341	5599.3
477.713	5627.1
478.084	5684.72
478.455	5825.28
478.827	5838.17
479.198	6024.6
479.569	6079.29
479.94	6207.65
480.311	6235.44
480.682	6413.07
481.053	6524.25
481.424	6626.39
481.795	6699.84
482.166	6836.11
482.537	6918.59
482.908	7031.35
483.279	7104.57
483.65	7212.14
484.021	7414.85
484.391	7439.25
484.762	7480.61
485.133	7624.11
485.503	7727.83
485.874	7900.94
486.244	7952.23
486.615	8102.74
486.985	8121.72
487.356	8382.96
487.726	8419.11
488.097	8535.5
488.467	8614.59
488.837	8771.42
489.207	8901.59
489.578	9027.01
489.948	9137.51
490.318	9201.92
490.688	9292.09
491.058	9389.26
491.428	9534.57
491.798	9651.4
492.168	9787.89
492.538	9870.15
492.908	10000.09
493.278	10164.15
493.648	10121.44
494.017	10255.9
494.387	10396.46
494.757	10414.77
495.126	10591.49
495.496	10691.15
495.866	10697.92
496.235	10837.81
496.605	10904.7
496.974	11049.78
497.344	11095.65
497.713	11199.38
498.082	11244.35
498.452	11465.14
498.821	11482.76
499.19	11459.49
499.559	11572.03
499.928	11648.41
500.298	11838.69
500.667	11931.56
501.036	11866.48
501.405	12041.84
501.774	12071.9
502.143	12088.62
502.512	12221.05
502.88	12423.08
503.249	12384.43
503.618	12456.97
503.987	12553.02
504.356	12615.16
504.724	12725.22
505.093	12802.5
505.462	12911.88
505.83	12986.23
506.199	13050.18
506.567	13216.05
506.936	13279.55
507.304	13412.88
507.672	13429.83
508.041	13559.09
508.409	13609.94
508.777	13786.88
509.145	13965.86
509.514	13892.64
509.882	14006.99
510.25	14076.14
510.618	14270.03
510.986	14156.82
511.354	14406.08
511.722	14573.98
512.09	14648.78
512.458	14636.13
512.826	14704.83
513.193	14900.75
513.561	15023.91
513.929	15139.62
514.297	15276.34
514.664	15388.88
515.032	15361.31
515.4	15577.12
515.767	15627.06
516.135	15734.4
516.502	15685.82
516.869	16006.71
517.237	16055.07
517.604	16032.7
517.972	16248.97
518.339	16309.08
518.706	16393.59
519.073	16559.24
519.44	16690.54
519.808	16821.83
520.175	16852.57
520.542	17142.5
520.909	17197.87
521.276	17172.1
521.643	17420.46
522.009	17566.44
522.376	17764.41
522.743	17762.37
523.11	18045.3
523.477	18151.51
523.843	18253.88
524.21	18428.12
524.577	18593.08
524.943	18638.06
525.31	18785.62
525.676	18956.01
526.043	19107.65
526.409	19149.23
526.776	19402.55
527.142	19482.1
527.508	19562.78
527.874	19768.19
528.241	19891.36
528.607	20038.7
528.973	20133.61
529.339	20175.19
529.705	20444.56
530.071	20564.11
530.437	20682.52
530.803	20766.13
531.169	20941.05
531.535	20909.86
531.901	21003.42
532.267	21122.96
532.632	21343.52
532.998	21341.26
533.364	21465.55
533.73	21582.16
534.095	21809.95
534.461	21817.86
534.826	21963.17
535.192	21993.22
535.557	22170.17
535.923	22214.46
536.288	22263.95
536.653	22372.65
537.019	22378.75
537.384	22499.65
537.749	22718.4
538.114	22699.19
538.479	22841.11
538.845	22888.11
539.21	22864.38
539.575	23047.88
539.94	23171.27
540.305	23329.23
540.67	23326.07
541.034	23445.39
541.399	23455.1
541.764	23578.04
542.129	23618.26
542.494	23728.32
542.858	23792.72
543.223	23890.12
543.587	24010.8
543.952	23984.36
544.316	24088.31
544.681	24164.24
545.045	24247.17
545.41	24407.17
545.774	24446.26
546.138	24500.05
546.503	24509.31
546.867	24569.42
547.231	24862.3
547.595	24819.36
547.959	24934.16
548.324	24986.14
548.688	25042.63
549.052	25197.2
549.416	25273.13
549.779	25336.86
550.143	25392.45
550.507	25555.16
550.871	25740.24
551.235	25709.28
551.599	25912.44
551.962	25982.95
552.326	25957.41
552.689	26124.19
553.053	26102.04
553.417	26135.03
553.78	26519.43
554.143	26360.56
554.507	26669.48
554.87	26686.88
555.234	26964.39
555.597	26814.56
555.96	26981.34
556.323	27083.03
556.686	27139.98
557.05	27405.28
557.413	27411.16
557.776	27570.25
558.139	27752.84
558.502	27787.19
558.865	27851.6
559.228	28099.5
559.59	28297.24
559.953	28365.26
560.316	28505.37
560.679	28636.66
561.041	28763.21
561.404	28784.23
561.767	29085.92
562.129	28982.64
562.492	29288.4
562.854	29254.95
563.217	29454.04
563.579	29567.49
563.941	29780.59
564.304	29736.29
564.666	29939
565.028	30097.64
565.39	30180.8
565.753	30317.3
566.115	30244.98
566.477	30456.5
566.839	30692.65
567.201	30802.26
567.563	30889.26
567.925	31020.33
568.287	31104.62
568.648	31162.47
569.01	31344.39
569.372	31583.7
569.734	31391.17
570.095	31669.35
570.457	31847.43
570.819	31864.83
571.18	31918.61
571.542	32169.22
571.903	32139.62
572.265	32282.22
572.626	32234.99
572.987	32244.7
573.349	32575.54
573.71	32602.89
574.071	32740.28
574.432	32853.73
574.794	33006.72
575.155	33095.53
575.516	32963.33
575.877	33153.83
576.238	33121.74
576.599	33309.08
576.96	33326.03
577.32	33401.96
577.681	33481.05
578.042	33597.66
578.403	33618.23
578.763	33688.05
579.124	33680.6
579.485	33897.31
579.845	33962.85
580.206	33845.56
580.566	33926.01
580.927	33853.7
581.287	34094.37
581.648	33912.23
582.008	34058.89
582.368	34054.37
582.728	34093.24
583.089	33974.15
583.449	34072.9
583.809	34177.76
584.169	34217.76
584.529	34143.18
584.889	34409.39
585.249	34164.43
585.609	34105.9
585.969	34324.42
586.329	34285.33
586.688	34245.78
587.048	34191.77
587.408	34212.11
587.768	34163.97
588.127	34275.61
588.487	34340.92
588.846	34414.59
589.206	34223.86
589.565	34223.86
589.925	34379.11
590.284	34293.01
590.643	34452.55
591.003	34489.62
591.362	34416.17
591.721	34329.39
592.08	34515.15
592.44	34475.15
592.799	34474.25
593.158	34381.82
593.517	34498.66
593.876	34592.89
594.235	34362.16
594.593	34471.54
594.952	34617.97
595.311	34448.71
595.67	34555.83
596.029	34695.26
596.387	34866.33
596.746	34794.24
597.104	34669.5
597.463	34678.31
597.822	34829.04
598.18	34687.8
598.538	34718.54
598.897	35013.9
599.255	34631.53
599.613	35216.83
599.972	34918.08
600.33	34963.28
600.688	34859.78
601.046	34958.98
601.404	35001.47
601.762	34953.78
602.12	35253.44
602.478	35212.99
602.836	35159.43
603.194	35003.95
603.552	35102.03
603.91	35121.24
604.268	35179.09
604.625	35152.2
604.983	35269.48
605.341	35154.23
605.698	35361.23
606.056	35388.12
606.413	35348.58
606.771	35444.39
607.128	35474.9
607.485	35367.33
607.843	35321.91
608.2	35514.45
608.557	35556.48
608.914	35526.88
609.272	35655.23
609.629	35825.4
609.986	35910.6
610.343	35672.64
610.7	36078.95
611.057	35872.86
611.414	35864.49
611.771	36010.03
612.127	36008.22
612.484	36124.6
612.841	36070.82
613.198	36104.71
613.554	36091.83
613.911	36264.48
614.267	36253.86
614.624	36182.9
614.98	36282.34
615.337	36440.75
615.693	36288.21
616.05	36308.32
616.406	36642.33
616.762	36333.64
617.118	36372.05
617.475	36428.32
617.831	36652.95
618.187	36588.54
618.543	36529.56
618.899	36777.92
619.255	36708.31
619.611	36715.55
619.967	36739.5
620.323	36898.14
620.678	36656.34
621.034	36610.69
621.39	36712.83
621.746	36562.78
622.101	36961.64
622.457	36699.73
622.812	36745.83
623.168	36777.01
623.523	36768.2
623.879	36759.84
624.234	36598.71
624.589	36761.65
624.945	36892.49
625.3	36846.16
625.655	36772.95
626.01	36855.43
626.365	36858.59
626.72	36862.89
627.075	36704.02
627.43	36619.28
627.785	36697.24
628.14	36752.38
628.495	36822.89
628.85	36726.17
629.205	36625.38
629.559	36800.29
629.914	36534.31
630.269	36666.51
630.623	36607.3
630.978	36407.31
631.332	36568.21
631.687	36625.83
632.041	36402.79
632.396	36550.58
632.75	36454.76
633.104	36428.55
633.459	36212.73
633.813	36266.97
634.167	36179.51
634.521	36114.21
634.875	36224.03
635.229	36190.36
635.583	36000.54
635.937	35895
636.291	35924.15
636.645	36049.12
636.999	35810.03
637.352	35965.51
637.706	35700.88
638.06	35929.35
638.413	35832.18
638.767	35626.99
639.121	35708.11
639.474	35469.25
639.828	35446.65
640.181	35791.05
640.534	35640.77
640.888	35506.76
641.241	35299.99
641.594	35447.33
641.947	35552.86
642.301	35272.65
642.654	35352.64
643.007	35356.26
643.36	35212.76
643.713	35160.56
644.066	35299.76
644.419	34952.88
644.771	34894.8
645.124	34435.83
645.477	34469.28
645.83	34170.75
646.182	34003.98
646.535	34010.98
646.888	33996.97
647.24	33876.52
647.593	34013.47
647.945	33986.13
648.298	33813.93
648.65	33657.32
649.002	33672.46
649.355	33832.68
649.707	33688.96
650.059	33839.69
650.411	34051.66
650.763	34245.78
651.115	34565.09
651.467	34392.22
651.819	34322.61
652.171	34229.96
652.523	34158.1
652.875	34250.53
653.227	33931.66
653.578	34285.1
653.93	34208.95
654.282	33929.4
654.633	33852.34
654.985	34028.38
655.337	33975.28
655.688	33980.02
656.039	34020.93
656.391	33844.43
656.742	33919.91
657.094	33832.01
657.445	33884.21
657.796	33808.28
658.147	33733.93
658.498	33766.7
658.849	33857.09
659.2	33679.69
659.551	33504.56
659.902	33709.98
660.253	33669.07
660.604	33759.24
660.955	33546.14
661.306	33565.12
661.656	33562.41
662.007	33589.53
662.358	33580.71
662.708	33580.26
663.059	33520.6
663.409	33339.36
663.76	33552.69
664.11	33551.79
664.461	33475.18
664.811	33458.91
665.161	33366.26
665.511	33359.48
665.862	33438.12
666.212	33475.18
666.562	33477.44
666.912	33397.44
667.262	33298.91
667.612	33350.21
667.962	33247.16
668.312	33322.64
668.662	33389.08
669.011	33242.87
669.361	33157.67
669.711	33148.41
670.06	33127.84
670.41	33145.92
670.76	33088.07
671.109	33216.65
671.459	33198.58
671.808	32965.81
672.157	33099.82
672.507	32914.52
672.856	32963.78
673.205	32948.64
673.554	32951.35
673.904	32855.53
674.253	33032.7
674.602	32869.09
674.951	32355.66
675.3	32182.33
675.649	32807.4
675.998	32787.51
676.346	32867.74
676.695	32917.68
677.044	32619.16
677.393	32741.41
677.741	32731.92
678.09	32634.07
678.438	32502.32
678.787	32555.2
679.135	32576.9
679.484	32374.42
679.832	32637.01
680.181	32386.17
680.529	32423.68
680.877	32351.37
681.225	32334.64
681.573	32488.31
681.922	32209.68
682.27	32102.11
682.618	32122.45
682.966	32010.13
683.314	32087.87
683.661	31945.95
684.009	31749.35
684.357	31688.56
684.705	31719.52
685.053	31753.87
685.4	31685.85
685.748	31511.39
686.095	31552.52
686.443	31406.98
686.79	31271.17
687.138	31419.64
687.485	31328.79
687.832	31242.92
688.18	31117.73
688.527	30999.31
688.874	30954.12
689.221	30868.24
689.568	30853.55
689.915	30671.41
690.262	30859.43
690.609	30614.01
690.956	30547.57
691.303	30465.31
691.65	30443.39
691.997	30269.61
692.344	30147.81
692.69	30028.04
693.037	30216.51
693.383	29932.9
693.73	30066.23
694.077	29789.85
694.423	29823.07
694.769	29811.55
695.116	29637.99
695.462	29645.45
695.808	29449.52
696.155	29572.91
696.501	29287.27
696.847	29369.52
697.193	29160.04
697.539	29175.41
697.885	28988.74
698.231	28904
698.577	28832.14
698.923	28924.79
699.269	28772.25
699.614	28568.64
699.96	28435.54
700.306	28519.38
700.651	28318.03
700.997	28380.85
701.342	28245.26
701.688	28332.26
702.033	28160.52
702.379	28103.79
702.724	28040.75
703.069	28101.76
703.415	27732.51
703.76	27850.47
704.105	27909
704.45	27785.39
704.795	27543.36
705.14	27491.83
705.485	27431.72
705.83	27325.06
706.175	27444.83
706.52	27320.54
706.865	27135.68
707.209	27123.26
707.554	27022.69
707.899	27080.09
708.243	26903.83
708.588	26915.8
708.932	26757.84
709.277	26631.29
709.621	26720.33
709.966	26488.24
710.31	26613.44
710.654	26425.87
710.998	26491.63
711.342	26331.41
711.687	26342.94
712.031	26200.79
712.375	26193.79
712.719	26223.84
713.063	26112.43
713.407	26113.56
713.75	26002.83
714.094	26082.38
714.438	25854.59
714.782	25907.24
715.125	25721.71
715.469	25929.61
715.812	25599.45
716.156	25598.1
716.499	25547.25
716.843	25650.3
717.186	25431.32
717.53	25500.02
717.873	25581.83
718.216	25446.24
718.559	25246.92
718.902	25259.8
719.246	25185
719.589	25102.29
719.932	25027.72
720.275	25142.97
720.617	24965.8
720.96	24949.53
721.303	24987.72
721.646	24933.26
721.989	24758.57
722.331	24868.17
722.674	24637.9
723.016	24704.79
723.359	24656.43
723.701	24613.27
724.044	24485.13
724.386	24387.73
724.729	24457.56
725.071	24406.27
725.413	24336.21
725.755	24346.38
726.097	24194.97
726.439	24167.63
726.782	24157.91
727.124	24218.93
727.465	24112.94
727.807	24012.83
728.149	23944.58
728.491	23980.74
728.833	24054.64
729.175	23929.22
729.516	23833.62
729.858	23778.94
730.199	23792.95
730.541	23806.73
730.882	23679.5
731.224	23745.04
731.565	23543.24
731.906	23571.94
732.248	23619.39
732.589	23607.64
732.93	23444.71
733.271	23464.14
733.612	23407.87
733.953	23399.96
734.294	23364.71
734.635	23225.96
734.976	23268.89
735.317	23183.92
735.658	23176.24
735.999	23209.91
736.339	23106.86
736.68	23145.06
737.021	22965.4
737.361	22986.42
737.702	23070.71
738.042	22889.92
738.383	22818.28
738.723	22911.39
739.063	22811.05
739.404	22905.06
739.744	22728.8
740.084	22665.75
740.424	22651.28
740.764	22595.24
741.104	22608.57
741.444	22573.77
741.784	22424.17
742.124	22497.16
742.464	22432.31
742.804	22393.89
743.143	22404.28
743.483	22313.66
743.823	22186.66
744.162	22290.84
744.502	22254.68
744.841	22169.49
745.181	22223.27
745.52	22168.36
745.86	22124.52
746.199	22069.6
746.538	22130.62
746.877	22096.95
747.216	22080.22
747.556	21918.19
747.895	21953
748.234	21875.71
748.573	21822.38
748.911	21796.62
749.25	21647.47
749.589	21595.49
749.928	21653.57
750.267	21583.51
750.605	21590.97
750.944	21528.15
751.283	21381.26
751.621	21444.76
751.96	21421.03
752.298	21317.31
752.636	21390.3
752.975	21152.34
753.313	21126.35
753.651	21257.65
753.989	21061.27
754.327	21020.82
754.666	20981.72
755.004	20980.59
755.342	21033.25
755.679	20937.88
756.017	20811.56
756.355	20921.84
756.693	20851.33
757.031	20818.79
757.368	20753.48
757.706	20606.14
758.044	20541.73
758.381	20607.49
758.719	20534.73
759.056	20522.98
759.394	20381.29
759.731	20233.72
760.068	20316.88
760.405	20094.97
760.743	20050.22
761.08	20150.11
761.417	20044.35
761.754	19887.97
762.091	19924.57
762.428	19884.8
762.765	19750.12
763.102	19834.86
763.438	19647.75
763.775	19590.57
764.112	19572.49
764.449	19550.12
764.785	19517.35
765.122	19376.34
765.458	19322.78
765.795	19194.88
766.131	19145.16
766.467	19105.16
766.804	19083.92
767.14	18923.25
767.476	18904.26
767.812	18871.04
768.148	18848.67
768.485	18681.9
768.821	18603.71
769.157	18569.36
769.492	18638.96
769.828	18498.85
770.164	18422.92
770.5	18334.11
770.836	18291.62
771.171	18152.19
771.507	18178.18
771.842	18014.79
772.178	18100.22
772.513	18004.4
772.849	17976.83
773.184	17793.56
773.519	17781.81
773.855	17705.88
774.19	17600.57
774.525	17647.35
774.86	17561.7
775.195	17460.68
775.53	17396.51
775.865	17282.16
776.2	17252.1
776.535	17161.03
776.87	17121.26
777.205	17083.75
777.539	17090.07
777.874	17004.88
778.209	16861.15
778.543	16874.49
778.878	16714.04
779.212	16719.24
779.547	16660.71
779.881	16651.44
780.215	16502.52
780.55	16457.55
780.884	16478.34
781.218	16349.53
781.552	16437.89
781.886	16291.22
782.22	16156.31
782.554	16161.96
782.888	16093.04
783.222	16045.81
783.556	15938.24
783.889	15885.59
784.223	15777.57
784.557	15736.66
784.89	15784.8
785.224	15660.73
785.557	15605.59
785.891	15530.34
786.224	15485.37
786.558	15480.17
786.891	15257.81
787.224	15311.36
787.557	15229.56
787.891	15211.03
788.224	15207.64
788.557	15189.78
788.89	15091.26
789.223	15115.89
789.556	14943.46
789.888	14890.58
790.221	14875.67
790.554	14654.21
790.887	14773.75
791.219	14634.09
791.552	14626.64
791.884	14578.5
792.217	14558.16
792.549	14472.97
792.882	14346.64
793.214	14444.72
793.546	14309.58
793.879	14249.24
794.211	14187.55
794.543	14192.52
794.875	14132.18
795.207	14188.68
795.539	14035.01
795.871	14176.25
796.203	13969.7
796.535	13893.32
796.867	13863.49
797.198	13793.89
797.53	13784.62
797.862	13725.64
798.193	13769.71
798.525	13550.96
798.856	13647.9
799.188	13468.47
799.519	13467.12
799.85	13327.91
800.182	13414.69
800.513	13400.23
800.844	13272.55
801.175	13348.48
801.506	13263.73
801.837	13201.81
802.168	13211.76
802.499	13117.07
802.83	13085.43
803.161	13064.19
803.491	13018.54
803.822	13011.76
804.153	12979.9
804.483	12856.96
804.814	12818.32
805.145	12823.52
805.475	12801.15
805.805	12776.06
806.136	12713.69
806.466	12724.31
806.796	12662.39
807.126	12538.78
807.457	12571.77
807.787	12561.38
808.117	12464.88
808.447	12397.54
808.777	12487.26
809.107	12393.02
809.436	12415.62
809.766	12351.44
810.096	12261.5
810.426	12277.32
810.755	12302.85
811.085	12208.85
811.414	12112.8
811.744	12134.05
812.073	12173.14
812.403	12101.73
812.732	11948.29
813.061	12031
813.39	11840.95
813.719	11867.16
814.049	11985.35
814.378	11906.93
814.707	11819.93
815.036	11927.95
815.365	11762.08
815.693	11582.2
816.022	11682.76
816.351	11694.51
816.68	11568.86
817.008	11569.09
817.337	11508.3
817.665	11511.46
817.994	11488.64
818.322	11491.35
818.651	11438.24
818.979	11399.15
819.307	11451.8
819.636	11414.06
819.964	11370
820.292	11378.81
820.62	11348.76
820.948	11377
821.276	11363.67
821.604	11305.37
821.932	11342.65
822.259	11408.87
822.587	11261.75
822.915	11231.24
823.243	11335.42
823.57	11239.61
823.898	11231.92
824.225	11178.14
824.553	11176.56
824.88	11261.53
825.207	11209.1
825.535	11202.54
825.862	11292.71
826.189	11215.43
826.516	11245.48
826.843	11241.87
827.17	11275.31
827.497	11300.62
827.824	11286.16
828.151	11217.01
828.478	11224.69
828.805	11252.03
829.131	11272.83
829.458	11226.27
829.785	11150.57
830.111	11178.59
830.438	11257.23
830.764	11213.17
831.09	11215.65
831.417	11124.58
831.743	11216.56
832.069	11181.3
832.395	11151.02
832.722	11205.26
833.048	11151.25
833.374	11197.8
833.7	11132.72
834.026	10990.57
834.351	11120.29
834.677	11101.08
835.003	11050.91
835.329	11037.8
835.654	11064.02
835.98	10998.71
836.306	10990.12
836.631	10954.42
836.956	11002.78
837.282	11000.52
837.607	10947.18
837.932	10869.45
838.258	10885.04
838.583	10902.89
838.908	10842.33
839.233	10878.26
839.558	10853.63
839.883	10800.97
840.208	10738.83
840.533	10792.61
840.858	10738.83
841.182	10674.65
841.507	10704.03
841.832	10661.32
842.156	10646.63
842.481	10687.76
842.805	10624.71
843.13	10652.5
843.454	10633.07
843.778	10503.35
844.103	10480.98
844.427	10560.08
844.751	10581.77
845.075	10481.43
845.399	10515.1
845.723	10458.38
846.047	10386.52
846.371	10333.19
846.695	10327.31
847.019	10197.37
847.343	10185.62
847.666	10036.25
847.99	10087.55
848.313	10064.72
848.637	10014.55
848.96	9975.01
849.284	9952.18
849.607	9890.26
849.931	9802.58
850.254	9830.6
850.577	9795.35
850.9	9701.11
851.223	9738.18
851.546	9687.1
851.869	9565.53
852.192	9674.22
852.515	9554.68
852.838	9513.78
853.161	9504.74
853.483	9425.87
853.806	9428.81
854.129	9462.03
854.451	9327.79
854.774	9335.25
855.096	9280.11
855.419	9303.84
855.741	9238.98
856.063	9235.36
856.385	9222.71
856.708	9150.85
857.03	9157.4
857.352	9111.07
857.674	9098.42
857.996	9113.11
858.318	9017.29
858.64	8973.9
858.961	8953.34
859.283	8974.35
859.605	8960.12
859.926	8913.79
860.248	8935.71
860.57	8828.14
860.891	8838.09
861.212	8819.33
861.534	8783.85
861.855	8720.12
862.176	8836.05
862.498	8700.69
862.819	8744.53
863.14	8721.48
863.461	8633.12
863.782	8646
864.103	8662.5
864.424	8644.65
864.745	8653.23
865.065	8631.09
865.386	8582.5
865.707	8580.24
866.027	8583.86
866.348	8580.92
866.668	8544.08
866.989	8479
867.309	8492.56
867.63	8491.88
867.95	8510.19
868.27	8370.98
868.59	8481.94
868.91	8456.18
869.23	8413.69
869.55	8342.28
869.87	8371.66
870.19	8423.86
870.51	8341.15
870.83	8324.2
871.15	8350.19
871.469	8300.93
871.789	8336.86
872.109	8266.12
872.428	8270.19
872.748	8325.33
873.067	8272.9
873.386	8227.71
873.706	8230.19
874.025	8221.15
874.344	8183.41
874.663	8192.45
874.982	8153.81
875.301	8224.32
875.62	8128.05
875.939	8117.88
876.258	8164.88
876.577	8050.76
876.896	8051.21
877.214	8064.1
877.533	8039.69
877.852	8064.77
878.17	8053.93
878.489	8008.73
878.807	8086.92
879.125	7988.39
879.444	7996.08
879.762	7976.41
880.08	7928.28
880.398	7909.3
880.716	7963.31
881.034	7877.89
881.352	7925.57
881.67	7914.5
881.988	7836.98
882.306	7887.83
882.624	7850.32
882.941	7792.46
883.259	7731.45
883.577	7755.63
883.894	7709.3
884.212	7721.73
884.529	7710.21
884.846	7663.43
885.164	7673.6
885.481	7630.66
885.798	7650.32
886.115	7600.15
886.432	7650.77
886.75	7512.25
887.067	7521.96
887.383	7469.54
887.7	7527.84
888.017	7513.6
888.334	7479.48
888.651	7465.47
888.967	7440.38
889.284	7398.8
889.6	7429.76
889.917	7388.41
890.233	7399.03
890.55	7340.05
890.866	7297.34
891.182	7322.87
891.498	7251.46
891.815	7236.1
892.131	7273.61
892.447	7192.48
892.763	7156.32
893.079	7164.68
893.395	7103.22
893.71	7130.79
894.026	7138.24
894.342	7112.03
894.657	7035.42
894.973	7037.23
895.289	7040.17
895.604	7019.38
895.92	6998.59
896.235	6926.5
896.55	6970.11
896.865	6921.75
897.181	6909.78
897.496	6902.54
897.811	6806.28
898.126	6769.67
898.441	6763.57
898.756	6778.71
899.071	6773.96
899.386	6790.01
899.7	6650.35
900.015	6708.88
900.33	6677.47
900.644	6623.23
900.959	6601.08
901.273	6575.32
901.588	6602.67
901.902	6514.76
902.216	6458.94
902.531	6504.81
902.845	6428.43
903.159	6392.28
903.473	6412.39
903.787	6369
904.101	6340.98
904.415	6373.29
904.729	6323.12
905.042	6320.19
905.356	6293.29
905.67	6275.89
905.984	6259.85
906.297	6249.45
906.611	6235.67
906.924	6203.58
907.237	6167.87
907.551	6093.3
907.864	6117.03
908.177	6114.09
908.491	6089.91
908.804	6050.82
909.117	5985.51
909.43	5986.41
909.743	5936.92
910.056	5914.55
910.368	5880.2
910.681	5897.37
910.994	5882.91
911.307	5826.41
911.619	5783.48
911.932	5795
912.244	5783.7
912.557	5669.58
912.869	5693.99
913.181	5647.66
913.494	5629.13
913.806	5698.96
914.118	5648.79
914.43	5591.62
914.742	5532.64
915.054	5519.3
915.366	5521.79
915.678	5519.53
915.99	5489.25
916.302	5444.73
916.613	5436.59
916.925	5416.26
917.236	5425.75
917.548	5405.63
917.859	5381
918.171	5288.8
918.482	5261.23
918.794	5297.61
919.105	5284.06
919.416	5220.1
919.727	5203.15
920.038	5208.8
920.349	5163.38
920.66	5125.19
920.971	5128.13
921.282	5122.03
921.593	5062.37
921.903	5025.53
922.214	5101.46
922.525	5040.22
922.835	5007.45
923.146	5007.91
923.456	4946.89
923.767	4935.59
924.077	4921.35
924.387	4953.67
924.697	4950.73
925.008	4901.47
925.318	4875.48
925.628	4855.14
925.938	4821.7
926.248	4817.85
926.558	4797.97
926.867	4771.53
927.177	4738.08
927.487	4734.01
927.796	4722.71
928.106	4740.34
928.416	4679.1
928.725	4671.42
929.034	4609.72
929.344	4642.94
929.653	4614.92
929.962	4577.86
930.271	4556.39
930.581	4528.6
930.89	4527.01
931.199	4495.15
931.508	4459.67
931.817	4469.39
932.125	4407.47
932.434	4474.59
932.743	4447.02
933.051	4386.45
933.36	4380.12
933.669	4346
933.977	4375.15
934.286	4353.91
934.594	4340.13
934.902	4243.86
935.21	4232.78
935.519	4249.96
935.827	4226.23
936.135	4169.73
936.443	4197.76
936.751	4154.59
937.059	4150.53
937.367	4153.46
937.674	4126.57
937.982	4141.49
938.29	4071.43
938.597	4093.13
938.905	4063.98
939.213	4030.53
939.52	4022.62
939.827	4007.25
940.135	3974.49
940.442	3976.07
940.749	3986.69
941.056	3974.03
941.363	3925.22
941.67	3935.39
941.977	3924.32
942.284	3853.13
942.591	3851.55
942.898	3817.43
943.205	3804.77
943.511	3789.86
943.818	3800.25
944.125	3755.28
944.431	3763.42
944.738	3763.42
945.044	3732.46
945.35	3707.37
945.657	3690.88
945.963	3690.88
946.269	3658.56
946.575	3656.53
946.881	3599.81
947.187	3609.75
947.493	3586.02
947.799	3595.29
948.105	3554.38
948.41	3514.16
948.716	3546.47
949.022	3541.28
949.327	3516.87
949.633	3461.28
949.938	3457.89
950.244	3500.6
950.549	3433.94
950.854	3418.34
951.16	3439.13
951.465	3431
951.77	3389.87
952.075	3376.08
952.38	3376.31
952.685	3332.24
952.99	3317.33
953.294	3323.66
953.599	3295.41
953.904	3275.75
954.209	3242.75
954.513	3301.51
954.818	3252.02
955.122	3234.62
955.426	3265.8
955.731	3237.78
956.035	3177.22
956.339	3234.39
956.643	3187.84
956.948	3208.86
957.252	3150.33
957.556	3178.35
957.86	3130.21
958.163	3135.86
958.467	3147.39
958.771	3095.64
959.075	3077.33
959.378	3055.41
959.682	3044.79
959.985	3042.31
960.289	3033.72
960.592	3018.58
960.896	3047.96
961.199	2966.83
961.502	2993.04
961.805	2961.18
962.108	2964.79
962.411	2920.28
962.714	2905.14
963.017	2911.69
963.32	2922.54
963.623	2845.02
963.926	2882.09
964.228	2868.07
964.531	2838.24
964.833	2882.09
965.136	2817.68
965.438	2824.01
965.741	2794.63
966.043	2780.62
966.345	2779.72
966.648	2756.21
966.95	2756.89
967.252	2738.36
967.554	2746.72
967.856	2747.4
968.158	2698.36
968.46	2701.75
968.761	2682.09
969.063	2688.64
969.365	2717.57
969.666	2664.46
969.968	2614.97
970.269	2596.89
970.571	2623.33
970.872	2624.24
971.174	2572.94
971.475	2586.95
971.776	2570.46
972.077	2569.55
972.378	2563.22
972.679	2554.41
972.98	2527.74
973.281	2563.45
973.582	2501.3
973.883	2512.15
974.183	2486.16
974.484	2500.63
974.785	2463.79
975.085	2461.53
975.386	2430.35
975.686	2437.58
975.986	2456.33
976.287	2448.2
976.587	2398.03
976.887	2378.14
977.187	2399.84
977.487	2358.94
977.787	2382.21
978.087	2378.82
978.387	2356.9
978.687	2356.22
978.987	2387.86
979.286	2332.27
979.586	2342.21
979.885	2315.55
980.185	2281.2
980.484	2306.06
980.784	2247.98
981.083	2249.56
981.382	2251.14
981.682	2259.5
981.981	2240.52
982.28	2249.33
982.579	2241.88
982.878	2220.63
983.177	2212.5
983.475	2211.82
983.774	2177.92
984.073	2173.18
984.372	2164.36
984.67	2160.07
984.969	2169.11
985.267	2161.43
985.566	2134.08
985.864	2119.85
986.162	2082.56
986.461	2118.72
986.759	2111.94
987.057	2056.8
987.355	2058.38
987.653	2052.73
987.951	2070.13
988.249	2066.51
988.547	2072.61
988.844	2029.23
989.142	2008.44
989.44	2034.2
989.737	1958.49
990.035	1972.05
990.332	1988.78
990.63	1966.86
990.927	1968.21
991.224	1988.32
991.521	1937.03
991.819	1916.01
992.116	1921.88
992.413	1914.43
992.71	1893.86
993.006	1931.15
993.303	1905.61
993.6	1898.16
993.897	1888.89
994.193	1899.96
994.49	1856.8
994.787	1849.8
995.083	1869.68
995.379	1812.06
995.676	1801.66
995.972	1821.32
996.268	1789.01
996.565	1797.14
996.861	1820.19
997.157	1793.98
997.453	1779.52
997.749	1775.22
998.044	1754.88
998.34	1742
998.636	1755.34
998.932	1711.49
999.227	1696.58
999.523	1738.39
999.818	1695
1000.114	1709.46
1000.409	1672.85
1000.704	1664.72
1001	1698.61
1001.295	1670.14
1001.59	1666.75
1001.885	1676.69
1002.18	1629.01
1002.475	1635.11
1002.77	1635.11
1003.065	1623.36
1003.359	1611.84
1003.654	1621.55
1003.949	1596.24
1004.243	1581.55
1004.538	1564.38
1004.832	1581.33
1005.127	1570.48
1005.421	1534.78
1005.715	1546.3
1006.009	1528.22
1006.304	1526.41
1006.598	1506.98
1006.892	1514.89
1007.186	1504.95
1007.48	1492.74
1007.773	1474.21
1008.067	1486.64
1008.361	1473.53
1008.655	1447.55
1008.948	1476.92
1009.242	1447.09
1009.535	1440.54
1009.829	1424.72
1010.122	1415.46
1010.415	1405.97
1010.708	1380.66
1011.001	1409.36
1011.295	1401.45
1011.588	1400.77
1011.881	1371.84
1012.173	1366.87
1012.466	1393.99
1012.759	1338.85
1013.052	1330.04
1013.344	1354.22
1013.637	1334.78
1013.93	1320.32
1014.222	1328.23
1014.514	1302.69
1014.807	1312.18
1015.099	1306.53
1015.391	1315.8
1015.683	1280.55
1015.976	1265.18
1016.268	1266.53
1016.56	1248.68
1016.851	1253.88
1017.143	1264.73
1017.435	1253.88
1017.727	1234.67
1018.018	1224.95
1018.31	1232.86
1018.602	1211.85
1018.893	1214.78
1019.185	1236.93
1019.476	1197.38
1019.767	1182.69
1020.058	1177.27
1020.35	1152.19
1020.641	1176.59
1020.932	1156.48
1021.223	1146.54
1021.514	1142.92
1021.804	1144.28
1022.095	1120.32
1022.386	1118.29
1022.677	1102.25
1022.967	1090.72
1023.258	1104.96
1023.548	1076.93
1023.839	1102.47
1024.129	1092.98
1024.419	1073.32
1024.709	1070.38
1025	1063.15
1025.29	1055.01
1025.58	1050.27
1025.87	1014.56
1026.16	1029.93
1026.449	1044.85
1026.739	1021.8
1027.029	1002.13
1027.319	980.21
1027.608	992.64
1027.898	995.36
1028.187	991.97
1028.477	968.92
1028.766	993.55
1029.055	978.41
1029.344	952.87
1029.634	944.28
1029.923	954
1030.212	943.61
1030.501	969.14
1030.79	943.15
1031.078	930.05
1031.367	929.59
1031.656	911.74
1031.945	909.48
1032.233	923.94
1032.522	910.84
1032.81	899.76
1033.099	878.07
1033.387	862.48
1033.675	895.7
1033.963	885.08
1034.251	881.69
1034.54	877.62
1034.828	870.61
1035.116	854.57
1035.403	836.94
1035.691	876.04
1035.979	872.19
1036.267	850.5
1036.554	843.95
1036.842	820.67
1037.129	828.35
1037.417	840.56
1037.704	821.8
1037.992	805.53
1038.279	801.46
1038.566	800.11
1038.853	800.11
1039.14	800.11
