Data from white_wall_FLMS001491_089.txt Node
Date: Tue Feb 07 11:06:03 GMT 2017
User: dcchb
Spectrometer: FLMS00149
Trigger mode: 0
Integration Time (sec): 2.000000E-2
Scans to average: 10
Electric dark correction enabled: true
Nonlinearity correction enabled: false
Boxcar width: 0
XAxis mode: Wavelengths
Number of Pixels in Spectrum: 2048
>>>>>Begin Spectral Data<<<<<
341.393	-23.93
341.776	-23.93
342.16	-23.93
342.543	-53.53
342.927	-49.91
343.31	-77.94
343.693	-71.61
344.077	-73.87
344.46	-42.91
344.843	-55.34
345.226	-55.79
345.61	-36.58
345.993	-16.02
346.376	-1.78
346.759	14.94
347.142	40.48
347.525	42.29
347.908	54.94
348.291	72.79
348.674	92
349.057	114.38
349.44	125
349.823	136.07
350.206	173.58
350.588	221.04
350.971	240.7
351.354	244.32
351.737	267.59
352.119	283.41
352.502	287.93
352.884	303.52
353.267	307.36
353.65	319.57
354.032	332.22
354.414	313.69
354.797	328.38
355.179	331.32
355.562	345.33
355.944	369.96
356.326	354.6
356.709	370.87
357.091	385.1
357.473	362.28
357.855	346.46
358.238	377.65
358.62	353.92
359.002	378.55
359.384	374.03
359.766	362.73
360.148	359.34
360.53	371.77
360.912	349.17
361.294	360.02
361.676	369.74
362.057	361.15
362.439	343.75
362.821	361.15
363.203	366.35
363.584	363.86
363.966	350.3
364.348	371.54
364.729	365.44
365.111	348.72
365.493	351.88
365.874	357.53
366.256	335.39
366.637	325.22
367.019	355.05
367.4	349.4
367.781	358.89
368.163	341.94
368.544	344.2
368.925	330.87
369.306	348.49
369.688	347.36
370.069	345.1
370.45	362.73
370.831	359.34
371.212	348.49
371.593	331.54
371.974	350.53
372.355	341.26
372.736	348.72
373.117	372.22
373.498	361.37
373.879	342.84
374.26	346.91
374.641	369.51
375.021	345.78
375.402	338.32
375.783	370.64
376.163	386.23
376.544	369.74
376.925	364.54
377.305	364.31
377.686	360.92
378.066	374.71
378.447	370.87
378.827	368.61
379.208	375.84
379.588	380.36
379.968	385.55
380.349	379
380.729	379.23
381.109	384.65
381.489	372.45
381.87	389.4
382.25	403.18
382.63	385.1
383.01	386.01
383.39	429.17
383.77	417.19
384.15	421.49
384.53	432.33
384.91	439.11
385.29	428.27
385.67	414.25
386.049	403.86
386.429	410.19
386.809	435.95
387.189	426.68
387.568	444.08
387.948	441.15
388.328	444.54
388.707	441.6
389.087	434.59
389.466	475.04
389.846	466.68
390.225	457.64
390.605	479.11
390.984	482.28
391.363	489.28
391.743	501.03
392.122	500.35
392.501	526.79
392.881	530.64
393.26	524.99
393.639	517.98
394.018	555.04
394.397	536.06
394.776	540.58
395.155	569.96
395.534	556.17
395.913	563.63
396.292	603.63
396.671	590.97
397.05	590.07
397.429	597.3
397.808	609.96
398.186	614.48
398.565	623.74
398.944	615.61
399.323	637.98
399.701	663.06
400.08	679.11
400.458	700.57
400.837	713.68
401.215	701.25
401.594	712.1
401.972	727.47
402.351	741.7
402.729	726.11
403.107	770.63
403.486	809.95
403.864	797.07
404.242	807.69
404.62	805.2
404.999	823.96
405.377	846.33
405.755	895.37
406.133	887.24
406.511	902.15
406.889	922.72
407.267	936.73
407.645	956.84
408.023	981.7
408.401	981.02
408.779	1020.34
409.156	1030.51
409.534	1055.82
409.912	1070.96
410.29	1101.69
410.667	1093.56
411.045	1131.75
411.422	1145.08
411.8	1174.69
412.178	1164.29
412.555	1208.13
412.933	1208.81
413.31	1234.57
413.687	1254.91
414.065	1286.55
414.442	1281.8
414.819	1339.43
415.197	1305.53
415.574	1342.14
415.951	1367.22
416.328	1383.72
416.705	1388.92
417.082	1434.34
417.46	1433.66
417.837	1447.9
418.214	1446.32
418.591	1488.12
418.967	1493.1
419.344	1510.72
419.721	1508.69
420.098	1518.41
420.475	1562.93
420.852	1592.08
421.228	1581.23
421.605	1586.65
421.982	1654.9
422.358	1621.68
422.735	1661.68
423.111	1678.18
423.488	1712.53
423.864	1717.72
424.241	1726.76
424.617	1751.85
424.994	1766.99
425.37	1758.85
425.746	1801.79
426.123	1838.4
426.499	1835.23
426.875	1863.71
427.251	1879.75
427.627	1951.84
428.003	1953.2
428.379	1981.9
428.756	2036.81
429.132	2042.69
429.507	2085.4
429.883	2091.05
430.259	2115.68
430.635	2149.8
431.011	2154.55
431.387	2221.66
431.763	2266.18
432.138	2248.1
432.514	2296.24
432.89	2330.81
433.265	2366.07
433.641	2393.19
434.016	2406.97
434.392	2456.46
434.767	2525.16
435.143	2508.89
435.518	2534.42
435.894	2583.92
436.269	2618.72
436.644	2639.96
437.02	2688.32
437.395	2666.17
437.77	2743.91
438.145	2734.42
438.52	2785.72
438.895	2847.19
439.271	2848.09
439.646	2891.03
440.021	2900.97
440.395	2909.33
440.77	2934.64
441.145	2976.22
441.52	3027.75
441.895	3014.86
442.27	3025.71
442.645	3072.94
443.019	3147.97
443.394	3154.07
443.769	3175.31
444.143	3155.65
444.518	3205.82
444.892	3184.8
445.267	3265.03
445.641	3272.26
446.016	3283.56
446.39	3313.39
446.764	3342.09
447.139	3341.18
447.513	3392.26
447.887	3412.37
448.262	3434.51
448.636	3426.6
449.01	3515.19
449.384	3544.57
449.758	3566.04
450.132	3615.53
450.506	3622.76
450.88	3669.99
451.254	3714.51
451.628	3761.29
452.002	3747.95
452.376	3829.08
452.75	3838.35
453.123	3880.6
453.497	3968.74
453.871	3966.03
454.244	4050.77
454.618	4066.81
454.992	4127.15
455.365	4174.61
455.739	4276.75
456.112	4319.69
456.486	4349.97
456.859	4373.25
457.232	4499.57
457.606	4434.49
457.979	4556.97
458.352	4661.6
458.725	4690.07
459.099	4761.48
459.472	4841.93
459.845	4905.89
460.218	4902.27
460.591	4983.17
460.964	5029.27
461.337	5133.68
461.71	5204.41
462.083	5277.4
462.456	5333
462.829	5304.75
463.201	5435.14
463.574	5486.89
463.947	5537.74
464.32	5697.96
464.692	5734.11
465.065	5737.96
465.438	5824.51
465.81	5921.68
466.183	6006.42
466.555	6118.06
466.928	6192.18
467.3	6202.13
467.672	6280.99
468.045	6439.86
468.417	6466.52
468.789	6554.66
469.161	6676.91
469.534	6752.85
469.906	6886.85
470.278	7023.57
470.65	7023.12
471.022	7184.02
471.394	7279.84
471.766	7410.23
472.138	7478.93
472.51	7655.65
472.882	7799.6
473.253	7925.7
473.625	7996.65
473.997	8172.92
474.369	8252.01
474.74	8320.04
475.112	8477.32
475.484	8634.83
475.855	8858.33
476.227	8906.46
476.598	9141.48
476.97	9192.33
477.341	9435.03
477.713	9534.01
478.084	9645.42
478.455	9915.7
478.827	10034.11
479.198	10309.59
479.569	10337.38
479.94	10616.92
480.311	10670.71
480.682	11028.66
481.053	11235.21
481.424	11415.55
481.795	11531.25
482.166	11746.61
482.537	11852.82
482.908	12190.67
483.279	12259.37
483.65	12497.33
484.021	12789.3
484.391	12897.09
484.762	13008.05
485.133	13170.3
485.503	13407.36
485.874	13693.91
486.244	13788.37
486.615	14130.5
486.985	14309.48
487.356	14470.83
487.726	14588.57
488.097	14933.65
488.467	15063.59
488.837	15374.31
489.207	15521.43
489.578	15857.69
489.948	16006.39
490.318	16186.95
490.688	16212.26
491.058	16502.19
491.428	16788.51
491.798	16949.19
492.168	17218.33
492.538	17305.79
492.908	17548.49
493.278	17816.06
493.648	17797.98
494.017	18042.72
494.387	18194.58
494.757	18405.87
495.126	18607.45
495.496	18720.89
495.866	18843.15
496.235	19101.9
496.605	19303.7
496.974	19360.65
497.344	19604.26
497.713	19803.8
498.082	19879.05
498.452	20084.7
498.821	20161.53
499.19	20188.88
499.559	20585.25
499.928	20700.27
500.298	20920.38
500.667	21148.62
501.036	21027.72
501.405	21418
501.774	21340.03
502.143	21544.09
502.512	21753.35
502.88	21957.42
503.249	22009.17
503.618	22206.22
503.987	22464.3
504.356	22507.91
504.724	22687.12
505.093	22611.86
505.462	22886.88
505.83	23083.04
506.199	23217.5
506.567	23536.13
506.936	23559.41
507.304	23850.02
507.672	23958.49
508.041	24156.68
508.409	24260.86
508.777	24468.76
509.145	24781.07
509.514	24778.59
509.882	25150.78
510.25	25125.92
510.618	25313.26
510.986	25516.19
511.354	25814.94
511.722	25883.19
512.09	26182.16
512.458	26254.03
512.826	26414.7
513.193	26690.17
513.561	26762.49
513.929	27025.76
514.297	27178.97
514.664	27332.42
515.032	27640.43
515.4	27797.94
515.767	27959.75
516.135	28105.73
516.502	27892.63
516.869	28453.52
517.237	28729.89
517.604	28620.07
517.972	28966.05
518.339	29111.58
518.706	29272.03
519.073	29503.21
519.44	29783.43
519.808	30023.19
520.175	30155.85
520.542	30560.81
520.909	30676.28
521.276	30571.88
521.643	31036.5
522.009	31271.52
522.376	31424.96
522.743	31577.5
523.11	31951.73
523.477	32215.45
523.843	32411.38
524.21	32758.71
524.577	33024.92
524.943	33139.27
525.31	33318.93
525.676	33710.55
526.043	33812.02
526.409	34096.98
526.776	34375.4
527.142	34425.56
527.508	34762.28
527.874	34883.63
528.241	35138.99
528.607	35257.86
528.973	35649.71
529.339	35675.25
529.705	35995.24
530.071	36148.68
530.437	36538.95
530.803	36655.34
531.169	36952.73
531.535	36762.9
531.901	37121.31
532.267	37243.12
532.632	37609.89
532.998	37647.17
533.364	37903.44
533.73	37978.69
534.095	38334.61
534.461	38230.66
534.826	38456.87
535.192	38765.34
535.557	38969.85
535.923	38989.51
536.288	39126.91
536.653	39360.58
537.019	39376.62
537.384	39527.8
537.749	39806.21
538.114	39986.32
538.479	39986.77
538.845	40119.88
539.21	40121.46
539.575	40456.59
539.94	40539.08
540.305	40869.24
540.67	40910.14
541.034	41111.49
541.399	41171.38
541.764	41285.27
542.129	41494.98
542.494	41648.2
542.858	41843
543.223	41910.34
543.587	42190.33
543.952	42051.13
544.316	42182.87
544.681	42312.36
545.045	42649.98
545.41	42770.88
545.774	42988.28
546.138	43014.94
546.503	43186.46
546.867	43287.03
547.231	43574.93
547.595	43817.41
547.959	43793.45
548.324	43990.06
548.688	44096.72
549.052	44122.48
549.416	44340.78
549.779	44437.73
550.143	44713.2
550.507	44821.45
550.871	45101.67
551.235	45181.67
551.599	45352.73
551.962	45453.07
552.326	45548.66
552.689	45902.55
553.053	45784.14
553.417	45994.75
553.78	46503.89
554.143	46380.5
554.507	46598.35
554.87	46799.25
555.234	47153.14
555.597	47008.51
555.96	47297.99
556.323	47436.3
556.686	47524.2
557.05	47781.37
557.413	47980.69
557.776	48046.9
558.139	48379.32
558.502	48494.8
558.865	48670.84
559.228	48877.61
559.59	48850.5
559.953	49077.38
560.316	49410.71
560.679	49607.54
561.041	49684.37
561.404	49772.73
561.767	50159.84
562.129	50058.6
562.492	50449.55
562.854	50418.36
563.217	50493.39
563.579	50543.11
563.941	50886.15
564.304	51062.41
564.666	51211.34
565.028	51354.84
565.39	51338.11
565.753	51626.47
566.115	51654.26
566.477	51753.02
566.839	51878.66
567.201	52176.06
567.563	52170.41
567.925	52416.5
568.287	52448.59
568.648	52515.71
569.01	52691.07
569.372	52959.54
569.734	52762.03
570.095	53032.76
570.457	53192.08
570.819	53280.44
571.18	53157.05
571.542	53425.06
571.903	53457.15
572.265	53564.27
572.626	53619.64
572.987	53740.54
573.349	53854.43
573.71	53916.12
574.071	53994.77
574.432	54007.2
574.794	54237.25
575.155	54215.33
575.516	54229.34
575.877	54415.32
576.238	54351.14
576.599	54476.79
576.96	54497.8
577.32	54528.09
577.681	54594.75
578.042	54629.1
578.403	54654.18
578.763	54705.48
579.124	54767.4
579.485	54883.33
579.845	54972.59
580.206	54849.66
580.566	54902.31
580.927	54893.5
581.287	55072.03
581.648	54873.61
582.008	55032.93
582.368	54954.06
582.728	55024.34
583.089	55044.91
583.449	55105.7
583.809	55075.19
584.169	55185.24
584.529	55024.8
584.889	55288.29
585.249	55196.09
585.609	55084.23
585.969	55223.66
586.329	55199.93
586.688	55266.82
587.048	55217.56
587.408	55113.61
587.768	55245.13
588.127	55150.22
588.487	55145.24
588.846	55324.22
589.206	55234.28
589.565	55204.23
589.925	55321.29
590.284	55222.53
590.643	55320.83
591.003	55387.27
591.362	55459.59
591.721	55293.26
592.08	55354.28
592.44	55387.05
592.799	55452.36
593.158	55422.75
593.517	55481.73
593.876	55467.04
594.235	55471.34
594.593	55402.87
594.952	55545.46
595.311	55428.18
595.67	55442.64
596.029	55607.15
596.387	55547.49
596.746	55637.89
597.104	55494.61
597.463	55511.11
597.822	55618.23
598.18	55498.23
598.538	55532.58
598.897	55789.3
599.255	55516.53
599.613	55896.41
599.972	55716.08
600.33	55745.68
600.688	55723.31
601.046	55735.74
601.404	55899.35
601.762	55747.49
602.12	55903.87
602.478	55904.32
602.836	55960.36
603.194	55757.88
603.552	55894.15
603.91	55850.54
604.268	55883.76
604.625	55846.7
604.983	56003.98
605.341	55907.03
605.698	55993.81
606.056	56055.96
606.413	56038.1
606.771	56197.65
607.128	56178.21
607.485	56066.35
607.843	56107.93
608.2	56237.65
608.557	56347.02
608.914	56322.39
609.272	56325.33
609.629	56413.23
609.986	56508.37
610.343	56422.5
610.7	56600.12
611.057	56522.84
611.414	56436.28
611.771	56554.93
612.127	56608.48
612.484	56548.15
612.841	56634.7
613.198	56624.75
613.554	56640.57
613.911	56765.54
614.267	56783.62
614.624	56749.27
614.98	56804.18
615.337	56842.6
615.693	56846.67
616.05	56803.28
616.406	56946.78
616.762	56796.95
617.118	56825.65
617.475	56879.21
617.831	56888.7
618.187	56998.76
618.543	56984.52
618.899	57103.61
619.255	57047.34
619.611	57094.57
619.967	57171.63
620.323	57243.95
620.678	57152.2
621.034	57038.08
621.39	57033.78
621.746	57063.61
622.101	57326.2
622.457	57163.04
622.812	57157.62
623.168	57265.64
623.523	57219.54
623.879	57313.78
624.234	57118.3
624.589	57274
624.945	57203.72
625.3	57294.57
625.655	57248.24
626.01	57252.31
626.365	57288.01
626.72	57185.19
627.075	57221.35
627.43	57243.49
627.785	57135.48
628.14	57170.05
628.495	57286.88
628.85	57227.22
629.205	57118.07
629.559	57282.59
629.914	57122.82
630.269	57107.23
630.623	57091.86
630.978	57064.29
631.332	57137.06
631.687	57124.18
632.041	57041.69
632.396	57089.83
632.75	56967.34
633.104	56990.17
633.459	56785.43
633.813	56877.85
634.167	56910.4
634.521	56888.25
634.875	56809.16
635.229	56922.15
635.583	56723.96
635.937	56708.82
636.291	56718.08
636.645	56696.84
636.999	56678.76
637.352	56709.27
637.706	56559.9
638.06	56749.27
638.413	56641.7
638.767	56567.35
639.121	56606.9
639.474	56457.98
639.828	56444.65
640.181	56491.42
640.534	56424.76
640.888	56346.12
641.241	56302.5
641.594	56356.96
641.947	56384.76
642.301	56237.42
642.654	56321.26
643.007	56256.18
643.36	56144.31
643.713	56151.77
644.066	56170.08
644.419	56056.41
644.771	55935.96
645.124	55646.7
645.477	55575.52
645.83	55500.94
646.182	55387.72
646.535	55281.96
646.888	55361.28
647.24	55114.74
647.593	55347.5
647.945	55267.95
648.298	55027.51
648.65	54999.26
649.002	54985.25
649.355	55114.06
649.707	55010.79
650.059	55213.49
650.411	55459.81
650.763	55445.58
651.115	55676.76
651.467	55662.75
651.819	55620.03
652.171	55577.55
652.523	55478.57
652.875	55553.37
653.227	55440.38
653.578	55627.72
653.93	55382.98
654.282	55338.91
654.633	55265.92
654.985	55347.73
655.337	55339.14
655.688	55397.67
656.039	55398.8
656.391	55141.86
656.742	55256.65
657.094	55253.04
657.445	55245.36
657.796	55246.03
658.147	55172.81
658.498	55195.41
658.849	55175.07
659.2	55125.36
659.551	55028.19
659.902	55140.05
660.253	55142.31
660.604	55136.43
660.955	55061.86
661.306	55126.71
661.656	55034.06
662.007	55038.36
662.358	55014.4
662.708	55008.75
663.059	54976.44
663.409	54762.2
663.76	55038.13
664.11	54949.77
664.461	54964.46
664.811	54922.2
665.161	54872.26
665.511	54741.87
665.862	54791.13
666.212	54876.1
666.562	54858.7
666.912	54828.42
667.262	54813.95
667.612	54757.23
667.962	54768.08
668.312	54742.77
668.662	54884.01
669.011	54808.76
669.361	54692.15
669.711	54759.27
670.06	54722.88
670.41	54652.15
670.76	54597.46
671.109	54702.32
671.459	54680.62
671.808	54537.8
672.157	54644.24
672.507	54376.68
672.856	54417.35
673.205	54395.66
673.554	54545.03
673.904	54352.27
674.253	54457.58
674.602	54419.61
674.951	54044.93
675.3	53845.17
675.649	54222.11
675.998	54307.98
676.346	54342.78
676.695	54291.93
677.044	54055.1
677.393	54154.99
677.741	54151.82
678.09	54009.23
678.438	54012.17
678.787	54042.68
679.135	54004.94
679.484	53749.58
679.832	53967.2
680.181	53801.33
680.529	54002.9
680.877	53838.16
681.225	53795
681.573	54019.85
681.922	53680.42
682.27	53585.29
682.618	53683.14
682.966	53522.69
683.314	53576.47
683.661	53466.65
684.009	53277.27
684.357	53241.34
684.705	53282.02
685.053	53202.92
685.4	53256.03
685.748	53039.76
686.095	53023.27
686.443	52978.75
686.79	52910.05
687.138	52810.39
687.485	52898.98
687.832	52721.13
688.18	52748.7
688.527	52501.02
688.874	52557.29
689.221	52447.24
689.568	52325.43
689.915	52249.05
690.262	52277.52
690.609	52141.48
690.956	52052.67
691.303	52023.52
691.65	51905.1
691.997	51817.2
692.344	51648.16
692.69	51648.16
693.037	51677.54
693.383	51487.49
693.73	51525.68
694.077	51214.27
694.423	51289.53
694.769	51156.65
695.116	51049.76
695.462	51076.65
695.808	50931.34
696.155	50999.14
696.501	50680.05
696.847	50754.85
697.193	50484.35
697.539	50692.48
697.885	50443.22
698.231	50262.66
698.577	50268.76
698.923	50189.9
699.269	49986.06
699.614	49831.49
699.96	49718.27
700.306	49703.35
700.651	49556.69
700.997	49444.83
701.342	49409.35
701.688	49402.57
702.033	49310.82
702.379	49230.6
702.724	49084.84
703.069	49205.97
703.415	48742.02
703.76	48717.84
704.105	48657.96
704.45	48571.63
704.795	48348.14
705.14	48353.33
705.485	48371.86
705.83	48160.34
706.175	48313.11
706.52	48155.82
706.865	47907.47
707.209	47910.41
707.554	47754.93
707.899	47815.95
708.243	47690.07
708.588	47549.06
708.932	47355.85
709.277	47336.18
709.621	47344.09
709.966	47146.13
710.31	47052.35
710.654	46838.57
710.998	47047.38
711.342	46809.19
711.687	46657.56
712.031	46642.87
712.375	46586.37
712.719	46547.5
713.063	46482.87
713.407	46654.85
713.75	46331.92
714.094	46206.27
714.438	46068.65
714.782	46185.48
715.125	46006.05
715.469	46021.19
715.812	45735.55
716.156	45508.21
716.499	45619.62
716.843	45595.67
717.186	45360.42
717.53	45437.48
717.873	45408.55
718.216	45275.9
718.559	45003.36
718.902	44816.48
719.246	45002.46
719.589	44826.42
719.932	44651.51
720.275	44768.34
720.617	44588.69
720.96	44703.26
721.303	44557.95
721.646	44622.58
721.989	44322.48
722.331	44417.84
722.674	44274.12
723.016	44359.54
723.359	44202.48
723.701	44331.74
724.044	43990.96
724.386	43808.82
724.729	43989.83
725.071	43970.4
725.413	43936.05
725.755	43812.21
726.097	43689.5
726.439	43432.11
726.782	43569.05
727.124	43770.85
727.465	43446.12
727.807	43396.85
728.149	43297.87
728.491	43319.34
728.833	43237.54
729.175	43077.77
729.516	42967.26
729.858	42995.51
730.199	42843.65
730.541	42873.48
730.882	42870.09
731.224	42767.49
731.565	42561.85
731.906	42597.78
732.248	42580.83
732.589	42294.74
732.93	42240.95
733.271	42242.08
733.612	42325.02
733.953	42256.54
734.294	42086.61
734.635	41962.31
734.976	41961.41
735.317	41744.92
735.658	41713.96
735.999	41714.86
736.339	41591.48
736.68	41800.51
737.021	41679.84
737.361	41441.88
737.702	41600.74
738.042	41440.52
738.383	41359.62
738.723	41455.44
739.063	41303.12
739.404	41344.25
739.744	41304.7
740.084	41004.15
740.424	41071.72
740.764	41004.83
741.104	41090.47
741.444	40905.85
741.784	40671.05
742.124	40720.54
742.464	40709.01
742.804	40738.39
743.143	40421.79
743.483	40523.93
743.823	40320.1
744.162	40370.72
744.502	40491.84
744.841	40094.79
745.181	40283.26
745.52	40081.46
745.86	40233.09
746.199	40177.28
746.538	39993.1
746.877	40059.54
747.216	40081.91
747.556	39822.94
747.895	39744.52
748.234	39689.15
748.573	39603.05
748.911	39466.56
749.25	39456.39
749.589	39361.93
749.928	39380.91
750.267	39384.3
750.605	39266.79
750.944	39125.55
751.283	39111.54
751.621	39059.34
751.96	38836.52
752.298	38736.86
752.636	38857.09
752.975	38610.09
753.313	38663.87
753.651	38696.19
753.989	38479.24
754.327	38412.58
754.666	38304.11
755.004	38300.26
755.342	38217.33
755.679	38121.51
756.017	37945.47
756.355	38066.37
756.693	37662.77
757.031	37790.45
757.368	37590.68
757.706	37486.27
758.044	37493.05
758.381	37485.6
758.719	37395.43
759.056	37384.81
759.394	37283.34
759.731	36917.02
760.068	36936.68
760.405	36657.6
760.743	36609.46
761.08	36727.65
761.417	36493.76
761.754	36456.02
762.091	36327.43
762.428	36195.23
762.765	36051.51
763.102	36157.72
763.438	36012.19
763.775	35702.14
764.112	35805.64
764.449	35678.64
764.785	35477.29
765.122	35423.05
765.458	35138.54
765.795	35256.73
766.131	35163.85
766.467	34983.74
766.804	34948.94
767.14	34674.6
767.476	34808.38
767.812	34542.62
768.148	34595.05
768.485	34206.81
768.821	34088.4
769.157	34084.78
769.492	33959.59
769.828	34058.57
770.164	33655.19
770.5	33560.95
770.836	33666.49
771.171	33378.59
771.507	33463.1
771.842	33139.04
772.178	33066.05
772.513	32994.19
772.849	33024.7
773.184	32592.62
773.519	32683.24
773.855	32550.81
774.19	32391.04
774.525	32238.5
774.86	32246.41
775.195	32121.22
775.53	32050.26
775.865	31814.78
776.2	31569.82
776.535	31532.76
776.87	31572.08
777.205	31419.32
777.539	31248.7
777.874	31171.19
778.209	31020
778.543	30929.38
778.878	30723.51
779.212	30621.6
779.547	30559.9
779.881	30436.97
780.215	30349.06
780.55	30433.35
780.884	30199.46
781.218	30093.93
781.552	30114.49
781.886	30002.4
782.22	29762.18
782.554	29799.47
782.888	29414.17
783.222	29250.78
783.556	29161.75
783.889	29204.68
784.223	28886.95
784.557	28938.48
784.89	28962.66
785.224	28773.06
785.557	28710.46
785.891	28597.47
786.224	28548.66
786.558	28467.75
786.891	28200.64
787.224	28171.49
787.557	28009.24
787.891	27968.11
788.224	27877.04
788.557	27815.57
788.89	27697.61
789.223	27603.37
789.556	27550.94
789.888	27492.19
790.221	27410.61
790.554	27181.46
790.887	27112.08
791.219	27054.01
791.552	26924.97
791.884	26786.22
792.217	26812.66
792.549	26770.85
792.882	26633.68
793.214	26429.16
793.546	26573.11
793.879	26250.64
794.211	26127.25
794.543	26183.97
794.875	26037.08
795.207	26097.65
795.539	25960.7
795.871	25905.56
796.203	25774.49
796.535	25575.63
796.867	25492.92
797.198	25468.06
797.53	25531.79
797.862	25199.59
798.193	25328.63
798.525	25061.52
798.856	25104.23
799.188	24860.39
799.519	24779.49
799.85	24661.07
800.182	24675.76
800.513	24678.02
800.844	24435.32
801.175	24588.53
801.506	24510.12
801.837	24343.34
802.168	24232.39
802.499	24220.18
802.83	24081.2
803.161	24008.44
803.491	23966.4
803.822	24012.05
804.153	23824.49
804.483	23724.6
804.814	23643.25
805.145	23622.46
805.475	23530.93
805.805	23388.11
806.136	23422.24
806.466	23422.24
806.796	23321.45
807.126	23152.19
807.457	23149.93
807.787	23128.23
808.117	22995.81
808.447	22905.64
808.777	23061.34
809.107	22962.36
809.436	22772.31
809.766	22768.47
810.096	22591.98
810.426	22602.15
810.755	22539.77
811.085	22599.66
811.414	22444.64
811.744	22229.95
812.073	22292.78
812.403	22228.14
812.732	22127.13
813.061	22112.22
813.39	21919
813.719	21878.55
814.049	22068.83
814.378	21917.42
814.707	21786.8
815.036	21931.43
815.365	21709.29
815.693	21573.02
816.022	21568.73
816.351	21535.73
816.68	21341.39
817.008	21432.69
817.337	21345.68
817.665	21203.76
817.994	21319.24
818.322	21240.6
818.651	21087.16
818.979	21118.34
819.307	21092.81
819.636	20945.01
819.964	20916.31
820.292	20970.55
820.62	20930.55
820.948	20773.27
821.276	20974.39
821.604	20886.03
821.932	20876.32
822.259	20867.73
822.587	20816.88
822.915	20794.51
823.243	20839.93
823.57	20817.11
823.898	20842.19
824.225	20693.27
824.553	20632.48
824.88	20768.97
825.207	20762.87
825.535	20821.4
825.862	20884.9
826.189	20707.05
826.516	20804.45
826.843	20792.02
827.17	20737.56
827.497	20780.27
827.824	20669.77
828.151	20756.32
828.478	20763.55
828.805	20842.19
829.131	20667.06
829.458	20702.76
829.785	20635.42
830.111	20581.18
830.438	20763.55
830.764	20641.97
831.09	20709.77
831.417	20526.27
831.743	20689.43
832.069	20705.92
832.395	20531.01
832.722	20658.02
833.048	20471.58
833.374	20606.27
833.7	20377.57
834.026	20516.78
834.351	20618.92
834.677	20453.05
835.003	20426.38
835.329	20447.17
835.654	20394.07
835.98	20375.31
836.306	20389.32
836.631	20243.34
836.956	20331.92
837.282	20341.19
837.607	20174.64
837.932	20123.11
838.258	20155.66
838.583	20056.9
838.908	19933.97
839.233	20051.25
839.558	20020.07
839.883	19903.46
840.208	19836.12
840.533	19974.87
840.858	19903.46
841.182	19863.46
841.507	19766.29
841.832	19693.97
842.156	19637.03
842.481	19611.26
842.805	19648.1
843.13	19484.71
843.454	19587.76
843.778	19506.18
844.103	19438.61
844.427	19366.52
844.751	19351.84
845.075	19331.5
845.399	19207.88
845.723	19077.72
846.047	19108
846.371	18896.71
846.695	18894.67
847.019	18811.06
847.343	18765.18
847.666	18605.19
847.99	18478.19
848.313	18575.59
848.637	18331.07
848.96	18334.24
849.284	18391.41
849.607	18316.38
849.931	18153
850.254	18066.45
850.577	17999.55
850.9	17877.98
851.223	17900.57
851.546	17703.74
851.869	17512.56
852.192	17736.96
852.515	17569.28
852.838	17589.4
853.161	17416.75
853.483	17417.65
853.806	17391.21
854.129	17291.33
854.451	17199.58
854.774	17134.72
855.096	17113.48
855.419	17028.96
855.741	17131.56
856.063	16892.92
856.385	16884.33
856.708	16856.76
857.03	16693.37
857.352	16811.34
857.674	16747.16
857.996	16675.07
858.318	16537.45
858.64	16572.93
858.961	16497.9
859.283	16429.88
859.605	16278.7
859.926	16381.07
860.248	16270.11
860.57	16252.03
860.891	16327.06
861.212	16062.66
861.534	16228.08
861.855	16100.62
862.176	16094.75
862.498	16010.68
862.819	16060.62
863.14	15948.54
863.461	15913.73
863.782	15834.19
864.103	15899.05
864.424	15830.8
864.745	15867.86
865.065	15736.34
865.386	15666.96
865.707	15588.09
866.027	15635.32
866.348	15581.09
866.668	15543.57
866.989	15650.92
867.309	15472.84
867.63	15534.99
867.95	15540.64
868.27	15372.28
868.59	15407.53
868.91	15396.23
869.23	15369.57
869.55	15318.04
869.87	15297.48
870.19	15333.18
870.51	15323.69
870.83	15237.59
871.15	15131.61
871.469	15185.84
871.789	15240.98
872.109	15214.09
872.428	14981.1
872.748	15109.69
873.067	15151.04
873.386	15087.09
873.706	15015.45
874.025	14931.84
874.344	14899.75
874.663	15017.94
874.982	14941.56
875.301	15000.99
875.62	14909.92
875.939	14939.97
876.258	14848.9
876.577	14718.74
876.896	14840.54
877.214	14754.67
877.533	14775.91
877.852	14643.03
878.17	14673.99
878.489	14698.4
878.807	14702.69
879.125	14669.7
879.444	14630.6
879.762	14653.43
880.08	14545.41
880.398	14507.9
880.716	14502.47
881.034	14446.2
881.352	14445.98
881.67	14388.12
881.988	14427.45
882.306	14291.18
882.624	14317.39
882.941	14295.47
883.259	14223.61
883.577	14193.55
883.894	14250.05
884.212	14064.52
884.529	14104.29
884.846	14159.66
885.164	14058.19
885.481	13965.08
885.798	14019.55
886.115	13980.9
886.432	13877.63
886.75	13814.35
887.067	13825.65
887.383	13779.33
887.7	13771.87
888.017	13783.39
888.334	13707.24
888.651	13653.45
888.967	13624.75
889.284	13530.75
889.6	13562.38
889.917	13463.18
890.233	13507.24
890.55	13469.05
890.866	13374.82
891.182	13305.89
891.498	13296.63
891.815	13281.94
892.131	13211.88
892.447	13123.75
892.763	13075.84
893.079	13083.53
893.395	13100.47
893.71	12928.05
894.026	13036.3
894.342	12963.08
894.657	12921.27
894.973	12905.23
895.289	12858.22
895.604	12775.74
895.92	12708.85
896.235	12727.6
896.55	12643.09
896.865	12667.49
897.181	12572.35
897.496	12601.96
897.811	12488.06
898.126	12497.1
898.441	12411.23
898.756	12418.01
899.071	12301.17
899.386	12328.97
899.7	12240.16
900.015	12246.49
900.33	12101.18
900.644	12091.91
900.959	12154.51
901.273	12077
901.588	12011.92
901.902	11930.56
902.216	11824.8
902.531	11820.73
902.845	11815.08
903.159	11711.36
903.473	11660.06
903.787	11631.59
904.101	11613.51
904.415	11618.25
904.729	11594.3
905.042	11467.52
905.356	11399.95
905.67	11465.94
905.984	11416.9
906.297	11301.43
906.611	11280.41
906.924	11236.79
907.237	11139.17
907.551	11182.56
907.864	11093.3
908.177	11130.81
908.491	10957.93
908.804	10907.09
909.117	10869.35
909.43	10834.09
909.743	10730.82
910.056	10784.83
910.368	10693.76
910.681	10694.89
910.994	10659.41
911.307	10647.21
911.619	10558.62
911.932	10604.04
912.244	10478.85
912.557	10494.67
912.869	10330.15
913.181	10360.43
913.494	10360.66
913.806	10270.27
914.118	10185.07
914.43	10173.09
914.742	10140.1
915.054	10016.71
915.366	9995.7
915.678	10015.58
915.99	9952.08
916.302	9882.25
916.613	9786.89
916.925	9773.78
917.236	9769.49
917.548	9684.52
917.859	9699.89
918.171	9678.42
918.482	9666.44
918.794	9592.77
919.105	9553
919.416	9423.74
919.727	9476.84
920.038	9420.8
920.349	9343.29
920.66	9266.45
920.971	9329.5
921.282	9275.72
921.593	9192.1
921.903	9106
922.214	9123.63
922.525	9127.7
922.835	9076.4
923.146	9023.07
923.456	9004.99
923.767	8957.31
924.077	8916.18
924.387	8837.99
924.697	8783.75
925.008	8815.39
925.318	8736.97
925.628	8722.51
925.938	8680.25
926.248	8638.45
926.558	8605.68
926.867	8574.49
927.177	8531.33
927.487	8505.34
927.796	8440.03
928.106	8399.13
928.416	8372.46
928.725	8313.71
929.034	8310.09
929.344	8313.26
929.653	8257.21
929.962	8168.63
930.271	8165.01
930.581	8118.46
930.89	8056.09
931.199	8048.86
931.508	7985.81
931.817	7986.26
932.125	7948.07
932.434	7914.17
932.743	7842.08
933.051	7763.44
933.36	7786.26
933.669	7701.52
933.977	7747.62
934.286	7660.84
934.594	7701.75
934.902	7586.5
935.21	7578.59
935.519	7589.66
935.827	7463.79
936.135	7513.95
936.443	7399.61
936.751	7413.17
937.059	7379.72
937.367	7351.25
937.674	7379.27
937.982	7315.54
938.29	7279.61
938.597	7296.79
938.905	7193.51
939.213	7182.89
939.52	7160.07
939.827	7140.41
940.135	7039.84
940.442	7033.06
940.749	7002.33
941.056	6966.85
941.363	6927.98
941.67	6872.84
941.977	6888.89
942.284	6776.35
942.591	6819.51
942.898	6760.98
943.205	6768.44
943.511	6703.13
943.818	6689.12
944.125	6591.49
944.431	6610.48
944.738	6590.59
945.044	6587.65
945.35	6575
945.657	6502
945.963	6479.41
946.269	6390.14
946.575	6408.22
946.881	6365.28
947.187	6364.15
947.493	6377.94
947.799	6346.3
948.105	6288.9
948.41	6286.64
948.716	6244.16
949.022	6189.02
949.327	6139.98
949.633	6117.38
949.938	6068.34
950.244	6125.74
950.549	6011.62
950.854	6016.37
951.16	6017.05
951.465	5986.31
951.77	5968.46
952.075	5917.84
952.38	5887.78
952.685	5936.82
952.99	5780.22
953.294	5835.58
953.599	5811.63
953.904	5752.42
954.209	5702.48
954.513	5740.44
954.818	5696.38
955.122	5678.97
955.426	5629.26
955.731	5637.85
956.035	5581.58
956.339	5567.57
956.643	5537.06
956.948	5481.24
957.252	5496.83
957.556	5430.39
957.86	5445.08
958.163	5409.6
958.467	5405.54
958.771	5398.08
959.075	5386.1
959.378	5325.09
959.682	5293.22
959.985	5251.64
960.289	5224.3
960.592	5201.93
960.896	5268.36
961.199	5178.88
961.502	5146.11
961.805	5120.35
962.108	5122.15
962.411	5078.09
962.714	5058.65
963.017	5048.71
963.32	5040.8
963.623	5010.07
963.926	4947.02
964.228	5007.81
964.531	4921.03
964.833	4952.21
965.136	4874.02
965.438	4871.31
965.741	4830.64
966.043	4836.96
966.345	4811.2
966.648	4792.9
966.95	4766.91
967.252	4743.41
967.554	4690.07
967.856	4679.91
968.158	4640.58
968.46	4662.28
968.761	4589.51
969.063	4645.56
969.365	4579.12
969.666	4581.83
969.968	4521.27
970.269	4522.17
970.571	4551.32
970.872	4520.59
971.174	4488.05
971.475	4444.88
971.776	4427.03
972.077	4365.11
972.378	4432.45
972.679	4389.07
972.98	4345.68
973.281	4340.03
973.582	4337.09
973.883	4258.9
974.183	4239.69
974.484	4219.35
974.785	4231.1
975.085	4210.76
975.386	4190.2
975.686	4176.64
975.986	4159.47
976.287	4136.42
976.587	4096.64
976.887	4095.29
977.187	4083.76
977.487	4080.15
977.787	4051.22
978.087	3996.08
978.387	4050.09
978.687	4007.15
978.987	3999.7
979.286	3894.62
979.586	3913.15
979.885	3900.72
980.185	3898.23
980.484	3890.55
980.784	3880.15
981.083	3860.49
981.382	3865.92
981.682	3800.61
981.981	3826.14
982.28	3790.89
982.579	3753.38
982.878	3770.78
983.177	3726.48
983.475	3704.79
983.774	3655.75
984.073	3656.2
984.372	3651.23
984.67	3657.33
984.969	3628.63
985.267	3604.68
985.566	3612.59
985.864	3585.47
986.162	3597.67
986.461	3544.34
986.759	3529.43
987.057	3532.59
987.355	3492.59
987.653	3474.97
987.951	3501.63
988.249	3430.9
988.547	3458.47
988.844	3432.71
989.142	3422.09
989.44	3376.44
989.737	3385.48
990.035	3372.82
990.332	3368.3
990.63	3270.68
990.927	3326.27
991.224	3254.41
991.521	3277.23
991.819	3292.15
992.116	3248.3
992.413	3257.57
992.71	3168.98
993.006	3247.4
993.303	3184.13
993.6	3147.97
993.897	3099.83
994.193	3137.35
994.49	3102.09
994.787	3058.7
995.083	3086.27
995.379	3055.99
995.676	3055.99
995.972	3029.78
996.268	2995.88
996.565	3001.53
996.861	2968.09
997.157	2972.15
997.453	2974.87
997.749	2935.09
998.044	2918.6
998.34	2892.83
998.636	2869.78
998.932	2874.75
999.227	2856.22
999.523	2879.05
999.818	2830.91
1000.114	2771.25
1000.409	2774.87
1000.704	2777.13
1001	2756.34
1001.295	2766.06
1001.59	2738.04
1001.885	2738.04
1002.18	2675.21
1002.475	2684.7
1002.77	2710.01
1003.065	2659.17
1003.359	2655.1
1003.654	2636.12
1003.949	2612.39
1004.243	2598.38
1004.538	2595.89
1004.832	2594.54
1005.127	2571.49
1005.421	2526.06
1005.715	2521.54
1006.009	2517.25
1006.304	2532.39
1006.598	2485.39
1006.892	2456.69
1007.186	2449.23
1007.48	2458.27
1007.773	2425.95
1008.067	2427.76
1008.361	2384.82
1008.655	2378.72
1008.948	2382.79
1009.242	2409
1009.535	2339.63
1009.829	2370.81
1010.122	2320.19
1010.415	2312.51
1010.708	2264.6
1011.001	2282.45
1011.295	2257.82
1011.588	2260.08
1011.881	2231.61
1012.173	2218.5
1012.466	2197.03
1012.759	2218.28
1013.052	2198.39
1013.344	2186.64
1013.637	2163.59
1013.93	2154.55
1014.222	2137.37
1014.514	2127.2
1014.807	2137.15
1015.099	2106.41
1015.391	2073.42
1015.683	2072.06
1015.976	2029.13
1016.268	2060.77
1016.56	2035.91
1016.851	2015.34
1017.143	2014.89
1017.435	1999.75
1017.727	1954.33
1018.018	1974.21
1018.31	1938.28
1018.602	1945.29
1018.893	1930.6
1019.185	1912.97
1019.476	1910.71
1019.767	1863.48
1020.058	1838.62
1020.35	1865.74
1020.641	1842.69
1020.932	1832.07
1021.223	1811.28
1021.514	1804.05
1021.804	1794.33
1022.095	1778.06
1022.386	1761.79
1022.677	1755.46
1022.967	1745.97
1023.258	1691.96
1023.548	1710.94
1023.839	1717.05
1024.129	1720.21
1024.419	1670.04
1024.709	1658.74
1025	1657.39
1025.29	1650.38
1025.58	1623.04
1025.87	1625.07
1026.16	1624.17
1026.449	1606.99
1026.739	1592.53
1027.029	1533.55
1027.319	1547.78
1027.608	1559.08
1027.898	1560.89
1028.187	1518.41
1028.477	1510.27
1028.766	1496.71
1029.055	1514.56
1029.344	1497.39
1029.634	1479.09
1029.923	1442.02
1030.212	1482.02
1030.501	1442.48
1030.79	1448.35
1031.078	1420.56
1031.367	1433.66
1031.656	1415.36
1031.945	1400.22
1032.233	1381.46
1032.522	1370.84
1032.81	1376.94
1033.099	1351.41
1033.387	1347.56
1033.675	1386.66
1033.963	1333.33
1034.251	1313.67
1034.54	1322.93
1034.828	1280.9
1035.116	1299.43
1035.403	1265.76
1035.691	1301.46
1035.979	1270.05
1036.267	1255.36
1036.554	1253.78
1036.842	1247
1037.129	1243.84
1037.417	1230.28
1037.704	1219.66
1037.992	1195.03
1038.279	1195.03
1038.566	1173.1
1038.853	1173.1
1039.14	1173.1
