Data from white_wall_FLMS001491_033.txt Node
Date: Tue Feb 07 11:04:17 GMT 2017
User: dcchb
Spectrometer: FLMS00149
Trigger mode: 0
Integration Time (sec): 2.000000E-2
Scans to average: 10
Electric dark correction enabled: true
Nonlinearity correction enabled: false
Boxcar width: 0
XAxis mode: Wavelengths
Number of Pixels in Spectrum: 2048
>>>>>Begin Spectral Data<<<<<
341.393	-22.05
341.776	-22.05
342.16	-22.05
342.543	-81.71
342.927	-59.33
343.31	-61.82
343.693	-77.64
344.077	-59.11
344.46	-48.71
344.843	-71.09
345.226	-32.67
345.61	-34.25
345.993	-33.8
346.376	-10.75
346.759	3.94
347.142	26.99
347.525	51.85
347.908	63.83
348.291	70.38
348.674	93.2
349.057	119.64
349.44	130.72
349.823	133.88
350.206	153.77
350.588	207.33
350.971	213.43
351.354	241.67
351.737	256.59
352.119	256.82
352.502	276.48
352.884	266.76
353.267	289.58
353.65	299.07
354.032	312.86
354.414	338.85
354.797	305.85
355.179	323.93
355.562	322.12
355.944	340.65
356.326	360.54
356.709	349.47
357.091	353.76
357.473	359.19
357.855	349.69
358.238	353.99
358.62	374.1
359.002	369.58
359.384	364.84
359.766	360.99
360.148	345.4
360.53	346.3
360.912	351.28
361.294	341.11
361.676	347.89
362.057	330.94
362.439	337.72
362.821	325.06
363.203	354.44
363.584	344.72
363.966	344.95
364.348	354.89
364.729	330.49
365.111	340.2
365.493	352.63
365.874	341.78
366.256	333.88
366.637	329.36
367.019	333.65
367.4	343.14
367.781	315.12
368.163	319.19
368.544	338.85
368.925	349.47
369.306	342.01
369.688	327.55
370.069	334.33
370.45	338.17
370.831	325.29
371.212	333.42
371.593	341.33
371.974	333.88
372.355	343.14
372.736	356.25
373.117	367.77
373.498	345.17
373.879	335.46
374.26	323.25
374.641	325.06
375.021	337.04
375.402	345.85
375.783	342.91
376.163	351.05
376.544	335.91
376.925	346.98
377.305	357.6
377.686	342.46
378.066	326.87
378.447	351.95
378.827	326.19
379.208	374.78
379.588	355.8
379.968	359.86
380.349	368.9
380.729	350.6
381.109	364.84
381.489	371.16
381.87	368.22
382.25	381.56
382.63	373.2
383.01	387.21
383.39	365.96
383.77	389.69
384.15	378.17
384.53	382.46
384.91	397.38
385.29	385.63
385.67	393.99
386.049	392.18
386.429	388.56
386.809	392.18
387.189	402.8
387.568	391.5
387.948	413.42
388.328	410.71
388.707	405.06
389.087	412.97
389.466	438.51
389.846	433.08
390.225	427.66
390.605	432.18
390.984	446.87
391.363	442.12
391.743	436.02
392.122	444.15
392.501	464.72
392.881	453.65
393.26	463.36
393.639	460.88
394.018	473.53
394.397	494.78
394.776	511.5
395.155	507.66
395.534	503.36
395.913	497.49
396.292	511.27
396.671	522.8
397.05	535.23
397.429	557.37
397.808	549.46
398.186	556.02
398.565	549.91
398.944	585.39
399.323	577.94
399.701	585.39
400.08	600.99
400.458	620.65
400.837	608.44
401.215	629.69
401.594	637.14
401.972	604.15
402.351	674.88
402.729	645.28
403.107	664.94
403.486	657.48
403.864	680.76
404.242	720.08
404.62	722.34
404.999	729.57
405.377	727.54
405.755	740.42
406.133	757.59
406.511	774.32
406.889	758.72
407.267	798.04
407.645	793.52
408.023	845.5
408.401	845.5
408.779	842.79
409.156	872.84
409.534	898.38
409.912	906.97
410.29	908.32
410.667	936.57
411.045	970.02
411.422	962.11
411.8	970.24
412.178	980.64
412.555	1004.82
412.933	1036.68
413.31	1013.86
413.687	1065.16
414.065	1069.45
414.442	1087.53
414.819	1104.48
415.197	1108.54
415.574	1127.98
415.951	1145.15
416.328	1133.18
416.705	1149.45
417.082	1156.68
417.46	1178.15
417.837	1197.81
418.214	1197.81
418.591	1213.85
418.967	1209.33
419.344	1228.32
419.721	1277.35
420.098	1255.89
420.475	1262.21
420.852	1300.63
421.228	1315.32
421.605	1320.06
421.982	1337.69
422.358	1367.07
422.735	1387.18
423.111	1364.13
423.488	1409.55
423.864	1417.69
424.241	1452.26
424.617	1420.4
424.994	1432.15
425.37	1477.35
425.746	1486.84
426.123	1509.21
426.499	1502.88
426.875	1522.77
427.251	1588.08
427.627	1579.49
428.003	1598.47
428.379	1622.66
428.756	1647.51
429.132	1673.05
429.507	1707.85
429.883	1691.35
430.259	1737.91
430.635	1722.31
431.011	1767.96
431.387	1844.34
431.763	1825.14
432.138	1838.02
432.514	1860.84
432.89	1887.96
433.265	1921.4
433.641	1948.75
434.016	1981.97
434.392	2025.13
434.767	2035.07
435.143	2038.24
435.518	2056.32
435.894	2062.19
436.269	2100.16
436.644	2144.9
437.02	2164.34
437.395	2169.53
437.77	2205.92
438.145	2231.45
438.52	2294.5
438.895	2243.2
439.271	2279.59
439.646	2326.14
440.021	2354.61
440.395	2376.53
440.77	2330.66
441.145	2379.25
441.52	2409.75
441.895	2421.05
442.27	2440.71
442.645	2459.47
443.019	2470.99
443.394	2527.26
443.769	2546.02
444.143	2525.68
444.518	2561.39
444.892	2571.33
445.267	2602.06
445.641	2636.19
446.016	2652.68
446.39	2674.6
446.764	2645.68
447.139	2701.27
447.513	2731.1
447.887	2729.97
448.262	2746.47
448.636	2760.93
449.01	2837.54
449.384	2855.39
449.758	2859.01
450.132	2957.76
450.506	2890.42
450.88	2937.87
451.254	2967.93
451.628	3026.23
452.002	3004.09
452.376	3081.6
452.75	3062.84
453.123	3118.21
453.497	3191.43
453.871	3199.34
454.244	3263.74
454.618	3254.02
454.992	3341.03
455.365	3347.13
455.739	3420.12
456.112	3432.55
456.486	3512.77
456.859	3523.62
457.232	3601.81
457.606	3527.24
457.979	3633.9
458.352	3719.78
458.725	3752.99
459.099	3765.65
459.472	3834.8
459.845	3881.35
460.218	3920.67
460.591	3952.76
460.964	3971.97
461.337	4119.09
461.71	4118.86
462.083	4206.99
462.456	4201.57
462.829	4216.71
463.201	4300.78
463.574	4289.93
463.947	4384.39
464.32	4456.7
464.692	4506.87
465.065	4562.69
465.438	4668.22
465.81	4711.39
466.183	4748.45
466.555	4892.17
466.928	4878.39
467.3	4893.3
467.672	5015.33
468.045	5057.14
468.417	5144.82
468.789	5146.63
469.161	5244.93
469.534	5335.1
469.906	5470.92
470.278	5478.82
470.65	5552.72
471.022	5689.21
471.394	5732.6
471.766	5803.11
472.138	5863
472.51	6057.79
472.882	6141.86
473.253	6222.08
473.625	6313.61
473.997	6461.17
474.369	6453.71
474.74	6561.96
475.112	6673.14
475.484	6759.47
475.855	6878.79
476.227	6958.33
476.598	7192
476.97	7228.16
477.341	7413.92
477.713	7524.42
478.084	7549.05
478.455	7754.25
478.827	7882.15
479.198	8105.2
479.569	8097.29
479.94	8342.93
480.311	8445.3
480.682	8575.01
481.053	8766.2
481.424	8938.85
481.795	9100.42
482.166	9222.23
482.537	9302.23
482.908	9533.63
483.279	9603.01
483.65	9824.25
484.021	9938.82
484.391	10126.84
484.762	10236.21
485.133	10224.01
485.503	10472.14
485.874	10692.93
486.244	10822.41
486.615	10987.38
486.985	11202.29
487.356	11332.46
487.726	11400.48
488.097	11601.83
488.467	11720.69
488.837	11957.75
489.207	12138.76
489.578	12348.25
489.948	12498.98
490.318	12621.24
490.688	12717.05
491.058	12949.59
491.428	13111.39
491.798	13230.94
492.168	13456.24
492.538	13484.04
492.908	13679.06
493.278	13930.13
493.648	13806.29
494.017	14045.61
494.387	14211.7
494.757	14363.11
495.126	14604.46
495.496	14580.28
495.866	14672.26
496.235	14936.2
496.605	14987.28
496.974	15116.99
497.344	15299.13
497.713	15411.9
498.082	15563.76
498.452	15643.3
498.821	15724.88
499.19	15842.39
499.559	16083.97
499.928	16220.24
500.298	16299.33
500.667	16408.48
501.036	16436.95
501.405	16711.75
501.774	16694.35
502.143	16825.42
502.512	17011.18
502.88	17205.07
503.249	17170.04
503.618	17278.97
503.987	17366.87
504.356	17534.55
504.724	17662.69
505.093	17779.52
505.462	17853.19
505.83	18093.86
506.199	18200.98
506.567	18372.72
506.936	18361.88
507.304	18663.34
507.672	18729.55
508.041	18784.24
508.409	18997.57
508.777	19190.55
509.145	19376.54
509.514	19378.35
509.882	19649.98
510.25	19664.44
510.618	19829.41
510.986	19933.59
511.354	20151.66
511.722	20279.11
512.09	20542.84
512.458	20462.16
512.826	20753.45
513.193	20724.53
513.561	20823.05
513.929	21116.38
514.297	21281.12
514.664	21415.81
515.032	21489.25
515.4	21766.31
515.767	21797.72
516.135	22046.75
516.502	21902.12
516.869	22297.37
517.237	22414.2
517.604	22374.43
517.972	22747.75
518.339	22836.11
518.706	22821.19
519.073	23069.1
519.44	23354.97
519.808	23481.52
520.175	23467.96
520.542	23792.47
520.909	23978
521.276	24064.55
521.643	24217.54
522.009	24450.08
522.376	24638.32
522.743	24810.97
523.11	25036.73
523.477	25261.58
523.843	25355.36
524.21	25639.42
524.577	25811.17
524.943	26017.27
525.31	26137.26
525.676	26342.46
526.043	26587.2
526.409	26720.98
526.776	26936.11
527.142	27037.58
527.508	27203.9
527.874	27311.92
528.241	27602.31
528.607	27741.29
528.973	28033.94
529.339	28009.76
529.705	28292.01
530.071	28523.42
530.437	28543.3
530.803	28783.07
531.169	28955.72
531.535	28899.23
531.901	29063.52
532.267	29304.87
532.632	29462.83
532.998	29576.95
533.364	29739.66
533.73	29875.7
534.095	30054
534.461	30095.8
534.826	30324.5
535.192	30416.25
535.557	30612.85
535.923	30641.78
536.288	30854.2
536.653	31110.24
537.019	30996.57
537.384	31096.91
537.749	31185.04
538.114	31341.2
538.479	31463.45
538.845	31541.19
539.21	31561.08
539.575	31731.47
539.94	31929.88
540.305	32081.29
540.67	32105.02
541.034	32242.41
541.399	32391.56
541.764	32511.56
542.129	32718.11
542.494	32864.77
542.858	33017.54
543.223	32912.91
543.587	33161.26
543.952	33111.54
544.316	33278.77
544.681	33261.37
545.045	33497.98
545.41	33786.78
545.774	33838.08
546.138	33873.78
546.503	34076.04
546.867	34131.18
547.231	34376.82
547.595	34452.07
547.959	34593.09
548.324	34690.71
548.688	34778.62
549.052	35056.58
549.416	35109.91
549.779	35029.01
550.143	35294.31
550.507	35568.43
550.871	35683.45
551.235	35692.72
551.599	35920.96
551.962	36180.39
552.326	36136.78
552.689	36406.6
553.053	36406.37
553.417	36496.77
553.78	37042.29
554.143	36957.09
554.507	37139.01
554.87	37212
555.234	37642.05
555.597	37577.42
555.96	37849.05
556.323	37944.19
556.686	37931.08
557.05	38308.47
557.413	38413.33
557.776	38548.24
558.139	38718.63
558.502	38853.54
558.865	38980.32
559.228	39313.64
559.59	39392.51
559.953	39565.39
560.316	39819.84
560.679	39831.14
561.041	40140.06
561.404	40271.36
561.767	40587.73
562.129	40505.02
562.492	41052.13
562.854	41065.01
563.217	40904.56
563.579	41113.14
563.941	41403.53
564.304	41619.12
564.666	41873.12
565.028	42028.15
565.39	42154.92
565.753	42168.71
566.115	42395.59
566.477	42718.07
566.839	42676.49
567.201	42928.91
567.563	42943.83
567.925	43329.36
568.287	43143.82
568.648	43243.93
569.01	43769.57
569.372	43829.45
569.734	43842.11
570.095	44142.44
570.457	44360.29
570.819	44267.86
571.18	44307.18
571.542	44655.2
571.903	44692.26
572.265	44794.4
572.626	44946.94
572.987	45019.48
573.349	45181.96
573.71	45210.66
574.071	45390.54
574.432	45529.3
574.794	45783.98
575.155	45732.23
575.516	45691.33
575.877	45983.3
576.238	45887.48
576.599	46149.85
576.96	46204.99
577.32	46122.28
577.681	46351.2
578.042	46402.04
578.403	46482.72
578.763	46464.41
579.124	46440.69
579.485	46647.23
579.845	46763.16
580.206	46744.63
580.566	46760.23
580.927	46784.86
581.287	46920.67
581.648	46805.42
582.008	46963.84
582.368	46966.32
582.728	47005.19
583.089	46986.89
583.449	46981.24
583.809	47220.1
584.169	47136.71
584.529	47108.24
584.889	47451.73
585.249	47113.21
585.609	47035.02
585.969	47194.79
586.329	47141.23
586.688	47149.37
587.048	47166.09
587.408	47046.55
587.768	47126.09
588.127	47157.05
588.487	47274.79
588.846	47421.22
589.206	47078.41
589.565	47131.51
589.925	47390.94
590.284	47099.88
590.643	47307.33
591.003	47249.48
591.362	47422.58
591.721	47346.42
592.08	47211.29
592.44	47457.38
592.799	47242.92
593.158	47148.24
593.517	47289.25
593.876	47374.9
594.235	47229.59
594.593	47415.35
594.952	47359.53
595.311	47330.15
595.67	47429.13
596.029	47651.73
596.387	47664.83
596.746	47748.45
597.104	47416.25
597.463	47519.3
597.822	47722.69
598.18	47518.62
598.538	47582.12
598.897	47800.42
599.255	47467.33
599.613	48022.11
599.972	47835.9
600.33	47828.9
600.688	47721.78
601.046	47918.16
601.404	47962.68
601.762	47834.77
602.12	47975.79
602.478	48027.31
602.836	47945.96
603.194	47825.51
603.552	47896.92
603.91	47945.73
604.268	48218.72
604.625	48027.08
604.983	48149.34
605.341	47995.67
605.698	48210.81
606.056	48314.53
606.413	48221.2
606.771	48368.54
607.128	48416.23
607.485	48245.38
607.843	48289.22
608.2	48549.78
608.557	48678.37
608.914	48535.77
609.272	48610.8
609.629	48701.19
609.986	48738.48
610.343	48753.62
610.7	49004.46
611.057	48883.11
611.414	48893.5
611.771	48770.57
612.127	49015.76
612.484	48905.93
612.841	49079.26
613.198	48985.25
613.554	49039.04
613.911	49259.14
614.267	49272.93
614.624	49142.76
614.98	49200.61
615.337	49360.38
615.693	49206.26
616.05	49366.71
616.406	49552.24
616.762	49218.01
617.118	49414.39
617.475	49467.5
617.831	49481.51
618.187	49549.53
618.543	49670.21
618.899	49706.81
619.255	49635.18
619.611	49624.33
619.967	49685.8
620.323	49870.2
620.678	49686.48
621.034	49508.63
621.39	49657.78
621.746	49568.97
622.101	49970.54
622.457	49617.55
622.812	49798.79
623.168	49855.74
623.523	49871.1
623.879	49969.63
624.234	49611.22
624.589	49868.62
624.945	49913.59
625.3	49947.94
625.655	49827.49
626.01	49870.43
626.365	49907.26
626.72	49868.39
627.075	49840.82
627.43	49872.91
627.785	49694.39
628.14	49718.57
628.495	49823.2
628.85	49819.81
629.205	49711.79
629.559	49944.55
629.914	49770.54
630.269	49813.93
630.623	49800.6
630.978	49669.75
631.332	49808.51
631.687	49762.86
632.041	49656.65
632.396	49695.29
632.75	49543.65
633.104	49618.68
633.459	49475.41
633.813	49572.81
634.167	49397.67
634.521	49439.02
634.875	49477.89
635.229	49297.79
635.583	49228.63
635.937	49247.39
636.291	49186.6
636.645	49213.49
636.999	49074.51
637.352	49291.68
637.706	48992.71
638.06	49203.78
638.413	49022.31
638.767	48944.8
639.121	49005.82
639.474	48823.45
639.828	48850.34
640.181	48911.13
640.534	48833.17
640.888	48777.57
641.241	48587.52
641.594	48632.27
641.947	48693.51
642.301	48467.3
642.654	48594.98
643.007	48571.48
643.36	48461.42
643.713	48443.57
644.066	48607.63
644.419	48405.38
644.771	48075.9
645.124	47764.94
645.477	47597.72
645.83	47142.36
646.182	47224.62
646.535	46992.76
646.888	47138.75
647.24	47014.46
647.593	47184.39
647.945	47159.31
648.298	46868.7
648.65	46892.88
649.002	46745.08
649.355	46822.14
649.707	46812.43
650.059	47086.77
650.411	47326.09
650.763	47378.74
651.115	47803.59
651.467	47584.84
651.819	47572.63
652.171	47501.67
652.523	47505.06
652.875	47469.81
653.227	47227.33
653.578	47543.48
653.93	47377.16
654.282	47224.39
654.633	47117.96
654.985	47275.24
655.337	47302.36
655.688	47124.96
656.039	47337.39
656.391	47111.63
656.742	47009.71
657.094	47099.88
657.445	47189.37
657.796	47091.29
658.147	46903.72
658.498	46805.65
658.849	46892.43
659.2	46983.5
659.551	46767.68
659.902	46898.3
660.253	46780.56
660.604	46767.46
660.955	46556.61
661.306	46836.83
661.656	46771.75
662.007	46733.56
662.358	46588.93
662.708	46764.29
663.059	46692.88
663.409	46448.37
663.76	46682.49
664.11	46590.06
664.461	46681.81
664.811	46729.94
665.161	46502.38
665.511	46461.48
665.862	46523.62
666.212	46491.08
666.562	46581.02
666.912	46656.73
667.262	46408.37
667.612	46485.66
667.962	46397.07
668.312	46339.9
668.662	46436.39
669.011	46399.56
669.361	46281.14
669.711	46268.03
670.06	46069.17
670.41	46127.93
670.76	46198.21
671.109	46252.44
671.459	46084.76
671.808	46125.67
672.157	46203.86
672.507	45890.87
672.856	46067.14
673.205	46118.89
673.554	46134.71
673.904	45849.29
674.253	46097.64
674.602	45963.41
674.951	45476.87
675.3	45180.83
675.649	45877.99
675.998	45768.16
676.346	45964.09
676.695	45867.59
677.044	45639.12
677.393	45655.17
677.741	45634.61
678.09	45437.55
678.438	45499.69
678.787	45651.1
679.135	45465.8
679.484	45189.65
679.832	45407.94
680.181	45022.64
680.529	45233.49
680.877	45113.49
681.225	45205.46
681.573	45348.51
681.922	45022.19
682.27	44896.09
682.618	44924.57
682.966	44730.9
683.314	44908.75
683.661	44679.38
684.009	44554.41
684.357	44340.18
684.705	44205.26
685.053	44357.12
685.4	44213.85
685.748	44045.49
686.095	44072.61
686.443	43892.05
686.79	43858.61
687.138	43838.04
687.485	43788.78
687.832	43628.56
688.18	43700.19
688.527	43457.26
688.874	43371.39
689.221	43287.32
689.568	43126.65
689.915	43066.31
690.262	43048.01
690.609	43010.72
690.956	42718.52
691.303	42711.07
691.65	42669.94
691.997	42564.4
692.344	42395.37
692.69	42281.7
693.037	42376.61
693.383	42019.11
693.73	42117.18
694.077	41935.72
694.423	41954.48
694.769	41718.78
695.116	41557.2
695.462	41520.82
695.808	41549.29
696.155	41538.67
696.501	41422.74
696.847	41341.61
697.193	40969.19
697.539	41166.47
697.885	40942.07
698.231	40628.86
698.577	40716.99
698.923	40645.58
699.269	40558.13
699.614	40313.62
699.96	40173.28
700.306	40216.89
700.651	39819.84
700.997	39738.04
701.342	39886.96
701.688	39718.15
702.033	39593.63
702.379	39512.96
702.724	39502.56
703.069	39622.79
703.415	38974.89
703.76	39129.01
704.105	39006.08
704.45	39048.79
704.795	38855.12
705.14	38706.88
705.485	38721.79
705.83	38540.1
706.175	38651.51
706.52	38434.34
706.865	38290.39
707.209	38396.6
707.554	38161.81
707.899	38287.45
708.243	38122.71
708.588	38009.04
708.932	37848.14
709.277	37794.81
709.621	37740.35
709.966	37576.74
710.31	37563.4
710.654	37173.13
710.998	37347.14
711.342	37484.54
711.687	37336.29
712.031	37096.75
712.375	36987.15
712.719	36978.56
713.063	36918.68
713.407	36990.31
713.75	36774.05
714.094	36855.18
714.438	36654.73
714.782	36634.62
715.125	36427.16
715.469	36544.9
715.812	36354.4
716.156	36221.97
716.499	36128.87
716.843	36280.95
717.186	36078.92
717.53	36217.23
717.873	36221.52
718.216	35939.94
718.559	35935.88
718.902	35683.91
719.246	35751.93
719.589	35653.85
719.932	35429
720.275	35541.99
720.617	35539.05
720.96	35462.67
721.303	35417.25
721.646	35480.07
721.989	35200.76
722.331	35307.42
722.674	35084.37
723.016	35150.81
723.359	35066.3
723.701	35078.95
724.044	34729.81
724.386	34647.1
724.729	34873.08
725.071	34699.98
725.413	34594.22
725.755	34623.14
726.097	34471.28
726.439	34323.04
726.782	34425.41
727.124	34665.4
727.465	34276.26
727.807	34306.77
728.149	34148.81
728.491	34080.33
728.833	34126.21
729.175	33966.89
729.516	33940.68
729.858	33848.25
730.199	33981.8
730.541	33805.99
730.882	33831.3
731.224	33809.38
731.565	33673.11
731.906	33590.4
732.248	33672.21
732.589	33392.22
732.93	33350.63
733.271	33360.13
733.612	33337.98
733.953	33440.12
734.294	33242.39
734.635	33161.49
734.976	33350.86
735.317	33094.14
735.658	33106.57
735.999	33089.62
736.339	33045.33
736.68	33055.27
737.021	32946.58
737.361	32825.45
737.702	32911.32
738.042	32872.45
738.383	32625
738.723	32649.41
739.063	32527.15
739.404	32646.02
739.744	32432.47
740.084	32316.31
740.424	32467.72
740.764	32385.91
741.104	32373.48
741.444	32210.78
741.784	32049.65
742.124	32136.88
742.464	32150.44
742.804	32000.61
743.143	32037
743.483	32009.65
743.823	31880.39
744.162	31984.12
744.502	31922.2
744.841	31639.72
745.181	31696.21
745.52	31546.84
745.86	31745.93
746.199	31587.29
746.538	31598.36
746.877	31546.16
747.216	31455.54
747.556	31381.19
747.895	31475.2
748.234	31244.48
748.573	31419.16
748.911	31314.3
749.25	31050.13
749.589	31051.71
749.928	31121.77
750.267	31118.15
750.605	30864.37
750.944	30826.18
751.283	30709.35
751.621	30827.31
751.96	30669.8
752.298	30525.17
752.636	30627.09
752.975	30502.57
753.313	30353.65
753.651	30383.93
753.989	30271.39
754.327	30241.56
754.666	30043.38
755.004	30225.07
755.342	30012.42
755.679	30062.59
756.017	29821.69
756.355	29864.17
756.693	29734.91
757.031	29851.52
757.368	29740.33
757.706	29573.33
758.044	29430.96
758.381	29502.6
758.719	29394.81
759.056	29355.26
759.394	29240.46
759.731	29124.08
760.068	28960.69
760.405	29004.99
760.743	28792.34
761.08	28887.93
761.417	28645.45
761.754	28553.02
762.091	28582.17
762.428	28494.49
762.765	28355.06
763.102	28457.43
763.438	28099.92
763.775	28029.19
764.112	28210.43
764.449	28034.62
764.785	27940.16
765.122	27847.28
765.458	27699.03
765.795	27604.34
766.131	27631.46
766.467	27499.71
766.804	27366.61
767.14	27188.08
767.476	27123
767.812	27108.09
768.148	27086.39
768.485	27014.53
768.821	26838.49
769.157	26773.41
769.492	26635.56
769.828	26661.54
770.164	26450.93
770.5	26439.63
770.836	26436.01
771.171	26234.44
771.507	26095.01
771.842	26020.88
772.178	25927.1
772.513	25883.94
772.849	25840.1
773.184	25617.5
773.519	25704.51
773.855	25479.65
774.19	25395.14
774.525	25208.48
774.86	25338.42
775.195	25236.95
775.53	25082.83
775.865	25006.9
776.2	24774.81
776.535	24713.8
776.87	24487.82
777.205	24648.26
777.539	24518.1
777.874	24593.12
778.209	24196.52
778.543	24298.67
778.878	24097.77
779.212	24114.49
779.547	23930.77
779.881	23994.04
780.215	23819.13
780.55	23896.42
780.884	23656.43
781.218	23602.87
781.552	23561.51
781.886	23441.97
782.22	23442.42
782.554	23324.68
782.888	23083.79
783.222	22980.96
783.556	23035.2
783.889	22870.23
784.223	22675.89
784.557	22722.67
784.89	22661.2
785.224	22611.93
785.557	22376.23
785.891	22401.09
786.224	22273.86
786.558	22312.96
786.891	22143.25
787.224	22066.64
787.557	22012.4
787.891	21915.91
788.224	21876.59
788.557	21821.67
788.89	21836.36
789.223	21756.14
789.556	21540.78
789.888	21527.67
790.221	21366.09
790.554	21211.29
790.887	21218.75
791.219	21199.77
791.552	21138.07
791.884	21066.89
792.217	20876.61
792.549	20836.84
792.882	20714.36
793.214	20654.25
793.546	20708.71
793.879	20611.53
794.211	20418.32
794.543	20486.57
794.875	20432.56
795.207	20518.43
795.539	20339.23
795.871	20278.89
796.203	20198.44
796.535	20079.34
796.867	19986.69
797.198	19910.08
797.53	19943.53
797.862	19725.68
798.193	19813.59
798.525	19732.46
798.856	19771.78
799.188	19542.64
799.519	19487.95
799.85	19323.66
800.182	19416.54
800.513	19331.12
800.844	19091.8
801.175	19256.77
801.506	19202.76
801.837	19180.39
802.168	19018.81
802.499	19019.49
802.83	18816.78
803.161	18910.79
803.491	18843.45
803.822	18760.28
804.153	18733.84
804.483	18569.55
804.814	18522.32
805.145	18515.09
805.475	18365.94
805.805	18388.32
806.136	18354.42
806.466	18350.12
806.796	18347.19
807.126	18142.22
807.457	18083.24
807.787	18169.11
808.117	18026.74
808.447	18027.42
808.777	18043.92
809.107	17929.12
809.436	17973.64
809.766	17872.4
810.096	17818.61
810.426	17694.55
810.755	17699.75
811.085	17676.02
811.414	17713.31
811.744	17520.54
812.073	17424.95
812.403	17481.22
812.732	17367.55
813.061	17377.95
813.39	17245.52
813.719	17187.9
814.049	17265.63
814.378	17256.37
814.707	17182.25
815.036	17110.61
815.365	17017.28
815.693	16849.15
816.022	16874.68
816.351	16787
816.68	16709.26
817.008	16724.4
817.337	16682.82
817.665	16607.8
817.994	16686.21
818.322	16775.48
818.651	16470.4
818.979	16427.46
819.307	16612.32
819.636	16447.35
819.964	16334.36
820.292	16415.49
820.62	16396.28
820.948	16356.96
821.276	16431.98
821.604	16390.18
821.932	16352.89
822.259	16374.36
822.587	16287.58
822.915	16256.39
823.243	16267.24
823.57	16129.17
823.898	16294.13
824.225	16227.69
824.553	16090.75
824.88	16239.45
825.207	16314.02
825.535	16241.93
825.862	16304.75
826.189	16178.88
826.516	16285.32
826.843	16264.08
827.17	16274.47
827.497	16278.31
827.824	16299.78
828.151	16311.99
828.478	16247.13
828.805	16265.66
829.131	16202.16
829.458	16122.39
829.785	16102.73
830.111	16171.65
830.438	16137.08
830.764	16123.74
831.09	16187.92
831.417	16147.24
831.743	16079.68
832.069	16057.98
832.395	16049.85
832.722	16150.41
833.048	16106.12
833.374	15992.9
833.7	15934.6
834.026	16021.37
834.351	16030.19
834.677	16006.68
835.003	16029.96
835.329	15893.47
835.654	15957.65
835.98	15856.18
836.306	15915.61
836.631	15778.22
836.956	15834.94
837.282	15820.02
837.607	15767.14
837.932	15722.85
838.258	15740.7
838.583	15716.97
838.908	15587.26
839.233	15617.09
839.558	15624.32
839.883	15566.02
840.208	15465.68
840.533	15468.17
840.858	15533.93
841.182	15433.14
841.507	15509.52
841.832	15358.11
842.156	15403.99
842.481	15383.88
842.805	15323.76
843.13	15297.1
843.454	15266.14
843.778	15211.9
844.103	15164.45
844.427	15099.14
844.751	15082.41
845.075	15022.53
845.399	15065.69
845.723	14920.38
846.047	14932.59
846.371	14853.72
846.695	14820.95
847.019	14718.36
847.343	14625.25
847.666	14581.64
847.99	14469.77
848.313	14514.52
848.637	14437.91
848.96	14362.66
849.284	14344.81
849.607	14321.98
849.931	14229.33
850.254	14117.92
850.577	14091.25
850.9	13915.44
851.223	13881.09
851.546	13886.51
851.869	13730.13
852.192	13869.56
852.515	13713.18
852.838	13593.64
853.161	13591.15
853.483	13570.36
853.806	13559.52
854.129	13513.87
854.451	13390.71
854.774	13366.75
855.096	13291.05
855.419	13282.91
855.741	13265.74
856.063	13155.01
856.385	13179.64
856.708	13147.1
857.03	13046.99
857.352	13103.48
857.674	13033.65
857.996	13019.19
858.318	12896.03
858.64	12960.66
858.961	12853.55
859.283	12803.6
859.605	12704.17
859.926	12805.19
860.248	12787.56
860.57	12676.38
860.891	12761.57
861.212	12609.94
861.534	12619.2
861.855	12603.38
862.176	12612.65
862.498	12480
862.819	12544.18
863.14	12534.01
863.461	12331.75
863.782	12466.44
864.103	12505.98
864.424	12377.4
864.745	12369.04
865.065	12286.1
865.386	12221.7
865.707	12168.59
866.027	12285.65
866.348	12232.77
866.668	12250.4
866.989	12209.04
867.309	12098.09
867.63	12153.68
867.95	12059.22
868.27	12003.4
868.59	12074.58
868.91	12030.07
869.23	11993.46
869.55	11934.25
869.87	12009.27
870.19	11942.38
870.51	11914.81
870.83	12012.89
871.15	11871.43
871.469	11895.83
871.789	11941.71
872.109	11907.36
872.428	11828.26
872.748	11842.27
873.067	11737.64
873.386	11815.16
873.706	11742.16
874.025	11748.26
874.344	11673.92
874.663	11724.99
874.982	11677.76
875.301	11684.09
875.62	11606.57
875.939	11622.17
876.258	11577.65
876.577	11609.51
876.896	11546.46
877.214	11501.27
877.533	11509.4
877.852	11524.32
878.17	11515.73
878.489	11447.93
878.807	11436.86
879.125	11392.57
879.444	11361.83
879.762	11356.18
880.08	11376.75
880.398	11325
880.716	11358.67
881.034	11272.34
881.352	11372.23
881.67	11184.89
881.988	11199.8
882.306	11189.64
882.624	11197.54
882.941	11223.31
883.259	11113.25
883.577	11100.6
883.894	11165.23
884.212	11055.18
884.529	11104.21
884.846	11078.23
885.164	10998.68
885.481	10931.34
885.798	10948.29
886.115	10817.67
886.432	10876.42
886.75	10818.57
887.067	10841.85
887.383	10693.38
887.7	10787.39
888.017	10713.04
888.334	10728.18
888.651	10707.39
888.967	10670.78
889.284	10633.04
889.6	10582.87
889.917	10457.68
890.233	10499.26
890.55	10455.19
890.866	10545.58
891.182	10485.92
891.498	10404.8
891.815	10372.93
892.131	10300.39
892.447	10345.82
892.763	10297
893.079	10320.96
893.395	10199.38
893.71	10169.32
894.026	10148.31
894.342	10133.17
894.657	10084.81
894.973	10114.18
895.289	10058.14
895.604	10045.94
895.92	10007.29
896.235	9898.82
896.55	9903.34
896.865	9880.29
897.181	9906.73
897.496	9883
897.811	9831.03
898.126	9858.14
898.441	9747.87
898.756	9696.12
899.071	9667.42
899.386	9606.85
899.7	9591.71
900.015	9525.95
900.33	9479.17
900.644	9405.28
900.959	9518.49
901.273	9436.46
901.588	9374.32
901.902	9284.15
902.216	9334.54
902.531	9272.17
902.845	9331.6
903.159	9238.95
903.473	9207.77
903.787	9231.49
904.101	9110.14
904.415	9088.22
904.729	9039.41
905.042	9021.1
905.356	8982.46
905.67	8967.77
905.984	8975.23
906.297	8895.68
906.611	8817.49
906.924	8886.64
907.237	8802.35
907.551	8775.24
907.864	8722.36
908.177	8714.22
908.491	8677.16
908.804	8594
909.117	8594
909.43	8530.04
909.743	8478.07
910.056	8495.92
910.368	8416.83
910.681	8403.27
910.994	8409.82
911.307	8309.71
911.619	8344.74
911.932	8298.64
912.244	8195.14
912.557	8330.5
912.869	8186.32
913.181	8096.16
913.494	8118.98
913.806	8102.48
914.118	8034.92
914.43	7967.12
914.742	8003.28
915.054	7928.48
915.366	7850.74
915.678	7879.21
915.99	7845.32
916.302	7737.07
916.613	7737.97
916.925	7755.38
917.236	7726.68
917.548	7641.71
917.859	7647.13
918.171	7556.51
918.482	7558.54
918.794	7524.42
919.105	7483.07
919.416	7428.38
919.727	7450.07
920.038	7376.18
920.349	7375.27
920.66	7348.83
920.971	7313.13
921.282	7329.17
921.593	7218.21
921.903	7205.56
922.214	7183.86
922.525	7152.23
922.835	7165.11
923.146	7065
923.456	7105.22
923.767	7014.15
924.077	7048.05
924.387	7001.04
924.697	6994.94
925.008	6879.24
925.318	6919.69
925.628	6853.48
925.938	6870.2
926.248	6785.91
926.558	6791.56
926.867	6729.64
927.177	6775.29
927.487	6661.17
927.796	6630.66
928.106	6606.93
928.416	6553.15
928.725	6572.13
929.034	6472.47
929.344	6554.95
929.653	6513.6
929.962	6415.75
930.271	6446.48
930.581	6390.44
930.89	6361.29
931.199	6322.42
931.508	6328.75
931.817	6306.15
932.125	6275.19
932.434	6271.12
932.743	6222.31
933.051	6171.24
933.36	6206.94
933.669	6142.76
933.977	6040.84
934.286	6087.85
934.594	6063.22
934.902	5997.91
935.21	5987.29
935.519	5981.18
935.827	5960.39
936.135	5893.28
936.443	5868.65
936.751	5818.02
937.059	5819.15
937.367	5784.13
937.674	5814.41
937.982	5781.42
938.29	5776.9
938.597	5756.78
938.905	5635.88
939.213	5619.16
939.52	5655.77
939.827	5646.05
940.135	5596.79
940.442	5546.62
940.749	5513.4
941.056	5578.03
941.363	5509.11
941.67	5466.17
941.977	5437.92
942.284	5399.5
942.591	5353.63
942.898	5318.83
943.205	5345.04
943.511	5311.6
943.818	5340.07
944.125	5290.36
944.431	5250.58
944.738	5268.43
945.044	5253.29
945.35	5190.24
945.657	5134.88
945.963	5142.56
946.269	5112.51
946.575	5091.26
946.881	5085.39
947.187	5023.02
947.493	5053.75
947.799	4981.89
948.105	4964.04
948.41	4924.04
948.716	4964.04
949.022	4912.29
949.327	4891.27
949.633	4844.04
949.938	4849.91
950.244	4864.6
950.549	4813.08
950.854	4738.51
951.16	4804.49
951.465	4773.98
951.77	4703.25
952.075	4729.69
952.38	4640.65
952.685	4636.36
952.99	4632.29
953.294	4666.42
953.599	4544.84
953.904	4592.52
954.209	4554.1
954.513	4538.74
954.818	4490.6
955.122	4529.7
955.426	4519.98
955.731	4421.9
956.035	4451.28
956.339	4449.93
956.643	4426.65
956.948	4406.76
957.252	4363.6
957.556	4396.14
957.86	4319.99
958.163	4328.8
958.467	4298.29
958.771	4250.16
959.075	4290.16
959.378	4207.9
959.682	4209.48
959.985	4207.45
960.289	4189.14
960.592	4187.56
960.896	4114.57
961.199	4157.96
961.502	4140.33
961.805	4105.75
962.108	4070.27
962.411	4046.55
962.714	4011.07
963.017	3982.82
963.32	4016.49
963.623	3992.54
963.926	3973.78
964.228	3958.19
964.531	3930.39
964.833	3962.48
965.136	3877.29
965.438	3886.78
965.741	3851.97
966.043	3821.47
966.345	3882.48
966.648	3794.8
966.95	3816.72
967.252	3785.54
967.554	3778.3
967.856	3733.79
968.158	3706.89
968.46	3730.4
968.761	3679.1
969.063	3710.96
969.365	3701.47
969.666	3630.51
969.968	3596.16
970.269	3620.79
970.571	3607.69
970.872	3591.42
971.174	3553.23
971.475	3548.93
971.776	3572.89
972.077	3504.41
972.378	3545.54
972.679	3480.46
972.98	3494.92
973.281	3496.73
973.582	3474.13
973.883	3459.22
974.183	3386
974.484	3392.78
974.785	3377.19
975.085	3427.81
975.386	3378.54
975.686	3360.91
975.986	3318.88
976.287	3334.02
976.587	3288.6
976.887	3299.22
977.187	3266.23
977.487	3254.02
977.787	3256.74
978.087	3252.89
978.387	3211.77
978.687	3236.17
978.987	3207.02
979.286	3150.98
979.586	3178.77
979.885	3132.22
980.185	3139.9
980.484	3117.76
980.784	3148.04
981.083	3099.23
981.382	3107.59
981.682	3046.57
981.981	3056.97
982.28	3069.85
982.579	2973.13
982.878	3032.11
983.177	3025.1
983.475	2988.27
983.774	2941.04
984.073	2973.81
984.372	2918.44
984.67	2937.65
984.969	2924.99
985.267	2916.86
985.566	2892.9
985.864	2913.24
986.162	2877.76
986.461	2827.82
986.759	2828.27
987.057	2808.61
987.355	2781.95
987.653	2766.13
987.951	2746.47
988.249	2770.87
988.547	2782.17
988.844	2739.24
989.142	2779.46
989.44	2711.44
989.737	2685.68
990.035	2643.42
990.332	2669.63
990.63	2661.5
990.927	2663.31
991.224	2668.28
991.521	2654.49
991.819	2616.3
992.116	2577.21
992.413	2590.31
992.71	2577.88
993.006	2578.11
993.303	2580.82
993.6	2536.98
993.897	2536.76
994.193	2506.02
994.49	2506.02
994.787	2484.33
995.083	2510.09
995.379	2465.12
995.676	2444.33
995.972	2436.87
996.268	2459.47
996.565	2418.11
996.861	2426.93
997.157	2421.96
997.453	2391.45
997.749	2358
998.044	2394.84
998.34	2345.35
998.636	2319.36
998.932	2309.64
999.227	2320.04
999.523	2290.21
999.818	2293.37
1000.114	2270.1
1000.409	2285.01
1000.704	2275.07
1001	2227.16
1001.295	2228.74
1001.59	2215.18
1001.885	2205.92
1002.18	2209.08
1002.475	2169.53
1002.77	2180.61
1003.065	2135.64
1003.359	2152.36
1003.654	2150.55
1003.949	2113.49
1004.243	2140.83
1004.538	2088.63
1004.832	2115.3
1005.127	2071.68
1005.421	2047.73
1005.715	2027.16
1006.009	2036.43
1006.304	1997.33
1006.598	1994.85
1006.892	2013.83
1007.186	1990.33
1007.48	1984.68
1007.773	1977.22
1008.067	1967.73
1008.361	1959.37
1008.655	1934.29
1008.948	1937.22
1009.242	1912.82
1009.535	1881.86
1009.829	1905.13
1010.122	1885.47
1010.415	1867.62
1010.708	1881.41
1011.001	1849.99
1011.295	1816.55
1011.588	1856.77
1011.881	1838.92
1012.173	1809.77
1012.466	1801.18
1012.759	1810.9
1013.052	1772.03
1013.344	1771.35
1013.637	1762.54
1013.93	1750.34
1014.222	1773.61
1014.514	1741.07
1014.807	1741.07
1015.099	1696.78
1015.391	1688.87
1015.683	1689.55
1015.976	1675.99
1016.268	1682.77
1016.56	1655.87
1016.851	1663.11
1017.143	1646.84
1017.435	1636.89
1017.727	1587.85
1018.018	1615.2
1018.31	1595.31
1018.602	1619.04
1018.893	1607.74
1019.185	1584.24
1019.476	1550.57
1019.767	1558.48
1020.058	1548.08
1020.35	1497.46
1020.641	1510.57
1020.932	1503.11
1021.223	1495.88
1021.514	1489.33
1021.804	1449.78
1022.095	1454.98
1022.386	1453.62
1022.677	1471.47
1022.967	1414.07
1023.258	1438.03
1023.548	1383.34
1023.839	1410.23
1024.129	1381.53
1024.419	1391.7
1024.709	1352.38
1025	1380.4
1025.29	1367.52
1025.58	1350.8
1025.87	1330.91
1026.16	1339.72
1026.449	1357.8
1026.739	1301.08
1027.029	1315.32
1027.319	1292.95
1027.608	1308.31
1027.898	1300.86
1028.187	1287.75
1028.477	1251.37
1028.766	1283.68
1029.055	1228.54
1029.344	1214.3
1029.634	1243.68
1029.923	1206.39
1030.212	1229.67
1030.501	1196
1030.79	1202.55
1031.078	1195.55
1031.367	1176.34
1031.656	1150.13
1031.945	1151.03
1032.233	1140.63
1032.522	1156.9
1032.81	1115.32
1033.099	1147.19
1033.387	1143.12
1033.675	1116.68
1033.963	1121.43
1034.251	1100.63
1034.54	1101.31
1034.828	1091.14
1035.116	1081.2
1035.403	1057.7
1035.691	1038.26
1035.979	1038.94
1036.267	1049.11
1036.554	1063.12
1036.842	1059.28
1037.129	1054.76
1037.417	1020.86
1037.704	1014.54
1037.992	1014.31
1038.279	998.72
1038.566	1011.6
1038.853	1011.6
1039.14	1011.6
