Data from whiteboard_FLMS001491_00007.txt Node
Date: Wed Feb 08 11:24:55 GMT 2017
User: dcchb
Spectrometer: FLMS00149
Trigger mode: 0
Integration Time (sec): 2.000000E-2
Scans to average: 10
Electric dark correction enabled: true
Nonlinearity correction enabled: false
Boxcar width: 0
XAxis mode: Wavelengths
Number of Pixels in Spectrum: 2048
>>>>>Begin Spectral Data<<<<<
341.393	-9.63
341.776	-9.63
342.16	-9.63
342.543	-62.51
342.927	-50.31
343.31	-74.04
343.693	-61.83
344.077	-49.86
344.46	-64.32
344.843	-69.29
345.226	-22.97
345.61	-22.97
345.993	-17.32
346.376	9.35
346.759	1.67
347.142	16.13
347.525	51.38
347.908	41.67
348.291	58.16
348.674	91.83
349.057	112.4
349.44	109.69
349.823	155.79
350.206	173.41
350.588	214.09
350.971	234.65
351.354	266.29
351.737	272.39
352.119	276.91
352.502	302.9
352.884	295.9
353.267	330.25
353.65	336.12
354.032	325.27
354.414	349.45
354.797	342
355.179	351.49
355.562	380.64
355.944	340.87
356.326	355.56
356.709	372.05
357.091	400.75
357.473	379.06
357.855	384.71
358.238	390.36
358.62	393.75
359.002	387.42
359.384	385.84
359.766	378.15
360.148	383.35
360.53	392.16
360.912	397.81
361.294	377.02
361.676	383.35
362.057	358.72
362.439	363.92
362.821	389.45
363.203	385.61
363.584	364.37
363.966	396.46
364.348	360.98
364.729	383.8
365.111	383.35
365.493	368.21
365.874	368.44
366.256	366.63
366.637	350.36
367.019	389.45
367.4	385.61
367.781	377.02
368.163	372.73
368.544	364.82
368.925	380.64
369.306	400.3
369.688	375.22
370.069	366.85
370.45	375.44
370.831	396.01
371.212	370.92
371.593	382.67
371.974	398.27
372.355	393.07
372.736	401.66
373.117	395.1
373.498	383.8
373.879	388.78
374.26	390.13
374.641	394.65
375.021	362.34
375.402	388.1
375.783	415.89
376.163	425.38
376.544	408.66
376.925	418.6
377.305	442.56
377.686	421.77
378.066	410.47
378.447	436.46
378.827	428.55
379.208	430.81
379.588	428.1
379.968	438.94
380.349	447.98
380.729	455.21
381.109	450.24
381.489	445.72
381.87	465.84
382.25	497.92
382.63	469.22
383.01	451.6
383.39	483.46
383.77	465.84
384.15	474.2
384.53	473.52
384.91	487.08
385.29	476.46
385.67	499.96
386.049	511.26
386.429	518.94
386.809	511.03
387.189	526.17
387.568	523.46
387.948	527.3
388.328	535.21
388.707	556.91
389.087	535.66
389.466	556.45
389.846	568.21
390.225	549
390.605	574.31
390.984	579.5
391.363	585.15
391.743	593.52
392.122	611.82
392.501	606.62
392.881	611.14
393.26	610.24
393.639	632.38
394.018	624.93
394.397	646.62
394.776	653.17
395.155	661.54
395.534	662.21
395.913	684.81
396.292	691.59
396.671	706.96
397.05	694.76
397.429	695.89
397.808	708.31
398.186	731.82
398.565	729.78
398.944	716.68
399.323	734.53
399.701	759.39
400.08	790.8
400.458	788.99
400.837	806.62
401.215	799.61
401.594	804.81
401.972	823.57
402.351	858.59
402.729	870.34
403.107	847.52
403.486	866.05
403.864	882.1
404.242	882.77
404.62	913.28
404.999	960.96
405.377	959.16
405.755	956.22
406.133	985.37
406.511	981.3
406.889	1026.5
407.267	1028.08
407.645	1048.19
408.023	1063.33
408.401	1101.07
408.779	1107.17
409.156	1145.59
409.534	1140.17
409.912	1157.57
410.29	1167.29
410.667	1177.68
411.045	1215.87
411.422	1224.46
411.8	1237.34
412.178	1321.63
412.555	1303.55
412.933	1326.38
413.31	1347.17
413.687	1381.74
414.065	1408.41
414.442	1438.69
414.819	1441.4
415.197	1452.48
415.574	1500.84
415.951	1487.5
416.328	1538.35
416.705	1540.61
417.082	1556.43
417.46	1583.77
417.837	1601.62
418.214	1630.1
418.591	1620.38
418.967	1658.8
419.344	1667.39
419.721	1689.31
420.098	1706.71
420.475	1719.81
420.852	1744.22
421.228	1767.27
421.605	1794.61
421.982	1811.11
422.358	1855.18
422.735	1863.31
423.111	1887.04
423.488	1910.32
423.864	1945.57
424.241	1916.87
424.617	1984.21
424.994	2006.36
425.37	2016.08
425.746	2033.7
426.123	2092.69
426.499	2108.96
426.875	2113.93
427.251	2150.31
427.627	2198.22
428.003	2229.86
428.379	2259.01
428.756	2265.34
429.132	2335.16
429.507	2356.63
429.883	2369.06
430.259	2392.34
430.635	2451.32
431.011	2503.07
431.387	2530.64
431.763	2610.19
432.138	2597.08
432.514	2653.12
432.89	2694.93
433.265	2725.66
433.641	2725.21
434.016	2776.73
434.392	2816.73
434.767	2872.55
435.143	2852.21
435.518	2924.53
435.894	2954.81
436.269	3001.81
436.644	3044.75
437.02	3033
437.395	3110.51
437.77	3127.23
438.145	3217.85
438.52	3183.05
438.895	3255.82
439.271	3322.71
439.646	3299.88
440.021	3405.42
440.395	3379.88
440.77	3374.01
441.145	3440.67
441.52	3508.47
441.895	3509.37
442.27	3537.17
442.645	3508.02
443.019	3594.11
443.394	3583.27
443.769	3670.27
444.143	3632.08
444.518	3690.84
444.892	3670.95
445.267	3714.79
445.641	3807.67
446.016	3778.74
446.39	3831.4
446.764	3843.37
447.139	3873.2
447.513	3888.8
447.887	3965.86
448.262	3925.86
448.636	4019.64
449.01	4060.54
449.384	4100.77
449.758	4120.88
450.132	4226.64
450.506	4201.33
450.88	4220.54
451.254	4243.36
451.628	4353.42
452.002	4378.27
452.376	4433.41
452.75	4438.84
453.123	4513.19
453.497	4594.77
453.871	4614.88
454.244	4689.45
454.618	4763.35
454.992	4800.41
455.365	4862.33
455.739	5004.7
456.112	4998.82
456.486	5041.99
456.859	5106.17
457.232	5215.54
457.606	5256.9
457.979	5301.19
458.352	5354.75
458.725	5470.45
459.099	5465.03
459.472	5633.83
459.845	5691.46
460.218	5740.05
460.591	5774.62
460.964	5820.5
461.337	5962.64
461.71	6055.52
462.083	6155.18
462.456	6170.32
462.829	6196.08
463.201	6278.56
463.574	6360.82
463.947	6437.88
464.32	6590.19
464.692	6639.23
465.065	6741.83
465.438	6824.09
465.81	6917.19
466.183	6988.6
466.555	7145.66
466.928	7154.92
467.3	7206
467.672	7328.93
468.045	7510.85
468.417	7518.76
468.789	7568.93
469.161	7746.1
469.534	7868.13
469.906	8021.79
470.278	8118.06
470.65	8141.11
471.022	8351.96
471.394	8496.13
471.766	8581.78
472.138	8680.53
472.51	8866.07
472.882	9090.92
473.253	9117.81
473.625	9245.72
473.997	9514.86
474.369	9598.48
474.74	9638.93
475.112	9834.85
475.484	9991.69
475.855	10198.46
476.227	10312.36
476.598	10566.13
476.97	10711.67
477.341	10936.52
477.713	11095.39
478.084	11099.91
478.455	11423.97
478.827	11611.53
479.198	11871.64
479.569	11945.76
479.94	12270.04
480.311	12395.69
480.682	12686.53
481.053	12983.47
481.424	13225.73
481.795	13289.68
482.166	13461.88
482.537	13604.92
482.908	13943.22
483.279	14107.28
483.65	14353.61
484.021	14723.31
484.391	14861.39
484.762	14890.09
485.133	15151.55
485.503	15371.43
485.874	15705.43
486.244	15789.05
486.615	16185.2
486.985	16403.27
487.356	16583.83
487.726	16778.63
488.097	17127.77
488.467	17162.8
488.837	17580.19
489.207	17850.69
489.578	18071.25
489.948	18214.07
490.318	18493.84
490.688	18650.44
491.058	18988.06
491.428	19162.07
491.798	19339.46
492.168	19747.81
492.538	19785.1
492.908	20007.24
493.278	20334.69
493.648	20475.7
494.017	20630.05
494.387	20897.39
494.757	21084.5
495.126	21418.28
495.496	21441.55
495.866	21604.49
496.235	21768.1
496.605	22037.92
496.974	22130.35
497.344	22408.76
497.713	22570.34
498.082	22736.89
498.452	23024.11
498.821	23023.89
499.19	23084
499.559	23327.16
499.928	23535.51
500.298	23717.88
500.667	23887.14
501.036	23902.06
501.405	24142.5
501.774	24133.24
502.143	24414.36
502.512	24694.12
502.88	24765.99
503.249	24844.63
503.618	24969.37
503.987	25043.27
504.356	25358.51
504.724	25426.99
505.093	25619.07
505.462	25620.88
505.83	25891.38
506.199	26287.76
506.567	26485.94
506.936	26560.52
507.304	26798.93
507.672	26915.31
508.041	27198.01
508.409	27447.72
508.777	27580.83
509.145	27840.71
509.514	27844.55
509.882	27974.72
510.25	28245.9
510.618	28469.17
510.986	28604.53
511.354	28857.63
511.722	29086.78
512.09	29218.98
512.458	29423.94
512.826	29627.1
513.193	29841.56
513.561	29927.21
513.929	30244.04
514.297	30508.89
514.664	30713.4
515.032	30902.55
515.4	31149.55
515.767	31395.42
516.135	31391.58
516.502	31420.95
516.869	32094.38
517.237	32206.24
517.604	32196.3
517.972	32601.94
518.339	32898.43
518.706	32882.38
519.073	33043.96
519.44	33270.85
519.808	33539.77
520.175	33632.42
520.542	34022.24
520.909	34210.48
521.276	34238.96
521.643	34563.92
522.009	34870.13
522.376	34973.4
522.743	35364.8
523.11	35610
523.477	35885.92
523.843	36160.04
524.21	36448.39
524.577	36776.29
524.943	36895.16
525.31	37179.9
525.676	37445.65
526.043	37735.59
526.409	37751.63
526.776	38309.13
527.142	38453.31
527.508	38703.25
527.874	38905.5
528.241	39085.16
528.607	39256.68
528.973	39722.88
529.339	39730.11
529.705	40079.71
530.071	40380.72
530.437	40568.96
530.803	40775.06
531.169	41039.91
531.535	41016.41
531.901	41172.56
532.267	41482.38
532.632	41822.26
532.998	41955.37
533.364	42172.76
533.73	42205.53
534.095	42758.51
534.461	42875.79
534.826	42988.56
535.192	43203.47
535.557	43491.14
535.923	43352.84
536.288	43668.54
536.653	43874.86
537.019	43821.98
537.384	44077.57
537.749	44321.63
538.114	44371.12
538.479	44533.15
538.845	44771.11
539.21	44715.52
539.575	44953.93
539.94	45053.14
540.305	45338.55
540.67	45276.18
541.034	45517.08
541.399	45574.25
541.764	45811.76
542.129	45954.13
542.494	45993.68
542.858	46152.77
543.223	46164.07
543.587	46404.51
543.952	46267.79
544.316	46564.28
544.681	46489.26
545.045	46772.64
545.41	47052.86
545.774	47124.95
546.138	47128.34
546.503	47104.38
546.867	47146.64
547.231	47580.75
547.595	47550.47
547.959	47753.41
548.324	47691.71
548.688	47814.42
549.052	47924.93
549.416	48024.36
549.779	48080.63
550.143	48312.49
550.507	48463.44
550.871	48588.86
551.235	48627.28
551.599	49016.2
551.962	48918.35
552.326	49066.14
552.689	49240.15
553.053	49183.88
553.417	49290.99
553.78	49809.62
554.143	49593.36
554.507	49851.43
554.87	50039.45
555.234	50322.83
555.597	50171.87
555.96	50369.61
556.323	50533.67
556.686	50611.64
557.05	50982.47
557.413	51008.91
557.776	51006.65
558.139	51283.48
558.502	51421.78
558.865	51531.61
559.228	51826.29
559.59	51972.96
559.953	51982.45
560.316	52389.22
560.679	52364.58
561.041	52595.99
561.404	52741.07
561.767	52974.06
562.129	52772.48
562.492	53106.48
562.854	53176.31
563.217	53169.76
563.579	53395.74
563.941	53594.83
564.304	53652.69
564.666	53770.42
565.028	53894.26
565.39	53940.59
565.753	54079.57
566.115	54151.88
566.477	54194.59
566.839	54355.94
567.201	54548.71
567.563	54498.76
567.925	54623.06
568.287	54652.43
568.648	54702.6
569.01	54860.79
569.372	55079.99
569.734	54972.42
570.095	55152.76
570.457	55241.8
570.819	55335.35
571.18	55301.23
571.542	55465.74
571.903	55440.89
572.265	55597.04
572.626	55583.71
572.987	55665.74
573.349	55713.42
573.71	55950.7
574.071	55938.95
574.432	56020.76
574.794	56145.28
575.155	56202.45
575.516	56131.04
575.877	56281.09
576.238	56331.94
576.599	56390.01
576.96	56396.34
577.32	56376
577.681	56465.49
578.042	56640.86
578.403	56622.32
578.763	56672.49
579.124	56707.52
579.485	56808.76
579.845	56890.57
580.206	56893.73
580.566	56906.61
580.927	56905.93
581.287	57022.54
581.648	56901.64
582.008	57104.8
582.368	57043.56
582.728	57171.24
583.089	57156.1
583.449	57208.52
583.809	57207.39
584.169	57274.74
584.529	57208.52
584.889	57466.14
585.249	57250.78
585.609	57155.64
585.969	57445.81
586.329	57279.03
586.688	57397.9
587.048	57366.49
587.408	57320.39
587.768	57291.46
588.127	57310.67
588.487	57297.34
588.846	57493.26
589.206	57284
589.565	57281.29
589.925	57383.43
590.284	57322.65
590.643	57345.24
591.003	57443.32
591.362	57499.14
591.721	57340.5
592.08	57427.05
592.44	57474.73
592.799	57505.24
593.158	57396.99
593.517	57397.9
593.876	57481.06
594.235	57386.82
594.593	57408.29
594.952	57463.21
595.311	57416.65
595.67	57475.41
596.029	57582.07
596.387	57589.08
596.746	57554.5
597.104	57428.63
597.463	57413.49
597.822	57531.23
598.18	57473.15
598.538	57438.8
598.897	57572.58
599.255	57370.55
599.613	57744.33
599.972	57586.37
600.33	57656.42
600.688	57524.22
601.046	57637.67
601.404	57788.4
601.762	57631.79
602.12	57824.78
602.478	57802.41
602.836	57823.42
603.194	57656.87
603.552	57752.92
603.91	57590.89
604.268	57783.2
604.625	57689.87
604.983	57830.2
605.341	57718.12
605.698	57840.15
606.056	57927.83
606.413	57927.15
606.771	57981.61
607.128	58004.89
607.485	57919.01
607.843	57898.45
608.2	58144.77
608.557	58192.45
608.914	58094.15
609.272	58254.37
609.629	58278.78
609.986	58322.62
610.343	58236.75
610.7	58326.23
611.057	58340.47
611.414	58297.99
611.771	58364.43
612.127	58427.25
612.484	58431.32
612.841	58479.23
613.198	58377.76
613.554	58477.42
613.911	58522.84
614.267	58532.11
614.624	58516.96
614.98	58553.35
615.337	58672.89
615.693	58641.71
616.05	58561.48
616.406	58674.25
616.762	58585.21
617.118	58572.33
617.475	58616.85
617.831	58754.02
618.187	58751.08
618.543	58739.78
618.899	58844.41
619.255	58780.69
619.611	58761.7
619.967	58807.58
620.323	58852.32
620.678	58763.29
621.034	58766.68
621.39	58774.58
621.746	58759.9
622.101	59060
622.457	58849.38
622.812	58907.24
623.168	58993.11
623.523	58911.98
623.879	58996.95
624.234	58785.88
624.589	58930.51
624.945	58935.48
625.3	58933.68
625.655	58904.07
626.01	58964.18
626.365	58932.77
626.72	58940.46
627.075	58919.89
627.43	58884.64
627.785	58848.03
628.14	58893.68
628.495	58899.55
628.85	58844.87
629.205	58783.17
629.559	58951.98
629.914	58766.9
630.269	58817.3
630.623	58734.36
630.978	58712.21
631.332	58775.71
631.687	58801.02
632.041	58642.38
632.396	58683.74
632.75	58671.08
633.104	58653.91
633.459	58498.21
633.813	58497.3
634.167	58448.72
634.521	58398.32
634.875	58412.11
635.229	58349.51
635.583	58214.83
635.937	58276.52
636.291	58253.92
636.645	58221.38
636.999	58069.74
637.352	58187.03
637.706	58005.11
638.06	58058.45
638.413	57961.27
638.767	57970.99
639.121	58026.58
639.474	57772.35
639.828	57873.14
640.181	57845.12
640.534	57942.29
640.888	57749.3
641.241	57621.39
641.594	57636.31
641.947	57640.6
642.301	57608.97
642.654	57579.36
643.007	57634.95
643.36	57608.97
643.713	57515.41
644.066	57614.16
644.419	57505.24
644.771	57288.3
645.124	57149.32
645.477	57101.18
645.83	56962.65
646.182	56828.65
646.535	56717.46
646.888	56738.25
647.24	56605.15
647.593	56748.2
647.945	56681.31
648.298	56573.06
648.65	56578.03
649.002	56519.28
649.355	56637.69
649.707	56674.98
650.059	56782.09
650.411	57152.03
650.763	57064.12
651.115	57349.99
651.467	57201.97
651.819	57216.21
652.171	57206.04
652.523	57162.2
652.875	57146.83
653.227	57053.05
653.578	57282.42
653.93	57138.7
654.282	57020.51
654.633	56981.86
654.985	57002.65
655.337	57042.2
655.688	57039.04
656.039	57122.65
656.391	56869.32
656.742	56921.3
657.094	57003.33
657.445	57008.53
657.796	56935.31
658.147	56918.36
658.498	56871.36
658.849	56890.11
659.2	56776.67
659.551	56745.49
659.902	56812.38
660.253	56675.2
660.604	56670.46
660.955	56514.08
661.306	56689.22
661.656	56471.82
662.007	56520.18
662.358	56508.43
662.708	56449.67
663.059	56481.31
663.409	56177.82
663.76	56434.53
664.11	56384.82
664.461	56408.77
664.811	56384.59
665.161	56306.85
665.511	56211.49
665.862	56244.03
666.212	56294.42
666.562	56254.42
666.912	56168.78
667.262	56117.71
667.612	56137.82
667.962	56100.98
668.312	56098.95
668.662	56098.04
669.011	56018.05
669.361	56098.27
669.711	55948.22
670.06	56023.02
670.41	55955.68
670.76	55882.91
671.109	55954.55
671.459	55881.78
671.808	55847.88
672.157	55901.44
672.507	55709.13
672.856	55764.72
673.205	55764.72
673.554	55886.07
673.904	55785.06
674.253	55890.59
674.602	55751.61
674.951	55394.79
675.3	55223.94
675.649	55700.77
675.998	55578.96
676.346	55664.16
676.695	55790.93
677.044	55604.72
677.393	55638.62
677.741	55670.03
678.09	55592.07
678.438	55556.82
678.787	55644.05
679.135	55605.63
679.484	55456.93
679.832	55575.8
680.181	55388.91
680.529	55424.62
680.877	55362.47
681.225	55296.48
681.573	55516.82
681.922	55246.77
682.27	55191.18
682.618	55174.45
682.966	55134.45
683.314	55181.68
683.661	55024.4
684.009	54896.72
684.357	54871.18
684.705	54834.35
685.053	54852.2
685.4	54755.03
685.748	54667.57
686.095	54666.22
686.443	54593.23
686.79	54506.67
687.138	54540.57
687.485	54493.12
687.832	54405.21
688.18	54414.7
688.527	54169.96
688.874	54238.43
689.221	54190.3
689.568	54061.04
689.915	53945.78
690.262	53943.75
690.609	53890.42
690.956	53786.69
691.303	53702.18
691.65	53523.65
691.997	53597.32
692.344	53286.59
692.69	53273.94
693.037	53277.78
693.383	52999.37
693.73	53094.51
694.077	52976.32
694.423	52880.05
694.769	52819.49
695.116	52693.61
695.462	52691.81
695.808	52504.69
696.155	52676.67
696.501	52373.85
696.847	52297.24
697.193	52147.41
697.539	52236.23
697.885	51996.23
698.231	51894.09
698.577	51909.23
698.923	51848.44
699.269	51582.68
699.614	51531.84
699.96	51424.5
700.306	51452.52
700.651	51326.19
700.997	51171.39
701.342	51098.4
701.688	51115.58
702.033	50976.37
702.379	50940.89
702.724	50881.23
703.069	50931.4
703.415	50538.64
703.76	50654.35
704.105	50527.8
704.45	50457.06
704.795	50269.5
705.14	50213.23
705.485	50260.91
705.83	50004.87
706.175	50036.51
706.52	49892.56
706.865	49823.86
707.209	49663.86
707.554	49676.97
707.899	49788.61
708.243	49583.41
708.588	49501.61
708.932	49283.99
709.277	49333.93
709.621	49246.02
709.966	48982.53
710.31	49156.08
710.654	48806.71
710.998	48791.57
711.342	48845.35
711.687	48643.78
712.031	48572.14
712.375	48473.16
712.719	48392.48
713.063	48373.05
713.407	48395.42
713.75	48183.22
714.094	48264.58
714.438	47927.19
714.782	47979.16
715.125	47856
715.469	47855.55
715.812	47675.67
716.156	47428.44
716.499	47519.97
716.843	47447.88
717.186	47101.45
717.53	47265.73
717.873	47210.82
718.216	47037.49
718.559	46893.09
718.902	46648.58
719.246	46658.07
719.589	46608.8
719.932	46381.01
720.275	46350.05
720.617	46254.91
720.96	46224.41
721.303	46171.98
721.646	46276.38
721.989	46030.06
722.331	46106.67
722.674	45808.6
723.016	45818.77
723.359	45806.56
723.701	45843.4
724.044	45636.17
724.386	45389.63
724.729	45464.43
725.071	45335.62
725.413	45268.72
725.755	45193.7
726.097	45054.95
726.439	44975.63
726.782	44920.26
727.124	45098.11
727.465	44770.43
727.807	44975.4
728.149	44651.57
728.491	44615.18
728.833	44608.18
729.175	44372.93
729.516	44297.68
729.858	44368.86
730.199	44372.7
730.541	44223.78
730.882	44246.15
731.224	44200.96
731.565	43918.93
731.906	44099.94
732.248	43969.32
732.589	43672.16
732.93	43682.78
733.271	43565.94
733.612	43560.97
733.953	43700.4
734.294	43394.2
734.635	43402.56
734.976	43512.16
735.317	43240.98
735.658	43260.87
735.999	43358.72
736.339	43224.94
736.68	43293.18
737.021	43257.48
737.361	42973.64
737.702	43089.35
738.042	42799.64
738.383	42790.6
738.723	43095
739.063	42722.8
739.404	42990.82
739.744	42930.71
740.084	42676.48
740.424	42732.52
740.764	42687.55
741.104	42769.13
741.444	42444.17
741.784	42370.5
742.124	42359.87
742.464	42282.59
742.804	42190.16
743.143	42116.27
743.483	42209.37
743.823	42015.03
744.162	41998.75
744.502	42054.12
744.841	41796.05
745.181	41960.11
745.52	41720.12
745.86	41762.15
746.199	41576.62
746.538	41436.74
746.877	41633.79
747.216	41506.11
747.556	41386.79
747.895	41215.05
748.234	41114.94
748.573	40930.08
748.911	41113.58
749.25	40901.38
749.589	40663.2
749.928	40794.27
750.267	40879.46
750.605	40676.08
750.944	40518.34
751.283	40374.39
751.621	40545.46
751.96	40086.04
752.298	40066.15
752.636	40112.25
752.975	39880.17
753.313	39826.38
753.651	39988.86
753.989	39544.81
754.327	39722.88
754.666	39342.33
755.004	39373.74
755.342	39282.44
755.679	39140.98
756.017	38947.08
756.355	39037.48
756.693	38756.35
757.031	38882.9
757.368	38569.69
757.706	38449.47
758.044	38209.93
758.381	38333.77
758.719	38120.89
759.056	38141
759.394	37929.71
759.731	37795.7
760.068	37732.2
760.405	37747.57
760.743	37413.11
761.08	37505.09
761.417	37194.59
761.754	37100.13
762.091	37178.54
762.428	37081.82
762.765	36630.31
763.102	36851.32
763.438	36662.17
763.775	36419.01
764.112	36465.57
764.449	36532.01
764.785	36254.05
765.122	36059.25
765.458	35987.39
765.795	35881.18
766.131	35868.97
766.467	35689.32
766.804	35506.5
767.14	35441.19
767.476	35325.94
767.812	35098.37
768.148	35178.14
768.485	34939.96
768.821	34765.95
769.157	34882.11
769.492	34811.15
769.828	34664.71
770.164	34272.4
770.5	34281.67
770.836	34320.31
771.171	34097.49
771.507	34125.52
771.842	33893.88
772.178	33784.06
772.513	33822.47
772.849	33644.85
773.184	33428.36
773.519	33505.64
773.855	33245.54
774.19	33215.03
774.525	33100.91
774.86	32980.91
775.195	32939.78
775.53	32790.63
775.865	32566.91
776.2	32400.81
776.535	32291.21
776.87	32293.47
777.205	32253.25
777.539	32265
777.874	32218.67
778.209	31792.7
778.543	31848.74
778.878	31734.17
779.212	31604.9
779.547	31406.49
779.881	31583.66
780.215	31223.22
780.55	31324.46
780.884	31053.73
781.218	31040.4
781.552	30967.41
781.886	30842.89
782.22	30569.9
782.554	30455.33
782.888	30326.29
783.222	30082.46
783.556	30025.74
783.889	29976.25
784.223	29791.39
784.557	29684.05
784.89	29737.16
785.224	29581.91
785.557	29348.92
785.891	29244.97
786.224	29173.55
786.558	29279.54
786.891	28971.75
787.224	29004.07
787.557	28887.23
787.891	28710.52
788.224	28597.07
788.557	28486.34
788.89	28470.3
789.223	28515.72
789.556	28207.7
789.888	28096.52
790.221	28002.06
790.554	27835.06
790.887	27820.6
791.219	27662.86
791.552	27628.74
791.884	27526.59
792.217	27293.38
792.549	27170.67
792.882	27040.5
793.214	27037.11
793.546	26901.3
793.879	26836.67
794.211	26581.76
794.543	26597.8
794.875	26519.16
795.207	26569.33
795.539	26372.05
795.871	26338.83
796.203	26065.61
796.535	25960.08
796.867	25758.73
797.198	25852.96
797.53	25680.54
797.862	25525.52
798.193	25650.26
798.525	25337.5
798.856	25509.24
799.188	25089.37
799.519	25038.75
799.85	24903.16
800.182	24987.68
800.513	24869.04
800.844	24656.61
801.175	24732.99
801.506	24707.46
801.837	24487.8
802.168	24548.82
802.499	24528.03
802.83	24270.86
803.161	24383.62
803.491	24209.84
803.822	24239.67
804.153	24044.42
804.483	23865.9
804.814	23784.54
805.145	23711.55
805.475	23699.57
805.805	23690.76
806.136	23652.34
806.466	23556.08
806.796	23544.78
807.126	23403.76
807.457	23381.16
807.787	23372.35
808.117	23247.61
808.447	23267.04
808.777	23269.3
809.107	23150.89
809.436	23075.41
809.766	23046.26
810.096	22996.09
810.426	22837.68
810.755	22950.44
811.085	22824.34
811.414	22816.43
811.744	22741.18
812.073	22670.22
812.403	22559.72
812.732	22478.59
813.061	22537.57
813.39	22341.19
813.719	22392.94
814.049	22513.39
814.378	22352.49
814.707	22324.47
815.036	22343.23
815.365	22119.05
815.693	21891.26
816.022	21988.21
816.351	21975.55
816.68	21905.05
817.008	21910.7
817.337	21633.64
817.665	21679.06
817.994	21816.01
818.322	21760.42
818.651	21676.8
818.979	21500.99
819.307	21527.65
819.636	21498.28
819.964	21453.08
820.292	21517.49
820.62	21416.7
820.948	21356.13
821.276	21515.68
821.604	21444.04
821.932	21419.86
822.259	21479.97
822.587	21349.35
822.915	21420.31
823.243	21439.75
823.57	21339.86
823.898	21446.98
824.225	21338.96
824.553	21349.81
824.88	21346.87
825.207	21392.29
825.535	21440.65
825.862	21422.35
826.189	21270.94
826.516	21396.58
826.843	21507.32
827.17	21398.39
827.497	21401.78
827.824	21399.07
828.151	21444.72
828.478	21347.77
828.805	21362.01
829.131	21481.1
829.458	21320.2
829.785	21320.43
830.111	21240.66
830.438	21303.03
830.764	21161.56
831.09	21317.49
831.417	21121.34
831.743	21272.75
832.069	21230.04
832.395	21038.63
832.722	21130.38
833.048	20931.51
833.374	21022.58
833.7	20876.15
834.026	20972.19
834.351	20964.96
834.677	20876.15
835.003	20851.29
835.329	20741.46
835.654	20752.76
835.98	20644.06
836.306	20734.23
836.631	20545.53
836.956	20666.66
837.282	20603.84
837.607	20537.4
837.932	20397.06
838.258	20291.53
838.583	20339.89
838.908	20269.38
839.233	20233
839.558	20236.39
839.883	20232.32
840.208	20115.49
840.533	20026
840.858	20040.46
841.182	19851.77
841.507	19890.86
841.832	19876.62
842.156	19798.21
842.481	19666.69
842.805	19743.75
843.13	19597.08
843.454	19632.11
843.778	19496.3
844.103	19543.53
844.427	19349.41
844.751	19436.41
845.075	19296.98
845.399	19374.04
845.723	19190.09
846.047	19257.66
846.371	18995.52
846.695	19028.28
847.019	18895.86
847.343	18824.45
847.666	18646.6
847.99	18604.12
848.313	18500.16
848.637	18504.91
848.96	18346.04
849.284	18243.9
849.607	18173.17
849.931	18258.14
850.254	18021.31
850.577	18006.62
850.9	17928.43
851.223	17888.2
851.546	17854.3
851.869	17761.65
852.192	17880.97
852.515	17635.1
852.838	17611.83
853.161	17621.77
853.483	17513.07
853.806	17404.37
854.129	17405.5
854.451	17295.68
854.774	17279.4
855.096	17214.77
855.419	17187.66
855.741	17267.2
856.063	16994.89
856.385	17017.49
856.708	17018.85
857.03	16995.57
857.352	17059.75
857.674	16851.39
857.996	16794.45
858.318	16827.44
858.64	16841.22
858.961	16792.86
859.283	16791.51
859.605	16579.99
859.926	16619.53
860.248	16627.22
860.57	16487.33
860.891	16512.19
861.212	16396.26
861.534	16404.17
861.855	16440.1
862.176	16439.88
862.498	16419.09
862.819	16323.72
863.14	16357.85
863.461	16286.89
863.782	16210.51
864.103	16286.89
864.424	16192.88
864.745	16168.93
865.065	16116.72
865.386	16083.28
865.707	16128.7
866.027	16048.7
866.348	15989.49
866.668	16043.05
866.989	16013
867.309	15896.84
867.63	15842.83
867.95	15954.69
868.27	15853.68
868.59	15910.63
868.91	15924.86
869.23	15907.69
869.55	15773.68
869.87	15854.81
870.19	15751.76
870.51	15772.1
870.83	15849.84
871.15	15685.1
871.469	15712.21
871.789	15723.51
872.109	15701.59
872.428	15590.41
872.748	15653.46
873.067	15571.88
873.386	15610.3
873.706	15566.46
874.025	15518.32
874.344	15456.4
874.663	15518.77
874.982	15459.57
875.301	15361.71
875.62	15449.17
875.939	15350.64
876.258	15286.24
876.577	15225.9
876.896	15229.97
877.214	15218.67
877.533	15215.73
877.852	15220.93
878.17	15164.66
878.489	15150.65
878.807	15074.72
879.125	15128.5
879.444	15045.79
879.762	14906.81
880.08	14862.52
880.398	14794.27
880.716	14829.75
881.034	14773.71
881.352	14753.37
881.67	14747.49
881.988	14748.17
882.306	14670.66
882.624	14606.71
882.941	14637.89
883.259	14413.27
883.577	14433.6
883.894	14443.09
884.212	14421.63
884.529	14359.26
884.846	14302.53
885.164	14215.08
885.481	14172.37
885.798	14195.19
886.115	14124.91
886.432	13972.15
886.75	14006.27
887.067	14089.88
887.383	13941.64
887.7	13877.91
888.017	13791.13
888.334	13779.84
888.651	13804.47
888.967	13732.83
889.284	13762.43
889.6	13667.75
889.917	13521.09
890.233	13596.34
890.55	13529.22
890.866	13502.55
891.182	13437.25
891.498	13341.88
891.815	13301.43
892.131	13303.69
892.447	13211.26
892.763	13213.52
893.079	13107.76
893.395	13149.12
893.71	13107.99
894.026	13069.35
894.342	13051.72
894.657	12928.56
894.973	12905.51
895.289	12929.01
895.604	12833.42
895.92	12828.22
896.235	12839.3
896.55	12804.95
896.865	12723.59
897.181	12597.49
897.496	12626.87
897.811	12606.76
898.126	12528.12
898.441	12526.99
898.756	12448.57
899.071	12412.19
899.386	12393.88
899.7	12329.48
900.015	12281.57
900.33	12243.6
900.644	12159.09
900.959	12170.61
901.273	12145.53
901.588	12056.72
901.902	11995.93
902.216	11927.23
902.531	11900.11
902.845	11898.98
903.159	11859.43
903.473	11759.32
903.787	11798.87
904.101	11689.72
904.415	11757.52
904.729	11716.61
905.042	11594.13
905.356	11609.27
905.67	11632.32
905.984	11569.27
906.297	11560.23
906.611	11444.53
906.924	11439.33
907.237	11345.1
907.551	11307.81
907.864	11273.69
908.177	11148.72
908.491	11226.68
908.804	11115.05
909.117	11000.93
909.43	11037.31
909.743	10964.54
910.056	10906.92
910.368	10861.95
910.681	10871.89
910.994	10852.45
911.307	10856.3
911.619	10739.69
911.932	10771.55
912.244	10569.75
912.557	10684.32
912.869	10592.8
913.181	10578.56
913.494	10559.58
913.806	10554.61
914.118	10386.25
914.43	10373.37
914.742	10440.26
915.054	10416.76
915.366	10285.24
915.678	10321.17
915.99	10302.19
916.302	10093.38
916.613	10114.62
916.925	10054.51
917.236	10126.37
917.548	10029.65
917.859	10038.46
918.171	9966.6
918.482	9911.91
918.794	9924.8
919.105	9964.57
919.416	9876.66
919.727	9854.06
920.038	9845.48
920.349	9712.82
920.66	9631.24
920.971	9632.6
921.282	9624.24
921.593	9513.05
921.903	9509.21
922.214	9455.2
922.525	9385.37
922.835	9369.56
923.146	9311.7
923.456	9280.74
923.767	9260.86
924.077	9246.85
924.387	9212.95
924.697	9166.17
925.008	9157.13
925.318	9060.41
925.628	9012.05
925.938	9003.92
926.248	8897.93
926.558	8905.39
926.867	8818.16
927.177	8889.12
927.487	8783.58
927.796	8669.24
928.106	8711.72
928.416	8672.17
928.725	8604.15
929.034	8608.22
929.344	8581.78
929.653	8520.99
929.962	8446.19
930.271	8385.63
930.581	8341.79
930.89	8291.62
931.199	8227.21
931.508	8184.5
931.817	8115.35
932.125	8145.18
932.434	8104.73
932.743	8074.45
933.051	8003.72
933.36	7950.61
933.669	7935.7
933.977	7887.11
934.286	7881.69
934.594	7785.87
934.902	7742.93
935.21	7682.37
935.519	7702.03
935.827	7681.24
936.135	7632.88
936.443	7517.18
936.751	7530.06
937.059	7509.94
937.367	7433.79
937.674	7421.81
937.982	7335.71
938.29	7355.82
938.597	7327.8
938.905	7225.88
939.213	7247.13
939.52	7185.21
939.827	7230.63
940.135	7166.45
940.442	7108.15
940.749	7081.03
941.056	7119.22
941.363	6981.37
941.67	6995.16
941.977	6962.16
942.284	6920.35
942.591	6892.78
942.898	6849.4
943.205	6832.45
943.511	6740.92
943.818	6665.22
944.125	6709.74
944.431	6691.66
944.738	6643.3
945.044	6621.15
945.35	6596.07
945.657	6561.72
945.963	6575.51
946.269	6543.87
946.575	6561.95
946.881	6492.8
947.187	6439.92
947.493	6465
947.799	6362.18
948.105	6331.9
948.41	6334.38
948.716	6317.88
949.022	6315.4
949.327	6340.48
949.633	6197.21
949.938	6238.34
950.244	6260.71
950.549	6132.58
950.854	6179.58
951.16	6125.57
951.465	6137.1
951.77	6062.3
952.075	6037.21
952.38	6026.37
952.685	6022.07
952.99	5931.91
953.294	5938.69
953.599	5893.26
953.904	5895.97
954.209	5879.48
954.513	5888.74
954.818	5799.71
955.122	5825.92
955.426	5787.96
955.731	5716.32
956.035	5788.18
956.339	5731.01
956.643	5697.79
956.948	5624.57
957.252	5641.97
957.556	5639.71
957.86	5594.97
958.163	5604.01
958.467	5522.88
958.771	5531.01
959.075	5487.4
959.378	5465.25
959.682	5442.65
959.985	5407.85
960.289	5377.57
960.592	5370.57
960.896	5382.09
961.199	5370.34
961.502	5325.59
961.805	5314.97
962.108	5252.83
962.411	5211.93
962.714	5203.34
963.017	5209.89
963.32	5195.88
963.623	5143
963.926	5137.12
964.228	5102.1
964.531	5106.17
964.833	5088.31
965.136	5053.74
965.438	5038.82
965.741	5042.21
966.043	4976.45
966.345	4955.66
966.648	4964.47
966.95	4932.84
967.252	4936.23
967.554	4888.09
967.856	4859.17
968.158	4857.13
968.46	4865.27
968.761	4813.07
969.063	4754.54
969.365	4767.42
969.666	4749.34
969.968	4662.79
970.269	4720.19
970.571	4719.96
970.872	4757.7
971.174	4675.89
971.475	4649
971.776	4607.42
972.077	4610.13
972.378	4575.33
972.679	4557.71
972.98	4560.87
973.281	4521.55
973.582	4534.43
973.883	4495.79
974.183	4495.33
974.484	4475.9
974.785	4471.38
975.085	4443.58
975.386	4446.07
975.686	4347.99
975.986	4418.73
976.287	4371.04
976.587	4310.48
976.887	4372.63
977.187	4361.55
977.487	4347.99
977.787	4307.32
978.087	4246.75
978.387	4259.18
978.687	4230.26
978.987	4230.93
979.286	4146.42
979.586	4188.9
979.885	4160.43
980.185	4139.86
980.484	4126.08
980.784	4095.34
981.083	4093.31
981.382	4042.46
981.682	4002.01
981.981	4032.07
982.28	3977.38
982.579	3945.74
982.878	3986.42
983.177	3891.06
983.475	3892.86
983.774	3851.28
984.073	3847.67
984.372	3825.75
984.67	3792.08
984.969	3807.67
985.267	3807.67
985.566	3724.28
985.864	3714.56
986.162	3725.86
986.461	3684.96
986.759	3645.41
987.057	3601.35
987.355	3595.02
987.653	3562.02
987.951	3558.86
988.249	3552.76
988.547	3562.7
988.844	3521.35
989.142	3483.61
989.44	3532.65
989.737	3399.77
990.035	3413.33
990.332	3394.8
990.63	3362.26
990.927	3380.11
991.224	3363.61
991.521	3284.74
991.819	3273.22
992.116	3275.93
992.413	3290.85
992.71	3265.54
993.006	3246.1
993.303	3225.76
993.6	3211.07
993.897	3195.48
994.193	3169.49
994.49	3192.32
994.787	3140.12
995.083	3089.95
995.379	3076.61
995.676	3087.91
995.972	3061.02
996.268	3037.74
996.565	3033.9
996.861	3017.41
997.157	3001.14
997.453	2959.78
997.749	2959.55
998.044	2919.56
998.34	2930.4
998.636	2905.32
998.932	2904.64
999.227	2882.72
999.523	2862.38
999.818	2879.56
1000.114	2853.57
1000.409	2837.52
1000.704	2813.34
1001	2787.13
1001.295	2809.28
1001.59	2778.77
1001.885	2720.92
1002.18	2693.57
1002.475	2707.36
1002.77	2718.66
1003.065	2661.03
1003.359	2700.8
1003.654	2654.03
1003.949	2606.12
1004.243	2594.82
1004.538	2630.75
1004.832	2620.58
1005.127	2603.41
1005.421	2577.19
1005.715	2570.19
1006.009	2558.66
1006.304	2525.44
1006.598	2533.13
1006.892	2513.92
1007.186	2486.12
1007.48	2447.03
1007.773	2459
1008.067	2421.49
1008.361	2423.75
1008.655	2428.04
1008.948	2390.53
1009.242	2409.96
1009.535	2404.09
1009.829	2360.93
1010.122	2348.5
1010.415	2335.16
1010.708	2297.65
1011.001	2290.87
1011.295	2336.29
1011.588	2288.84
1011.881	2289.97
1012.173	2261.04
1012.466	2245.9
1012.759	2251.1
1013.052	2234.15
1013.344	2194.38
1013.637	2194.38
1013.93	2196.41
1014.222	2183.76
1014.514	2180.82
1014.807	2158.45
1015.099	2146.69
1015.391	2161.16
1015.683	2108.28
1015.976	2086.36
1016.268	2079.35
1016.56	2042.97
1016.851	2048.62
1017.143	2062.4
1017.435	2056.75
1017.727	2009.3
1018.018	1996.19
1018.31	2019.01
1018.602	1981.73
1018.893	1961.16
1019.185	1963.87
1019.476	1975.4
1019.767	1926.36
1020.058	1901.73
1020.35	1910.77
1020.641	1894.95
1020.932	1865.35
1021.223	1840.49
1021.514	1828.74
1021.804	1851.11
1022.095	1824.22
1022.386	1807.72
1022.677	1779.02
1022.967	1783.77
1023.258	1780.6
1023.548	1737.21
1023.839	1749.42
1024.129	1727.04
1024.419	1701.06
1024.709	1718.23
1025	1705.8
1025.29	1693.37
1025.58	1683.66
1025.87	1664.67
1026.16	1652.02
1026.449	1645.47
1026.739	1651.11
1027.029	1637.33
1027.319	1636.88
1027.608	1634.62
1027.898	1584.9
1028.187	1595.3
1028.477	1567.5
1028.766	1569.99
1029.055	1543.32
1029.344	1559.14
1029.634	1551.23
1029.923	1528.86
1030.212	1519.59
1030.501	1523.89
1030.79	1514.17
1031.078	1504.23
1031.367	1483.44
1031.656	1498.35
1031.945	1475.07
1032.233	1446.37
1032.522	1447.05
1032.81	1465.13
1033.099	1428.75
1033.387	1421.29
1033.675	1392.14
1033.963	1381.52
1034.251	1420.16
1034.54	1375.87
1034.828	1376.09
1035.116	1396.66
1035.403	1363.21
1035.691	1338.58
1035.979	1367.51
1036.267	1341.07
1036.554	1328.19
1036.842	1316.43
1037.129	1320.5
1037.417	1323.89
1037.704	1306.94
1037.992	1287.28
1038.279	1281.18
1038.566	1284.12
1038.853	1284.12
1039.14	1284.12
