Data from white_steel_sheet_FLMS001491_017.txt Node
Date: Tue Feb 07 10:57:28 GMT 2017
User: dcchb
Spectrometer: FLMS00149
Trigger mode: 0
Integration Time (sec): 2.000000E-2
Scans to average: 10
Electric dark correction enabled: true
Nonlinearity correction enabled: false
Boxcar width: 0
XAxis mode: Wavelengths
Number of Pixels in Spectrum: 2048
>>>>>Begin Spectral Data<<<<<
341.393	-30.99
341.776	-30.99
342.16	-30.99
342.543	-76.64
342.927	-63.08
343.31	-66.02
343.693	-65.34
344.077	-51.33
344.46	-66.92
344.843	-57.2
345.226	-39.12
345.61	-41.61
345.993	-12.68
346.376	-14.94
346.759	-3.42
347.142	10.59
347.525	55.56
347.908	59.18
348.291	84.26
348.674	102.34
349.057	106.64
349.44	121.78
349.823	130.36
350.206	162.91
350.588	194.77
350.971	195.45
351.354	214.43
351.737	239.51
352.119	246.07
352.502	259.17
352.884	268.67
353.267	268.21
353.65	287.2
354.032	302.56
354.414	314.99
354.797	341.66
355.179	328.55
355.562	316.35
355.944	326.52
356.326	330.36
356.709	327.87
357.091	350.7
357.473	354.54
357.855	358.15
358.238	348.66
358.62	344.82
359.002	335.78
359.384	330.13
359.766	350.92
360.148	345.5
360.53	340.53
360.912	336.46
361.294	331.71
361.676	337.82
362.057	315.22
362.439	327.42
362.821	334.43
363.203	329.91
363.584	314.09
363.966	326.97
364.348	343.47
364.729	336.01
365.111	330.36
365.493	329.91
365.874	333.97
366.256	334.2
366.637	306.4
367.019	323.58
367.4	337.14
367.781	322.45
368.163	329
368.544	323.13
368.925	306.63
369.306	322.9
369.688	325.84
370.069	322
370.45	308.89
370.831	319.06
371.212	312.73
371.593	307.76
371.974	302.34
372.355	328.55
372.736	344.6
373.117	321.77
373.498	347.99
373.879	326.06
374.26	319.06
374.641	335.33
375.021	313.86
375.402	341.43
375.783	332.17
376.163	334.43
376.544	329.23
376.925	340.98
377.305	318.83
377.686	341.66
378.066	329.68
378.447	352.28
378.827	345.95
379.208	354.09
379.588	333.52
379.968	346.18
380.349	363.13
380.729	357.7
381.109	350.7
381.489	323.35
381.87	371.71
382.25	351.37
382.63	348.21
383.01	369.45
383.39	342.34
383.77	373.3
384.15	352.73
384.53	367.42
384.91	364.03
385.29	378.27
385.67	362.9
386.049	399.51
386.429	382.11
386.809	373.07
387.189	385.05
387.568	390.24
387.948	391.37
388.328	389.11
388.707	397.93
389.087	391.83
389.466	396.12
389.846	409.68
390.225	416.46
390.605	429.79
390.984	424.14
391.363	405.16
391.743	431.37
392.122	412.16
392.501	416.91
392.881	429.79
393.26	450.13
393.639	462.78
394.018	434.54
394.397	421.66
394.776	471.37
395.155	462.33
395.534	465.27
395.913	492.39
396.292	471.37
396.671	472.5
397.05	498.26
397.429	474.31
397.808	503.91
398.186	479.73
398.565	502.11
398.944	513.86
399.323	500.52
399.701	532.61
400.08	517.92
400.458	541.43
400.837	546.17
401.215	538.71
401.594	561.99
401.972	554.53
402.351	578.94
402.729	561.09
403.107	573.29
403.486	609.22
403.864	601.99
404.242	606.96
404.62	622.55
404.999	613.51
405.377	626.17
405.755	662.55
406.133	655.77
406.511	632.95
406.889	671.14
407.267	669.56
407.645	692.61
408.023	703.23
408.401	703
408.779	719.5
409.156	723.34
409.534	718.82
409.912	763.34
410.29	772.38
410.667	787.52
411.045	792.49
411.422	794.53
411.8	821.87
412.178	813.96
412.555	824.81
412.933	835.2
413.31	847.41
413.687	866.84
414.065	866.39
414.442	884.92
414.819	884.24
415.197	920.85
415.574	950.91
415.951	914.98
416.328	924.47
416.705	922.21
417.082	940.96
417.46	950.46
417.837	966.95
418.214	972.83
418.591	989.32
418.967	999.49
419.344	998.82
419.721	1016.67
420.098	1011.7
420.475	1038.59
420.852	1060.06
421.228	1054.41
421.605	1069.55
421.982	1073.62
422.358	1095.76
422.735	1113.39
423.111	1111.81
423.488	1149.32
423.864	1141.86
424.241	1160.39
424.617	1162.65
424.994	1190.45
425.37	1203.56
425.746	1187.74
426.123	1214.63
426.499	1197.68
426.875	1234.97
427.251	1251.69
427.627	1267.28
428.003	1288.98
428.379	1335.76
428.756	1293.27
429.132	1328.98
429.507	1346.83
429.883	1372.14
430.259	1401.74
430.635	1396.09
431.011	1403.1
431.387	1445.81
431.763	1474.74
432.138	1470.89
432.514	1489.2
432.89	1514.96
433.265	1538.01
433.641	1518.58
434.016	1579.59
434.392	1578.69
434.767	1651.68
435.143	1643.32
435.518	1625.47
435.894	1676.09
436.269	1686.26
436.644	1706.37
437.02	1740.49
437.395	1746.82
437.77	1763.54
438.145	1764.45
438.52	1800.83
438.895	1827.04
439.271	1821.39
439.646	1868.85
440.021	1887.61
440.395	1870.88
440.77	1876.76
441.145	1908.4
441.52	1942.07
441.895	1920.6
442.27	1970.77
442.645	1953.14
443.019	1958.79
443.394	2005.57
443.769	2024.33
444.143	2008.28
444.518	2043.08
444.892	2045.34
445.267	2081.72
445.641	2102.29
446.016	2115.62
446.39	2141.16
446.764	2131.44
447.139	2133.7
447.513	2127.15
447.887	2192.46
448.262	2218.9
448.636	2183.87
449.01	2243.98
449.384	2267.71
449.758	2246.69
450.132	2290.31
450.506	2305.22
450.88	2311.78
451.254	2355.62
451.628	2344.54
452.002	2394.94
452.376	2408.5
452.75	2450.3
453.123	2438.78
453.497	2502.96
453.871	2507.25
454.244	2561.71
454.618	2587.93
454.992	2634.03
455.365	2599
455.739	2667.7
456.112	2689.39
456.486	2736.62
456.859	2782.27
457.232	2808.71
457.606	2806.45
457.979	2838.54
458.352	2884.42
458.725	2969.16
459.099	2975.94
459.472	3020.91
459.845	3005.77
460.218	3020.68
460.591	3097.07
460.964	3101.13
461.337	3205.54
461.71	3202.83
462.083	3234.46
462.456	3267.91
462.829	3294.57
463.201	3326.89
463.574	3357.17
463.947	3420.45
464.32	3515.81
464.692	3514.46
465.065	3514.46
465.438	3615.92
465.81	3606.2
466.183	3683.49
466.555	3735.47
466.928	3739.31
467.3	3732.98
467.672	3805.75
468.045	3911.06
468.417	3954.9
468.789	3944.27
469.161	4020.88
469.534	4075.12
469.906	4169.13
470.278	4198.51
470.65	4251.39
471.022	4309.69
471.394	4414.77
471.766	4461.32
472.138	4481.21
472.51	4617.48
472.882	4697.93
473.253	4704.71
473.625	4725.27
473.997	4906.74
474.369	4891.82
474.74	4945.83
475.112	5068.77
475.484	5138.82
475.855	5233.73
476.227	5228.53
476.598	5385.37
476.97	5480.96
477.341	5595.53
477.713	5657.45
478.084	5656.32
478.455	5845.02
478.827	5915.52
479.198	6069.64
479.569	6028.74
479.94	6218.11
480.311	6322.52
480.682	6424.21
481.053	6587.37
481.424	6596.41
481.795	6682.28
482.166	6833.01
482.537	6883.63
482.908	7027.81
483.279	7115.72
483.65	7261.7
484.021	7415.6
484.391	7482.71
484.762	7524.29
485.133	7655.14
485.503	7757.73
485.874	7899.2
486.244	7967.9
486.615	8164.95
486.985	8300.54
487.356	8422.8
487.726	8489.24
488.097	8668.22
488.467	8663.7
488.837	8852.85
489.207	9019.17
489.578	9064.82
489.948	9149.79
490.318	9264.36
490.688	9329.44
491.058	9487.18
491.428	9589.78
491.798	9668.42
492.168	9967.39
492.538	9893.27
492.908	10056.43
493.278	10178.01
493.648	10171
494.017	10371.22
494.387	10452.8
494.757	10518.79
495.126	10626.81
495.496	10747.26
495.866	10852.57
496.235	10885.11
496.605	11039.46
496.974	11056.86
497.344	11281.93
497.713	11288.71
498.082	11332.78
498.452	11423.4
498.821	11557.63
499.19	11587.46
499.559	11711.08
499.928	11776.16
500.298	11869.49
500.667	11973.89
501.036	11991.97
501.405	12138.64
501.774	12178.18
502.143	12250.5
502.512	12297.28
502.88	12509.93
503.249	12462.47
503.618	12613.43
503.987	12678.96
504.356	12791.95
504.724	12884.6
505.093	12971.16
505.462	13041.21
505.83	13106.52
506.199	13283.24
506.567	13401.88
506.936	13389.22
507.304	13554.87
507.672	13662.44
508.041	13700.4
508.409	13763
508.777	13890.23
509.145	14019.94
509.514	14034.86
509.882	14213.16
510.25	14248.41
510.618	14325.24
510.986	14457.67
511.354	14544
511.722	14689.75
512.09	14863.99
512.458	14890.65
512.826	14965.68
513.193	15058.56
513.561	15125.9
513.929	15259.01
514.297	15367.7
514.664	15493.12
515.032	15591.88
515.4	15751.2
515.767	15879.33
516.135	15991.42
516.502	15876.62
516.869	16216.72
517.237	16223.05
517.604	16135.59
517.972	16511.63
518.339	16546.88
518.706	16592.08
519.073	16742.36
519.44	16894.22
519.808	17077.49
520.175	17128.33
520.542	17318.16
520.909	17510.47
521.276	17527.19
521.643	17684.93
522.009	17833.4
522.376	17927.86
522.743	18029.33
523.11	18230
523.477	18444.23
523.843	18595.64
524.21	18768.52
524.577	18922.41
524.943	18982.07
525.31	19125.34
525.676	19341.61
526.043	19534.37
526.409	19549.29
526.776	19747.93
527.142	19743.18
527.508	19960.12
527.874	20089.16
528.241	20170.06
528.607	20191.76
528.973	20514.01
529.339	20563.95
529.705	20762.82
530.071	20982.02
530.437	21055.24
530.803	21161.68
531.169	21233.76
531.535	21288.45
531.901	21342.01
532.267	21550.14
532.632	21612.28
532.998	21765.05
533.364	21952.39
533.73	21909
534.095	22165.04
534.461	22144.7
534.826	22285.71
535.192	22480.96
535.557	22606.16
535.923	22589.89
536.288	22778.13
536.653	22798.92
537.019	22774.29
537.384	22918.69
537.749	22946.71
538.114	23175.86
538.479	23284.56
538.845	23259.47
539.21	23333.82
539.575	23534.49
539.94	23393.93
540.305	23709.4
540.67	23628.28
541.034	23688.16
541.399	23860.81
541.764	23985.33
542.129	24082.28
542.494	24039.11
542.858	24221.71
543.223	24246.79
543.587	24406.79
543.952	24414.02
544.316	24618.99
544.681	24604.07
545.045	24746.67
545.41	24826.66
545.774	24846.55
546.138	24933.55
546.503	25100.78
546.867	25089.71
547.231	25257.16
547.595	25192.3
547.959	25380.1
548.324	25407.89
548.688	25481.34
549.052	25602.69
549.416	25720.65
549.779	25784.83
550.143	25781.67
550.507	25949.57
550.871	25929.01
551.235	25974.66
551.599	26256
551.962	26207.19
552.326	26490.57
552.689	26506.39
553.053	26562.21
553.417	26514.08
553.78	26872.49
554.143	26865.71
554.507	26968.75
554.87	27168.3
555.234	27381.62
555.597	27218.69
555.96	27310.89
556.323	27411.23
556.686	27363.32
557.05	27813.93
557.413	27868.84
557.776	27835.17
558.139	28094.83
558.502	28065.67
558.865	28122.85
559.228	28324.42
559.59	28358.77
559.953	28467.02
560.316	28841.7
560.679	28841.47
561.041	28986.33
561.404	29175.02
561.767	29303.38
562.129	29228.58
562.492	29552.87
562.854	29641.23
563.217	29590.15
563.579	29749.92
563.941	29914.21
564.304	30002.8
564.666	30164.38
565.028	30179.29
565.39	30243.7
565.753	30486.63
566.115	30663.12
566.477	30759.84
566.839	30820.86
567.201	31079.15
567.563	31117.35
567.925	31259.71
568.287	31295.87
568.648	31443.89
569.01	31499.93
569.372	31619.93
569.734	31645.92
570.095	31759.81
570.457	31909.87
570.819	32116.64
571.18	32076.19
571.542	32299.01
571.903	32342.85
572.265	32413.81
572.626	32519.57
572.987	32628.27
573.349	32632.56
573.71	32793.91
574.071	32918.43
574.432	32894.25
574.794	33120.91
575.155	33153.45
575.516	33104.41
575.877	33167.69
576.238	33210.4
576.599	33449.49
576.96	33342.82
577.32	33491.75
577.681	33575.81
578.042	33754.34
578.403	33631.18
578.763	33639.77
579.124	33704.17
579.485	33825.3
579.845	33800.66
580.206	33854.67
580.566	33875.01
580.927	33957.5
581.287	34161.11
581.648	33836.6
582.008	34073.88
582.368	34086.08
582.728	34073.2
583.089	33971.28
583.449	34087.44
583.809	34053.77
584.169	34090.6
584.529	34098.51
584.889	34329.46
585.249	33987.33
585.609	34035.24
585.969	34136.93
586.329	34074.1
586.688	34153.2
587.048	34088.34
587.408	34155.01
587.768	34152.52
588.127	34221.67
588.487	34011.96
588.846	34202.69
589.206	34048.57
589.565	34159.3
589.925	34206.98
590.284	34022.35
590.643	34160.43
591.003	34293.08
591.362	34237.49
591.721	34098.74
592.08	34174.67
592.44	34229.58
592.799	34230.71
593.158	34217.83
593.517	34231.16
593.876	34256.92
594.235	34182.8
594.593	34101.45
594.952	34212.41
595.311	34148
595.67	34323.14
596.029	34384.38
596.387	34433.42
596.746	34408.78
597.104	34281.78
597.463	34218.96
597.822	34323.59
598.18	34303.48
598.538	34200.65
598.897	34396.81
599.255	34136.25
599.613	34685.61
599.972	34459.86
600.33	34505.28
600.688	34316.58
601.046	34609.23
601.404	34634.09
601.762	34396.58
602.12	34638.16
602.478	34594.54
602.836	34692.39
603.194	34326.53
603.552	34451.95
603.91	34361.55
604.268	34533.75
604.625	34463.25
604.983	34665.05
605.341	34384.6
605.698	34673.41
606.056	34756.35
606.413	34720.41
606.771	34770.81
607.128	34730.58
607.485	34568.78
607.843	34569.01
608.2	34847.87
608.557	34804.93
608.914	34822.11
609.272	34933.97
609.629	34956.57
609.986	35233.17
610.343	34984.81
610.7	35231.14
611.057	35102.78
611.414	35146.62
611.771	35112.95
612.127	35304.35
612.484	35283.79
612.841	35463.9
613.198	35308.65
613.554	35298.7
613.911	35408.98
614.267	35393.62
614.624	35397.01
614.98	35448.76
615.337	35647.4
615.693	35552.94
616.05	35622.09
616.406	35853.49
616.762	35650.33
617.118	35823.66
617.475	35797.45
617.831	35870.22
618.187	35832.25
618.543	35909.08
618.899	36068.18
619.255	35991.12
619.611	35824.57
619.967	36152.92
620.323	36127.38
620.678	36035.63
621.034	36018.46
621.39	36055.29
621.746	35922.64
622.101	36339.13
622.457	36147.27
622.812	36100.94
623.168	36206.93
623.523	36131.68
623.879	36240.83
624.234	36138.46
624.589	36252.58
624.945	36228.4
625.3	36177.78
625.655	36195.63
626.01	36163.77
626.365	36443.53
626.72	36246.48
627.075	36205.57
627.43	36105.92
627.785	36172.58
628.14	36111.11
628.495	36078.8
628.85	36061.4
629.205	35950.66
629.559	36124.9
629.914	36046.03
630.269	35952.02
630.623	35930.33
630.978	36017.1
631.332	35935.75
631.687	36013.49
632.041	35882.42
632.396	35960.61
632.75	35728.75
633.104	35854.62
633.459	35652.59
633.813	35571.24
634.167	35595.19
634.521	35537.12
634.875	35603.1
635.229	35533.73
635.583	35359.95
635.937	35446.05
636.291	35432.03
636.645	35381.41
636.999	35243.11
637.352	35325.37
637.706	35222.32
638.06	35225.94
638.413	35134.87
638.767	35057.81
639.121	35041.08
639.474	34737.36
639.828	34911.82
640.181	34914.53
640.534	34914.99
640.888	34825.72
641.241	34581.21
641.594	34706.86
641.947	34782.56
642.301	34575.33
642.654	34654.43
643.007	34552.51
643.36	34612.17
643.713	34462.79
644.066	34552.06
644.419	34255.79
644.771	34042.24
645.124	33763.83
645.477	33638.18
645.83	33431.64
646.182	33330.17
646.535	33332.2
646.888	33402.71
647.24	33137.18
647.593	33362.03
647.945	33318.19
648.298	33180.34
648.65	33148.48
649.002	32861.48
649.355	33091.53
649.707	33058.09
650.059	33166.78
650.411	33562.71
650.763	33576.72
651.115	33965.18
651.467	33814
651.819	33724.06
652.171	33733.77
652.523	33636.15
652.875	33671.18
653.227	33534.91
653.578	33684.28
653.93	33621.69
654.282	33471.41
654.633	33337.63
654.985	33477.74
655.337	33488.58
655.688	33404.97
656.039	33555.25
656.391	33274.13
656.742	33332.43
657.094	33322.03
657.445	33299.21
657.796	33351.41
658.147	33279.55
658.498	33109.16
658.849	33300.79
659.2	33152.32
659.551	33010.4
659.902	33161.36
660.253	32985.77
660.604	33075.03
660.955	32817.41
661.306	33075.71
661.656	32851.09
662.007	32674.37
662.358	32800.69
662.708	32660.36
663.059	32811.09
663.409	32391.66
663.76	32669.85
664.11	32642.73
664.461	32577.19
664.811	32607.25
665.161	32448.84
665.511	32362.28
665.862	32359.57
666.212	32428.05
666.562	32396.18
666.912	32227.37
667.262	32194.38
667.612	32065.12
667.962	32035.29
668.312	31861.51
668.662	31993.93
669.011	31873.26
669.361	31812.02
669.711	31715.75
670.06	31605.47
670.41	31524.34
670.76	31335.64
671.109	31609.31
671.459	31389.2
671.808	31298.58
672.157	31319.37
672.507	31076.67
672.856	31013.62
673.205	31077.12
673.554	31075.99
673.904	30946.73
674.253	30982.43
674.602	30962.77
674.951	30575.66
675.3	30236.92
675.649	30778.15
675.998	30639.62
676.346	30716
676.695	30858.82
677.044	30554.65
677.393	30697.92
677.741	30668.09
678.09	30437.59
678.438	30505.16
678.787	30447.53
679.135	30490.24
679.484	30469.45
679.832	30470.13
680.181	30367.99
680.529	30429
680.877	30323.02
681.225	30305.62
681.573	30426.52
681.922	30348.1
682.27	30261.77
682.618	30459.06
682.966	30186.75
683.314	30342.68
683.661	30258.16
684.009	30129.12
684.357	30117.6
684.705	30152.63
685.053	30326.63
685.4	30400.75
685.748	30089.8
686.095	30147.43
686.443	30167.09
686.79	30070.59
687.138	30253.87
687.485	30152.17
687.832	30072.4
688.18	30189.01
688.527	30036.24
688.874	30245.28
689.221	30033.53
689.568	30076.47
689.915	29925.74
690.262	29969.13
690.609	29843.93
690.956	29833.09
691.303	29842.8
691.65	29802.58
691.997	29803.26
692.344	29692.75
692.69	29791.5
693.037	29653.43
693.383	29552.42
693.73	29541.34
694.077	29473.32
694.423	29518.74
694.769	29426.99
695.116	29475.58
695.462	29402.36
695.808	29219.54
696.155	29429.71
696.501	28988.14
696.847	29161.01
697.193	28972.09
697.539	29152.43
697.885	28937.52
698.231	28889.61
698.577	28874.01
698.923	28644.19
699.269	28642.38
699.614	28604.64
699.96	28493.01
700.306	28539.33
700.651	28336.85
700.997	28348.15
701.342	28295.72
701.688	28251.43
702.033	28113.13
702.379	28100.7
702.724	28139.57
703.069	28103.64
703.415	27696.64
703.76	27804.89
704.105	27818
704.45	27893.02
704.795	27576.65
705.14	27505.24
705.485	27511.11
705.83	27335.3
706.175	27354.51
706.52	27300.72
706.865	27230.22
707.209	27230.22
707.554	27053.27
707.899	27101.41
708.243	26965.14
708.588	26934.86
708.932	26760.17
709.277	26717.69
709.621	26701.87
709.966	26651.02
710.31	26776.22
710.654	26457.81
710.998	26450.58
711.342	26486.96
711.687	26503.91
712.031	26435.43
712.375	26281.99
712.719	26338.49
713.063	26216.46
713.407	26267.53
713.75	26131.71
714.094	26164.71
714.438	25973.53
714.782	26111.6
715.125	25748.45
715.469	25874.77
715.812	25688.34
716.156	25652.4
716.499	25600.43
716.843	25708.67
717.186	25502.13
717.53	25630.03
717.873	25574.44
718.216	25453.99
718.559	25361.56
718.902	25150.72
719.246	25263.71
719.589	25250.83
719.932	25165.86
720.275	25177.84
720.617	25137.84
720.96	25082.48
721.303	25032.53
721.646	25053.78
721.989	24877.96
722.331	24902.82
722.674	24988.02
723.016	24771.75
723.359	24764.52
723.701	24848.58
724.044	24613.79
724.386	24598.42
724.729	24612.66
725.071	24586.9
725.413	24493.11
725.755	24543.06
726.097	24366.11
726.439	24374.47
726.782	24382.38
727.124	24378.77
727.465	24328.82
727.807	24214.25
728.149	24190.3
728.491	24078.89
728.833	24257.86
729.175	24073.24
729.516	24033.69
729.858	23961.15
730.199	23974.48
730.541	23925.44
730.882	23915.05
731.224	24054.48
731.565	23782.85
731.906	23794.6
732.248	23736.07
732.589	23626.47
732.93	23523.2
733.271	23675.06
733.612	23579.46
733.953	23613.36
734.294	23529.75
734.635	23461.73
734.976	23496.08
735.317	23228.97
735.658	23308.06
735.999	23348.28
736.339	23235.97
736.68	23316.65
737.021	23233.03
737.361	23078.69
737.702	23302.41
738.042	23061.51
738.383	23043.66
738.723	23061.29
739.063	23135.63
739.404	23018.58
739.744	23014.51
740.084	23031
740.424	22949.88
740.764	22864.68
741.104	22898.58
741.444	22754.18
741.784	22700.39
742.124	22677.34
742.464	22667.4
742.804	22663.33
743.143	22543.79
743.483	22618.36
743.823	22461.75
744.162	22473.28
744.502	22518.48
744.841	22315.09
745.181	22388.54
745.52	22421.08
745.86	22375.43
746.199	22252.95
746.538	22206.17
746.877	22266.5
747.216	22347.86
747.556	22031.48
747.895	22186.28
748.234	22133.18
748.573	22014.53
748.911	21958.04
749.25	21995.78
749.589	21893.63
749.928	21873.52
750.267	21940.86
750.605	21787.42
750.944	21829.91
751.283	21700.87
751.621	21739.74
751.96	21513.76
752.298	21584.49
752.636	21601.66
752.975	21515.34
753.313	21340.43
753.651	21539.52
753.989	21357.15
754.327	21355.57
754.666	21150.83
755.004	21288.9
755.342	21202.58
755.679	21119.64
756.017	21071.96
756.355	21017.95
756.693	20970.04
757.031	20995.58
757.368	20848.92
757.706	20863.6
758.044	20747.67
758.381	20778.63
758.719	20594.91
759.056	20581.13
759.394	20573.44
759.731	20446.44
760.068	20382.71
760.405	20286.9
760.743	20251.42
761.08	20331.64
761.417	20110.86
761.754	20125.54
762.091	20085.09
762.428	19958.99
762.765	19783.86
763.102	19788.6
763.438	19737.53
763.775	19687.59
764.112	19643.52
764.449	19695.5
764.785	19485.34
765.122	19429.97
765.458	19383.87
765.795	19387.03
766.131	19329.63
766.467	19237.43
766.804	19177.55
767.14	19143.42
767.476	18994.05
767.812	18974.61
768.148	19041.73
768.485	18813.26
768.821	18822.53
769.157	18730.78
769.492	18661.63
769.828	18693.94
770.164	18493.27
770.5	18558.35
770.836	18487.85
771.171	18474.74
771.507	18327.4
771.842	18226.16
772.178	18181.64
772.513	18146.84
772.849	18100.29
773.184	18019.84
773.519	18070.23
773.855	17894.87
774.19	17821.42
774.525	17745.72
774.86	17704.36
775.195	17756.12
775.53	17622.33
775.865	17483.13
776.2	17406.07
776.535	17269.35
776.87	17267.31
777.205	17244.26
777.539	17187.32
777.874	17144.83
778.209	16984.16
778.543	16972.86
778.878	16822.35
779.212	16873.88
779.547	16785.07
779.881	16787.78
780.215	16625.07
780.55	16712.53
780.884	16519.31
781.218	16506.2
781.552	16466.66
781.886	16373.55
782.22	16300.56
782.554	16304.63
782.888	16180.56
783.222	16056.05
783.556	15977.4
783.889	16016.05
784.223	15950.29
784.557	15842.95
784.89	15836.39
785.224	15754.36
785.557	15733.8
785.891	15709.84
786.224	15546.23
786.558	15599.34
786.891	15437.76
787.224	15408.38
787.557	15304.43
787.891	15326.12
788.224	15401.37
788.557	15265.33
788.89	15157.77
789.223	15172
789.556	15113.92
789.888	15045
790.221	14920.94
790.554	14739.7
790.887	14924.1
791.219	14781.28
791.552	14761.39
791.884	14668.51
792.217	14664.9
792.549	14651.34
792.882	14554.17
793.214	14402.98
793.546	14485.92
793.879	14338.13
794.211	14311.23
794.543	14312.14
794.875	14253.61
795.207	14350.55
795.539	14116.21
795.871	14168.64
796.203	14085.48
796.535	13948.98
796.867	13992.6
797.198	13898.36
797.53	13898.36
797.862	13752.6
798.193	13875.31
798.525	13646.84
798.856	13749.44
799.188	13609.11
799.519	13473.06
799.85	13489.33
800.182	13473.29
800.513	13500.63
800.844	13350.36
801.175	13313.75
801.506	13371.6
801.837	13278.27
802.168	13244.14
802.499	13218.83
802.83	13125.5
803.161	13056.13
803.491	13139.51
803.822	13160.53
804.153	13015.22
804.483	12923.7
804.814	12837.37
805.145	12784.04
805.475	12850.93
805.805	12860.65
806.136	12736.13
806.466	12855
806.796	12788.79
807.126	12627.89
807.457	12584.5
807.787	12531.85
808.117	12511.28
808.447	12483.49
808.777	12490.49
809.107	12463.82
809.436	12501.11
809.766	12433.77
810.096	12370.95
810.426	12311.29
810.755	12299.76
811.085	12271.29
811.414	12222.93
811.744	12150.16
812.073	12142.25
812.403	12045.76
812.732	12100.67
813.061	12104.96
813.39	12035.14
813.719	11993.55
814.049	12027.45
814.378	11901.13
814.707	11906.1
815.036	11892.54
815.365	11805.54
815.693	11652.55
816.022	11777.74
816.351	11714.69
816.68	11620.23
817.008	11699.1
817.337	11520.57
817.665	11575.94
817.994	11565.32
818.322	11620.91
818.651	11403.06
818.979	11429.5
819.307	11491.65
819.636	11486
819.964	11430.63
820.292	11441.93
820.62	11412.55
820.948	11349.96
821.276	11423.85
821.604	11376.4
821.932	11350.18
822.259	11386.34
822.587	11322.61
822.915	11323.29
823.243	11374.81
823.57	11313.8
823.898	11248.94
824.225	11256.4
824.553	11249.85
824.88	11270.41
825.207	11335.49
825.535	11290.3
825.862	11426.11
826.189	11232.22
826.516	11366.23
826.843	11303.18
827.17	11278.77
827.497	11316.96
827.824	11315.38
828.151	11305.89
828.478	11212.56
828.805	11344.98
829.131	11255.72
829.458	11252.78
829.785	11224.31
830.111	11240.35
830.438	11282.39
830.764	11243.97
831.09	11295.95
831.417	11169.62
831.743	11217.76
832.069	11177.98
832.395	11102.28
832.722	11254.82
833.048	11079
833.374	11117.42
833.7	11166.46
834.026	11128.94
834.351	11130.75
834.677	11090.98
835.003	11089.17
835.329	11108.61
835.654	11117.65
835.98	11003.52
836.306	11018.21
836.631	10923.75
836.956	11020.02
837.282	10999.23
837.607	10966.46
837.932	10901.83
838.258	10933.7
838.583	10918.55
838.908	10812.57
839.233	10853.25
839.558	10861.83
839.883	10807.6
840.208	10770.08
840.533	10733.25
840.858	10812.34
841.182	10740.03
841.507	10818.22
841.832	10700.93
842.156	10671.1
842.481	10668.84
842.805	10639.92
843.13	10622.52
843.454	10610.09
843.778	10646.7
844.103	10583.2
844.427	10505.68
844.751	10480.15
845.075	10487.83
845.399	10433.82
845.723	10350.21
846.047	10343.65
846.371	10303.66
846.695	10338.68
847.019	10286.93
847.343	10224.56
847.666	10188.18
847.99	10070.67
848.313	10049.43
848.637	9996.77
848.96	10101.85
849.284	10031.8
849.607	9928.75
849.931	9966.04
850.254	9782.77
850.577	9793.39
850.9	9726.5
851.223	9734.63
851.546	9677.68
851.869	9668.87
852.192	9638.81
852.515	9573.28
852.838	9511.59
853.161	9526.27
853.483	9395.2
853.806	9429.33
854.129	9436.56
854.451	9284.47
854.774	9324.7
855.096	9314.98
855.419	9241.31
855.741	9226.4
856.063	9171.93
856.385	9110.01
856.708	9148.21
857.03	9083.57
857.352	9099.62
857.674	9074.99
857.996	9083.8
858.318	8957.48
858.64	9024.59
858.961	8929.91
859.283	8926.97
859.605	8894.43
859.926	8904.82
860.248	8890.81
860.57	8765.17
860.891	8903.47
861.212	8844.94
861.534	8807.2
861.855	8749.57
862.176	8791.83
862.498	8769.91
862.819	8718.84
863.14	8662.34
863.461	8686.3
863.782	8670.7
864.103	8684.04
864.424	8573.53
864.745	8639.52
865.065	8596.36
865.386	8562.46
865.707	8591.38
866.027	8557.03
866.348	8524.95
866.668	8515.68
866.989	8496.47
867.309	8446.08
867.63	8454.21
867.95	8490.37
868.27	8402.91
868.59	8419.41
868.91	8430.03
869.23	8365.85
869.55	8387.55
869.87	8393.65
870.19	8405.63
870.51	8337.61
870.83	8377.6
871.15	8280.21
871.469	8291.73
871.789	8308.68
872.109	8288.79
872.428	8255.12
872.748	8325.63
873.067	8269.36
873.386	8293.76
873.706	8199.53
874.025	8194.33
874.344	8151.62
874.663	8164.5
874.982	8118.63
875.301	8181.9
875.62	8121.11
875.939	8129.48
876.258	8096.26
876.577	8071.62
876.896	8018.74
877.214	8070.04
877.533	8054.45
877.852	8016.03
878.17	8012.42
878.489	7986.2
878.807	8006.54
879.125	8026.2
879.444	7947.56
879.762	7947.79
880.08	7963.83
880.398	7895.36
880.716	7938.97
881.034	7871.63
881.352	7862.82
881.67	7823.49
881.988	7836.6
882.306	7854.45
882.624	7811.52
882.941	7762.25
883.259	7779.2
883.577	7696.49
883.894	7703.5
884.212	7687.68
884.529	7710.73
884.846	7701.24
885.164	7635.48
885.481	7651.97
885.798	7635.25
886.115	7587.57
886.432	7532.43
886.75	7549.83
887.067	7522.26
887.383	7471.87
887.7	7569.94
888.017	7451.75
888.334	7478.87
888.651	7414.92
888.967	7426.22
889.284	7380.12
889.6	7330.85
889.917	7277.97
890.233	7321.81
890.55	7276.62
890.866	7290.4
891.182	7288.37
891.498	7259.89
891.815	7190.07
892.131	7203.4
892.447	7175.15
892.763	7140.8
893.079	7152.1
893.395	7126.11
893.71	7059.45
894.026	7062.84
894.342	6996.62
894.657	7024.42
894.973	7066.23
895.289	6970.18
895.604	6968.15
895.92	6956.62
896.235	6945.33
896.55	6882.73
896.865	6894.93
897.181	6823.52
897.496	6841.6
897.811	6826.91
898.126	6793.24
898.441	6780.58
898.756	6712.34
899.071	6695.61
899.386	6745.56
899.7	6675.73
900.015	6679.12
900.33	6605.9
900.644	6594.37
900.959	6628.05
901.273	6543.98
901.588	6534.49
901.902	6534.04
902.216	6509.18
902.531	6490.65
902.845	6420.59
903.159	6410.88
903.473	6360.26
903.787	6326.13
904.101	6305.34
904.415	6305.57
904.729	6238
905.042	6264.44
905.356	6242.75
905.67	6230.77
905.984	6214.27
906.297	6143.54
906.611	6168.62
906.924	6073.48
907.237	6081.85
907.551	6098.57
907.864	6048.85
908.177	6020.83
908.491	5997.55
908.804	5973.37
909.117	5952.58
909.43	5898.8
909.743	5895.18
910.056	5927.05
910.368	5885.01
910.681	5829.65
910.994	5787.84
911.307	5788.07
911.619	5755.98
911.932	5753.04
912.244	5716.66
912.557	5672.36
912.869	5656.55
913.181	5660.39
913.494	5682.99
913.806	5632.82
914.118	5586.72
914.43	5593.27
914.742	5563.22
915.054	5517.34
915.366	5522.54
915.678	5474.86
915.99	5451.35
916.302	5413.16
916.613	5384.91
916.925	5405.03
917.236	5426.72
917.548	5355.54
917.859	5372.71
918.171	5330.91
918.482	5286.39
918.794	5280.06
919.105	5227.63
919.416	5220.4
919.727	5203.45
920.038	5195.32
920.349	5167.29
920.66	5144.7
920.971	5082.1
921.282	5107.18
921.593	5076.22
921.903	5075.09
922.214	5050.69
922.525	5014.08
922.835	4977.24
923.146	4972.72
923.456	4930.24
923.767	4889.33
924.077	4897.24
924.387	4872.39
924.697	4872.16
925.008	4840.3
925.318	4858.83
925.628	4858.38
925.938	4770.47
926.248	4762.11
926.558	4723.92
926.867	4694.09
927.177	4712.16
927.487	4714.65
927.796	4665.61
928.106	4658.15
928.416	4597.82
928.725	4596.46
929.034	4570.47
929.344	4541.32
929.653	4569.34
929.962	4549
930.271	4518.27
930.581	4470.36
930.89	4452.06
931.199	4440.76
931.508	4446.18
931.817	4409.57
932.125	4395.56
932.434	4393.08
932.743	4375.45
933.051	4356.69
933.36	4276.92
933.669	4262.68
933.977	4235.34
934.286	4289.12
934.594	4236.47
934.902	4204.61
935.21	4212.29
935.519	4205.28
935.827	4220.65
936.135	4175
936.443	4139.3
936.751	4126.42
937.059	4077.38
937.367	4110.82
937.674	4068.57
937.982	4055.91
938.29	4033.76
938.597	4066.98
938.905	3982.01
939.213	3989.02
939.52	3932.07
939.827	3906.54
940.135	3906.54
940.442	3931.62
940.749	3916.25
941.056	3872.64
941.363	3887.1
941.67	3840.55
941.977	3798.06
942.284	3822.47
942.591	3821.34
942.898	3784.73
943.205	3802.13
943.511	3757.61
943.818	3734.79
944.125	3717.16
944.431	3682.36
944.738	3719.2
945.044	3702.02
945.35	3641.46
945.657	3587.22
945.963	3618.63
946.269	3612.53
946.575	3630.84
946.881	3575.47
947.187	3584.28
947.493	3589.03
947.799	3515.13
948.105	3511.74
948.41	3495.47
948.716	3496.15
949.022	3483.04
949.327	3481.01
949.633	3417.28
949.938	3434.23
950.244	3420.67
950.549	3443.05
950.854	3401.24
951.16	3356.27
951.465	3348.13
951.77	3335.93
952.075	3351.3
952.38	3317.62
952.685	3300.22
952.99	3275.14
953.294	3277.17
953.599	3301.13
953.904	3242.82
954.209	3210.73
954.513	3224.29
954.818	3189.49
955.122	3215.03
955.426	3137.29
955.731	3159.21
956.035	3123.28
956.339	3142.49
956.643	3103.39
956.948	3112.21
957.252	3089.38
957.556	3043.28
957.86	3052.09
958.163	3087.57
958.467	3034.47
958.771	3035.15
959.075	3020.91
959.378	2997.63
959.682	3020.46
959.985	3024.07
960.289	2989.05
960.592	2941.36
960.896	2938.88
961.199	2943.85
961.502	2956.96
961.805	2902.49
962.108	2905.66
962.411	2886.9
962.714	2853
963.017	2858.2
963.32	2863.63
963.623	2807.58
963.926	2821.59
964.228	2801.03
964.531	2799.67
964.833	2799.67
965.136	2806.23
965.438	2780.01
965.741	2743.85
966.043	2752.89
966.345	2721.26
966.648	2730.97
966.95	2713.8
967.252	2693.46
967.554	2714.48
967.856	2676.74
968.158	2665.66
968.46	2653.46
968.761	2651.65
969.063	2611.2
969.365	2606.91
969.666	2595.84
969.968	2589.73
970.269	2579.34
970.571	2563.75
970.872	2583.86
971.174	2554.93
971.475	2530.98
971.776	2523.3
972.077	2533.24
972.378	2483.07
972.679	2492.34
972.98	2480.13
973.281	2498.89
973.582	2473.13
973.883	2431.55
974.183	2445.11
974.484	2417.76
974.785	2385.45
975.085	2383.86
975.386	2394.03
975.686	2375.05
975.986	2399.23
976.287	2375.95
976.587	2372.79
976.887	2343.19
977.187	2360.81
977.487	2326.46
977.787	2316.52
978.087	2321.72
978.387	2276.3
978.687	2278.56
978.987	2295.28
979.286	2290.53
979.586	2269.74
979.885	2269.97
980.185	2248.5
980.484	2243.08
980.784	2227.03
981.083	2207.37
981.382	2204.43
981.682	2197.43
981.981	2182.06
982.28	2161.5
982.579	2167.37
982.878	2185.45
983.177	2172.34
983.475	2146.13
983.774	2142.29
984.073	2113.81
984.372	2130.76
984.67	2122.85
984.969	2053.03
985.267	2107.26
985.566	2074.95
985.864	2077.66
986.162	2067.26
986.461	2044.44
986.759	2056.64
987.057	2015.06
987.355	2022.29
987.653	2001.05
987.951	2000.82
988.249	1993.59
988.547	1988.85
988.844	1958.56
989.142	2014.38
989.44	1958.34
989.737	1963.54
990.035	1928.73
990.332	1913.59
990.63	1898.23
990.927	1916.53
991.224	1886.7
991.521	1900.94
991.819	1894.39
992.116	1904.33
992.413	1872.01
992.71	1851.67
993.006	1859.81
993.303	1829.98
993.6	1827.72
993.897	1835.18
994.193	1810.32
994.49	1807.38
994.787	1815.97
995.083	1778.23
995.379	1788.85
995.676	1761.51
995.972	1749.53
996.268	1761.96
996.565	1746.82
996.861	1742.98
997.157	1735.52
997.453	1730.32
997.749	1737.33
998.044	1693.26
998.34	1719.93
998.636	1701.85
998.932	1671.11
999.227	1699.36
999.523	1675.86
999.818	1665.24
1000.114	1678.35
1000.409	1622.08
1000.704	1624.79
1001	1623.21
1001.295	1593.6
1001.59	1630.89
1001.885	1603.77
1002.18	1592.7
1002.475	1613.94
1002.77	1571.91
1003.065	1568.74
1003.359	1566.03
1003.654	1585.01
1003.949	1579.14
1004.243	1564.22
1004.538	1536.2
1004.832	1558.57
1005.127	1517.67
1005.421	1477.22
1005.715	1509.54
1006.009	1501.85
1006.304	1479.93
1006.598	1472.48
1006.892	1451.46
1007.186	1471.12
1007.48	1446.49
1007.773	1411.23
1008.067	1446.71
1008.361	1418.47
1008.655	1415.75
1008.948	1430.89
1009.242	1397.45
1009.535	1426.15
1009.829	1397.22
1010.122	1375.08
1010.415	1408.52
1010.708	1387.73
1011.001	1353.83
1011.295	1351.35
1011.588	1356.09
1011.881	1331.46
1012.173	1322.87
1012.466	1330.33
1012.759	1304.12
1013.052	1305.02
1013.344	1281.75
1013.637	1302.08
1013.93	1284.01
1014.222	1291.46
1014.514	1275.19
1014.807	1265.7
1015.099	1267.06
1015.391	1272.93
1015.683	1270.9
1015.976	1238.13
1016.268	1232.03
1016.56	1223.44
1016.851	1224.57
1017.143	1228.64
1017.435	1205.59
1017.727	1190
1018.018	1199.26
1018.31	1186.38
1018.602	1172.6
1018.893	1161.3
1019.185	1165.59
1019.476	1149.32
1019.767	1121.75
1020.058	1164.69
1020.35	1122.65
1020.641	1128.08
1020.932	1131.69
1021.223	1115.87
1021.514	1100.73
1021.804	1084.46
1022.095	1093.28
1022.386	1110.23
1022.677	1068.87
1022.967	1112.48
1023.258	1085.82
1023.548	1072.03
1023.839	1047.18
1024.129	1048.08
1024.419	1040.17
1024.709	1050.79
1025	1045.82
1025.29	1018.93
1025.58	1018.93
1025.87	1020.51
1026.16	1012.37
1026.449	993.62
1026.739	996.33
1027.029	990.45
1027.319	997.23
1027.608	968.76
1027.898	959.49
1028.187	973.96
1028.477	941.19
1028.766	953.39
1029.055	940.51
1029.344	931.02
1029.634	927.18
1029.923	915.88
1030.212	927.4
1030.501	904.81
1030.79	914.3
1031.078	934.41
1031.367	900.51
1031.656	907.74
1031.945	882.66
1032.233	873.4
1032.522	894.41
1032.81	872.49
1033.099	883.56
1033.387	891.25
1033.675	846.28
1033.963	855.77
1034.251	840.63
1034.54	810.35
1034.828	858.48
1035.116	840.63
1035.403	834.53
1035.691	839.72
1035.979	828.65
1036.267	831.14
1036.554	826.39
1036.842	794.53
1037.129	813.51
1037.417	782.32
1037.704	773.74
1037.992	793.62
1038.279	818.03
1038.566	769.9
1038.853	769.9
1039.14	769.9
