Data from whiteboard_FLMS001491_00032.txt Node
Date: Wed Feb 08 11:26:16 GMT 2017
User: dcchb
Spectrometer: FLMS00149
Trigger mode: 0
Integration Time (sec): 2.000000E-2
Scans to average: 10
Electric dark correction enabled: true
Nonlinearity correction enabled: false
Boxcar width: 0
XAxis mode: Wavelengths
Number of Pixels in Spectrum: 2048
>>>>>Begin Spectral Data<<<<<
341.393	2.77
341.776	2.77
342.16	2.77
342.543	-56.44
342.927	-64.8
343.31	-65.25
343.693	-86.72
344.077	-63.44
344.46	-68.87
344.843	-48.76
345.226	-35.65
345.61	-37.23
345.993	-31.13
346.376	-3.33
346.759	-12.15
347.142	27.17
347.525	45.25
347.908	64.69
348.291	91.13
348.674	100.39
349.057	123.9
349.44	129.77
349.823	144.91
350.206	177.45
350.588	232.82
350.971	222.42
351.354	246.38
351.737	267.17
352.119	289.31
352.502	305.13
352.884	292.03
353.267	325.92
353.65	327.51
354.032	309.65
354.414	367.96
354.797	349.2
355.179	370.89
355.562	352.14
355.944	378.13
356.326	383.78
356.709	360.95
357.091	372.93
357.473	397.79
357.855	391.23
358.238	388.52
358.62	395.75
359.002	374.28
359.384	381.74
359.766	364.11
360.148	372.02
360.53	403.66
360.912	359.82
361.294	389.65
361.676	383.78
362.057	420.61
362.439	384.68
362.821	378.8
363.203	406.83
363.584	384.45
363.966	368.41
364.348	381.52
364.729	392.14
365.111	362.76
365.493	373.15
365.874	348.07
366.256	370.22
366.637	392.59
367.019	393.49
367.4	382.19
367.781	359.82
368.163	374.28
368.544	393.27
368.925	393.94
369.306	376.77
369.688	374.28
370.069	371.12
370.45	382.65
370.831	398.69
371.212	395.53
371.593	401.18
371.974	386.26
372.355	379.71
372.736	385.58
373.117	417.22
373.498	400.27
373.879	390.78
374.26	393.49
374.641	395.3
375.021	391.91
375.402	400.72
375.783	436.88
376.163	435.98
376.544	435.53
376.925	419.25
377.305	429.65
377.686	426.03
378.066	428.97
378.447	415.64
378.827	420.84
379.208	413.6
379.588	420.84
379.968	466.48
380.349	450.44
380.729	460.16
381.109	472.59
381.489	472.59
381.87	467.61
382.25	473.04
382.63	477.11
383.01	471.46
383.39	474.85
383.77	480.04
384.15	469.65
384.53	483.43
384.91	500.83
385.29	490.44
385.67	487.28
386.049	505.81
386.429	518.69
386.809	504.9
387.189	503.77
387.568	544.22
387.948	544
388.328	536.54
388.707	527.73
389.087	546.48
389.466	558.91
389.846	540.61
390.225	562.08
390.605	581.28
390.984	575.41
391.363	597.33
391.743	605.69
392.122	602.75
392.501	606.59
392.881	619.7
393.26	620.15
393.639	638.23
394.018	636.65
394.397	645.01
394.776	647.05
395.155	648.63
395.534	652.02
395.913	674.16
396.292	662.86
396.671	694.95
397.05	704.44
397.429	697.21
397.808	714.84
398.186	713.48
398.565	736.53
398.944	730.66
399.323	774.27
399.701	781.5
400.08	788.28
400.458	791.22
400.837	809.3
401.215	803.2
401.594	831.45
401.972	846.14
402.351	863.54
402.729	864.21
403.107	904.21
403.486	906.93
403.864	913.25
404.242	924.33
404.62	929.98
404.999	946.47
405.377	967.26
405.755	992.12
406.133	991.22
406.511	1012.91
406.889	1021.05
407.267	1035.06
407.645	1086.81
408.023	1108.95
408.401	1105.34
408.779	1113.47
409.156	1161.83
409.534	1169.74
409.912	1186.92
410.29	1212
410.667	1248.61
411.045	1257.65
411.422	1291.55
411.8	1301.72
412.178	1309.17
412.555	1366.12
412.933	1355.05
413.31	1387.82
413.687	1416.52
414.065	1463.75
414.442	1476.18
414.819	1501.94
415.197	1502.39
415.574	1549.39
415.951	1562.73
416.328	1576.74
416.705	1579.45
417.082	1626.68
417.46	1626.68
417.837	1663.97
418.214	1669.84
418.591	1717.98
418.967	1675.27
419.344	1735.83
419.721	1755.49
420.098	1782.83
420.475	1797.07
420.852	1818.31
421.228	1839.56
421.605	1877.97
421.982	1882.27
422.358	1921.59
422.735	1910.29
423.111	1919.55
423.488	2009.72
423.864	1983.28
424.241	1997.07
424.617	2035.03
424.994	2034.58
425.37	2092.88
425.746	2118.19
426.123	2158.64
426.499	2160.68
426.875	2199.32
427.251	2244.97
427.627	2272.09
428.003	2293.33
428.379	2352.99
428.756	2365.42
429.132	2393.21
429.507	2435.92
429.883	2490.39
430.259	2504.17
430.635	2497.39
431.011	2579.2
431.387	2644.73
431.763	2667.56
432.138	2701.23
432.514	2764.96
432.89	2728.57
433.265	2833.65
433.641	2875.91
434.016	2872.75
434.392	2938.51
434.767	2984.84
435.143	3002.69
435.518	3038.62
435.894	3087.21
436.269	3141.67
436.644	3183.25
437.02	3232.29
437.395	3216.24
437.77	3293.76
438.145	3339.86
438.52	3376.46
438.895	3443.13
439.271	3427.99
439.646	3520.42
440.021	3500.3
440.395	3501.89
440.77	3524.94
441.145	3574.2
441.52	3644.71
441.895	3627.76
442.27	3712.95
442.645	3714.31
443.019	3768.09
443.394	3796.79
443.769	3809
444.143	3831.14
444.518	3853.29
444.892	3899.61
445.267	3929.9
445.641	4000.86
446.016	3964.47
446.39	4014.41
446.764	4063
447.139	4060.29
447.513	4079.5
447.887	4164.69
448.262	4146.16
448.636	4201.3
449.01	4244.01
449.384	4335.99
449.758	4370.56
450.132	4360.85
450.506	4396.78
450.88	4454.18
451.254	4495.08
451.628	4502.31
452.002	4598.13
452.376	4615.75
452.75	4726.71
453.123	4714.28
453.497	4823.66
453.871	4858.46
454.244	4964.22
454.618	4984.33
454.992	5099.81
455.365	5124.44
455.739	5230.65
456.112	5300.26
456.486	5305.68
456.859	5387.26
457.232	5495.28
457.606	5481.04
457.979	5554.03
458.352	5659.79
458.725	5779.57
459.099	5789.73
459.472	5888.72
459.845	5990.63
460.218	6003.74
460.591	6067.69
460.964	6146.11
461.337	6315.82
461.71	6411.64
462.083	6454.35
462.456	6478.98
462.829	6516.72
463.201	6647.11
463.574	6685.76
463.947	6796.26
464.32	6944.73
464.692	7046.65
465.065	7102.92
465.438	7160.32
465.81	7303.37
466.183	7357.6
466.555	7552.85
466.928	7612.74
467.3	7604.15
467.672	7757.37
468.045	7925.72
468.417	7951.26
468.789	8066.74
469.161	8233.51
469.534	8295.21
469.906	8490.23
470.278	8547.18
470.65	8660.62
471.022	8809.54
471.394	8993.04
471.766	9080.27
472.138	9210.44
472.51	9377.66
472.882	9542.63
473.253	9616.3
473.625	9786.92
473.997	10037.76
474.369	10084.99
474.74	10217.41
475.112	10301.93
475.484	10557.29
475.855	10834.8
476.227	10865.53
476.598	11172.64
476.97	11270.04
477.341	11636.36
477.713	11738.5
478.084	11788.22
478.455	12237.47
478.827	12277.02
479.198	12637.69
479.569	12698.25
479.94	13060.73
480.311	13258.01
480.682	13438.8
481.053	13773.25
481.424	14001.95
481.795	14140.48
482.166	14404.88
482.537	14622.04
482.908	15001.02
483.279	14991.53
483.65	15333.44
484.021	15585.18
484.391	15820.21
484.762	15932.07
485.133	16171.83
485.503	16354.65
485.874	16650.92
486.244	16908.31
486.615	17290.45
486.985	17522.53
487.356	17792.36
487.726	17957.78
488.097	18292.91
488.467	18290.42
488.837	18716.17
489.207	18981.48
489.578	19252.43
489.948	19334.92
490.318	19641.8
490.688	19707.56
491.058	20147.78
491.428	20425.28
491.798	20555.9
492.168	20912.73
492.538	21126.05
492.908	21392.71
493.278	21606.27
493.648	21776.89
494.017	22032.7
494.387	22248.29
494.757	22551.1
495.126	22866.57
495.496	22752.45
495.866	22952.45
496.235	23328.03
496.605	23511.3
496.974	23684.86
497.344	23950.39
497.713	23995.58
498.082	24263.37
498.452	24505.17
498.821	24619.97
499.19	24626.53
499.559	24973.64
499.928	25106.74
500.298	25269.67
500.667	25506.96
501.036	25473.06
501.405	25778.14
501.774	25822.65
502.143	26133.15
502.512	26183.1
502.88	26519.59
503.249	26646.14
503.618	26779.69
503.987	26903.3
504.356	27036.18
504.724	27217.87
505.093	27408.83
505.462	27498.54
505.83	27766.33
506.199	28121.35
506.567	28459.65
506.936	28334
507.304	28778.28
507.672	28864.61
508.041	29060.99
508.409	29337.59
508.777	29511.14
509.145	29658.71
509.514	29916.56
509.882	30123.33
510.25	30308.64
510.618	30569.2
510.986	30488.75
511.354	30920.37
511.722	31131.44
512.09	31425.22
512.458	31477.65
512.826	31782.05
513.193	31959.67
513.561	32048.48
513.929	32311.75
514.297	32663.83
514.664	32796.71
515.032	32988.12
515.4	33253.65
515.767	33337.94
516.135	33531.15
516.502	33350.82
516.869	34063.57
517.237	34203.68
517.604	34035.32
517.972	34659.26
518.339	34847.05
518.706	34912.13
519.073	35117.55
519.44	35330.88
519.808	35711.21
520.175	35661.04
520.542	36258.99
520.909	36429.16
521.276	36482.49
521.643	36894.45
522.009	37095.13
522.376	37392.07
522.743	37816.24
523.11	38287.19
523.477	38568.53
523.843	38721.07
524.21	39209.2
524.577	39381.62
524.943	39493.03
525.31	39876.07
525.676	40305.21
526.043	40575.71
526.409	40815.03
526.776	41062.93
527.142	41297.05
527.508	41598.74
527.874	41784.27
528.241	42060.65
528.607	42268.55
528.973	42561.88
529.339	42691.14
529.705	42922.77
530.071	43351.01
530.437	43467.16
530.803	43684.56
531.169	43850.43
531.535	44004.32
531.901	44056.75
532.267	44266.01
532.632	44326.57
532.998	44463.07
533.364	44712.33
533.73	44790.52
534.095	45085.2
534.461	45258.3
534.826	45537.16
535.192	45614.22
535.557	45885.4
535.923	45926.08
536.288	45963.37
536.653	46133.98
537.019	46166.3
537.384	46518.16
537.749	46703.69
538.114	46864.81
538.479	47025.71
538.845	47168.76
539.21	47278.81
539.575	47352.26
539.94	47507.73
540.305	47821.85
540.67	47889.87
541.034	47946.82
541.399	48196.53
541.764	48382.29
542.129	48578.44
542.494	48714.71
542.858	48912.67
543.223	49106.34
543.587	49189.05
543.952	49137.97
544.316	49409.15
544.681	49399.89
545.045	49583.16
545.41	49901.8
545.774	49870.16
546.138	49853.43
546.503	50005.97
546.867	50199.87
547.231	50465.62
547.595	50408.45
547.959	50455.68
548.324	50572.51
548.688	50528.22
549.052	50598.73
549.416	50689.8
549.779	50795.33
550.143	50880.3
550.507	51136.57
550.871	51190.8
551.235	51105.61
551.599	51352.15
551.962	51384.24
552.326	51472.6
552.689	51503.56
553.053	51388.54
553.417	51679.6
553.78	52015.19
554.143	51875.75
554.507	52050.44
554.87	52139.93
555.234	52420.15
555.597	52286.82
555.96	52484.1
556.323	52627.15
556.686	52736.75
557.05	52992.34
557.413	53058.77
557.776	53198.66
558.139	53347.81
558.502	53460.12
558.865	53550.29
559.228	53746.21
559.59	53936.27
559.953	53993.67
560.316	54371.06
560.679	54339.87
561.041	54559.3
561.404	54663.93
561.767	54917.93
562.129	54838.39
562.492	55121.09
562.854	55175.1
563.217	55239.06
563.579	55368.09
563.941	55547.75
564.304	55679.95
564.666	55801.75
565.028	55808.98
565.39	55985.03
565.753	56057.34
566.115	56206.26
566.477	56260.72
566.839	56260.27
567.201	56515.41
567.563	56460.72
567.925	56719.02
568.287	56604.44
568.648	56742.07
569.01	56781.16
569.372	56930.99
569.734	56824.78
570.095	56979.12
570.457	57107.03
570.819	57116.75
571.18	57087.14
571.542	57181.15
571.903	57281.49
572.265	57336.63
572.626	57441.94
572.987	57437.64
573.349	57503.18
573.71	57624.08
574.071	57641.03
574.432	57722.83
574.794	57879.21
575.155	57893.22
575.516	57831.08
575.877	57991.3
576.238	58003.05
576.599	58200.33
576.96	58135.25
577.32	58187.23
577.681	58373.21
578.042	58388.13
578.403	58391.97
578.763	58440.1
579.124	58506.09
579.485	58641.68
579.845	58726.87
580.206	58764.61
580.566	58715.8
580.927	58868.79
581.287	58930.71
581.648	58916.47
582.008	59072.4
582.368	59000.99
582.728	59026.08
583.089	59079.18
583.449	59139.97
583.809	59097.26
584.169	59183.13
584.529	59149.24
584.889	59276.92
585.249	59121.44
585.609	59051.39
585.969	59206.86
586.329	59160.53
586.688	59179.97
587.048	59085.06
587.408	59104.27
587.768	59106.52
588.127	59104.04
588.487	59003.7
588.846	59226.97
589.206	59020.2
589.565	59055.23
589.925	59133.64
590.284	58989.47
590.643	58988.56
591.003	59094.55
591.362	59137.71
591.721	59039.18
592.08	59059.75
592.44	59080.31
592.799	59046.41
593.158	59007.54
593.517	59047.32
593.876	59155.56
594.235	58987.21
594.593	59012.52
594.952	59150.37
595.311	59106.98
595.67	59109.69
596.029	59243.7
596.387	59250.25
596.746	59202.34
597.104	59146.75
597.463	59154.66
597.822	59317.14
598.18	59198.95
598.538	59228.56
598.897	59403.47
599.255	59204.38
599.613	59542.9
599.972	59436.69
600.33	59465.16
600.688	59462.9
601.046	59521.43
601.404	59584.03
601.762	59553.07
602.12	59727.3
602.478	59700.63
602.836	59742.89
603.194	59642.78
603.552	59699.73
603.91	59629
604.268	59778.37
604.625	59717.81
604.983	59801.2
605.341	59693.18
605.698	59800.52
606.056	59892.04
606.413	59897.46
606.771	59856.11
607.128	59895.43
607.485	59895.2
607.843	59866.73
608.2	59965.49
608.557	60093.39
608.914	59967.07
609.272	60100.17
609.629	60081.87
609.986	60203.9
610.343	59988.08
610.7	60204.58
611.057	60148.08
611.414	60114.63
611.771	60146.27
612.127	60158.93
612.484	60166.16
612.841	60213.16
613.198	60124.8
613.554	60136.78
613.911	60275.53
614.267	60194.63
614.624	60129.55
614.98	60210.22
615.337	60274.18
615.693	60206.61
616.05	60165.25
616.406	60323.67
616.762	60235.76
617.118	60257.91
617.475	60248.19
617.831	60320.28
618.187	60370.9
618.543	60382.88
618.899	60460.61
619.255	60503.32
619.611	60488.41
619.967	60561.63
620.323	60619.48
620.678	60511.46
621.034	60529.31
621.39	60561.63
621.746	60449.54
622.101	60782.41
622.457	60558.46
622.812	60657.67
623.168	60711.68
623.523	60716.88
623.879	60784.67
624.234	60597.11
624.589	60728.18
624.945	60795.75
625.3	60879.36
625.655	60872.58
626.01	60804.33
626.365	60818.8
626.72	60825.35
627.075	60824.67
627.43	60826.25
627.785	60766.59
628.14	60854.95
628.495	60874.39
628.85	60809.53
629.205	60685.47
629.559	60796.65
629.914	60694.96
630.269	60728.4
630.623	60660.38
630.978	60603.89
631.332	60696.54
631.687	60674.17
632.041	60564.11
632.396	60567.05
632.75	60466.49
633.104	60500.39
633.459	60425.36
633.813	60385.81
634.167	60381.29
634.521	60287.96
634.875	60304.01
635.229	60234.18
635.583	60118.25
635.937	60121.41
636.291	60074.18
636.645	59998.48
636.999	59941.98
637.352	59966.84
637.706	59831.03
638.06	59947.41
638.413	59860.4
638.767	59756.9
639.121	59827.41
639.474	59638.49
639.828	59675.32
640.181	59721.65
640.534	59635.78
640.888	59543.8
641.241	59431.04
641.594	59495.22
641.947	59604.59
642.301	59467.42
642.654	59515.78
643.007	59524.59
643.36	59501.09
643.713	59460.64
644.066	59549.68
644.419	59396.91
644.771	59271.27
645.124	59065.85
645.477	59009.8
645.83	58907.89
646.182	58861.56
646.535	58747.89
646.888	58724.61
647.24	58643.49
647.593	58775.69
647.945	58749.7
648.298	58599.65
648.65	58681.9
649.002	58586.09
649.355	58804.84
649.707	58766.65
650.059	58865.63
650.411	59152.63
650.763	59165.05
651.115	59379.96
651.467	59315.56
651.819	59276.46
652.171	59233.08
652.523	59308.78
652.875	59268.78
653.227	59090.25
653.578	59238.27
653.93	59185.39
654.282	59076.24
654.633	59052.29
654.985	59082.12
655.337	59100.65
655.688	59005.74
656.039	59106.3
656.391	58868.34
656.742	58875.34
657.094	58897.04
657.445	58946.08
657.796	58844.38
658.147	58786.53
658.498	58664.05
658.849	58718.51
659.2	58702.47
659.551	58509.93
659.902	58624.96
660.253	58593.77
660.604	58591.51
660.955	58393.1
661.306	58517.39
661.656	58407.33
662.007	58404.4
662.358	58403.72
662.708	58343.16
663.059	58316.72
663.409	58097.51
663.76	58308.35
664.11	58185.19
664.461	58189.49
664.811	58196.49
665.161	58193.78
665.511	58058.42
665.862	58139.77
666.212	58142.71
666.562	58115.82
666.912	58039.21
667.262	58069.04
667.612	58004.86
667.962	58017.29
668.312	57937.74
668.662	58020.23
669.011	57954.69
669.361	57924.64
669.711	57976.39
670.06	57956.27
670.41	57948.36
670.76	57954.24
671.109	57954.92
671.459	57933.9
671.808	57906.78
672.157	57977.97
672.507	57793.57
672.856	57911.75
673.205	57924.41
673.554	58003.73
673.904	57883.73
674.253	58095.25
674.602	57932.77
674.951	57622.5
675.3	57499.34
675.649	57979.32
675.998	57972.54
676.346	58031.07
676.695	58010.06
677.044	57878.31
677.393	57991.3
677.741	58067.46
678.09	57936.39
678.438	57901.36
678.787	57966.89
679.135	57964.63
679.484	57745.43
679.832	57928.48
680.181	57723.06
680.529	57886.9
680.877	57760.57
681.225	57697.97
681.573	57855.26
681.922	57594.02
682.27	57537.07
682.618	57476.96
682.966	57415.27
683.314	57490.07
683.661	57399.9
684.009	57229.06
684.357	57169.63
684.705	57163.53
685.053	57134.83
685.4	57072
685.748	56986.35
686.095	56957.2
686.443	56865.68
686.79	56719.7
687.138	56785
687.485	56718.57
687.832	56581.85
688.18	56583.43
688.527	56346.82
688.874	56423.66
689.221	56260.72
689.568	56170.1
689.915	56134.17
690.262	56133.27
690.609	55977.57
690.956	55835.42
691.303	55753.84
691.65	55641.08
691.997	55603.11
692.344	55419.16
692.69	55433.4
693.037	55329.68
693.383	55148.89
693.73	55255.1
694.077	55098.04
694.423	55030.47
694.769	54919.29
695.116	54775.79
695.462	54786.41
695.808	54689.24
696.155	54770.37
696.501	54503.48
696.847	54560.43
697.193	54341.68
697.539	54397.95
697.885	54244.05
698.231	54153.21
698.577	54124.28
698.923	54038.18
699.269	54005.64
699.614	53855.82
699.96	53908.47
700.306	53897.17
700.651	53761.81
700.997	53653.34
701.342	53677.06
701.688	53635.93
702.033	53519.55
702.379	53545.32
702.724	53410.63
703.069	53518.2
703.415	53088.83
703.76	53327.02
704.105	53263.29
704.45	53114.59
704.795	53065.1
705.14	52954.37
705.485	53017.42
705.83	52812.68
706.175	52962.05
706.52	52895.61
706.865	52823.3
707.209	52751.66
707.554	52641.84
707.899	52682.97
708.243	52616.53
708.588	52564.78
708.932	52366.59
709.277	52341.51
709.621	52381.96
709.966	52119.14
710.31	52163.88
710.654	51915.08
710.998	52031.68
711.342	51946.71
711.687	51802.08
712.031	51658.36
712.375	51600.73
712.719	51591.24
713.063	51512.37
713.407	51583.56
713.75	51331.59
714.094	51398.71
714.438	51167.3
714.782	51140.18
715.125	51038.94
715.469	51072.39
715.812	50858.38
716.156	50568.44
716.499	50655.45
716.843	50800.3
717.186	50500.65
717.53	50694.54
717.873	50496.36
718.216	50342.69
718.559	50163.03
718.902	49994
719.246	50023.6
719.589	49939.53
719.932	49771.63
720.275	49607.11
720.617	49685.08
720.96	49569.37
721.303	49472.43
721.646	49314.69
721.989	49141.82
722.331	49297.97
722.674	49068.6
723.016	49088.94
723.359	49045.32
723.701	49037.86
724.044	48743.86
724.386	48488.5
724.729	48666.35
725.071	48594.26
725.413	48457.77
725.755	48390.87
726.097	48248.28
726.439	48088.96
726.782	47978.46
727.124	48125.12
727.465	47906.59
727.807	47828.63
728.149	47675.64
728.491	47693.49
728.833	47705.02
729.175	47478.36
729.516	47453.72
729.858	47319.49
730.199	47475.19
730.541	47357.91
730.882	47244.46
731.224	47417.57
731.565	47190
731.906	47231.36
732.248	47073.17
732.589	46923.12
732.93	46893.74
733.271	46883.12
733.612	46965.38
733.953	47045.15
734.294	46939.61
734.635	46780.07
734.976	46870.01
735.317	46579.85
735.658	46634.54
735.999	46644.48
736.339	46523.35
736.68	46702.78
737.021	46613.75
737.361	46288.56
737.702	46548.44
738.042	46425.05
738.383	46378.5
738.723	46321.78
739.063	46223.25
739.404	46267.31
739.744	46340.98
740.084	46119.75
740.424	46138.96
740.764	46030.26
741.104	46139.63
741.444	45859.19
741.784	45928.34
742.124	45926.98
742.464	45919.08
742.804	45884.5
743.143	45619.2
743.483	45720.89
743.823	45436.15
744.162	45441.57
744.502	45467.79
744.841	45245.19
745.181	45478.41
745.52	45332.88
745.86	45390.95
746.199	45201.35
746.538	45279.09
746.877	45247.23
747.216	45258.75
747.556	44944.41
747.895	44952.09
748.234	44891.31
748.573	44723.85
748.911	44748.26
749.25	44622.39
749.589	44550.98
749.928	44474.14
750.267	44469.4
750.605	44169.29
750.944	44179.46
751.283	43974.95
751.621	43909.86
751.96	43694.27
752.298	43795.29
752.636	43765.46
752.975	43500.16
753.313	43359.59
753.651	43515.3
753.989	43132.93
754.327	43059.72
754.666	42784.47
755.004	42906.27
755.342	42819.27
755.679	42739.27
756.017	42348.32
756.355	42477.13
756.693	42236.23
757.031	42365.27
757.368	42038.95
757.706	42015.9
758.044	41764.16
758.381	41764.83
758.719	41546.99
759.056	41532.07
759.394	41391.28
759.731	41061.35
760.068	41169.37
760.405	40849.38
760.743	40777.74
761.08	40906.33
761.417	40565.54
761.754	40501.82
762.091	40452.33
762.428	40293.91
762.765	40048.27
763.102	40229.06
763.438	39863.19
763.775	39702.06
764.112	39693.48
764.449	39618.68
764.785	39455.97
765.122	39229.53
765.458	39083.32
765.795	38921.29
766.131	39000.84
766.467	38800.62
766.804	38632.94
767.14	38332.38
767.476	38411.48
767.812	38264.36
768.148	38445.83
768.485	38155.44
768.821	38001.32
769.157	37973.52
769.492	37842
769.828	37783.02
770.164	37490.37
770.5	37427.77
770.836	37413.76
771.171	37246.08
771.507	37318.85
771.842	36964.51
772.178	37007.67
772.513	36838.18
772.849	36908.24
773.184	36542.82
773.519	36745.31
773.855	36444.97
774.19	36344.41
774.525	36230.06
774.86	36090.86
775.195	36044.53
775.53	35934.03
775.865	35791.88
776.2	35527.71
776.535	35291.33
776.87	35384.66
777.205	35326.59
777.539	35083.88
777.874	35030.32
778.209	34754.4
778.543	34682.31
778.878	34569.99
779.212	34573.16
779.547	34447.29
779.881	34439.15
780.215	34181.53
780.55	34344.24
780.884	34044.13
781.218	33989.22
781.552	33840.07
781.886	33634.43
782.22	33442.57
782.554	33442.12
782.888	33024.27
783.222	32987.44
783.556	32876.71
783.889	32920.32
784.223	32708.35
784.557	32464.74
784.89	32654.57
785.224	32390.17
785.557	32236.05
785.891	32146.78
786.224	32059.55
786.558	32062.04
786.891	31694.14
787.224	31563.29
787.557	31411.43
787.891	31490.3
788.224	31301.83
788.557	31303.87
788.89	31212.12
789.223	31149.75
789.556	30931.9
789.888	30783.65
790.221	30675.86
790.554	30404.23
790.887	30338.24
791.219	30281.29
791.552	30209.21
791.884	30016.67
792.217	29934.64
792.549	29862.77
792.882	29616.45
793.214	29373.07
793.546	29548.88
793.879	29264.82
794.211	29151.61
794.543	29387.31
794.875	29122.23
795.207	29042.91
795.539	29006.07
795.871	28920.43
796.203	28653.54
796.535	28526.09
796.867	28410.16
797.198	28388.46
797.53	28405.41
797.862	28134.23
798.193	28196.15
798.525	27997.96
798.856	27924.97
799.188	27757.74
799.519	27682.49
799.85	27547.58
800.182	27603.17
800.513	27398.43
800.844	27321.6
801.175	27402.73
801.506	27277.08
801.837	27197.31
802.168	27084.32
802.499	26988.05
802.83	26903.53
803.161	26843.42
803.491	26900.37
803.822	26964.77
804.153	26678.68
804.483	26536.08
804.814	26334.73
805.145	26458.8
805.475	26452.47
805.805	26232.36
806.136	26239.37
806.466	26213.15
806.796	26190.1
807.126	26039.6
807.457	25941.52
807.787	25911.92
808.117	25831.69
808.447	25705.82
808.777	25798.93
809.107	25715.54
809.436	25644.35
809.766	25681.42
810.096	25606.61
810.426	25386.06
810.755	25440.74
811.085	25342.89
811.414	25341.09
811.744	25147.87
812.073	25070.58
812.403	25037.82
812.732	24940.42
813.061	24939.74
813.39	24820.42
813.719	24725.51
814.049	24872.4
814.378	24678.28
814.707	24681.89
815.036	24657.71
815.365	24411.62
815.693	24358.51
816.022	24279.19
816.351	24111.96
816.68	24064.06
817.008	24127.78
817.337	23916.26
817.665	23929.14
817.994	24005.08
818.322	23974.34
818.651	23891.63
818.979	23840.79
819.307	23831.97
819.636	23791.97
819.964	23554.24
820.292	23667.46
820.62	23663.16
820.948	23552.21
821.276	23580.91
821.604	23509.72
821.932	23548.14
822.259	23551.53
822.587	23492.32
822.915	23427.46
823.243	23496.16
823.57	23386.11
823.898	23420.68
824.225	23283.51
824.553	23366.67
824.88	23349.27
825.207	23441.02
825.535	23243.51
825.862	23439.89
826.189	23304.08
826.516	23331.87
826.843	23380.91
827.17	23388.37
827.497	23320.57
827.824	23284.42
828.151	23326.22
828.478	23210.52
828.805	23289.16
829.131	23136.17
829.458	23035.83
829.785	23077.19
830.111	23053.01
830.438	23219.56
830.764	23164.65
831.09	23094.59
831.417	22943.41
831.743	22985.67
832.069	23086
832.395	22961.94
832.722	22953.8
833.048	23008.49
833.374	22821.15
833.7	22779.8
834.026	22711.1
834.351	22840.81
834.677	22681.49
835.003	22704.77
835.329	22728.72
835.654	22672.23
835.98	22651.89
836.306	22609.41
836.631	22504.1
836.956	22540.03
837.282	22545
837.607	22419.13
837.932	22486.02
838.258	22481.27
838.583	22390.88
838.908	22309.53
839.233	22292.35
839.558	22297.78
839.883	22215.29
840.208	22137.55
840.533	22088.74
840.858	22140.04
841.182	22211
841.507	22063.88
841.832	21913.38
842.156	21962.42
842.481	21925.81
842.805	21843.32
843.13	21885.58
843.454	21934.85
843.778	21762.65
844.103	21656.66
844.427	21677.45
844.751	21644.69
845.075	21584.35
845.399	21573.73
845.723	21436.1
846.047	21486.72
846.371	21300.74
846.695	21250.12
847.019	21134.64
847.343	20991.37
847.666	20899.17
847.99	20945.27
848.313	20910.92
848.637	20710.92
848.96	20712.05
849.284	20673.86
849.607	20523.58
849.931	20591.61
850.254	20406.3
850.577	20275.23
850.9	20162.01
851.223	20095.57
851.546	19939.19
851.869	19943.03
852.192	20123.82
852.515	19874.11
852.838	19803.6
853.161	19755.02
853.483	19618.07
853.806	19574.46
854.129	19548.47
854.451	19535.14
854.774	19356.16
855.096	19326.1
855.419	19323.39
855.741	19315.93
856.063	19228.48
856.385	19178.54
856.708	19074.58
857.03	19096.73
857.352	18909.39
857.674	18872.1
857.996	18837.75
858.318	18831.88
858.64	18794.82
858.961	18785.33
859.283	18702.16
859.605	18555.95
859.926	18625.78
860.248	18450.19
860.57	18447.71
860.891	18437.09
861.212	18401.38
861.534	18412.45
861.855	18334.04
862.176	18308.28
862.498	18330.65
862.819	18333.13
863.14	18194.83
863.461	18147.15
863.782	18153.7
864.103	18187.37
864.424	18067.6
864.745	18110.77
865.065	17991.9
865.386	17884.56
865.707	17887.5
866.027	17961.62
866.348	17948.51
866.668	17893.15
866.989	17772.24
867.309	17716.43
867.63	17840.27
867.95	17750.32
868.27	17577.45
868.59	17670.55
868.91	17572.02
869.23	17512.36
869.55	17398.02
869.87	17515.08
870.19	17436.43
870.51	17449.09
870.83	17424.68
871.15	17280.73
871.469	17282.31
871.789	17402.54
872.109	17308.75
872.428	17221.3
872.748	17233.95
873.067	17187.85
873.386	17206.61
873.706	17175.88
874.025	17122.32
874.344	17003.23
874.663	17035.99
874.982	16973.4
875.301	17015.88
875.62	16887.07
875.939	16865.83
876.258	16833.96
876.577	16741.76
876.896	16738.15
877.214	16662.67
877.533	16678.94
877.852	16579.06
878.17	16715.32
878.489	16643.23
878.807	16508.1
879.125	16463.8
879.444	16510.81
879.762	16413.18
880.08	16475.33
880.398	16316.24
880.716	16384.48
881.034	16300.19
881.352	16313.3
881.67	16178.39
881.988	16214.09
882.306	16209.35
882.624	16140.88
882.941	16081.44
883.259	15955.12
883.577	15979.07
883.894	15969.13
884.212	15878.96
884.529	15868.57
884.846	15844.16
885.164	15782.47
885.481	15782.24
885.798	15806.65
886.115	15684.39
886.432	15641.68
886.75	15638.06
887.067	15640.55
887.383	15593.09
887.7	15523.04
888.017	15436.26
888.334	15529.37
888.651	15492.08
888.967	15396.04
889.284	15386.32
889.6	15325.3
889.917	15181.35
890.233	15290.28
890.55	15137.29
890.866	15130.28
891.182	15161.01
891.498	14981.13
891.815	14947.23
892.131	14977.06
892.447	14946.1
892.763	14856.62
893.079	14869.72
893.395	14835.82
893.71	14728.26
894.026	14661.37
894.342	14697.75
894.657	14569.39
894.973	14490.07
895.289	14462.95
895.604	14578.43
895.92	14377.53
896.235	14340.24
896.55	14329.62
896.865	14306.12
897.181	14289.17
897.496	14339.11
897.811	14175.95
898.126	14035.85
898.441	14061.83
898.756	13953.14
899.071	13928.73
899.386	13971.44
899.7	13872.91
900.015	13773.03
900.33	13715.4
900.644	13623.2
900.959	13695.06
901.273	13627.95
901.588	13520.83
901.902	13487.16
902.216	13552.02
902.531	13467.72
902.845	13347.95
903.159	13321.06
903.473	13308.86
903.787	13203.33
904.101	13149.09
904.415	13185.25
904.729	13128.75
905.042	13058.92
905.356	13005.14
905.67	12965.59
905.984	12963.33
906.297	12932.6
906.611	12851.47
906.924	12871.81
907.237	12720.4
907.551	12765.6
907.864	12660.74
908.177	12686.05
908.491	12606.96
908.804	12639.72
909.117	12494.64
909.43	12456.9
909.743	12341.43
910.056	12373.06
910.368	12249.45
910.681	12222.56
910.994	12198.38
911.307	12241.77
911.619	12083.35
911.932	12037.93
912.244	11999.97
912.557	11963.58
912.869	11941.21
913.181	11860.31
913.494	11902.34
913.806	11742.35
914.118	11740.09
914.43	11624.61
914.742	11690.6
915.054	11536.93
915.366	11533.76
915.678	11482.47
915.99	11469.36
916.302	11379.19
916.613	11307.33
916.925	11294.67
917.236	11308.69
917.548	11247.67
917.859	11188.24
918.171	11155.02
918.482	11105.3
918.794	11083.61
919.105	11020.33
919.416	10881.13
919.727	10896.04
920.038	10861.69
920.349	10785.99
920.66	10673.22
920.971	10712.09
921.282	10680.23
921.593	10571.3
921.903	10543.73
922.214	10491.53
922.525	10496.73
922.835	10426.22
923.146	10380.8
923.456	10396.39
923.767	10356.62
924.077	10275.49
924.387	10175.16
924.697	10159.56
925.008	10123.63
925.318	10061.26
925.628	10095.84
925.938	9975.84
926.248	9829.4
926.558	9859.68
926.867	9882.73
927.177	9801.15
927.487	9748.95
927.796	9731.33
928.106	9655.4
928.416	9633.93
928.725	9613.59
929.034	9543.99
929.344	9559.13
929.653	9487.72
929.962	9409.07
930.271	9396.42
930.581	9320.04
930.89	9311
931.199	9203.66
931.508	9207.05
931.817	9231
932.125	9160.04
932.434	9071.91
932.743	9040.27
933.051	8978.8
933.36	8924.34
933.669	8925.47
933.977	8908.07
934.286	8818.81
934.594	8808.86
934.902	8747.62
935.21	8644.57
935.519	8682.09
935.827	8657.23
936.135	8615.65
936.443	8620.62
936.751	8545.59
937.059	8512.83
937.367	8494.3
937.674	8496.1
937.982	8471.02
938.29	8449.55
938.597	8369.1
938.905	8266.73
939.213	8282.78
939.52	8196
939.827	8242.55
940.135	8179.05
940.442	8137.7
940.749	8117.13
941.056	8092.27
941.363	8028.77
941.67	8012.5
941.977	8049.79
942.284	7936.8
942.591	7898.61
942.898	7898.15
943.205	7830.81
943.511	7744.49
943.818	7752.4
944.125	7708.55
944.431	7670.14
944.738	7632.17
945.044	7612.51
945.35	7525.73
945.657	7515.79
945.963	7513.53
946.269	7462.91
946.575	7403.03
946.881	7379.98
947.187	7313.31
947.493	7266.98
947.799	7234.67
948.105	7259.07
948.41	7174.33
948.716	7237.83
949.022	7154.9
949.327	7109.47
949.633	7033.32
949.938	7033.32
950.244	7056.14
950.549	7029.25
950.854	6942.92
951.16	6965.07
951.465	6868.12
951.77	6830.84
952.075	6810.5
952.38	6792.42
952.685	6739.31
952.99	6706.32
953.294	6684.4
953.599	6658.64
953.904	6621.8
954.209	6518.3
954.513	6598.08
954.818	6521.47
955.122	6533.22
955.426	6464.07
955.731	6423.62
956.035	6415.93
956.339	6345.88
956.643	6424.75
956.948	6378.19
957.252	6302.26
957.556	6270.63
957.86	6246.9
958.163	6211.64
958.467	6264.75
958.771	6225.88
959.075	6202.15
959.378	6107.24
959.682	6137.97
959.985	6097.52
960.289	5975.72
960.592	6015.27
960.896	5973.91
961.199	5963.74
961.502	5932.1
961.805	5912.67
962.108	5907.02
962.411	5890.3
962.714	5827.02
963.017	5815.72
963.32	5806.23
963.623	5701.83
963.926	5788.15
964.228	5672.22
964.531	5731.66
964.833	5674.26
965.136	5658.66
965.438	5605.11
965.741	5608.5
966.043	5556.29
966.345	5529.63
966.648	5517.88
966.95	5550.65
967.252	5454.15
967.554	5453.25
967.856	5447.37
968.158	5403.76
968.46	5404.89
968.761	5297.77
969.063	5344.77
969.365	5320.82
969.666	5273.59
969.968	5241.05
970.269	5163.76
970.571	5255.51
970.872	5207.83
971.174	5102.3
971.475	5114.95
971.776	5113.59
972.077	5095.52
972.378	5063.65
972.679	5071.79
972.98	5012.81
973.281	5019.81
973.582	5003.09
973.883	4903.88
974.183	4958.12
974.484	4920.38
974.785	4865.69
975.085	4841.96
975.386	4851
975.686	4854.39
975.986	4818.91
976.287	4800.16
976.587	4679.03
976.887	4743.66
977.187	4770.55
977.487	4688.07
977.787	4685.58
978.087	4599.71
978.387	4581.4
978.687	4630.9
978.987	4571.01
979.286	4516.32
979.586	4557.68
979.885	4538.69
980.185	4492.14
980.484	4532.82
980.784	4485.14
981.083	4416.21
981.382	4441.75
981.682	4389.55
981.981	4350.45
982.28	4365.59
982.579	4314.97
982.878	4312.94
983.177	4325.37
983.475	4274.07
983.774	4237.46
984.073	4230.45
984.372	4226.61
984.67	4209.66
984.969	4204.24
985.267	4164.47
985.566	4144.35
985.864	4135.99
986.162	4113.85
986.461	4101.42
986.759	4089.67
987.057	4024.36
987.355	4015.54
987.653	4001.31
987.951	3967.18
988.249	3961.31
988.547	3926.96
988.844	3902.55
989.142	3944.81
989.44	3947.52
989.737	3892.38
990.035	3855.55
990.332	3875.66
990.63	3848.99
990.927	3814.19
991.224	3829.79
991.521	3816
991.819	3783.23
992.116	3781.88
992.413	3718.83
992.71	3734.65
993.006	3714.76
993.303	3694.65
993.6	3665.95
993.897	3712.5
994.193	3626.4
994.49	3639.96
994.787	3597.25
995.083	3589.79
995.379	3598.15
995.676	3598.83
995.972	3550.02
996.268	3562.22
996.565	3494.43
996.861	3524.48
997.157	3455.33
997.453	3457.37
997.749	3438.84
998.044	3422.79
998.34	3426.18
998.636	3420.53
998.932	3356.8
999.227	3339.86
999.523	3357.93
999.818	3300.53
1000.114	3291.27
1000.409	3275
1000.704	3253.76
1001	3242.23
1001.295	3222.57
1001.59	3226.19
1001.885	3196.58
1002.18	3144.61
1002.475	3133.08
1002.77	3169.92
1003.065	3133.08
1003.359	3128.34
1003.654	3116.13
1003.949	3050.82
1004.243	3051.95
1004.538	3016.93
1004.832	3009.24
1005.127	2983.71
1005.421	2954.56
1005.715	2964.5
1006.009	2949.81
1006.304	2910.49
1006.598	2919.08
1006.892	2883.82
1007.186	2894.67
1007.48	2903.71
1007.773	2816.71
1008.067	2828.46
1008.361	2808.57
1008.655	2799.3
1008.948	2760.66
1009.242	2782.36
1009.535	2736.03
1009.829	2748.23
1010.122	2707.33
1010.415	2686.54
1010.708	2669.82
1011.001	2654.22
1011.295	2626.88
1011.588	2632.3
1011.881	2590.27
1012.173	2610.16
1012.466	2594.79
1012.759	2560.67
1013.052	2519.54
1013.344	2512.53
1013.637	2497.17
1013.93	2494
1014.222	2478.41
1014.514	2399.77
1014.807	2422.82
1015.099	2416.04
1015.391	2417.17
1015.683	2414.46
1015.976	2348.47
1016.268	2345.98
1016.56	2359.32
1016.851	2322.03
1017.143	2305.76
1017.435	2322.03
1017.727	2278.87
1018.018	2274.35
1018.31	2241.58
1018.602	2238.64
1018.893	2207.91
1019.185	2205.87
1019.476	2155.25
1019.767	2183.95
1020.058	2200.45
1020.35	2144.86
1020.641	2105.99
1020.932	2140.34
1021.223	2061.7
1021.514	2116.16
1021.804	2083.84
1022.095	2066.67
1022.386	2040
1022.677	2050.4
1022.967	2007.69
1023.258	2010.63
1023.548	1995.94
1023.839	1972.21
1024.129	1984.41
1024.419	1951.42
1024.709	1918.65
1025	1910.51
1025.29	1903.28
1025.58	1885.2
1025.87	1875.49
1026.16	1846.34
1026.449	1820.57
1026.739	1827.81
1027.029	1833
1027.319	1781.7
1027.608	1823.29
1027.898	1788.71
1028.187	1772.21
1028.477	1748.26
1028.766	1747.13
1029.055	1754.59
1029.344	1724.53
1029.634	1695.83
1029.923	1707.81
1030.212	1687.02
1030.501	1660.13
1030.79	1668.94
1031.078	1640.01
1031.367	1606.12
1031.656	1624.65
1031.945	1593.23
1032.233	1577.19
1032.522	1589.17
1032.81	1576.96
1033.099	1588.94
1033.387	1529.73
1033.675	1553.91
1033.963	1509.62
1034.251	1517.76
1034.54	1506.91
1034.828	1469.4
1035.116	1465.33
1035.403	1467.59
1035.691	1456.06
1035.979	1450.19
1036.267	1452.45
1036.554	1430.08
1036.842	1381.72
1037.129	1400.25
1037.417	1386.69
1037.704	1390.98
1037.992	1365.44
1038.279	1372
1038.566	1367.25
1038.853	1367.25
1039.14	1367.25
