Data from White_paper_FLMS001491_008.txt Node
Date: Tue Feb 07 10:34:35 GMT 2017
User: dcchb
Spectrometer: FLMS00149
Trigger mode: 0
Integration Time (sec): 2.000000E-2
Scans to average: 10
Electric dark correction enabled: true
Nonlinearity correction enabled: false
Boxcar width: 0
XAxis mode: Wavelengths
Number of Pixels in Spectrum: 2048
>>>>>Begin Spectral Data<<<<<
341.393	-31.98
341.776	-31.98
342.16	-31.98
342.543	-53.9
342.927	-76.72
343.31	-73.78
343.693	-66.33
344.077	-62.71
344.46	-67.68
344.843	-60.22
345.226	-34.01
345.61	-43.73
345.993	-3.05
346.376	-8.02
346.759	15.25
347.142	18.19
347.525	41.69
347.908	57.96
348.291	79.88
348.674	101.58
349.057	104.97
349.44	125.31
349.823	137.06
350.206	180.9
350.588	208.24
350.971	218.19
351.354	253.67
351.737	247.79
352.119	271.97
352.502	303.38
352.884	307.68
353.267	327.56
353.65	313.55
354.032	338.64
354.414	337.05
354.797	329.37
355.179	350.16
355.562	361.23
355.944	351.29
356.326	351.06
356.709	375.47
357.091	356.49
357.473	371.63
357.855	384.96
358.238	369.59
358.62	374.79
359.002	368.24
359.384	384.51
359.766	365.75
360.148	357.84
360.53	369.82
360.912	371.18
361.294	384.96
361.676	354.45
362.057	375.92
362.439	389.03
362.821	363.95
363.203	369.82
363.584	355.58
363.966	359.65
364.348	363.27
364.729	377.96
365.111	342.48
365.493	380.44
365.874	353.78
366.256	349.48
366.637	360.33
367.019	342.7
367.4	342.25
367.781	348.58
368.163	342.7
368.544	373.44
368.925	348.8
369.306	372.98
369.688	348.13
370.069	352.65
370.45	368.69
370.831	357.17
371.212	367.56
371.593	371.4
371.974	361.69
372.355	354.68
372.736	362.36
373.117	379.54
373.498	360.78
373.879	374.34
374.26	353.78
374.641	361.91
375.021	381.8
375.402	368.69
375.783	385.64
376.163	382.02
376.544	391.06
376.925	386.54
377.305	382.25
377.686	394.68
378.066	386.54
378.447	412.53
378.827	412.53
379.208	385.64
379.588	395.13
379.968	391.97
380.349	399.65
380.729	405.75
381.109	418.63
381.489	425.64
381.87	417.5
382.25	399.88
382.63	404.62
383.01	419.76
383.39	430.61
383.77	432.64
384.15	428.35
384.53	426.99
384.91	437.39
385.29	421.34
385.67	430.16
386.049	436.26
386.429	454.34
386.809	439.42
387.189	458.18
387.568	466.54
387.948	464.96
388.328	488.91
388.707	468.8
389.087	470.84
389.466	503.6
389.846	486.65
390.225	515.81
390.605	511.51
390.984	504.73
391.363	511.29
391.743	505.41
392.122	491.85
392.501	530.27
392.881	510.83
393.26	539.08
393.639	546.77
394.018	537.05
394.397	531.85
394.776	537.95
395.155	569.36
395.534	553.54
395.913	546.09
396.292	563.94
396.671	568.23
397.05	583.15
397.429	602.13
397.808	565.3
398.186	606.88
398.565	597.39
398.944	582.02
399.323	620.21
399.701	611.17
400.08	615.01
400.458	613.2
400.837	650.04
401.215	660.89
401.594	643.94
401.972	674.67
402.351	674.9
402.729	668.57
403.107	690.94
403.486	700.43
403.864	724.61
404.242	732.3
404.62	760.77
404.999	746.08
405.377	760.32
405.755	770.49
406.133	800.32
406.511	787.21
406.889	822.01
407.267	847.55
407.645	853.2
408.023	882.58
408.401	898.62
408.779	914.21
409.156	937.04
409.534	972.52
409.912	1003.02
410.29	997.37
410.667	1040.99
411.045	1062.46
411.422	1106.52
411.8	1109.01
412.178	1126.41
412.555	1150.59
412.933	1160.08
413.31	1218.39
413.687	1253.41
414.065	1299.74
414.442	1322.56
414.819	1308.33
415.197	1356.01
415.574	1377.93
415.951	1393.97
416.328	1420.64
416.705	1470.81
417.082	1466.74
417.46	1516.68
417.837	1521.65
418.214	1549.68
418.591	1580.86
418.967	1627.87
419.344	1635.1
419.721	1629.67
420.098	1686.62
420.475	1707.86
420.852	1734.98
421.228	1748.32
421.605	1767.52
421.982	1810.91
422.358	1828.77
422.735	1867.86
423.111	1879.16
423.488	1911.7
423.864	1954.64
424.241	1989.44
424.617	1970.68
424.994	2055.43
425.37	2066.05
425.746	2064.01
426.123	2084.8
426.499	2100.62
426.875	2134.75
427.251	2202.99
427.627	2243.22
428.003	2257.68
428.379	2299.26
428.756	2330.45
429.132	2408.19
429.507	2423.78
429.883	2447.05
430.259	2480.95
430.635	2494.51
431.011	2513.95
431.387	2569.08
431.763	2614.96
432.138	2634.17
432.514	2667.61
432.89	2690.89
433.265	2793.71
433.641	2837.78
434.016	2793.49
434.392	2881.39
434.767	2951.22
435.143	2935.4
435.518	2998.68
435.894	3036.19
436.269	3056.76
436.644	3112.35
437.02	3155.74
437.395	3174.27
437.77	3243.19
438.145	3226.24
438.52	3272.34
438.895	3331.32
439.271	3351.89
439.646	3440.93
440.021	3443.41
440.395	3434.15
440.77	3439.12
441.145	3468.95
441.52	3576.97
441.895	3586.23
442.27	3545.78
442.645	3604.09
443.019	3594.59
443.394	3669.17
443.769	3699.22
444.143	3694.03
444.518	3762.95
444.892	3766.12
445.267	3770.18
445.641	3768.15
446.016	3852.44
446.39	3884.76
446.764	3873.01
447.139	3862.61
447.513	3940.8
447.887	3933.12
448.262	3977.86
448.636	3968.82
449.01	4070.06
449.384	4072.1
449.758	4084.07
450.132	4105.09
450.506	4160.91
450.88	4222.83
451.254	4164.3
451.628	4236.84
452.002	4294.92
452.376	4314.58
452.75	4360.45
453.123	4402.71
453.497	4496.04
453.871	4487.9
454.244	4607.45
454.618	4607.68
454.992	4683.83
455.365	4689.03
455.739	4795.92
456.112	4892.64
456.486	4879.08
456.859	4922.47
457.232	5024.61
457.606	5069.13
457.979	5148.9
458.352	5244.04
458.725	5218.73
459.099	5252.4
459.472	5361.33
459.845	5441.33
460.218	5507.99
460.591	5563.58
460.964	5587.99
461.337	5762.45
461.71	5790.47
462.083	5891.03
462.456	5835.44
462.829	5918.6
463.201	6072.95
463.574	6033.63
463.947	6167.41
464.32	6235.43
464.692	6279.04
465.065	6399.94
465.438	6445.59
465.81	6558.81
466.183	6608.75
466.555	6721.97
466.928	6815.75
467.3	6809.43
467.672	6949.31
468.045	7079.93
468.417	7098.01
468.789	7201.05
469.161	7240.83
469.534	7423.19
469.906	7594.04
470.278	7573.02
470.65	7696.41
471.022	7839.68
471.394	7977.98
471.766	8105.44
472.138	8141.14
472.51	8316.05
472.882	8530.96
473.253	8556.95
473.625	8700.9
473.997	8813.44
474.369	8910.61
474.74	9023.83
475.112	9228.57
475.484	9331.39
475.855	9453.42
476.227	9586.98
476.598	9822
476.97	9953.75
477.341	10176.57
477.713	10303.34
478.084	10366.17
478.455	10663.34
478.827	10712.37
479.198	11028.3
479.569	11040.27
479.94	11374.28
480.311	11425.8
480.682	11798.67
481.053	11967.93
481.424	12110.53
481.795	12302.84
482.166	12467.58
482.537	12644.07
482.908	12841.58
483.279	12991.64
483.65	13283.83
484.021	13506.88
484.391	13584.84
484.762	13712.97
485.133	13884.49
485.503	14086.75
485.874	14335.1
486.244	14462.33
486.615	14772.15
486.985	14882.43
487.356	15193.84
487.726	15306.83
488.097	15599.48
488.467	15665.01
488.837	15968.05
489.207	16115.17
489.578	16382.96
489.948	16500.7
490.318	16786.79
490.688	16842.38
491.058	17088.93
491.428	17361.24
491.798	17466.55
492.168	17813.43
492.538	17947.89
492.908	18063.59
493.278	18288.22
493.648	18312.63
494.017	18617.7
494.387	18713.97
494.757	18914.19
495.126	19089.78
495.496	19102.21
495.866	19262.88
496.235	19491.8
496.605	19569.99
496.974	19740.61
497.344	19953.49
497.713	20012.92
498.082	20130.43
498.452	20447.94
498.821	20424.66
499.19	20533.58
499.559	20692.9
499.928	20882.28
500.298	21060.8
500.667	21183.74
501.036	21182.38
501.405	21357.97
501.774	21481.13
502.143	21657.4
502.512	21738.75
502.88	21916.82
503.249	22120.44
503.618	22208.79
503.987	22232.97
504.356	22363.59
504.724	22526.07
505.093	22602.46
505.462	22690.82
505.83	23025.5
506.199	23042.44
506.567	23382.1
506.936	23425.49
507.304	23614.41
507.672	23785.7
508.041	23817.57
508.409	24094.62
508.777	24211
509.145	24388.62
509.514	24456.19
509.882	24665.68
510.25	24704.55
510.618	24868.39
510.986	25058.89
511.354	25211.88
511.722	25482.38
512.09	25683.28
512.458	25610.74
512.826	25870.62
513.193	25983.38
513.561	26116.94
513.929	26218.18
514.297	26542.47
514.664	26774.32
515.032	26769.58
515.4	27034.66
515.767	27114.43
516.135	27342.9
516.502	27260.64
516.869	27705.6
517.237	27652.04
517.604	27674.41
517.972	28054.52
518.339	28331.57
518.706	28242.53
519.073	28421.96
519.44	28682.07
519.808	28952.8
520.175	28943.31
520.542	29362.28
520.909	29567.25
521.276	29472.78
521.643	29757.97
522.009	29941.47
522.376	30259.66
522.743	30430.73
523.11	30731.06
523.477	30822.35
523.843	31077.04
524.21	31383.92
524.577	31640.86
524.943	31712.73
525.31	31940.97
525.676	32295.08
526.043	32332.37
526.409	32516.09
526.776	32838.57
527.142	33066.36
527.508	33204.44
527.874	33532.56
528.241	33669.96
528.607	33624.54
528.973	34080.35
529.339	33949.73
529.705	34310.4
530.071	34665.42
530.437	34826.32
530.803	34917.84
531.169	35142.24
531.535	35097.5
531.901	35372.29
532.267	35555.56
532.632	35703.13
532.998	35848.89
533.364	36093.85
533.73	36201.87
534.095	36516.67
534.461	36618.13
534.826	36779.94
535.192	36835.75
535.557	37081.17
535.923	37080.49
536.288	37403.2
536.653	37466.47
537.019	37396.19
537.384	37695.84
537.749	37928.83
538.114	37923.86
538.479	38032.33
538.845	38237.3
539.21	38157.75
539.575	38386
539.94	38582.38
540.305	38777.62
540.67	38687.46
541.034	39050.16
541.399	39175.13
541.764	39041.57
542.129	39482.24
542.494	39481.11
542.858	39778.5
543.223	39795.68
543.587	40024.15
543.952	39939.85
544.316	40217.59
544.681	40172.84
545.045	40368.09
545.41	40412.84
545.774	40790.45
546.138	40701.64
546.503	40992.26
546.867	40841.3
547.231	41098.47
547.595	41298.69
547.959	41358.35
548.324	41567.16
548.688	41674.05
549.052	41769.86
549.416	41897.99
549.779	41922.4
550.143	42109.74
550.507	42283.75
550.871	42579.11
551.235	42501.82
551.599	42768.48
551.962	42952.2
552.326	43045.99
552.689	43116.27
553.053	43038.76
553.417	43226.55
553.78	43650.26
554.143	43521.23
554.507	43793.76
554.87	43726.19
555.234	44271.49
555.597	44059.52
555.96	44328.44
556.323	44485.72
556.686	44400.98
557.05	44821.76
557.413	44845.49
557.776	45027.86
558.139	45216.55
558.502	45256.55
558.865	45362.99
559.228	45732.92
559.59	45807.04
559.953	45821.96
560.316	46428.72
560.679	46223.76
561.041	46568.15
561.404	46604.76
561.767	46912.1
562.129	46688.83
562.492	47251.75
562.854	47271.19
563.217	47215.59
563.579	47417.62
563.941	47637.05
564.304	47720.44
564.666	47956.59
565.028	48216.02
565.39	48260.54
565.753	48435.9
566.115	48671.15
566.477	48688.78
566.839	48875.44
567.201	49182.77
567.563	49095.77
567.925	49437.23
568.287	49344.58
568.648	49479.49
569.01	49614.63
569.372	49851.23
569.734	49901.63
570.095	50141.17
570.457	50232.24
570.819	50240.37
571.18	50323.54
571.542	50563.76
571.903	50628.61
572.265	50758.55
572.626	50924.65
572.987	50973.24
573.349	51071.31
573.71	51100.01
574.071	51419.33
574.432	51367.58
574.794	51670.39
575.155	51648.92
575.516	51510.85
575.877	51619.09
576.238	51737.96
576.599	51910.16
576.96	51979.99
577.32	52007.33
577.681	52055.24
578.042	52189.48
578.403	52236.93
578.763	52351.96
579.124	52253.88
579.485	52490.26
579.845	52601.67
580.206	52546.75
580.566	52562.57
580.927	52584.27
581.287	52720.99
581.648	52649.58
582.008	52850.7
582.368	52776.35
582.728	52850.7
583.089	52863.36
583.449	52893.64
583.809	52959.85
584.169	53025.61
584.529	52911.49
584.889	53213.4
585.249	53040.07
585.609	52959.62
585.969	53170.92
586.329	52981.32
586.688	53163.69
587.048	53147.87
587.408	53131.6
587.768	53183.12
588.127	53233.52
588.487	53102.9
588.846	53400.52
589.206	53211.6
589.565	53141.99
589.925	53305.15
590.284	53349.44
590.643	53463.11
591.003	53513.28
591.362	53471.02
591.721	53370.24
592.08	53401.65
592.44	53485.94
592.799	53539.5
593.158	53533.17
593.517	53501.76
593.876	53593.73
594.235	53572.04
594.593	53551.02
594.952	53752.37
595.311	53522.55
595.67	53564.81
596.029	53786.5
596.387	53832.14
596.746	53900.62
597.104	53744.91
597.463	53703.33
597.822	53926.83
598.18	53800.28
598.538	53833.05
598.897	54003.89
599.255	53675.09
599.613	54079.82
599.972	54034.4
600.33	54047.51
600.688	54011.57
601.046	53993.72
601.404	54159.14
601.762	54054.28
602.12	54260.38
602.478	54232.81
602.836	54225.13
603.194	54111.01
603.552	54195.07
603.91	54069.43
604.268	54268.06
604.625	54173.15
604.983	54326.82
605.341	54196.2
605.698	54374.28
606.056	54421.51
606.413	54349.87
606.771	54461.73
607.128	54542.41
607.485	54421.28
607.843	54381.28
608.2	54539.7
608.557	54608.85
608.914	54501.28
609.272	54670.77
609.629	54722.97
609.986	54849.29
610.343	54637.32
610.7	54814.94
611.057	54758.22
611.414	54776.3
611.771	54860.37
612.127	54880.7
612.484	54938.56
612.841	54982.85
613.198	54839.35
613.554	54888.16
613.911	54980.14
614.267	55006.58
614.624	54930.87
614.98	55040.7
615.337	55219.45
615.693	55112.79
616.05	55096.97
616.406	55229.4
616.762	55167.7
617.118	55163.41
617.475	55196.63
617.831	55259.22
618.187	55226.68
618.543	55259.9
618.899	55430.29
619.255	55377.87
619.611	55320.01
619.967	55405.66
620.323	55560.69
620.678	55389.84
621.034	55339.9
621.39	55407.24
621.746	55356.85
622.101	55682.26
622.457	55371.09
622.812	55421.48
623.168	55495.6
623.523	55553.23
623.879	55537.86
624.234	55338.77
624.589	55547.35
624.945	55511.42
625.3	55564.98
625.655	55462.38
626.01	55551.65
626.365	55491.99
626.72	55513.91
627.075	55487.24
627.43	55523.17
627.785	55375.61
628.14	55475.49
628.495	55548.26
628.85	55531.53
629.205	55455.6
629.559	55534.02
629.914	55399.11
630.269	55541.25
630.623	55400.24
630.978	55396.62
631.332	55470.29
631.687	55513.91
632.041	55397.53
632.396	55455.38
632.75	55377.41
633.104	55442.5
633.459	55252.9
633.813	55263.29
634.167	55310.07
634.521	55301.26
634.875	55348.49
635.229	55335.61
635.583	55219.9
635.937	55143.52
636.291	55123.41
636.645	55194.59
636.999	55154.82
637.352	55208.38
637.706	55051.77
638.06	55125.22
638.413	55111.88
638.767	55096.74
639.121	55044.54
639.474	54948.05
639.828	55022.85
640.181	55100.13
640.534	55066.24
640.888	54910.08
641.241	54791.44
641.594	54929.06
641.947	54966.8
642.301	54966.35
642.654	54960.7
643.007	54928.16
643.36	54881.38
643.713	54796.64
644.066	54955.73
644.419	54804.55
644.771	54531.56
645.124	54339.02
645.477	54261.29
645.83	54106.03
646.182	54036.88
646.535	53991.24
646.888	54004.79
647.24	53875.08
647.593	54030.56
647.945	54002.31
648.298	53879.15
648.65	53786.04
649.002	53699.94
649.355	53902.65
649.707	53713.73
650.059	53981.97
650.411	54323.2
650.763	54374.5
651.115	54598
651.467	54450.21
651.819	54492.69
652.171	54430.77
652.523	54369.53
652.875	54401.17
653.227	54303.77
653.578	54491.56
653.93	54378.57
654.282	54197.33
654.633	54209.76
654.985	54224.22
655.337	54336.31
655.688	54348.29
656.039	54338.57
656.391	54068.75
656.742	54136.99
657.094	54203.89
657.445	54285.69
657.796	54194.85
658.147	54218.12
658.498	54163.66
658.849	54275.3
659.2	54214.73
659.551	54052.25
659.902	54184.45
660.253	54086.6
660.604	54108.75
660.955	53991.46
661.306	54092.25
661.656	54093.61
662.007	54051.35
662.358	54101.52
662.708	54007.51
663.059	54033.27
663.409	53908.07
663.76	54066.94
664.11	54046.6
664.461	54042.31
664.811	54071.46
665.161	54014.51
665.511	53876.66
665.862	53933.38
666.212	54014.51
666.562	53988.3
666.912	53989.88
667.262	53902.65
667.612	53932.71
667.962	54012.93
668.312	53863.1
668.662	53954.4
669.011	53867.4
669.361	53927.51
669.711	53817.68
670.06	53752.15
670.41	53753.5
670.76	53722.54
671.109	53719.83
671.459	53723.22
671.808	53593.96
672.157	53720.28
672.507	53556.22
672.856	53591.47
673.205	53602.55
673.554	53597.57
673.904	53533.62
674.253	53643
674.602	53534.52
674.951	53052.96
675.3	52877.82
675.649	53451.36
675.998	53349.9
676.346	53366.39
676.695	53444.13
677.044	53182.22
677.393	53315.55
677.741	53252.05
678.09	53114.2
678.438	53108.1
678.787	53203.91
679.135	53161.2
679.484	52926.4
679.832	52987.19
680.181	52830.14
680.529	52982.9
680.877	52867.65
681.225	52833.75
681.573	52988.1
681.922	52759.63
682.27	52624.04
682.618	52650.71
682.966	52521.67
683.314	52597.15
683.661	52481.44
684.009	52356.7
684.357	52315.57
684.705	52232.86
685.053	52226.31
685.4	52131.17
685.748	52064.05
686.095	52077.39
686.443	51893.21
686.79	51831.07
687.138	51957.16
687.485	51796.49
687.832	51727.34
688.18	51663.39
688.527	51590.39
688.874	51552.66
689.221	51435.82
689.568	51320.35
689.915	51231.76
690.262	51318.31
690.609	51110.86
690.956	50900.7
691.303	50968.04
691.65	50839
691.997	50856.63
692.344	50666.35
692.69	50526.02
693.037	50619.35
693.383	50358.79
693.73	50331.67
694.077	50220.49
694.423	50265.68
694.769	50045.35
695.116	50058.46
695.462	50049.19
695.808	49909.76
696.155	49899.82
696.501	49519.04
696.847	49629.77
697.193	49331.92
697.539	49487.63
697.885	49223.68
698.231	49216.22
698.577	49122.21
698.923	48984.14
699.269	48828.89
699.614	48650.36
699.96	48599.29
700.306	48606.07
700.651	48387.54
700.997	48294.21
701.342	48313.42
701.688	48203.82
702.033	48058.96
702.379	48131.5
702.724	48047.89
703.069	48000.21
703.415	47411.75
703.76	47631.85
704.105	47483.16
704.45	47487.45
704.795	47269.15
705.14	47176.05
705.485	47051.31
705.83	46919.11
706.175	47012.89
706.52	46868.49
706.865	46853.57
707.209	46745.1
707.554	46574.03
707.899	46581.49
708.243	46410.87
708.588	46312.12
708.932	46068.28
709.277	45992.35
709.621	46154.15
709.966	45800.26
710.31	45988.51
710.654	45510.78
710.998	45734.28
711.342	45691.34
711.687	45538.35
712.031	45431.91
712.375	45175.2
712.719	45261.07
713.063	45209.32
713.407	45400.28
713.75	45076.44
714.094	45005.71
714.438	44777.24
714.782	44826.73
715.125	44725.49
715.469	44721.65
715.812	44448.89
716.156	44245.96
716.499	44256.8
716.843	44449.57
717.186	44018.16
717.53	44317.14
717.873	44288.89
718.216	44122.57
718.559	43927.09
718.902	43671.96
719.246	43798.74
719.589	43633.32
719.932	43493.66
720.275	43492.53
720.617	43442.81
720.96	43536.14
721.303	43495.24
721.646	43395.36
721.989	43161.24
722.331	43279.65
722.674	43024.52
723.016	43109.94
723.359	42893
723.701	43087.34
724.044	42823.62
724.386	42601.7
724.729	42935.93
725.071	42683.51
725.413	42674.92
725.755	42709.5
726.097	42435.61
726.439	42272
726.782	42305.67
727.124	42518.32
727.465	42255.95
727.807	42234.26
728.149	42048.95
728.491	41966.02
728.833	42069.06
729.175	41936.19
729.516	41907.94
729.858	41716.08
730.199	41764.21
730.541	41828.84
730.882	41655.29
731.224	41778.45
731.565	41497.55
731.906	41563.09
732.248	41575.52
732.589	41280.84
732.93	41184.57
733.271	41163.32
733.612	41303.66
733.953	41249.42
734.294	41242.19
734.635	41175.53
734.976	41172.59
735.317	40912.03
735.658	40848.08
735.999	40836.78
736.339	40710.68
736.68	40813.73
737.021	40698.03
737.361	40640.4
737.702	40607.63
738.042	40342.56
738.383	40572.83
738.723	40529.89
739.063	40373.74
739.404	40522.44
739.744	40366.96
740.084	40336.91
740.424	40243.8
740.764	40202.9
741.104	40302.56
741.444	39942.79
741.784	39942.79
742.124	39939.18
742.464	39900.53
742.804	39758.84
743.143	39782.8
743.483	39774.89
743.823	39597.94
744.162	39636.58
744.502	39659.64
744.841	39376.93
745.181	39571.05
745.52	39436.59
745.86	39404.5
746.199	39310.72
746.538	39302.13
746.877	39345.75
747.216	39239.99
747.556	39112.53
747.895	39163.15
748.234	39066.2
748.573	38907.11
748.911	38797.74
749.25	38886.1
749.589	38621.02
749.928	38769.04
750.267	38767.46
750.605	38456.05
750.944	38486.33
751.283	38378.76
751.621	38379.89
751.96	38232.78
752.298	38262.61
752.636	38188.49
752.975	38051.32
753.313	38070.98
753.651	38184.42
753.989	37781.49
754.327	37731.1
754.666	37588.5
755.004	37734.49
755.342	37638.9
755.679	37616.98
756.017	37273.03
756.355	37380.15
756.693	37213.37
757.031	37313.93
757.368	37187.61
757.706	37104
758.044	36870.56
758.381	36891.57
758.719	36697
759.056	36887.96
759.394	36563.67
759.731	36443.9
760.068	36440.96
760.405	36275.09
760.743	36122.55
761.08	36201.2
761.417	35949.9
761.754	35895.67
762.091	35707.42
762.428	35731.6
762.765	35511.04
763.102	35586.97
763.438	35402.12
763.775	35387.43
764.112	35383.59
764.449	35231.05
764.785	35057.72
765.122	34884.17
765.458	34813.66
765.795	34696.15
766.131	34659.77
766.467	34474.91
766.804	34561.24
767.14	34262.71
767.476	34324.63
767.812	34012.55
768.148	34087.35
768.485	33900.01
768.821	33650.53
769.157	33670.19
769.492	33535.73
769.828	33605.56
770.164	33161.73
770.5	33208.96
770.836	33169.41
771.171	32992.92
771.507	32979.58
771.842	32743.88
772.178	32660.27
772.513	32671.34
772.849	32562.65
773.184	32332.82
773.519	32455.08
773.855	32234.07
774.19	32023
774.525	32010.34
774.86	31897.35
775.195	31867.75
775.53	31700.07
775.865	31475.67
776.2	31261.21
776.535	31118.84
776.87	31093.53
777.205	31001.56
777.539	30798.85
777.874	30859.87
778.209	30607.67
778.543	30530.16
778.878	30494.9
779.212	30399.99
779.547	30157.96
779.881	30369.03
780.215	30047.68
780.55	30127.46
780.884	29992.32
781.218	29731.76
781.552	29838.2
781.886	29638.66
782.22	29449.28
782.554	29410.19
782.888	29134.49
783.222	29034.83
783.556	28974.72
783.889	28976.53
784.223	28796.87
784.557	28624.67
784.89	28721.62
785.224	28529.98
785.557	28293.83
785.891	28245.92
786.224	28288.86
786.558	28237.34
786.891	27858.59
787.224	27981.07
787.557	27827.4
787.891	27858.14
788.224	27687.29
788.557	27674.87
788.89	27533.85
789.223	27500.63
789.556	27294.31
789.888	27209.34
790.221	27104.71
790.554	26819.29
790.887	27005.28
791.219	26806.41
791.552	26736.36
791.884	26601.22
792.217	26501.11
792.549	26475.12
792.882	26253.89
793.214	26169.59
793.546	26217.95
793.879	26026.1
794.211	25904.52
794.543	25990.84
794.875	25843.05
795.207	25872.43
795.539	25777.51
795.871	25574.36
796.203	25572.55
796.535	25286.23
796.867	25329.62
797.198	25236.06
797.53	25195.38
797.862	25049.85
798.193	25001.26
798.525	24867.71
798.856	24979.57
799.188	24754.26
799.519	24530.32
799.85	24530.09
800.182	24466.14
800.513	24536.19
800.844	24265.24
801.175	24382.3
801.506	24452.13
801.837	24245.58
802.168	24114.28
802.499	24017.56
802.83	23986.83
803.161	23815.31
803.491	23860.95
803.822	23906.38
804.153	23673.84
804.483	23574.41
804.814	23534.41
805.145	23422.77
805.475	23418.93
805.805	23239.28
806.136	23289.22
806.466	23257.13
806.796	23142.33
807.126	23013.97
807.457	23057.36
807.787	22987.53
808.117	22803.58
808.447	22811.94
808.777	22872.28
809.107	22741.44
809.436	22705.96
809.766	22551.16
810.096	22517.26
810.426	22342.35
810.755	22351.39
811.085	22324.5
811.414	22361.11
811.744	22132.86
812.073	22072.75
812.403	22087.89
812.732	21927.22
813.061	21950.72
813.39	21815.81
813.719	21791.18
814.049	21953.66
814.378	21771.29
814.707	21602.26
815.036	21561.81
815.365	21576.27
815.693	21353.68
816.022	21428.25
816.351	21366.56
816.68	21253.11
817.008	21273
817.337	21061.25
817.665	20987.81
817.994	21164.3
818.322	21085.43
818.651	20958.43
818.979	20886.12
819.307	21030.07
819.636	20898.32
819.964	20751.66
820.292	20908.94
820.62	20846.57
820.948	20631.89
821.276	20889.73
821.604	20688.61
821.932	20713.24
822.259	20717.31
822.587	20659.23
822.915	20664.88
823.243	20679.12
823.57	20651.77
823.898	20629.4
824.225	20596.86
824.553	20606.35
824.88	20597.09
825.207	20579.68
825.535	20570.19
825.862	20706.46
826.189	20535.84
826.516	20628.05
826.843	20735.84
827.17	20697.65
827.497	20679.34
827.824	20615.39
828.151	20738.55
828.478	20599.57
828.805	20689.51
829.131	20551.44
829.458	20649.29
829.785	20414.94
830.111	20552.79
830.438	20619.91
830.764	20465.79
831.09	20627.59
831.417	20438.45
831.743	20496.98
832.069	20512.79
832.395	20439.8
832.722	20556.41
833.048	20390.09
833.374	20334.95
833.7	20297.88
834.026	20268.05
834.351	20312.8
834.677	20306.7
835.003	20315.74
835.329	20330.2
835.654	20247.49
835.98	20201.62
836.306	20145.12
836.631	20127.49
836.956	20116.42
837.282	20141.5
837.607	19950.32
837.932	19990.77
838.258	19990.77
838.583	20012.47
838.908	19951.68
839.233	19888.4
839.558	19763.21
839.883	19701.52
840.208	19657.22
840.533	19755.07
840.858	19748.75
841.182	19614.96
841.507	19617.22
841.832	19607.96
842.156	19487.74
842.481	19471.92
842.805	19518.24
843.13	19460.62
843.454	19392.37
843.778	19224.24
844.103	19246.84
844.427	19231.7
844.751	19210.91
845.075	19138.59
845.399	19087.29
845.723	18933.17
846.047	19036.67
846.371	18805.72
846.695	18809.79
847.019	18726.17
847.343	18639.4
847.666	18568.66
847.99	18422
848.313	18342.46
848.637	18262.23
848.96	18224.04
849.284	18245.28
849.607	18185.17
849.931	18103.82
850.254	17881.68
850.577	17702.7
850.9	17656.82
851.223	17648.46
851.546	17564.17
851.869	17527.11
852.192	17599.42
852.515	17332.76
852.838	17408.24
853.161	17370.28
853.483	17292.31
853.806	17264.74
854.129	17184.29
854.451	17082.15
854.774	17044.86
855.096	16985.88
855.419	16965.09
855.741	16915.37
856.063	16801.03
856.385	16849.39
856.708	16715.38
857.03	16646.45
857.352	16610.52
857.674	16511.54
857.996	16498.21
858.318	16455.27
858.64	16415.73
858.961	16403.3
859.283	16334.82
859.605	16237.43
859.926	16340.93
860.248	16247.37
860.57	16192.46
860.891	16217.77
861.212	16061.39
861.534	16105.45
861.855	15947.04
862.176	15998.79
862.498	15926.47
862.819	15957.43
863.14	15977.09
863.461	15766.03
863.782	15735.07
864.103	15747.95
864.424	15698.01
864.745	15820.71
865.065	15636.76
865.386	15564.22
865.707	15575.75
866.027	15607.84
866.348	15540.27
866.668	15600.38
866.989	15485.81
867.309	15379.82
867.63	15409.65
867.95	15376.66
868.27	15331.46
868.59	15293.04
868.91	15286.94
869.23	15266.83
869.55	15406.26
869.87	15293.72
870.19	15262.54
870.51	15261.18
870.83	15268.41
871.15	15179.37
871.469	15165.14
871.789	15154.74
872.109	15095.76
872.428	15080.39
872.748	15053.28
873.067	15085.37
873.386	15054.63
873.706	14987.06
874.025	14917.69
874.344	14911.36
874.663	15004.92
874.982	14878.59
875.301	14851.7
875.62	14778.48
875.939	14781.87
876.258	14750.91
876.577	14632.27
876.896	14735.54
877.214	14636.79
877.533	14675.89
877.852	14611.71
878.17	14609.45
878.489	14659.39
878.807	14539.17
879.125	14523.12
879.444	14465.5
879.762	14428.43
880.08	14492.39
880.398	14318.38
880.716	14433.86
881.034	14355.89
881.352	14322.9
881.67	14256.69
881.988	14330.81
882.306	14270.92
882.624	14176.92
882.941	14151.61
883.259	14139.4
883.577	14045.17
883.894	13958.39
884.212	14077.71
884.529	14001.78
884.846	13921.1
885.164	13905.51
885.481	13885.17
885.798	13884.27
886.115	13881.33
886.432	13834.78
886.75	13755.23
887.067	13725.4
887.383	13649.7
887.7	13682.01
888.017	13585.29
888.334	13662.13
888.651	13555.01
888.967	13530.83
889.284	13487.22
889.6	13418.29
889.917	13381.68
890.233	13402.25
890.55	13336.94
890.866	13293.1
891.182	13245.64
891.498	13228.69
891.815	13183.27
892.131	13112.08
892.447	13144.63
892.763	13035.02
893.079	12995.25
893.395	12979.88
893.71	12972.65
894.026	12854.01
894.342	12933.33
894.657	12789.83
894.973	12802.49
895.289	12807.69
895.604	12741.47
895.92	12655.83
896.235	12586.9
896.55	12550.07
896.865	12557.52
897.181	12526.34
897.496	12506.45
897.811	12399.33
898.126	12313.24
898.441	12340.81
898.756	12269.62
899.071	12250.41
899.386	12245.21
899.7	12084.77
900.015	12094.94
900.33	11931.78
900.644	12040.02
900.959	12048.84
901.273	11911.66
901.588	11892
901.902	11835.73
902.216	11759.8
902.531	11689.75
902.845	11769.52
903.159	11591.9
903.473	11562.97
903.787	11554.39
904.101	11426.71
904.415	11453.15
904.729	11423.09
905.042	11373.6
905.356	11304.45
905.67	11330.89
905.984	11294.28
906.297	11216.77
906.611	11160.05
906.924	11098.13
907.237	11051.8
907.551	11099.48
907.864	11020.39
908.177	10979.49
908.491	10905.36
908.804	10908.07
909.117	10847.74
909.43	10733.62
909.743	10664.01
910.056	10680.74
910.368	10640.51
910.681	10579.72
910.994	10498.59
911.307	10482.55
911.619	10447.52
911.932	10377.47
912.244	10346.06
912.557	10358.26
912.869	10279.84
913.181	10225.38
913.494	10228.54
913.806	10126.4
914.118	10144.03
914.43	10051.83
914.742	10018.83
915.054	10016.12
915.366	9958.95
915.678	9920.08
915.99	9803.92
916.302	9818.61
916.613	9704.72
916.925	9738.39
917.236	9669.46
917.548	9651.16
917.859	9603.02
918.171	9574.78
918.482	9569.8
918.794	9471.95
919.105	9477.83
919.416	9408.45
919.727	9393.31
920.038	9289.36
920.349	9294.33
920.66	9211.85
920.971	9262.69
921.282	9196.26
921.593	9082.81
921.903	9087.33
922.214	9022.47
922.525	8943.38
922.835	8960.1
923.146	8886.88
923.456	8824.97
923.767	8807.11
924.077	8853.21
924.387	8749.94
924.697	8738.19
925.008	8682.14
925.318	8711.75
925.628	8577.51
925.938	8641.92
926.248	8561.24
926.558	8506.1
926.867	8426.11
927.177	8424.98
927.487	8387.92
927.796	8309.05
928.106	8320.8
928.416	8254.59
928.725	8283.29
929.034	8219.78
929.344	8224.76
929.653	8189.95
929.962	8082.16
930.271	8032.44
930.581	8062.5
930.89	7971.2
931.199	7915.84
931.508	7944.54
931.817	7937.76
932.125	7840.58
932.434	7812.56
932.743	7772.56
933.051	7801.04
933.36	7757.65
933.669	7624.55
933.977	7651.21
934.286	7657.99
934.594	7570.99
934.902	7513.81
935.21	7481.95
935.519	7534.83
935.827	7501.61
936.135	7463.42
936.443	7417.55
936.751	7351.11
937.059	7276.53
937.367	7251
937.674	7245.35
937.982	7221.17
938.29	7179.59
938.597	7149.3
938.905	7102.53
939.213	7113.6
939.52	7035.63
939.827	7011.23
940.135	6991.34
940.442	6944.34
940.749	6958.8
941.056	6973.26
941.363	6853.49
941.67	6856.43
941.977	6771.69
942.284	6753.83
942.591	6727.17
942.898	6747.96
943.205	6670.9
943.511	6698.24
943.818	6645.14
944.125	6612.14
944.431	6522.88
944.738	6567.4
945.044	6521.07
945.35	6472.94
945.657	6478.81
945.963	6401.3
946.269	6369.44
946.575	6349.78
946.881	6309.78
947.187	6249.44
947.493	6255.77
947.799	6279.72
948.105	6168.09
948.41	6161.98
948.716	6149.1
949.022	6116.79
949.327	6098.94
949.633	6013.74
949.938	6071.14
950.244	6059.16
950.549	6028.2
950.854	5995.89
951.16	5937.13
951.465	5924.93
951.77	5885.38
952.075	5897.13
952.38	5813.75
952.685	5813.29
952.99	5775.33
953.294	5751.6
953.599	5655.78
953.904	5700.08
954.209	5658.27
954.513	5672.96
954.818	5586.86
955.122	5599.74
955.426	5588.21
955.731	5549.12
956.035	5547.76
956.339	5509.35
956.643	5529.91
956.948	5440.87
957.252	5412.85
957.556	5387.32
957.86	5329.69
958.163	5331.72
958.467	5350.71
958.771	5300.99
959.075	5288.56
959.378	5234.1
959.682	5236.81
959.985	5210.15
960.289	5169.02
960.592	5130.6
960.896	5199.3
961.199	5095.57
961.502	5080.88
961.805	5035.23
962.108	5009.02
962.411	4983.71
962.714	4999.3
963.017	4985.52
963.32	4971.96
963.623	4925.86
963.926	4927.22
964.228	4842.7
964.531	4843.38
964.833	4900.55
965.136	4799.53
965.438	4835.47
965.741	4791.63
966.043	4735.81
966.345	4720.44
966.648	4708.46
966.95	4653.55
967.252	4692.42
967.554	4636.83
967.856	4624.85
968.158	4604.74
968.46	4604.74
968.761	4546.21
969.063	4554.57
969.365	4457.17
969.666	4518.86
969.968	4411.75
970.269	4448.58
970.571	4431.63
970.872	4414.01
971.174	4392.09
971.475	4385.53
971.776	4354.57
972.077	4328.81
972.378	4304.18
972.679	4332.2
972.98	4276.84
973.281	4259.44
973.582	4249.94
973.883	4218.76
974.183	4222.15
974.484	4187.8
974.785	4191.19
975.085	4127.91
975.386	4126.11
975.686	4122.49
975.986	4081.59
976.287	4054.92
976.587	4021.25
976.887	3992.78
977.187	4068.25
977.487	4016.28
977.787	3963.4
978.087	3965.21
978.387	3972.21
978.687	3921.37
978.987	3883.4
979.286	3852.89
979.586	3902.38
979.885	3810.18
980.185	3811.99
980.484	3815.83
980.784	3824.42
981.083	3804.98
981.382	3752.78
981.682	3778.32
981.981	3732.67
982.28	3671.43
982.579	3640.92
982.878	3721.82
983.177	3654.25
983.475	3672.56
983.774	3610.19
984.073	3596.85
984.372	3599.11
984.67	3541.26
984.969	3570.87
985.267	3562.96
985.566	3532.68
985.864	3495.16
986.162	3498.33
986.461	3466.24
986.759	3483.64
987.057	3437.08
987.355	3430.31
987.653	3387.37
987.951	3423.07
988.249	3372.68
988.547	3384.43
988.844	3344.66
989.142	3348.27
989.44	3294.04
989.737	3317.54
990.035	3269.18
990.332	3221.27
990.63	3245.23
990.927	3240.93
991.224	3265.34
991.521	3201.61
991.819	3185.11
992.116	3200.03
992.413	3160.03
992.71	3118.68
993.006	3134.49
993.303	3117.55
993.6	3081.39
993.897	3071.44
994.193	3051.78
994.49	3060.37
994.787	3013.59
995.083	3035.29
995.379	3002.29
995.676	2989.41
995.972	2976.76
996.268	2953.71
996.565	2940.6
996.861	2884.1
997.157	2903.54
997.453	2925.91
997.749	2908.74
998.044	2883.43
998.34	2880.26
998.636	2884.33
998.932	2814.05
999.227	2786.93
999.523	2763.43
999.818	2759.81
1000.114	2764.11
1000.409	2751.91
1000.704	2689.99
1001	2718.91
1001.295	2722.3
1001.59	2687.73
1001.885	2647.5
1002.18	2664.22
1002.475	2662.42
1002.77	2611.34
1003.065	2573.6
1003.359	2595.75
1003.654	2569.54
1003.949	2558.46
1004.243	2562.08
1004.538	2533.15
1004.832	2509.88
1005.127	2509.88
1005.421	2480.73
1005.715	2455.42
1006.009	2447.73
1006.304	2470.1
1006.598	2433.72
1006.892	2409.77
1007.186	2407.06
1007.48	2402.76
1007.773	2363.67
1008.067	2356.21
1008.361	2342.2
1008.655	2322.54
1008.948	2298.81
1009.242	2321.41
1009.535	2274.63
1009.829	2267.4
1010.122	2231.69
1010.415	2243.44
1010.708	2215.87
1011.001	2200.96
1011.295	2219.04
1011.588	2190.56
1011.881	2194.41
1012.173	2151.24
1012.466	2161.64
1012.759	2140.85
1013.052	2128.87
1013.344	2100.4
1013.637	2101.98
1013.93	2079.83
1014.222	2048.42
1014.514	2115.99
1014.807	2028.99
1015.099	2021.75
1015.391	2041.19
1015.683	1996.9
1015.976	2028.53
1016.268	2005.26
1016.56	1961.42
1016.851	1958.48
1017.143	1958.93
1017.435	1927.75
1017.727	1903.79
1018.018	1928.65
1018.31	1921.19
1018.602	1901.98
1018.893	1886.17
1019.185	1866.05
1019.476	1847.52
1019.767	1818.14
1020.058	1809.78
1020.35	1791.03
1020.641	1779.95
1020.932	1768.2
1021.223	1777.47
1021.514	1739.28
1021.804	1753.97
1022.095	1746.06
1022.386	1732.5
1022.677	1710.12
1022.967	1699.73
1023.258	1675.55
1023.548	1671.71
1023.839	1688.43
1024.129	1655.66
1024.419	1642.56
1024.709	1631.48
1025	1634.42
1025.29	1614.53
1025.58	1603.23
1025.87	1555.1
1026.16	1571.37
1026.449	1572.28
1026.739	1563.91
1027.029	1558.72
1027.319	1526.85
1027.608	1509.68
1027.898	1511.49
1028.187	1492.28
1028.477	1494.09
1028.766	1487.53
1029.055	1469.45
1029.344	1440.75
1029.634	1452.28
1029.923	1441.43
1030.212	1435.1
1030.501	1418.38
1030.79	1402.79
1031.078	1416.57
1031.367	1414.31
1031.656	1367.31
1031.945	1354.43
1032.233	1349
1032.522	1334.54
1032.81	1322.79
1033.099	1320.08
1033.387	1315.78
1033.675	1320.53
1033.963	1301.32
1034.251	1297.48
1034.54	1276.24
1034.828	1293.86
1035.116	1275.56
1035.403	1263.58
1035.691	1248.89
1035.979	1247.54
1036.267	1258.38
1036.554	1251.83
1036.842	1230.36
1037.129	1243.24
1037.417	1189.69
1037.704	1218.61
1037.992	1183.13
1038.279	1178.16
1038.566	1157.37
1038.853	1157.37
1039.14	1157.37
