Data from white_steel_sheet_FLMS001491_007.txt Node
Date: Tue Feb 07 10:57:19 GMT 2017
User: dcchb
Spectrometer: FLMS00149
Trigger mode: 0
Integration Time (sec): 2.000000E-2
Scans to average: 10
Electric dark correction enabled: true
Nonlinearity correction enabled: false
Boxcar width: 0
XAxis mode: Wavelengths
Number of Pixels in Spectrum: 2048
>>>>>Begin Spectral Data<<<<<
341.393	-11.84
341.776	-11.84
342.16	-11.84
342.543	-76.24
342.927	-63.13
343.31	-79.18
343.693	-65.17
344.077	-76.01
344.46	-53.19
344.843	-43.25
345.226	-46.41
345.61	-37.15
345.993	-12.74
346.376	-12.74
346.759	17.77
347.142	41.04
347.525	40.59
347.908	54.38
348.291	85.11
348.674	96.86
349.057	90.08
349.44	139.35
349.823	153.58
350.206	152.68
350.588	181.15
350.971	220.7
351.354	239.23
351.737	250.08
352.119	263.64
352.502	282.17
352.884	288.5
353.267	285.78
353.65	320.13
354.032	313.81
354.414	321.49
354.797	331.43
355.179	322.84
355.562	338.44
355.944	358.78
356.326	339.79
356.709	355.84
357.091	369.85
357.473	345.22
357.855	342.51
358.238	360.81
358.62	343.64
359.002	330.98
359.384	368.04
359.766	352.22
360.148	362.17
360.53	358.32
360.912	361.49
361.294	324.88
361.676	337.99
362.057	342.96
362.439	342.96
362.821	354.71
363.203	344.31
363.584	341.6
363.966	335.95
364.348	308.83
364.729	324.65
365.111	356.29
365.493	342.28
365.874	318.1
366.256	323.3
366.637	340.25
367.019	325.56
367.4	324.65
367.781	337.53
368.163	326.23
368.544	333.92
368.925	341.83
369.306	333.69
369.688	305.22
370.069	320.36
370.45	323.07
370.831	345.67
371.212	331.21
371.593	319.45
371.974	321.71
372.355	336.4
372.736	351.77
373.117	341.83
373.498	345.22
373.879	343.86
374.26	334.6
374.641	338.89
375.021	357.65
375.402	352.67
375.783	321.26
376.163	369.62
376.544	353.58
376.925	325.56
377.305	341.38
377.686	367.14
378.066	368.95
378.447	352.22
378.827	355.84
379.208	345.44
379.588	339.79
379.968	357.87
380.349	359.68
380.729	373.01
381.109	367.59
381.489	364.43
381.87	364.43
382.25	392.45
382.63	381.37
383.01	372.79
383.39	364.88
383.77	385.89
384.15	384.54
384.53	386.57
384.91	382.28
385.29	398.32
385.67	386.12
386.049	394.03
386.429	389.06
386.809	402.16
387.189	378.21
387.568	421.15
387.948	416.85
388.328	407.36
388.707	410.07
389.087	417.31
389.466	440.81
389.846	411.88
390.225	426.57
390.605	403.97
390.984	426.34
391.363	445.33
391.743	436.97
392.122	459.11
392.501	431.99
392.881	436.97
393.26	450.07
393.639	462.95
394.018	454.14
394.397	456.85
394.776	477.42
395.155	459.34
395.534	490.3
395.913	507.02
396.292	490.07
396.671	511.77
397.05	499.56
397.429	517.42
397.808	522.39
398.186	503.86
398.565	525.33
398.944	539.34
399.323	548.6
399.701	562.39
400.08	560.35
400.458	587.24
400.837	573.23
401.215	562.61
401.594	580.69
401.972	595.83
402.351	573.91
402.729	593.8
403.107	618.2
403.486	629.73
403.864	661.14
404.242	640.12
404.62	637.64
404.999	640.58
405.377	643.74
405.755	696.17
406.133	678.09
406.511	689.84
406.889	694.81
407.267	700.24
407.645	723.06
408.023	740.23
408.401	770.29
408.779	732.78
409.156	760.12
409.534	782.72
409.912	789.27
410.29	801.7
410.667	823.85
411.045	816.62
411.422	849.38
411.8	855.71
412.178	850.51
412.555	858.42
412.933	898.65
413.31	885.54
413.687	932.32
414.065	914.92
414.442	933.22
414.819	955.82
415.197	945.88
415.574	1004.18
415.951	980.91
416.328	981.36
416.705	1015.48
417.082	1002.15
417.46	1025.88
417.837	1061.81
418.214	1034.92
418.591	1043.96
418.967	1064.29
419.344	1060
419.721	1101.58
420.098	1071.75
420.475	1090.06
420.852	1119.89
421.228	1161.47
421.605	1150.85
421.982	1165.76
422.358	1186.78
422.735	1157.17
423.111	1187.68
423.488	1208.7
423.864	1222.48
424.241	1237.62
424.617	1243.95
424.994	1253.22
425.37	1250.96
425.746	1250.28
426.123	1281.46
426.499	1308.13
426.875	1340.44
427.251	1341.12
427.627	1358.75
428.003	1367.79
428.379	1404.85
428.756	1397.62
429.132	1437.84
429.507	1449.14
429.883	1450.5
430.259	1493.44
430.635	1508.58
431.011	1521.68
431.387	1518.75
431.763	1557.61
432.138	1563.49
432.514	1604.17
432.89	1615.24
433.265	1638.74
433.641	1696.37
434.016	1663.6
434.392	1695.92
434.767	1720.77
435.143	1741.11
435.518	1748.12
435.894	1776.59
436.269	1786.76
436.644	1825.4
437.02	1835.8
437.395	1852.97
437.77	1890.49
438.145	1894.55
438.52	1928.9
438.895	1932.75
439.271	1954.44
439.646	1972.74
440.021	2001.44
440.395	2022.69
440.77	2005.29
441.145	2043.03
441.52	2039.41
441.895	2066.3
442.27	2111.95
442.645	2113.98
443.019	2154.43
443.394	2159.63
443.769	2142.46
444.143	2147.43
444.518	2182.91
444.892	2210.93
445.267	2189.69
445.641	2251.38
446.016	2245.73
446.39	2284.15
446.764	2299.52
447.139	2311.94
447.513	2340.87
447.887	2355.11
448.262	2344.71
448.636	2337.48
449.01	2389.91
449.384	2424.71
449.758	2433.3
450.132	2483.01
450.506	2520.75
450.88	2517.36
451.254	2509.23
451.628	2542.45
452.002	2556.23
452.376	2595.78
452.75	2640.52
453.123	2645.95
453.497	2678.49
453.871	2681.2
454.244	2771.82
454.618	2735.66
454.992	2827.19
455.365	2843.46
455.739	2894.98
456.112	2879.84
456.486	2946.5
456.859	2969.1
457.232	3023.56
457.606	3008.65
457.979	3118.48
458.352	3134.75
458.725	3171.13
459.099	3197.57
459.472	3215.2
459.845	3240.96
460.218	3322.77
460.591	3350.11
460.964	3328.19
461.337	3442.31
461.71	3486.38
462.083	3529.31
462.456	3499.26
462.829	3555.75
463.201	3602.98
463.574	3623.1
463.947	3713.49
464.32	3745.13
464.692	3799.59
465.065	3779.7
465.438	3856.09
465.81	3906.48
466.183	3966.14
466.555	4029.19
466.928	4100.82
467.3	4068.51
467.672	4129.52
468.045	4262.63
468.417	4230.76
468.789	4287.49
469.161	4346.47
469.534	4391.44
469.906	4499.91
470.278	4536.29
470.65	4595.05
471.022	4680.7
471.394	4767.7
471.766	4807.47
472.138	4836.4
472.51	4956.85
472.882	5020.12
473.253	5043.17
473.625	5113.23
473.997	5271.42
474.369	5319.32
474.74	5304.18
475.112	5470.51
475.484	5536.72
475.855	5597.51
476.227	5677.51
476.598	5838.86
476.97	5872.53
477.341	5984.62
477.713	6052.86
478.084	6154.33
478.455	6317.04
478.827	6315.91
479.198	6510.48
479.569	6561.55
479.94	6726.52
480.311	6805.39
480.682	6873.63
481.053	7054.87
481.424	7168.77
481.795	7214.19
482.166	7383.68
482.537	7512.94
482.908	7657.34
483.279	7720.62
483.65	7941.4
484.021	8036.77
484.391	8069.76
484.762	8229.08
485.133	8249.87
485.503	8417.55
485.874	8519.24
486.244	8690.53
486.615	8819.8
486.985	8914.94
487.356	9056.4
487.726	9129.17
488.097	9377.97
488.467	9443.06
488.837	9577.29
489.207	9707
489.578	9893.44
489.948	9929.82
490.318	10073.55
490.688	10072.19
491.058	10306.76
491.428	10360.09
491.798	10546.98
492.168	10716.7
492.538	10767.32
492.908	10889.8
493.278	11041.66
493.648	11094.54
494.017	11231.26
494.387	11348.32
494.757	11347.87
495.126	11587.18
495.496	11616.56
495.866	11718.7
496.235	11874.18
496.605	12036.43
496.974	11995.31
497.344	12107.62
497.713	12246.6
498.082	12339.03
498.452	12452.02
498.821	12463.09
499.19	12594.39
499.559	12687.04
499.928	12830.09
500.298	12899.92
500.667	12986.69
501.036	13018.56
501.405	13182.39
501.774	13259.23
502.143	13384.2
502.512	13451.99
502.88	13520.69
503.249	13555.04
503.618	13693.79
503.987	13715.94
504.356	13884.75
504.724	14010.85
505.093	14004.52
505.462	14134.91
505.83	14268.92
506.199	14330.16
506.567	14568.57
506.936	14495.35
507.304	14682.02
507.672	14786.87
508.041	14813.09
508.409	14944.16
508.777	15185.05
509.145	15162.91
509.514	15194.09
509.882	15456.23
510.25	15470.69
510.618	15601.99
510.986	15746.62
511.354	15816.45
511.722	15892.38
512.09	16165.82
512.458	16133.5
512.826	16320.16
513.193	16380.28
513.561	16453.95
513.929	16676.54
514.297	16805.12
514.664	16981.84
515.032	16988.85
515.4	17082.63
515.767	17262.74
516.135	17296.18
516.502	17316.97
516.869	17644.2
517.237	17680.81
517.604	17663.63
517.972	17994.47
518.339	18111.53
518.706	18121.7
519.073	18134.35
519.44	18460.9
519.808	18593.1
520.175	18587.68
520.542	18861.11
520.909	18976.82
521.276	18984.05
521.643	19206.64
522.009	19414.77
522.376	19564.6
522.743	19604.37
523.11	19929.33
523.477	20066.73
523.843	20071.03
524.21	20332.04
524.577	20463.78
524.943	20647.51
525.31	20717.11
525.676	21012.7
526.043	21159.13
526.409	21237.77
526.776	21508.73
527.142	21539.01
527.508	21671.66
527.874	21909.85
528.241	21992.11
528.607	22031.2
528.973	22300.8
529.339	22209.05
529.705	22557.74
530.071	22645.2
530.437	22759.32
530.803	22971.97
531.169	23087.44
531.535	23091.29
531.901	23210.83
532.267	23364.27
532.632	23582.35
532.998	23618.5
533.364	23720.42
533.73	23846.29
534.095	24065.72
534.461	24098.72
534.826	24273.85
535.192	24449.22
535.557	24472.04
535.923	24576.22
536.288	24599.72
536.653	24766.95
537.019	24707.97
537.384	24933.5
537.749	25080.39
538.114	25110.67
538.479	25199.03
538.845	25249.65
539.21	25232.92
539.575	25486.02
539.94	25529.87
540.305	25698
540.67	25705.68
541.034	25850.99
541.399	26006.92
541.764	25934.15
542.129	26118.32
542.494	26251.43
542.858	26211.2
543.223	26268.83
543.587	26476.06
543.952	26530.74
544.316	26800.57
544.681	26584.75
545.045	26910.62
545.41	26990.17
545.774	27058.86
546.138	27038.3
546.503	27175.47
546.867	27182.25
547.231	27435.8
547.595	27530.04
547.959	27555.35
548.324	27680.54
548.688	27766.42
549.052	27911.72
549.416	27918.96
549.779	27881.44
550.143	27908.56
550.507	28264.03
550.871	28244.14
551.235	28325.95
551.599	28471.03
551.962	28515.78
552.326	28715.32
552.689	28833.28
553.053	28707.63
553.417	28906.95
553.78	29188.75
554.143	29178.58
554.507	29216.77
554.87	29407.5
555.234	29607.95
555.597	29588.97
555.96	29641.85
556.323	29875.51
556.686	29840.49
557.05	30092.91
557.413	30186.92
557.776	30263.3
558.139	30525.21
558.502	30472.11
558.865	30529.96
559.228	30920.91
559.59	30921.14
559.953	31014.24
560.316	31290.17
560.679	31180.79
561.041	31513.44
561.404	31609.48
561.767	31789.14
562.129	31728.8
562.492	32122.23
562.854	32029.81
563.217	32169.92
563.579	32226.64
563.941	32458.95
564.304	32601.09
564.666	32770.35
565.028	32903.46
565.39	32952.27
565.753	33197.91
566.115	33197.01
566.477	33438.13
566.839	33523.1
567.201	33652.59
567.563	33677.9
567.925	33879.48
568.287	33962.41
568.648	33990.21
569.01	34250.09
569.372	34440.82
569.734	34221.84
570.095	34588.16
570.457	34824.54
570.819	34827.7
571.18	34725.33
571.542	34975.27
571.903	34968.26
572.265	35158.31
572.626	35248.71
572.987	35305.88
573.349	35536.16
573.71	35521.24
574.071	35599.21
574.432	35706.1
574.794	36014.11
575.155	35875.58
575.516	35861.8
575.877	35954.9
576.238	36130.72
576.599	36241.67
576.96	36170.72
577.32	36172.75
577.681	36372.07
578.042	36399.86
578.403	36441.44
578.763	36567.77
579.124	36498.62
579.485	36620.65
579.845	36704.49
580.206	36539.97
580.566	36676.92
580.927	36732.51
581.287	36851.83
581.648	36695
582.008	36894.76
582.368	36858.16
582.728	36869.68
583.089	36842.56
583.449	36854.77
583.809	37014.54
584.169	36943.8
584.529	36807.31
584.889	37167.98
585.249	36829.23
585.609	36800.53
585.969	37073.74
586.329	36900.87
586.688	37073.74
587.048	36951.03
587.408	36765.73
587.768	36993.07
588.127	36946.51
588.487	36902.67
588.846	37343.57
589.206	36870.36
589.565	36930.92
589.925	37123.46
590.284	37010.47
590.643	37064.93
591.003	37217.24
591.362	37251.14
591.721	37158.49
592.08	37148.32
592.44	37284.81
592.799	37232.61
593.158	37010.69
593.517	37018.15
593.876	37184.7
594.235	37036
594.593	37181.99
594.952	37224.93
595.311	36985.16
595.67	37109.67
596.029	37405.94
596.387	37281.19
596.746	37421.98
597.104	37228.09
597.463	37237.13
597.822	37440.74
598.18	37206.62
598.538	37205.04
598.897	37434.64
599.255	37212.27
599.613	37753.5
599.972	37527.29
600.33	37464.47
600.688	37184.02
601.046	37415.65
601.404	37607.97
601.762	37443
602.12	37643.67
602.478	37552.15
602.836	37500.85
603.194	37400.29
603.552	37518.02
603.91	37345.15
604.268	37489.55
604.625	37397.8
604.983	37597.8
605.341	37449.1
605.698	37619.49
606.056	37765.48
606.413	37761.63
606.771	37709.88
607.128	37840.5
607.485	37640.73
607.843	37800.5
608.2	37810.9
608.557	37875.98
608.914	37806.83
609.272	38019.93
609.629	37967.73
609.986	38169.53
610.343	38024.45
610.7	38238.91
611.057	38225.12
611.414	38214.73
611.771	38238.68
612.127	38296.08
612.484	38350.09
612.841	38460.82
613.198	38380.6
613.554	38365.69
613.911	38472.58
614.267	38512.57
614.624	38418.34
614.98	38500.6
615.337	38781.49
615.693	38633.25
616.05	38624.66
616.406	38809.06
616.762	38774.94
617.118	38772
617.475	38638.9
617.831	38877.31
618.187	38883.41
618.543	38906.91
618.899	39186.68
619.255	39061.04
619.611	39054.48
619.967	39058.78
620.323	39406.56
620.678	39075.72
621.034	38976.07
621.39	39071.2
621.746	38924.99
622.101	39296.06
622.457	39054.48
622.812	39238.66
623.168	39323.18
623.523	39275.94
623.879	39333.34
624.234	39061.49
624.589	39196.85
624.945	39305.55
625.3	39231.2
625.655	39391.65
626.01	39361.37
626.365	39367.02
626.72	39319.79
627.075	39205.66
627.43	39044.99
627.785	39132.9
628.14	39172.9
628.495	39235.49
628.85	39150.07
629.205	38948.04
629.559	39118.66
629.914	38959.79
630.269	39101.71
630.623	38964.31
630.978	38930.42
631.332	38947.59
631.687	39120.02
632.041	38818.33
632.396	39037.08
632.75	38956.41
633.104	38869.63
633.459	38627.15
633.813	38686.58
634.167	38546.02
634.521	38569.75
634.875	38744.43
635.229	38549.18
635.583	38471.45
635.937	38640.48
636.291	38291.11
636.645	38393.93
636.999	38191.23
637.352	38403.65
637.706	38103.77
638.06	38280.49
638.413	38187.61
638.767	38013.83
639.121	38149.87
639.474	37853.61
639.828	37851.12
640.181	37967.28
640.534	37955.53
640.888	37782.2
641.241	37586.72
641.594	37677.12
641.947	37652.26
642.301	37599.38
642.654	37633.73
643.007	37527.06
643.36	37567.97
643.713	37563.22
644.066	37711.01
644.419	37361.87
644.771	37086.4
645.124	36850.02
645.477	36657.48
645.83	36545.62
646.182	36365.51
646.535	36176.14
646.888	36300.43
647.24	36202.35
647.593	36351.95
647.945	36264.72
648.298	36120.77
648.65	36061.57
649.002	35966.43
649.355	36005.75
649.707	35883.04
650.059	35993.09
650.411	36490.26
650.763	36483.48
651.115	37054.53
651.467	36656.13
651.819	36758.27
652.171	36680.53
652.523	36618.16
652.875	36642.57
653.227	36495.45
653.578	36667.2
653.93	36462.69
654.282	36330.71
654.633	36382.91
654.985	36377.72
655.337	36372.74
655.688	36317.15
656.039	36442.57
656.391	36165.07
656.742	36174.78
657.094	36070.61
657.445	36247.1
657.796	36158.96
658.147	36146.31
658.498	36098.63
658.849	36095.46
659.2	36021.57
659.551	35898.63
659.902	36064.73
660.253	35800.56
660.604	35853.89
660.955	35715.36
661.306	35728.92
661.656	35716.04
662.007	35732.54
662.358	35697.96
662.708	35777.05
663.059	35598.53
663.409	35334.81
663.76	35527.34
664.11	35505.2
664.461	35484.18
664.811	35396.95
665.161	35440.57
665.511	35177.3
665.862	35221.36
666.212	35368.7
666.562	35196.96
666.912	35131.65
667.262	34847.59
667.612	34838.32
667.962	34839.68
668.312	34785.89
668.662	34882.16
669.011	34749.96
669.361	34670.64
669.711	34430.65
670.06	34456.64
670.41	34270.2
670.76	34222.52
671.109	34289.41
671.459	34139.36
671.808	34223.87
672.157	34132.58
672.507	33923.77
672.856	33822.75
673.205	33813.26
673.554	33862.3
673.904	33674.51
674.253	33856.88
674.602	33758.35
674.951	33214.86
675.3	33023.91
675.649	33546.6
675.998	33456.89
676.346	33400.62
676.695	33595.64
677.044	33316.55
677.393	33332.82
677.741	33337.8
678.09	33214.41
678.438	33211.02
678.787	33198.14
679.135	33314.52
679.484	33144.35
679.832	33318.36
680.181	33051.25
680.529	33073.17
680.877	32940.74
681.225	32961.76
681.573	33297.57
681.922	33054.64
682.27	33108.2
682.618	33031.36
682.966	33034.53
683.314	32971.93
683.661	32987.3
684.009	32872.05
684.357	32972.83
684.705	32834.53
685.053	33013.28
685.4	32897.81
685.748	32785.49
686.095	32824.59
686.443	32789.11
686.79	32857.13
687.138	32801.09
687.485	32937.35
687.832	32694.42
688.18	32921.31
688.527	32792.05
688.874	32799.5
689.221	32775.78
689.568	32628.66
689.915	32737.13
690.262	32538.27
690.609	32573.3
690.956	32410.59
691.303	32553.86
691.65	32375.34
691.997	32537.36
692.344	32392.28
692.69	32242.46
693.037	32198.39
693.383	32109.58
693.73	32243.81
694.077	32073.87
694.423	32058.51
694.769	32047.89
695.116	31972.41
695.462	32075
695.808	31869.81
696.155	31906.19
696.501	31777.84
696.847	31708.91
697.193	31644.05
697.539	31649.25
697.885	31484.06
698.231	31403.16
698.577	31511.63
698.923	31345.76
699.269	31208.13
699.614	31196.16
699.96	31181.69
700.306	31172.88
700.651	30990.29
700.997	30813.79
701.342	30730.41
701.688	30866.22
702.033	30752.55
702.379	30703.97
702.724	30696.74
703.069	30725.66
703.415	30357.08
703.76	30335.61
704.105	30283.64
704.45	30327.71
704.795	30179.46
705.14	30115.51
705.485	30082.51
705.83	29885.68
706.175	29925.68
706.52	29713.03
706.865	29618.35
707.209	29641.62
707.554	29617.67
707.899	29685.46
708.243	29555.07
708.588	29405.7
708.932	29298.58
709.277	29238.24
709.621	29303.78
709.966	29145.59
710.31	29155.76
710.654	28853.62
710.998	29056.55
711.342	28967.29
711.687	28857.46
712.031	28824.92
712.375	28704.92
712.719	28726.84
713.063	28563.46
713.407	28640.07
713.75	28518.94
714.094	28420.64
714.438	28370.47
714.782	28313.97
715.125	28232.39
715.469	28342.9
715.812	28037.37
716.156	28033.53
716.499	28126.63
716.843	28050.7
717.186	27880.54
717.53	27952.4
717.873	27888.22
718.216	27957.6
718.559	27701.79
718.902	27604.16
719.246	27714.67
719.589	27629.25
719.932	27476.48
720.275	27474.45
720.617	27410.04
720.96	27471.06
721.303	27499.31
721.646	27389.93
721.989	27197.17
722.331	27130.28
722.674	27163.72
723.016	27127.79
723.359	27196.94
723.701	27167.56
724.044	26950.85
724.386	26850.96
724.729	26916.5
725.071	26841.92
725.413	26862.71
725.755	26770.96
726.097	26728.93
726.439	26658.88
726.782	26490.29
727.124	26636.28
727.465	26543.17
727.807	26546.79
728.149	26463.85
728.491	26417.75
728.833	26452.1
729.175	26319.9
729.516	26279.45
729.858	26227.7
730.199	26290.52
730.541	26168.94
730.882	26091.66
731.224	26196.97
731.565	25966.01
731.906	25921.72
732.248	25938.89
732.589	25880.82
732.93	25771.89
733.271	25718.56
733.612	25894.38
733.953	25780.48
734.294	25702.74
734.635	25585.68
734.976	25778.22
735.317	25606.47
735.658	25538.9
735.999	25539.81
736.339	25454.39
736.68	25564.21
737.021	25471.34
737.361	25322.87
737.702	25393.15
738.042	25362.19
738.383	25314.5
738.723	25369.64
739.063	25139.59
739.404	25181.17
739.744	25050.56
740.084	25077.9
740.424	25115.87
740.764	24968.98
741.104	25113.83
741.444	24973.72
741.784	24823.67
742.124	24937.11
742.464	24878.36
742.804	24795.2
743.143	24781.86
743.483	24819.38
743.823	24701.86
744.162	24539.38
744.502	24601.08
744.841	24602.66
745.181	24537.35
745.52	24490.8
745.86	24548.2
746.199	24424.58
746.538	24413.51
746.877	24303.91
747.216	24268.2
747.556	24390.01
747.895	24287.41
748.234	24124.7
748.573	24114.31
748.911	24139.62
749.25	23958.83
749.589	23960.87
749.928	23999.28
750.267	23913.86
750.605	23894.2
750.944	23889.23
751.283	23671.38
751.621	23812.85
751.96	23680.2
752.298	23672.74
752.636	23643.81
752.975	23592.97
753.313	23529.92
753.651	23454.89
753.989	23343.48
754.327	23368.57
754.666	23151.4
755.004	23271.62
755.342	23215.35
755.679	23140.32
756.017	23053.77
756.355	22981.01
756.693	23045.64
757.031	22935.58
757.368	22842.03
757.706	22843.38
758.044	22761.58
758.381	22788.24
758.719	22679.32
759.056	22555.25
759.394	22519.78
759.731	22443.17
760.068	22381.7
760.405	22317.07
760.743	22255.6
761.08	22266
761.417	22094.25
761.754	22138.99
762.091	22032.56
762.428	21841.6
762.765	21937.87
763.102	21799.79
763.438	21761.15
763.775	21494.72
764.112	21658.33
764.449	21586.92
764.785	21477.09
765.122	21362.74
765.458	21286.14
765.795	21284.33
766.131	21221.05
766.467	21167.04
766.804	20969.76
767.14	20889.99
767.476	20880.27
767.812	20840.72
768.148	20743.78
768.485	20701.74
768.821	20597.34
769.157	20493.84
769.492	20522.99
769.828	20536.32
770.164	20243.45
770.5	20319.83
770.836	20271.47
771.171	20170.01
771.507	20105.15
771.842	20065.15
772.178	20044.59
772.513	19952.84
772.849	19814.76
773.184	19813.41
773.519	19756.01
773.855	19586.07
774.19	19461.55
774.525	19539.97
774.86	19451.83
775.195	19424.26
775.53	19315.34
775.865	19201.22
776.2	19008.91
776.535	18969.36
776.87	19012.07
777.205	18853.2
777.539	18859.98
777.874	18816.37
778.209	18675.13
778.543	18645.07
778.878	18454.57
779.212	18531.63
779.547	18465.19
779.881	18417.51
780.215	18271.98
780.55	18225.65
780.884	18190.4
781.218	18149.04
781.552	18055.26
781.886	17963.28
782.22	17921.25
782.554	17859.56
782.888	17653.69
783.222	17633.12
783.556	17592.67
783.889	17567.59
784.223	17441.49
784.557	17270.2
784.89	17402.85
785.224	17268.61
785.557	17127.6
785.891	17177.09
786.224	17111.56
786.558	17120.14
786.891	16972.58
787.224	16841.96
787.557	16844.44
787.891	16808.06
788.224	16776.65
788.557	16697.78
788.89	16659.82
789.223	16738.23
789.556	16526.49
789.888	16522.87
790.221	16375.53
790.554	16239.26
790.887	16273.61
791.219	16154.29
791.552	16183.44
791.884	16197.23
792.217	16074.29
792.549	16051.7
792.882	15893.51
793.214	15835.21
793.546	15930.57
793.879	15749.78
794.211	15644.93
794.543	15668.43
794.875	15633.4
795.207	15644.25
795.539	15619.17
795.871	15548.21
796.203	15427.76
796.535	15365.39
796.867	15308.89
797.198	15246.52
797.53	15180.31
797.862	15093.08
798.193	15135.56
798.525	15073.64
798.856	15132.85
799.188	14916.59
799.519	14851.05
799.85	14806.08
800.182	14730.83
800.513	14840.65
800.844	14639.53
801.175	14678.85
801.506	14772.41
801.837	14568.57
802.168	14632.07
802.499	14463.04
802.83	14542.81
803.161	14427.78
803.491	14416.71
803.822	14374.45
804.153	14296.71
804.483	14165.87
804.814	14164.29
805.145	14113.22
805.475	14124.52
805.805	14054.23
806.136	14087.68
806.466	13999.77
806.796	13988.02
807.126	13824.18
807.457	13858.53
807.787	13907.35
808.117	13741.7
808.447	13725.2
808.777	13686.79
809.107	13707.13
809.436	13657.18
809.766	13605.66
810.096	13590.97
810.426	13446.34
810.755	13456.51
811.085	13465.1
811.414	13451.31
811.744	13315.72
812.073	13335.61
812.403	13386.23
812.732	13214.26
813.061	13201.15
813.39	13227.36
813.719	13151.66
814.049	13227.36
814.378	13186.91
814.707	13041.15
815.036	13061.94
815.365	12945.79
815.693	12899.01
816.022	12902.63
816.351	12859.46
816.68	12877.54
817.008	12862.63
817.337	12619.24
817.665	12638.9
817.994	12752.57
818.322	12649.3
818.651	12598.45
818.979	12598.68
819.307	12609.53
819.636	12555.52
819.964	12485.24
820.292	12515.52
820.62	12466.25
820.948	12488.4
821.276	12513.94
821.604	12521.85
821.932	12551.22
822.259	12480.94
822.587	12452.7
822.915	12432.81
823.243	12454.5
823.57	12400.04
823.898	12440.94
824.225	12388.06
824.553	12407.5
824.88	12358.01
825.207	12396.2
825.535	12327.5
825.862	12413.83
826.189	12358.69
826.516	12364.79
826.843	12393.26
827.17	12389.19
827.497	12455.63
827.824	12439.14
828.151	12449.76
828.478	12338.8
828.805	12422.19
829.131	12365.24
829.458	12322.3
829.785	12235.98
830.111	12282.98
830.438	12407.5
830.764	12351.91
831.09	12339.48
831.417	12282.98
831.743	12299.48
832.069	12306.71
832.395	12228.29
832.722	12344.45
833.048	12230.33
833.374	12234.62
833.7	12219.93
834.026	12186.94
834.351	12232.59
834.677	12243.21
835.003	12226.26
835.329	12219.71
835.654	12232.59
835.98	12109.2
836.306	12193.04
836.631	12084.8
836.956	12165.47
837.282	12071.01
837.607	11972.71
837.932	12032.82
838.258	12014.97
838.583	11984.46
838.908	11912.37
839.233	12018.81
839.558	11924.12
839.883	11885.03
840.208	11860.85
840.533	11800.28
840.858	11806.38
841.182	11854.07
841.507	11770.68
841.832	11614.3
842.156	11680.51
842.481	11750.34
842.805	11687.97
843.13	11651.59
843.454	11668.31
843.778	11547.63
844.103	11537.92
844.427	11501.99
844.751	11507.86
845.075	11446.17
845.399	11403.91
845.723	11452.72
846.047	11363.46
846.371	11223.8
846.695	11264.03
847.019	11164.59
847.343	11185.38
847.666	11135.44
847.99	11055.44
848.313	11122.79
848.637	11014.09
848.96	10957.37
849.284	10978.16
849.607	10951.94
849.931	10827.2
850.254	10833.08
850.577	10771.84
850.9	10671.95
851.223	10596.47
851.546	10589.47
851.869	10478.28
852.192	10655
852.515	10523.48
852.838	10431.28
853.161	10462.01
853.483	10386.31
853.806	10364.16
854.129	10360.32
854.451	10314.22
854.774	10220.89
855.096	10197.39
855.419	10227.22
855.741	10214.56
856.063	10097.28
856.385	10092.76
856.708	10102.02
857.03	10040.33
857.352	10029.48
857.674	9937.06
857.996	9920.78
858.318	9871.97
858.64	9900.45
858.961	9855.7
859.283	9843.95
859.605	9769.15
859.926	9781.8
860.248	9765.99
860.57	9703.39
860.891	9718.76
861.212	9715.37
861.534	9660
861.855	9586.1
862.176	9647.35
862.498	9660.9
862.819	9672.88
863.14	9593.11
863.461	9519.89
863.782	9502.49
864.103	9506.11
864.424	9454.58
864.745	9532.32
865.065	9446.67
865.386	9393.34
865.707	9436.96
866.027	9430.63
866.348	9360.12
866.668	9377.52
866.989	9340.91
867.309	9307.02
867.63	9309.73
867.95	9270.41
868.27	9305.43
868.59	9283.29
868.91	9260.01
869.23	9205.32
869.55	9183.4
869.87	9205.1
870.19	9176.62
870.51	9165.78
870.83	9234.02
871.15	9114.48
871.469	9172.78
871.789	9135.95
872.109	9099.11
872.428	9065.67
872.748	9095.72
873.067	9060.69
873.386	9116.74
873.706	8976.63
874.025	8897.08
874.344	8918.32
874.663	8992.67
874.982	8909.96
875.301	8930.98
875.62	8957.65
875.939	8864.31
876.258	8883.07
876.577	8808.72
876.896	8831.55
877.214	8789.06
877.533	8841.72
877.852	8852.11
878.17	8752.91
878.489	8764.66
878.807	8843.98
879.125	8839.46
879.444	8764.43
879.762	8683.98
880.08	8728.73
880.398	8751.32
880.716	8674.26
881.034	8650.54
881.352	8660.93
881.67	8638.56
881.988	8625.9
882.306	8613.47
882.624	8610.08
882.941	8547.04
883.259	8434.5
883.577	8523.76
883.894	8507.94
884.212	8467.49
884.529	8467.04
884.846	8425.68
885.164	8473.36
885.481	8350.66
885.798	8453.03
886.115	8366.93
886.432	8373.71
886.75	8319.24
887.067	8303.88
887.383	8246.93
887.7	8290.09
888.017	8233.82
888.334	8240.6
888.651	8166.93
888.967	8178.01
889.284	8154.73
889.6	8148.4
889.917	8092.13
890.233	8068.86
890.55	8073.83
890.866	8082.64
891.182	8028.18
891.498	7995.41
891.815	8006.48
892.131	7931.91
892.447	7909.54
892.763	7843.55
893.079	7837.22
893.395	7783.67
893.71	7877.67
894.026	7821.86
894.342	7770.78
894.657	7711.12
894.973	7728.98
895.289	7746.15
895.604	7716.1
895.92	7682.2
896.235	7710.9
896.55	7631.35
896.865	7606.04
897.181	7548.19
897.496	7538.7
897.811	7452.37
898.126	7478.14
898.441	7448.98
898.756	7396.56
899.071	7377.8
899.386	7404.01
899.7	7270.46
900.015	7301.19
900.33	7265.94
900.644	7239.72
900.959	7221.42
901.273	7227.07
901.588	7189.1
901.902	7149.33
902.216	7103.68
902.531	7139.61
902.845	7078.83
903.159	7013.06
903.473	7000.64
903.787	6948.66
904.101	6975.55
904.415	6873.86
904.729	6894.65
905.042	6877.93
905.356	6831.15
905.67	6856.46
905.984	6819.17
906.297	6781.43
906.611	6746.86
906.924	6733.52
907.237	6663.02
907.551	6686.75
907.864	6639.06
908.177	6632.96
908.491	6628.44
908.804	6564.04
909.117	6543.92
909.43	6465.96
909.743	6496.47
910.056	6486.3
910.368	6425.73
910.681	6403.81
910.994	6385.74
911.307	6409.01
911.619	6314.1
911.932	6354.1
912.244	6323.59
912.557	6279.3
912.869	6275.91
913.181	6198.17
913.494	6239.98
913.806	6200.2
914.118	6187.78
914.43	6122.69
914.742	6115.01
915.054	6126.08
915.366	6039.53
915.678	6024.62
915.99	6006.09
916.302	5988.23
916.613	5944.84
916.925	5927.67
917.236	5959.08
917.548	5897.16
917.859	5861.23
918.171	5844.73
918.482	5829.14
918.794	5790.05
919.105	5785.53
919.416	5699.65
919.727	5780.1
920.038	5714.34
920.349	5683.38
920.66	5652.42
920.971	5649.94
921.282	5614.46
921.593	5578.3
921.903	5518.19
922.214	5483.16
922.525	5498.53
922.835	5484.74
923.146	5496.49
923.456	5449.94
923.767	5424.18
924.077	5421.47
924.387	5378.98
924.697	5320.45
925.008	5284.75
925.318	5265.09
925.628	5303.5
925.938	5221.92
926.248	5232.09
926.558	5208.82
926.867	5224.41
927.177	5189.84
927.487	5159.78
927.796	5106.45
928.106	5134.92
928.416	5102.61
928.725	5099.67
929.034	5023.74
929.344	5053.57
929.653	5014.92
929.962	4952.78
930.271	4988.94
930.581	4916.85
930.89	4920.46
931.199	4867.13
931.508	4883.63
931.817	4870.97
932.125	4879.79
932.434	4771.99
932.743	4793.91
933.051	4772.67
933.36	4735.84
933.669	4706.01
933.977	4728.15
934.286	4664.43
934.594	4675.05
934.902	4632.34
935.21	4622.84
935.519	4591.43
935.827	4642.51
936.135	4625.56
936.443	4526.12
936.751	4564.77
937.059	4511.44
937.367	4472.57
937.674	4475.96
937.982	4440.7
938.29	4482.28
938.597	4432.57
938.905	4409.74
939.213	4347.82
939.52	4322.29
939.827	4372.23
940.135	4320.71
940.442	4298.79
940.749	4326.36
941.056	4226.24
941.363	4178.56
941.67	4223.08
941.977	4223.08
942.284	4200.48
942.591	4158.22
942.898	4166.13
943.205	4160.03
943.511	4127.72
943.818	4133.37
944.125	4062.41
944.431	4072.35
944.738	4018.11
945.044	4059.7
945.35	4003.88
945.657	4009.98
945.963	3966.59
946.269	3972.24
946.575	3972.69
946.881	3963.65
947.187	3898.12
947.493	3901.51
947.799	3880.49
948.105	3814.5
948.41	3811.57
948.716	3848.85
949.022	3854.96
949.327	3811.11
949.633	3733.6
949.938	3744.22
950.244	3773.6
950.549	3714.85
950.854	3737.67
951.16	3708.07
951.465	3680.72
951.77	3673.04
952.075	3652.02
952.38	3641.85
952.685	3648.63
952.99	3635.98
953.294	3550.78
953.599	3574.28
953.904	3562.76
954.209	3540.39
954.513	3540.16
954.818	3514.85
955.122	3462.88
955.426	3500.84
955.731	3462.2
956.035	3452.03
956.339	3470.56
956.643	3450.67
956.948	3420.84
957.252	3378.58
957.556	3390.79
957.86	3388.75
958.163	3312.14
958.467	3378.81
958.771	3306.95
959.075	3295.65
959.378	3273.95
959.682	3300.85
959.985	3275.99
960.289	3261.07
960.592	3268.98
960.896	3239.6
961.199	3190.11
961.502	3204.35
961.805	3185.14
962.108	3168.19
962.411	3186.5
962.714	3120.29
963.017	3146.95
963.32	3148.98
963.623	3090
963.926	3077.57
964.228	3097.01
964.531	3065.6
964.833	3079.61
965.136	3020.17
965.438	3038.48
965.741	3053.62
966.043	3039.84
966.345	2991.7
966.648	2996.22
966.95	2968.65
967.252	2953.74
967.554	2939.27
967.856	2937.24
968.158	2908.77
968.46	2897.24
968.761	2871.48
969.063	2843.46
969.365	2855.66
969.666	2886.17
969.968	2828.77
970.269	2815.21
970.571	2830.35
970.872	2809.78
971.174	2798.94
971.475	2757.13
971.776	2759.16
972.077	2736.57
972.378	2700.64
972.679	2758.49
972.98	2702.44
973.281	2704.93
973.582	2708.32
973.883	2681.43
974.183	2675.55
974.484	2671.26
974.785	2646.4
975.085	2612.73
975.386	2638.72
975.686	2637.36
975.986	2579.28
976.287	2573.63
976.587	2560.98
976.887	2593.07
977.187	2591.26
977.487	2563.46
977.787	2544.48
978.087	2545.39
978.387	2529.11
978.687	2515.1
978.987	2485.73
979.286	2463.35
979.586	2466.52
979.885	2445.73
980.185	2460.87
980.484	2413.19
980.784	2432.85
981.083	2414.77
981.382	2420.42
981.682	2414.77
981.981	2371.83
982.28	2344.26
982.579	2360.98
982.878	2364.15
983.177	2339.74
983.475	2374.32
983.774	2309.01
984.073	2302.91
984.372	2295.22
984.67	2286.18
984.969	2288.67
985.267	2273.3
985.566	2272.85
985.864	2263.58
986.162	2250.93
986.461	2232.85
986.759	2212.06
987.057	2171.61
987.355	2190.37
987.653	2187.88
987.951	2151.27
988.249	2203.25
988.547	2149.46
988.844	2143.81
989.142	2172.51
989.44	2145.85
989.737	2091.61
990.035	2093.65
990.332	2120.54
990.63	2084.15
990.927	2075.34
991.224	2073.76
991.521	2098.62
991.819	2027.21
992.116	2035.34
992.413	2065.62
992.71	2030.82
993.006	2045.29
993.303	2019.3
993.6	1996.02
993.897	1992.63
994.193	2003.25
994.49	1979.52
994.787	1952.63
995.083	1956.47
995.379	1931.39
995.676	1927.55
995.972	1963.25
996.268	1934.55
996.565	1906.98
996.861	1904.5
997.157	1911.5
997.453	1880.77
997.749	1836.03
998.044	1880.54
998.34	1847.78
998.636	1846.19
998.932	1840.77
999.227	1801.9
999.523	1838.96
999.818	1783.6
1000.114	1788.34
1000.409	1792.64
1000.704	1774.56
1001	1751.96
1001.295	1789.47
1001.59	1789.47
1001.885	1751.51
1002.18	1728.01
1002.475	1762.58
1002.77	1721
1003.065	1706.31
1003.359	1709.25
1003.654	1736.37
1003.949	1675.8
1004.243	1726.2
1004.538	1674.22
1004.832	1666.76
1005.127	1678.29
1005.421	1636.48
1005.715	1648.46
1006.009	1649.14
1006.304	1601.46
1006.598	1623.38
1006.892	1586.54
1007.186	1562.36
1007.48	1588.35
1007.773	1568.24
1008.067	1602.13
1008.361	1555.13
1008.655	1534.79
1008.948	1544.51
1009.242	1530.5
1009.535	1528.46
1009.829	1509.03
1010.122	1512.64
1010.415	1507.45
1010.708	1480.78
1011.001	1478.52
1011.295	1495.92
1011.588	1460.22
1011.881	1442.82
1012.173	1454.11
1012.466	1446.88
1012.759	1431.97
1013.052	1412.08
1013.344	1417.05
1013.637	1432.87
1013.93	1405.75
1014.222	1395.36
1014.514	1387.45
1014.807	1373.66
1015.099	1368.92
1015.391	1365.53
1015.683	1361.01
1015.976	1360.33
1016.268	1323.5
1016.56	1319.88
1016.851	1320.33
1017.143	1284.18
1017.435	1305.42
1017.727	1291.41
1018.018	1291.86
1018.31	1280.79
1018.602	1302.71
1018.893	1277.85
1019.185	1229.71
1019.476	1231.07
1019.767	1256.38
1020.058	1226.55
1020.35	1245.08
1020.641	1229.26
1020.932	1234.01
1021.223	1197.17
1021.514	1220.45
1021.804	1174.35
1022.095	1180
1022.386	1170.51
1022.677	1185.87
1022.967	1157.4
1023.258	1137.29
1023.548	1165.08
1023.839	1139.32
1024.129	1137.06
1024.419	1105.42
1024.709	1131.86
1025	1115.37
1025.29	1113.11
1025.58	1105.42
1025.87	1107
1026.16	1106.1
1026.449	1067.46
1026.739	1068.81
1027.029	1076.05
1027.319	1046.89
1027.608	1048.48
1027.898	1074.46
1028.187	1066.55
1028.477	1075.59
1028.766	1028.36
1029.055	1034.69
1029.344	1023.17
1029.634	1011.64
1029.923	994.24
1030.212	998.31
1030.501	996.27
1030.79	979.78
1031.078	971.42
1031.367	958.53
1031.656	962.6
1031.945	949.27
1032.233	956.95
1032.522	952.43
1032.81	955.37
1033.099	951.53
1033.387	937.52
1033.675	929.38
1033.963	935.94
1034.251	932.09
1034.54	914.47
1034.828	904.75
1035.116	914.24
1035.403	908.59
1035.691	895.26
1035.979	887.12
1036.267	871.08
1036.554	893.9
1036.842	879.89
1037.129	879.89
1037.417	854.36
1037.704	867.92
1037.992	856.39
1038.279	830.18
1038.566	833.11
1038.853	833.11
1039.14	833.11
