Data from white_wall_FLMS001491_065.txt Node
Date: Tue Feb 07 11:05:23 GMT 2017
User: dcchb
Spectrometer: FLMS00149
Trigger mode: 0
Integration Time (sec): 2.000000E-2
Scans to average: 10
Electric dark correction enabled: true
Nonlinearity correction enabled: false
Boxcar width: 0
XAxis mode: Wavelengths
Number of Pixels in Spectrum: 2048
>>>>>Begin Spectral Data<<<<<
341.393	-7.81
341.776	-7.81
342.16	-7.81
342.543	-55.04
342.927	-67.02
343.31	-87.81
343.693	-60.01
344.077	-47.36
344.46	-73.57
344.843	-39.22
345.226	-13.69
345.61	-15.95
345.993	-27.25
346.376	3.71
346.759	1.23
347.142	17.5
347.525	11.4
347.908	38.97
348.291	75.8
348.674	94.11
349.057	122.13
349.44	120.55
349.823	166.42
350.206	166.87
350.588	241.67
350.971	252.97
351.354	254.56
351.737	259.75
352.119	282.13
352.502	290.94
352.884	310.37
353.267	284.84
353.65	312.18
354.032	340.65
354.414	318.96
354.797	328.45
355.179	337.72
355.562	326.87
355.944	342.24
356.326	354.21
356.709	383.37
357.091	364.38
357.473	357.6
357.855	344.5
358.238	375.23
358.62	358.06
359.002	368
359.384	368.68
359.766	369.81
360.148	362.58
360.53	362.8
360.912	369.58
361.294	359.41
361.676	365.74
362.057	372.52
362.439	363.93
362.821	341.11
363.203	357.15
363.584	357.38
363.966	337.04
364.348	364.16
364.729	366.87
365.111	351.73
365.493	342.24
365.874	346.53
366.256	347.66
366.637	338.17
367.019	345.85
367.4	341.78
367.781	348.34
368.163	325.97
368.544	331.39
368.925	342.69
369.306	349.24
369.688	332.75
370.069	342.01
370.45	334.78
370.831	344.95
371.212	332.52
371.593	349.47
371.974	344.72
372.355	325.97
372.736	358.28
373.117	368.45
373.498	373.65
373.879	380.88
374.26	332.29
374.641	332.29
375.021	364.84
375.402	354.21
375.783	353.54
376.163	352.41
376.544	367.09
376.925	361.67
377.305	367.77
377.686	336.59
378.066	362.12
378.447	361.45
378.827	367.55
379.208	381.56
379.588	373.42
379.968	398.05
380.349	369.58
380.729	370.03
381.109	360.54
381.489	393.53
381.87	380.43
382.25	389.69
382.63	403.25
383.01	388.11
383.39	403.93
383.77	392.18
384.15	391.5
384.53	383.14
384.91	398.96
385.29	433.08
385.67	391.95
386.049	422.91
386.429	418.62
386.809	427.66
387.189	427.43
387.568	441.67
387.948	419.75
388.328	453.65
388.707	427.43
389.087	455
389.466	452.52
389.846	440.77
390.225	473.31
390.605	478.96
390.984	458.62
391.363	482.8
391.743	484.38
392.122	481.22
392.501	502.01
392.881	511.27
393.26	503.14
393.639	497.71
394.018	542.68
394.397	529.35
394.776	549.24
395.155	527.99
395.534	546.07
395.913	549.69
396.292	564.83
396.671	561.44
397.05	587.88
397.429	580.42
397.808	571.61
398.186	626.3
398.565	610.48
398.944	607.31
399.323	628.1
399.701	664.04
400.08	654.54
400.458	678.05
400.837	666.52
401.215	683.24
401.594	720.31
401.972	703.13
402.351	704.04
402.729	717.82
403.107	735.9
403.486	732.51
403.864	766.63
404.242	765.73
404.62	790.36
404.999	808.21
405.377	811.6
405.755	836.91
406.133	850.92
406.511	880.98
406.889	895.67
407.267	898.61
407.645	907.65
408.023	922.79
408.401	972.95
408.779	989.68
409.156	976.57
409.534	1011.37
409.912	1004.14
410.29	1032.84
410.667	1050.92
411.045	1064.7
411.422	1082.33
411.8	1107.87
412.178	1129.56
412.555	1159.84
412.933	1166.62
413.31	1168.43
413.687	1198.49
414.065	1221.31
414.442	1218.82
414.819	1221.99
415.197	1244.36
415.574	1277.58
415.951	1309.89
416.328	1314.87
416.705	1321.87
417.082	1333.17
417.46	1354.64
417.837	1386.28
418.214	1394.86
418.591	1388.76
418.967	1405.03
419.344	1432.83
419.721	1443
420.098	1464.02
420.475	1466.5
420.852	1499.49
421.228	1533.17
421.605	1530
421.982	1531.58
422.358	1581.98
422.735	1604.35
423.111	1591.47
423.488	1644.8
423.864	1619.94
424.241	1644.58
424.617	1694.52
424.994	1689.55
425.37	1704.23
425.746	1733.84
426.123	1744.46
426.499	1764.35
426.875	1784.23
427.251	1806.83
427.627	1841.86
428.003	1853.16
428.379	1888.18
428.756	1894.06
429.132	1959.37
429.507	1972.48
429.883	1987.62
430.259	2011.8
430.635	2047.05
431.011	2055.41
431.387	2093.38
431.763	2116.2
432.138	2127.73
432.514	2208.18
432.89	2212.02
433.265	2248.63
433.641	2297.89
434.016	2294.73
434.392	2300.38
434.767	2360.26
435.143	2366.36
435.518	2417.66
435.894	2419.7
436.269	2440.49
436.644	2509.41
437.02	2541.73
437.395	2515.29
437.77	2573.82
438.145	2600.26
438.52	2656.75
438.895	2688.84
439.271	2727.26
439.646	2721.61
440.021	2772
440.395	2781.49
440.77	2743.08
441.145	2811.32
441.52	2863.07
441.895	2807.48
442.27	2900.81
442.645	2898.78
443.019	2921.6
443.394	2980.13
443.769	2977.87
444.143	2991.88
444.518	3055.84
444.892	3040.47
445.267	3060.81
445.641	3095.84
446.016	3126.12
446.39	3170.86
446.764	3182.39
447.139	3163.18
447.513	3228.94
447.887	3213.35
448.262	3239.79
448.636	3266
449.01	3296.51
449.384	3341.93
449.758	3383.74
450.132	3417.64
450.506	3408.37
450.88	3447.24
451.254	3485.43
451.628	3542.38
452.002	3572.89
452.376	3622.38
452.75	3647.23
453.123	3634.58
453.497	3788.7
453.871	3776.04
454.244	3889.94
454.618	3865.53
454.992	3958.64
455.365	3958.86
455.739	4044.06
456.112	4078.41
456.486	4174.23
456.859	4138.75
457.232	4237.28
457.606	4221.91
457.979	4265.98
458.352	4408.12
458.725	4447.44
459.099	4462.58
459.472	4575.35
459.845	4600.43
460.218	4680.65
460.591	4686.08
460.964	4751.61
461.337	4822.34
461.71	4959.06
462.083	4962.68
462.456	4948.22
462.829	5022.34
463.201	5132.17
463.574	5108.44
463.947	5215.78
464.32	5334.65
464.692	5380.97
465.065	5403.57
465.438	5485.83
465.81	5614.19
466.183	5694.64
466.555	5819.15
466.928	5859.38
467.3	5821.41
467.672	5940.73
468.045	6071.13
468.417	6065.7
468.789	6156.32
469.161	6267.28
469.534	6360.38
469.906	6482.19
470.278	6509.76
470.65	6608.06
471.022	6782.29
471.394	6848.73
471.766	6983.64
472.138	7039.91
472.51	7156.97
472.882	7333.69
473.253	7354.71
473.625	7486.68
473.997	7716.05
474.369	7698.43
474.74	7851.87
475.112	7982.49
475.484	8129.83
475.855	8276.04
476.227	8355.36
476.598	8600.78
476.97	8687.78
477.341	8897.49
477.713	9005.51
478.084	9078.73
478.455	9291.83
478.827	9394.2
479.198	9643.24
479.569	9641.43
479.94	9946.05
480.311	9994.41
480.682	10302.2
481.053	10511.23
481.424	10626.94
481.795	10870.55
482.166	11009.07
482.537	11119.58
482.908	11367.94
483.279	11509.63
483.65	11762.28
484.021	11955.26
484.391	12098.31
484.762	12211.76
485.133	12331.98
485.503	12549.6
485.874	12809.03
486.244	12902.36
486.615	13214.89
486.985	13435.68
487.356	13647.2
487.726	13753.64
488.097	14032.27
488.467	14019.17
488.837	14423.67
489.207	14531.47
489.578	14765.13
489.948	14866.83
490.318	15193.15
490.688	15250.77
491.058	15510.88
491.428	15641.95
491.798	15829.29
492.168	16138.66
492.538	16170.75
492.908	16422.04
493.278	16685.99
493.648	16782.26
494.017	16933.21
494.387	17181.12
494.757	17278.29
495.126	17472.41
495.496	17614.55
495.866	17650.26
496.235	17913.75
496.605	18085.5
496.974	18155.78
497.344	18393.51
497.713	18567.07
498.082	18616.33
498.452	18839.83
498.821	18863.11
499.19	19010.22
499.559	19256.09
499.928	19409.76
500.298	19515.97
500.667	19716.64
501.036	19757.09
501.405	19993.25
501.774	20032.57
502.143	20208.83
502.512	20247.02
502.88	20448.15
503.249	20632.78
503.618	20799.1
503.987	20875.03
504.356	21000
504.724	21239.77
505.093	21313.66
505.462	21338.07
505.83	21612.86
506.199	21836.81
506.567	22084.26
506.936	22026.19
507.304	22435.44
507.672	22446.06
508.041	22581.88
508.409	22786.84
508.777	23011.02
509.145	23233.16
509.514	23131.69
509.882	23379.37
510.25	23539.59
510.618	23722.64
510.986	23899.36
511.354	24107.49
511.722	24246.92
512.09	24576.4
512.458	24569.17
512.826	24772.33
513.193	24864.76
513.561	25059.78
513.929	25214.13
514.297	25417.96
514.664	25770.72
515.032	25796.71
515.4	26004.61
515.767	26112.63
516.135	26317.37
516.502	26331.38
516.869	26751.94
517.237	26817.92
517.604	26785.38
517.972	27221.98
518.339	27320.51
518.706	27459.49
519.073	27685.92
519.44	27803.44
519.808	28182.41
520.175	28195.06
520.542	28579.46
520.909	28822.17
521.276	28813.8
521.643	29003.4
522.009	29280.91
522.376	29538.31
522.743	29814
523.11	29996.6
523.477	30397.49
523.843	30511.61
524.21	30796.13
524.577	30805.62
524.943	31181.88
525.31	31258.71
525.676	31707.06
526.043	31718.13
526.409	31964.91
526.776	32355.18
527.142	32325.8
527.508	32550.88
527.874	32805.34
528.241	32870.42
528.607	33239.45
528.973	33459.33
529.339	33505.21
529.705	33883.5
530.071	34170.95
530.437	34134.79
530.803	34545.41
531.169	34664.72
531.535	34537.04
531.901	34718.96
532.267	35047.76
532.632	35267.42
532.998	35285.05
533.364	35454.31
533.73	35623.34
534.095	35998.02
534.461	36053.16
534.826	36319.6
535.192	36346.04
535.557	36730.21
535.923	36578.12
536.288	36825.35
536.653	37083.64
537.019	36986.25
537.384	37220.14
537.749	37372.22
538.114	37510.3
538.479	37567.02
538.845	37815.38
539.21	37753.91
539.575	38014.47
539.94	38158.64
540.305	38415.59
540.67	38453.33
541.034	38703.04
541.399	38749.14
541.764	38908.68
542.129	39045.63
542.494	39176.02
542.858	39359.74
543.223	39359.06
543.587	39691.26
543.952	39644.71
544.316	39837.92
544.681	39906.85
545.045	40086.73
545.41	40307.97
545.774	40386.16
546.138	40524.91
546.503	40602.2
546.867	40743.66
547.231	41058.91
547.595	41089.64
547.959	41309.07
548.324	41147.04
548.688	41469.29
549.052	41551.32
549.416	41695.73
549.779	41879
550.143	41984.53
550.507	42283.51
550.871	42464.52
551.235	42548.81
551.599	42814.34
551.962	42857.05
552.326	43135.46
552.689	43264.95
553.053	43157.38
553.417	43384.72
553.78	43941.77
554.143	43835.1
554.507	44125.49
554.87	44349.67
555.234	44817.23
555.597	44523.45
555.96	44783.55
556.323	44955.3
556.686	45078.24
557.05	45372.47
557.413	45417.66
557.776	45558.45
558.139	45849.51
558.502	46087.7
558.865	46189.39
559.228	46355.72
559.59	46517.52
559.953	46696.95
560.316	47033.89
560.679	47062.82
561.041	47299.42
561.404	47502.8
561.767	47886.98
562.129	47664.16
562.492	48110.47
562.854	48033.41
563.217	48206.29
563.579	48332.16
563.941	48590.01
564.304	48767.86
564.666	48967.17
565.028	49006.27
565.39	49251.23
565.753	49308.41
566.115	49512.7
566.477	49608.06
566.839	49705.46
567.201	49869.52
567.563	50069.74
567.925	50147.03
568.287	50290.08
568.648	50345.67
569.01	50514.48
569.372	50868.14
569.734	50747.92
570.095	50950.17
570.457	51135.7
570.819	51107.91
571.18	51151.52
571.542	51392.87
571.903	51331.4
572.265	51574.56
572.626	51589.7
572.987	51707.67
573.349	51804.16
573.71	51931.39
574.071	51994.89
574.432	52129.58
574.794	52296.35
575.155	52306.29
575.516	52273.3
575.877	52421.32
576.238	52430.58
576.599	52578.83
576.96	52523.92
577.32	52585.38
577.681	52723.68
578.042	52798.71
578.403	52778.37
578.763	52806.17
579.124	52864.02
579.485	52990.8
579.845	53129.32
580.206	52922.55
580.566	53030.34
580.927	53156.89
581.287	53172.94
581.648	53050.91
582.008	53173.16
582.368	53208.64
582.728	53318.24
583.089	53287.74
583.449	53199.15
583.809	53227.85
584.169	53350.56
584.529	53290.9
584.889	53451.8
585.249	53288.87
585.609	53158.7
585.969	53449.54
586.329	53368.64
586.688	53453.38
587.048	53375.64
587.408	53268.75
587.768	53407.06
588.127	53263.56
588.487	53306.95
588.846	53594.17
589.206	53324.35
589.565	53349.88
589.925	53476.21
590.284	53400.73
590.643	53463.33
591.003	53461.97
591.362	53589.65
591.721	53511.01
592.08	53586.03
592.44	53577.45
592.799	53494.96
593.158	53549.2
593.517	53483.21
593.876	53610.44
594.235	53515.3
594.593	53546.71
594.952	53630.55
595.311	53600.5
595.67	53646.82
596.029	53728.4
596.387	53759.82
596.746	53848.17
597.104	53695.64
597.463	53678.24
597.822	53786.71
598.18	53666.48
598.538	53727.05
598.897	53861.96
599.255	53630.78
599.613	54054.04
599.972	53822.19
600.33	53933.6
600.688	53855.18
601.046	53913.48
601.404	54064.89
601.762	53993.93
602.12	54088.17
602.478	54078.45
602.836	54113.7
603.194	53992.13
603.552	54070.32
603.91	53966.36
604.268	54159.8
604.625	54126.36
604.983	54139.47
605.341	54017.89
605.698	54261.27
606.056	54274.6
606.413	54319.57
606.771	54377.2
607.128	54432.11
607.485	54291.78
607.843	54296.07
608.2	54455.62
608.557	54552.79
608.914	54459.68
609.272	54624.43
609.629	54584.88
609.986	54755.95
610.343	54610.19
610.7	54761.6
611.057	54755.5
611.414	54733.57
611.771	54599.34
612.127	54798.21
612.484	54781.94
612.841	54807.25
613.198	54823.52
613.554	54784.42
613.911	54968.15
614.267	54927.24
614.624	54876.62
614.98	54946.68
615.337	55100.8
615.693	54962.5
616.05	55020.12
616.406	55115.26
616.762	55085.2
617.118	55096.28
617.475	55155.26
617.831	55248.14
618.187	55197.52
618.543	55302.15
618.899	55368.59
619.255	55376.27
619.611	55387.12
619.967	55420.79
620.323	55481.58
620.678	55309.38
621.034	55262.83
621.39	55402.26
621.746	55378.08
622.101	55608.35
622.457	55507.79
622.812	55510.28
623.168	55504.63
623.523	55544.4
623.879	55532.88
624.234	55346.44
624.589	55415.82
624.945	55533.33
625.3	55556.38
625.655	55445.19
626.01	55486.55
626.365	55618.98
626.72	55498.07
627.075	55491.75
627.43	55441.35
627.785	55376.5
628.14	55414.69
628.495	55481.13
628.85	55416.27
629.205	55363.39
629.559	55541.69
629.914	55324.97
630.269	55342.6
630.623	55334.92
630.978	55208.82
631.332	55347.34
631.687	55462.6
632.041	55292.66
632.396	55344.86
632.75	55219.89
633.104	55192.55
633.459	55155.71
633.813	55108.93
634.167	55099.89
634.521	55001.59
634.875	55037.97
635.229	55041.36
635.583	54966.34
635.937	54975.6
636.291	54960.01
636.645	55009.73
636.999	54849.05
637.352	54985.32
637.706	54801.37
638.06	54929.28
638.413	54806.57
638.767	54751.2
639.121	54815.15
639.474	54581.49
639.828	54622.62
640.181	54689.51
640.534	54653.58
640.888	54616.74
641.241	54457.2
641.594	54534.03
641.947	54555.95
642.301	54442.06
642.654	54390.53
643.007	54484.77
643.36	54480.02
643.713	54387.82
644.066	54446.58
644.419	54210.2
644.771	54058.34
645.124	53808.4
645.477	53706.26
645.83	53548.75
646.182	53469.2
646.535	53241.64
646.888	53464.68
647.24	53273.73
647.593	53391.46
647.945	53239.38
648.298	53049.33
648.65	53021.98
649.002	52988.54
649.355	53132.49
649.707	53110.79
650.059	53240.96
650.411	53511.69
650.763	53562.76
651.115	53864.45
651.467	53780.83
651.819	53759.36
652.171	53689.08
652.523	53596.43
652.875	53642.08
653.227	53513.72
653.578	53731.34
653.93	53585.36
654.282	53441.41
654.633	53491.57
654.985	53438.47
655.337	53492.7
655.688	53377
656.039	53484.12
656.391	53278.47
656.742	53238.02
657.094	53325.7
657.445	53425.81
657.796	53345.36
658.147	53233.05
658.498	53139.94
658.849	53282.54
659.2	53187.17
659.551	53161.19
659.902	53192.82
660.253	53176.1
660.604	53103.11
660.955	52996.22
661.306	53146.05
661.656	53053.39
662.007	52970.46
662.358	52961.19
662.708	52920.29
663.059	53043
663.409	52788.99
663.76	52945.6
664.11	52971.36
664.461	52991.47
664.811	52914.19
665.161	52930.23
665.511	52792.61
665.862	52904.02
666.212	52971.59
666.562	52899.5
666.912	52842.33
667.262	52819.95
667.612	52826.51
667.962	52914.19
668.312	52747.86
668.662	52854.3
669.011	52756.45
669.361	52727.3
669.711	52683.46
670.06	52610.69
670.41	52617.25
670.76	52667.41
671.109	52705.15
671.459	52599.85
671.808	52549.45
672.157	52509.45
672.507	52369.12
672.856	52403.69
673.205	52387.42
673.554	52556.23
673.904	52329.34
674.253	52506.97
674.602	52450.92
674.951	52022.01
675.3	51692.07
675.649	52307.42
675.998	52196.01
676.346	52228.56
676.695	52355.33
677.044	52025.17
677.393	52205.73
677.741	52220.42
678.09	52120.08
678.438	52012.97
678.787	52037.15
679.135	51995.79
679.484	51823.82
679.832	51980.65
680.181	51741.79
680.529	51828.11
680.877	51788.12
681.225	51781.79
681.573	51920.32
681.922	51671.73
682.27	51654.33
682.618	51631.28
682.966	51518.74
683.314	51522.13
683.661	51373.66
684.009	51239.43
684.357	51066.33
684.705	51014.35
685.053	51080.56
685.4	51071.52
685.748	50898.2
686.095	50946.33
686.443	50673.79
686.79	50646.9
687.138	50789.05
687.485	50813.68
687.832	50563.29
688.18	50645.77
688.527	50342.73
688.874	50380.02
689.221	50282.62
689.568	50177.99
689.915	50025.9
690.262	50103.41
690.609	49959.24
690.956	49803.76
691.303	49738.45
691.65	49607.38
691.997	49561.96
692.344	49319.93
692.69	49380.72
693.037	49361.74
693.383	48861.19
693.73	49112.03
694.077	48984.57
694.423	48917.68
694.769	48806.95
695.116	48723.56
695.462	48563.79
695.808	48538.48
696.155	48544.81
696.501	48287.87
696.847	48261.2
697.193	48117.48
697.539	48165.84
697.885	47923.13
698.231	47667.09
698.577	47695.34
698.923	47639.75
699.269	47538.96
699.614	47372.86
699.96	47403.15
700.306	47271.4
700.651	46896.94
700.997	46891.07
701.342	46976.72
701.688	46926.55
702.033	46680.45
702.379	46675.03
702.724	46372.89
703.069	46539.89
703.415	46137.64
703.76	46119.34
704.105	46083.63
704.45	46066.91
704.795	45722.06
705.14	45772.91
705.485	45887.25
705.83	45687.26
706.175	45549.64
706.52	45391.45
706.865	45218.12
707.209	45168.85
707.554	45102.87
707.899	45400.94
708.243	45032.14
708.588	44910.1
708.932	44674.18
709.277	44786.04
709.621	44778.58
709.966	44442.55
710.31	44572.03
710.654	44191.48
710.998	44271.03
711.342	44329.33
711.687	44193.97
712.031	43980.19
712.375	43880.98
712.719	43993.29
713.063	43763.69
713.407	43967.3
713.75	43564.15
714.094	43639.63
714.438	43496.81
714.782	43543.13
715.125	43198.74
715.469	43406.64
715.812	43054.11
716.156	42863.83
716.499	42941.79
716.843	42877.84
717.186	42646.21
717.53	42819.54
717.873	42725.08
718.216	42777.28
718.559	42530.73
718.902	42298.2
719.246	42328.7
719.589	42104.08
719.932	42214.58
720.275	42150.4
720.617	42010.29
720.96	42004.42
721.303	42020.46
721.646	41995.6
721.989	41608.95
722.331	41736.63
722.674	41545.45
723.016	41598.33
723.359	41498.67
723.701	41504.09
724.044	41337.54
724.386	41330.99
724.729	41378.67
725.071	41199.24
725.413	41149.3
725.755	41147.04
726.097	40851
726.439	40691.68
726.782	40763.55
727.124	40858.23
727.465	40770.1
727.807	40663.21
728.149	40500.5
728.491	40531.46
728.833	40481.97
729.175	40482.42
729.516	40268.87
729.858	40208.31
730.199	40431.58
730.541	40098.71
730.882	40152.49
731.224	40197.23
731.565	39897.81
731.906	39970.12
732.248	39879.95
732.589	39686.29
732.93	39609
733.271	39693.29
733.612	39714.08
733.953	39648.55
734.294	39460.08
734.635	39391.15
734.976	39550.92
735.317	39275.45
735.658	39155.45
735.999	39093.31
736.339	39353.19
736.68	39302.12
737.021	39118.17
737.361	38948
737.702	39028
738.042	38886.53
738.383	38783.03
738.723	38896.48
739.063	38642.47
739.404	38771.28
739.744	38676.6
740.084	38631.85
740.424	38611.06
740.764	38383.72
741.104	38608.58
741.444	38293.1
741.784	38224.18
742.124	38234.8
742.464	38166.33
742.804	38116.38
743.143	38062.15
743.483	38162.03
743.823	37881.14
744.162	37874.58
744.502	37930.85
744.841	37757.52
745.181	37757.98
745.52	37471.43
745.86	37797.52
746.199	37539.45
746.538	37567.02
746.877	37705.77
747.216	37602.05
747.556	37353.47
747.895	37291.1
748.234	37190.53
748.573	37137.43
748.911	37005.45
749.25	37091.55
749.589	36928.85
749.928	36937.21
750.267	36943.99
750.605	36734.5
750.944	36821.5
751.283	36602.3
751.621	36642.75
751.96	36386.26
752.298	36431.46
752.636	36523.88
752.975	36357.79
753.313	36275.53
753.651	36283.66
753.989	36020.62
754.327	35995.99
754.666	35942.88
755.004	35820.85
755.342	35918.02
755.679	35929.78
756.017	35521.88
756.355	35650.23
756.693	35390.35
757.031	35417.7
757.368	35295.44
757.706	35127.08
758.044	35040.08
758.381	35250.7
758.719	35017.03
759.056	34991.27
759.394	34807.77
759.731	34631.96
760.068	34439.87
760.405	34425.41
760.743	34322.81
761.08	34476.71
761.417	34323.72
761.754	34175.7
762.091	34053.44
762.428	33946.78
762.765	33714.24
763.102	33828.36
763.438	33612.1
763.775	33553.79
764.112	33584.98
764.449	33444.42
764.785	33228.15
765.122	33035.84
765.458	33009.63
765.795	32868.84
766.131	32950.42
766.467	32806.02
766.804	32568.73
767.14	32473.37
767.476	32485.12
767.812	32175.52
768.148	32364.45
768.485	32137.33
768.821	32024.57
769.157	31947.96
769.492	31815.53
769.828	31757.46
770.164	31476.33
770.5	31487.63
770.836	31432.27
771.171	31195.66
771.507	31113.63
771.842	30924.03
772.178	31028.66
772.513	30956.12
772.849	30836.8
773.184	30563.82
773.519	30549.8
773.855	30499.86
774.19	30390.26
774.525	30254.44
774.86	30178.29
775.195	30224.39
775.53	29987.56
775.865	29740.56
776.2	29547.34
776.535	29470.28
776.87	29413.56
777.205	29263.96
777.539	29147.13
777.874	29109.62
778.209	28919.79
778.543	28940.81
778.878	28713.69
779.212	28665.33
779.547	28521.16
779.881	28649.06
780.215	28347.38
780.55	28399.58
780.884	28163.43
781.218	28134.73
781.552	28238.9
781.886	27939.48
782.22	27953.04
782.554	27782.42
782.888	27502.88
783.222	27505.59
783.556	27281.19
783.889	27185.6
784.223	27008.88
784.557	26996.9
784.89	27132.94
785.224	26809.56
785.557	26803.69
785.891	26763.46
786.224	26649.34
786.558	26593.3
786.891	26337.71
787.224	26181.11
787.557	26184.04
787.891	26214.1
788.224	26077.38
788.557	26074.67
788.89	25989.25
789.223	25780.89
789.556	25755.81
789.888	25687.11
790.221	25484.17
790.554	25377.51
790.887	25322.82
791.219	25267.23
791.552	25262.71
791.884	25027.24
792.217	24889.61
792.549	24842.84
792.882	24728.71
793.214	24617.98
793.546	24750.86
793.879	24441.72
794.211	24385.9
794.543	24595.61
794.875	24371.21
795.207	24418.21
795.539	24351.32
795.871	24238.56
796.203	24058
796.535	24041.05
796.867	23863.2
797.198	23873.14
797.53	23890.32
797.862	23633.83
798.193	23661.85
798.525	23509.09
798.856	23620.72
799.188	23307.06
799.519	23159.04
799.85	23048.98
800.182	23031.58
800.513	23122.65
800.844	22871.59
801.175	23032.26
801.506	22930.34
801.837	22631.14
802.168	22678.82
802.499	22632.05
802.83	22488.32
803.161	22438.15
803.491	22401.32
803.822	22413.29
804.153	22345.95
804.483	22064.15
804.814	22019.63
805.145	22000.2
805.475	22031.38
805.805	21946.41
806.136	21916.36
806.466	21684.05
806.796	21857.83
807.126	21722.01
807.457	21626.42
807.787	21606.54
808.117	21498.06
808.447	21398.18
808.777	21533.32
809.107	21379.42
809.436	21282.7
809.766	21264.17
810.096	21092.88
810.426	21092.65
810.755	21061.01
811.085	21026.89
811.414	20992.54
811.744	20744.41
812.073	20702.38
812.403	20786.9
812.732	20741.47
813.061	20519.33
813.39	20473.46
813.719	20544.87
814.049	20625.09
814.378	20439.34
814.707	20367.25
815.036	20329.06
815.365	20206.35
815.693	20068.27
816.022	20155.95
816.351	19976.75
816.68	19946.02
817.008	19955.05
817.337	19709.41
817.665	19715.51
817.994	19814.95
818.322	19771.78
818.651	19721.84
818.979	19638.68
819.307	19640.26
819.636	19595.52
819.964	19502.18
820.292	19506.48
820.62	19533.82
820.948	19444.11
821.276	19554.39
821.604	19439.81
821.932	19453.15
822.259	19496.99
822.587	19438.46
822.915	19382.41
823.243	19561.17
823.57	19445.46
823.898	19388.29
824.225	19364.79
824.553	19351.68
824.88	19376.76
825.207	19378.12
825.535	19351
825.862	19393.94
826.189	19274.17
826.516	19326.14
826.843	19329.53
827.17	19381.74
827.497	19379.48
827.824	19287.05
828.151	19322.75
828.478	19326.14
828.805	19351.91
829.131	19319.82
829.458	19271
829.785	19200.05
830.111	19159.14
830.438	19364.56
830.764	19244.56
831.09	19303.55
831.417	19105.81
831.743	19273.49
832.069	19271.68
832.395	19201.63
832.722	19174.51
833.048	19174.74
833.374	19193.72
833.7	19064
834.026	19084.57
834.351	19099.26
834.677	19059.94
835.003	19124.57
835.329	19058.35
835.654	19000.73
835.98	18953.5
836.306	18988.3
836.631	18917.57
836.956	18989.43
837.282	18884.8
837.607	18845.71
837.932	18719.38
838.258	18666.5
838.583	18666.95
838.908	18596.22
839.233	18655.2
839.558	18557.8
839.883	18636.9
840.208	18527.75
840.533	18597.35
840.858	18570.23
841.182	18520.06
841.507	18468.31
841.832	18312.39
842.156	18250.24
842.481	18358.26
842.805	18300.18
843.13	18178.83
843.454	18163.24
843.778	18249.11
844.103	18159.4
844.427	18047.99
844.751	17972.51
845.075	17970.02
845.399	17873.53
845.723	17836.69
846.047	17859.29
846.371	17693.64
846.695	17663.14
847.019	17540.88
847.343	17506.53
847.666	17271.28
847.99	17280.77
848.313	17241.23
848.637	17106.77
848.96	16988.35
849.284	17206.88
849.607	16987.9
849.931	17003.49
850.254	16799.21
850.577	16781.8
850.9	16610.28
851.223	16666.33
851.546	16519.89
851.869	16398.76
852.192	16536.61
852.515	16317.41
852.838	16305.43
853.161	16329.16
853.483	16189.5
853.806	16205.77
854.129	16134.14
854.451	15980.24
854.774	15981.15
855.096	15999
855.419	15901.6
855.741	15936.4
856.063	15748.84
856.385	15795.39
856.708	15672.91
857.03	15579.58
857.352	15619.12
857.674	15558.11
857.996	15484.89
858.318	15390.88
858.64	15523.08
858.961	15417.09
859.283	15297.78
859.605	15329.41
859.926	15201.73
860.248	15283.76
860.57	15165.8
860.891	15137.55
861.212	15005.58
861.534	15022.08
861.855	14990.44
862.176	15022.98
862.498	14976.88
862.819	14996.31
863.14	14896.66
863.461	14873.38
863.782	14850.78
864.103	14861.85
864.424	14725.14
864.745	14834.51
865.065	14684.68
865.386	14596.78
865.707	14566.72
866.027	14716.1
866.348	14574.18
866.668	14530.56
866.989	14562.2
867.309	14516.33
867.63	14543.9
867.95	14537.57
868.27	14467.29
868.59	14433.17
868.91	14391.81
869.23	14332.15
869.55	14229.78
869.87	14324.69
870.19	14301.87
870.51	14335.99
870.83	14326.5
871.15	14216.22
871.469	14224.81
871.789	14219.39
872.109	14181.87
872.428	14084.7
872.748	14186.62
873.067	13994.08
873.386	14090.12
873.706	14029.11
874.025	13947.98
874.344	13921.09
874.663	13992.27
874.982	14018.49
875.301	13926.74
875.62	13881.32
875.939	13890.13
876.258	13930.58
876.577	13796.35
876.896	13912.73
877.214	13679.74
877.533	13753.86
877.852	13732.17
878.17	13745.5
878.489	13757.48
878.807	13710.02
879.125	13644.49
879.444	13584.37
879.762	13549.8
880.08	13579.18
880.398	13485.39
880.716	13463.93
881.034	13442.01
881.352	13426.19
881.67	13409.69
881.988	13398.16
882.306	13365.4
882.624	13220.32
882.941	13246.3
883.259	13234.33
883.577	13155.01
883.894	13244.95
884.212	13166.76
884.529	13217.83
884.846	13075.69
885.164	13103.26
885.481	13124.27
885.798	13062.35
886.115	12946.88
886.432	12932.19
886.75	12918.86
887.067	12887.67
887.383	12829.14
887.7	12824.62
888.017	12750.72
888.334	12806.09
888.651	12748.69
888.967	12741.01
889.284	12681.12
889.6	12670.05
889.917	12560.22
890.233	12566.55
890.55	12520.22
890.866	12475.7
891.182	12428.02
891.498	12363.16
891.815	12313.22
892.131	12263.05
892.447	12286.33
892.763	12293.33
893.079	12280.91
893.395	12134.02
893.71	12149.16
894.026	12058.09
894.342	12014.25
894.657	11971.54
894.973	11912.55
895.289	12002.95
895.604	11970.41
895.92	11842.27
896.235	11763.18
896.55	11872.33
896.865	11786.46
897.181	11772.22
897.496	11759.56
897.811	11662.62
898.126	11647.48
898.441	11613.13
898.756	11591.43
899.071	11465.11
899.386	11394.15
899.7	11314.15
900.015	11336.98
900.33	11279.8
900.644	11239.58
900.959	11270.76
901.273	11177.21
901.588	11158.68
901.902	11135.17
902.216	11056.53
902.531	11037.77
902.845	11004.33
903.159	10889.08
903.473	10948.06
903.787	10839.81
904.101	10793.94
904.415	10837.55
904.729	10785.8
905.042	10699.48
905.356	10641.63
905.67	10606.6
905.984	10610.22
906.297	10538.35
906.611	10566.83
906.924	10485.02
907.237	10455.87
907.551	10378.13
907.864	10379.26
908.177	10317.12
908.491	10271.02
908.804	10210.45
909.117	10164.8
909.43	10122.54
909.743	10105.82
910.056	10055.65
910.368	10042.55
910.681	9922.1
910.994	9901.53
911.307	9908.31
911.619	9794.87
911.932	9882.32
912.244	9746.06
912.557	9691.37
912.869	9669.22
913.181	9619.96
913.494	9627.42
913.806	9589.9
914.118	9594.65
914.43	9468.55
914.742	9440.75
915.054	9411.83
915.366	9371.15
915.678	9304.94
915.99	9281.66
916.302	9224.04
916.613	9259.74
916.925	9184.26
917.236	9117.6
917.548	9093.42
917.859	9071.05
918.171	9043.93
918.482	8961.45
918.794	8943.82
919.105	8947.66
919.416	8797.61
919.727	8863.82
920.038	8820.66
920.349	8750.83
920.66	8648.69
920.971	8690.94
921.282	8644.17
921.593	8586.99
921.903	8560.55
922.214	8575.47
922.525	8506.77
922.835	8401.23
923.146	8442.14
923.456	8358.75
923.767	8303.84
924.077	8294.34
924.387	8293.21
924.697	8215.25
925.008	8163.05
925.318	8149.94
925.628	8122.6
925.938	8081.69
926.248	8072.88
926.558	8132.77
926.867	8016.16
927.177	7998.76
927.487	7928.48
927.796	7824.07
928.106	7823.62
928.416	7813.45
928.725	7771.42
929.034	7736.84
929.344	7767.8
929.653	7687.35
929.962	7668.15
930.271	7636.28
930.581	7631.76
930.89	7585.44
931.199	7592.67
931.508	7522.61
931.817	7484.42
932.125	7406.01
932.434	7436.74
932.743	7279.91
933.051	7300.02
933.36	7256.18
933.669	7206.69
933.977	7205.79
934.286	7089.63
934.594	7107.26
934.902	7074.49
935.21	7102.51
935.519	7093.02
935.827	7102.29
936.135	6944.1
936.443	6958.56
936.751	6921.5
937.059	6907.49
937.367	6849.18
937.674	6846.47
937.982	6801.95
938.29	6800.15
938.597	6733.26
938.905	6642.64
939.213	6659.36
939.52	6567.84
939.827	6612.13
940.135	6600.38
940.442	6565.8
940.749	6515.86
941.056	6513.15
941.363	6467.27
941.67	6422.75
941.977	6365.81
942.284	6368.97
942.591	6356.77
942.898	6299.37
943.205	6332.81
943.511	6265.24
943.818	6241.29
944.125	6206.04
944.431	6183.44
944.738	6185.47
945.044	6126.72
945.35	6162.87
945.657	6073.39
945.963	6086.49
946.269	6023.9
946.575	6029.54
946.881	5991.58
947.187	5903.9
947.493	5866.61
947.799	5937.57
948.105	5835.88
948.41	5812.38
948.716	5816.9
949.022	5769.21
949.327	5743.22
949.633	5723.79
949.938	5711.59
950.244	5648.99
950.549	5652.61
950.854	5644.47
951.16	5592.72
951.465	5623.68
951.77	5580.74
952.075	5539.61
952.38	5491.93
952.685	5463.91
952.99	5441.54
953.294	5435.89
953.599	5449.9
953.904	5395.89
954.209	5361.09
954.513	5391.37
954.818	5296.46
955.122	5312.95
955.426	5321.99
955.731	5234.09
956.035	5192.28
956.339	5225.72
956.643	5191.15
956.948	5122.45
957.252	5195.22
957.556	5123.81
957.86	5147.76
958.163	5081.55
958.467	5054.43
958.771	5053.3
959.075	4990.48
959.378	5017.59
959.682	4983.92
959.985	4940.99
960.289	4878.61
960.592	4867.77
960.896	4863.47
961.199	4820.99
961.502	4837.94
961.805	4768.11
962.108	4755.91
962.411	4789.13
962.714	4713.65
963.017	4776.02
963.32	4772.85
963.623	4711.61
963.926	4708.9
964.228	4631.84
964.531	4619.64
964.833	4616.25
965.136	4572.86
965.438	4541.9
965.741	4555.69
966.043	4509.13
966.345	4468
966.648	4470.72
966.95	4487.44
967.252	4405.86
967.554	4422.36
967.856	4448.12
968.158	4349.36
968.46	4316.37
968.761	4328.57
969.063	4313.66
969.365	4346.43
969.666	4284.96
969.968	4297.84
970.269	4263.26
970.571	4224.39
970.872	4214.23
971.174	4152.53
971.475	4183.04
971.776	4131.74
972.077	4134.23
972.378	4141.91
972.679	4080.44
972.98	4092.42
973.281	4080.44
973.582	3980.56
973.883	4018.3
974.183	4000.9
974.484	4014
974.785	3960.67
975.085	3990.73
975.386	3911.18
975.686	3915.02
975.986	3879.09
976.287	3856.04
976.587	3871.18
976.887	3840.45
977.187	3845.42
977.487	3827.79
977.787	3809.26
978.087	3808.13
978.387	3781.92
978.687	3749.38
978.987	3710.28
979.286	3678.42
979.586	3691.98
979.885	3668.7
980.185	3669.15
980.484	3662.38
980.784	3600
981.083	3578.76
981.382	3641.81
981.682	3579.89
981.981	3546.45
982.28	3532.21
982.579	3559.78
982.878	3534.47
983.177	3485.66
983.475	3484.08
983.774	3447.01
984.073	3482.04
984.372	3445.43
984.67	3410.86
984.969	3404.53
985.267	3367.47
985.566	3397.3
985.864	3354.59
986.162	3338.77
986.461	3326.11
986.759	3314.14
987.057	3268.94
987.355	3235.72
987.653	3263.74
987.951	3204.76
988.249	3234.59
988.547	3226.91
988.844	3216.96
989.142	3180.81
989.44	3200.69
989.737	3148.94
990.035	3164.99
990.332	3083.63
990.63	3110.07
990.927	3081.37
991.224	3101.49
991.521	3070.53
991.819	3031.21
992.116	3040.47
992.413	3014.48
992.71	2982.85
993.006	2984.2
993.303	2981.49
993.6	2975.61
993.897	2963.18
994.193	2916.41
994.49	2900.36
994.787	2905.56
995.083	2868.05
995.379	2894.03
995.676	2872.79
995.972	2832.11
996.268	2845.9
996.565	2847.03
996.861	2819.46
997.157	2783.3
997.453	2790.53
997.749	2761.38
998.044	2738.33
998.34	2749.86
998.636	2718.67
998.932	2663.08
999.227	2664.89
999.523	2652.46
999.818	2662.63
1000.114	2657.2
1000.409	2636.64
1000.704	2595.74
1001	2621.72
1001.295	2586.02
1001.59	2550.54
1001.885	2545.12
1002.18	2571.1
1002.475	2516.87
1002.77	2543.53
1003.065	2479.58
1003.359	2527.04
1003.654	2472.58
1003.949	2422.63
1004.243	2423.31
1004.538	2417.89
1004.832	2430.32
1005.127	2457.66
1005.421	2423.76
1005.715	2365.69
1006.009	2365.91
1006.304	2365.69
1006.598	2326.82
1006.892	2338.57
1007.186	2279.81
1007.48	2298.57
1007.773	2271.23
1008.067	2260.38
1008.361	2212.24
1008.655	2245.01
1008.948	2226.71
1009.242	2233.03
1009.535	2172.92
1009.829	2185.58
1010.122	2166.82
1010.415	2141.06
1010.708	2144.9
1011.001	2154.17
1011.295	2149.65
1011.588	2122.53
1011.881	2071
1012.173	2101.29
1012.466	2090.89
1012.759	2082.98
1013.052	2063.32
1013.344	2046.37
1013.637	2011.35
1013.93	2015.64
1014.222	1992.81
1014.514	1981.06
1014.807	1980.61
1015.099	1962.08
1015.391	1959.14
1015.683	1965.24
1015.976	1922.53
1016.268	1903.78
1016.56	1909.43
1016.851	1860.61
1017.143	1873.04
1017.435	1865.81
1017.727	1878.92
1018.018	1809.99
1018.31	1832.82
1018.602	1830.11
1018.893	1775.42
1019.185	1777
1019.476	1758.7
1019.767	1791.46
1020.058	1761.18
1020.35	1753.95
1020.641	1740.84
1020.932	1722.54
1021.223	1691.58
1021.514	1709.43
1021.804	1685.25
1022.095	1687.29
1022.386	1662.65
1022.677	1633.73
1022.967	1662.65
1023.258	1617.68
1023.548	1619.49
1023.839	1608.42
1024.129	1581.3
1024.419	1576.33
1024.709	1579.72
1025	1566.61
1025.29	1557.35
1025.58	1570.91
1025.87	1531.81
1026.16	1521.19
1026.449	1510.57
1026.739	1490
1027.029	1494.3
1027.319	1471.02
1027.608	1457.24
1027.898	1466.95
1028.187	1458.37
1028.477	1445.71
1028.766	1428.54
1029.055	1429.67
1029.344	1403.23
1029.634	1397.8
1029.923	1407.29
1030.212	1379.5
1030.501	1393.73
1030.79	1351.7
1031.078	1347.63
1031.367	1336.33
1031.656	1332.49
1031.945	1337.69
1032.233	1318.48
1032.522	1312.61
1032.81	1281.65
1033.099	1293.85
1033.387	1277.13
1033.675	1261.31
1033.963	1250.91
1034.251	1284.36
1034.54	1261.99
1034.828	1237.81
1035.116	1248.43
1035.403	1239.16
1035.691	1205.49
1035.979	1220.86
1036.267	1177.24
1036.554	1184.02
1036.842	1199.16
1037.129	1178.82
1037.417	1132.05
1037.704	1145.38
1037.992	1160.07
1038.279	1152.61
1038.566	1138.83
1038.853	1138.83
1039.14	1138.83
