Data from white_wall_FLMS001491_068.txt Node
Date: Tue Feb 07 11:05:24 GMT 2017
User: dcchb
Spectrometer: FLMS00149
Trigger mode: 0
Integration Time (sec): 2.000000E-2
Scans to average: 10
Electric dark correction enabled: true
Nonlinearity correction enabled: false
Boxcar width: 0
XAxis mode: Wavelengths
Number of Pixels in Spectrum: 2048
>>>>>Begin Spectral Data<<<<<
341.393	-12.22
341.776	-12.22
342.16	-12.22
342.543	-41.82
342.927	-56.74
343.31	-53.57
343.693	-75.04
344.077	-73.68
344.46	-66.45
344.843	-37.98
345.226	-44.76
345.61	-41.37
345.993	-24.19
346.376	-10.18
346.759	37.05
347.142	16.26
347.525	36.14
347.908	56.26
348.291	81.11
348.674	99.87
349.057	100.55
349.44	100.1
349.823	139.87
350.206	160.66
350.588	227.1
350.971	246.53
351.354	273.43
351.737	263.93
352.119	269.58
352.502	266.42
352.884	304.38
353.267	312.75
353.65	302.35
354.032	313.88
354.414	314.33
354.797	344.16
355.179	353.2
355.562	344.61
355.944	364.5
356.326	360.88
356.709	379.41
357.091	365.63
357.473	374.67
357.855	350.71
358.238	357.72
358.62	364.72
359.002	370.6
359.384	362.01
359.766	353.65
360.148	370.82
360.53	356.13
360.912	350.03
361.294	363.14
361.676	368.11
362.057	358.62
362.439	355.23
362.821	344.61
363.203	357.26
363.584	340.77
363.966	341.67
364.348	357.04
364.729	343.93
365.111	344.38
365.493	361.33
365.874	340.99
366.256	349.13
366.637	327.89
367.019	331.28
367.4	367.43
367.781	345.51
368.163	355.46
368.544	351.84
368.925	361.56
369.306	370.15
369.688	346.19
370.069	327.43
370.45	358.85
370.831	322.46
371.212	337.6
371.593	350.71
371.974	332.18
372.355	346.42
372.736	345.97
373.117	347.55
373.498	352.97
373.879	365.4
374.26	358.62
374.641	354.1
375.021	368.34
375.402	360.88
375.783	366.76
376.163	375.57
376.544	379.86
376.925	364.5
377.305	366.76
377.686	355.91
378.066	367.21
378.447	366.3
378.827	367.43
379.208	361.33
379.588	362.24
379.968	399.52
380.349	384.83
380.729	390.71
381.109	401.11
381.489	379.18
381.87	381.67
382.25	404.5
382.63	402.46
383.01	383.03
383.39	399.3
383.77	407.66
384.15	408.11
384.53	415.34
384.91	417.15
385.29	405.4
385.67	412.4
386.049	429.35
386.429	417.15
386.809	418.05
387.189	403.37
387.568	431.61
387.948	408.56
388.328	448.34
388.707	447.88
389.087	444.27
389.466	443.14
389.846	455.34
390.225	477.71
390.605	461.22
390.984	477.04
391.363	496.7
391.743	498.28
392.122	467.54
392.501	488.33
392.881	496.47
393.26	488.56
393.639	507.09
394.018	510.48
394.397	536.92
394.776	554.1
395.155	539.41
395.534	564.26
395.913	562.68
396.292	560.88
396.671	553.42
397.05	578.5
397.429	577.6
397.808	597.26
398.186	595
398.565	605.62
398.944	628.67
399.323	639.52
399.701	647.2
400.08	651.27
400.458	667.09
400.837	669.12
401.215	671.61
401.594	670.93
401.972	706.18
402.351	696.01
402.729	717.71
403.107	735.79
403.486	766.52
403.864	789.8
404.242	792.28
404.62	814.65
404.999	808.55
405.377	830.7
405.755	843.81
406.133	845.61
406.511	880.64
406.889	875.44
407.267	896.46
407.645	900.53
408.023	906.18
408.401	959.96
408.779	960.86
409.156	998.6
409.534	977.14
409.912	1036.12
410.29	1026.4
410.667	1075.66
411.045	1097.13
411.422	1100.3
411.8	1119.96
412.178	1131.93
412.555	1143.01
412.933	1170.8
413.31	1188.88
413.687	1209.45
414.065	1213.29
414.442	1234.76
414.819	1260.74
415.197	1273.17
415.574	1269.78
415.951	1330.12
416.328	1338.71
416.705	1351.59
417.082	1333.06
417.46	1353.85
417.837	1411.47
418.214	1418.93
418.591	1415.32
418.967	1428.2
419.344	1413.73
419.721	1448.31
420.098	1467.97
420.475	1484.24
420.852	1517.46
421.228	1520.62
421.605	1535.76
421.982	1570.57
422.358	1569.21
422.735	1593.39
423.111	1604.24
423.488	1632.26
423.864	1668.42
424.241	1640.85
424.617	1674.52
424.994	1727.4
425.37	1703.22
425.746	1710.9
426.123	1749.77
426.499	1760.84
426.875	1776.21
427.251	1797.45
427.627	1840.62
428.003	1878.81
428.379	1892.37
428.756	1931.69
429.132	1915.42
429.507	1967.17
429.883	1999.03
430.259	2030.44
430.635	2073.83
431.011	2069.76
431.387	2105.92
431.763	2152.47
432.138	2152.7
432.514	2185.24
432.89	2223.43
433.265	2258.23
433.641	2280.15
434.016	2279.93
434.392	2324.67
434.767	2368.51
435.143	2371.22
435.518	2427.27
435.894	2431.79
436.269	2501.62
436.644	2538.68
437.02	2552.01
437.395	2552.24
437.77	2567.83
438.145	2582.06
438.52	2656.41
438.895	2686.92
439.271	2682.18
439.646	2791.78
440.021	2766.47
440.395	2771.21
440.77	2787.94
441.145	2812.57
441.52	2856.63
441.895	2869.06
442.27	2885.33
442.645	2887.59
443.019	2945.67
443.394	2958.55
443.769	2979.79
444.143	2980.25
444.518	3001.71
444.892	3022.05
445.267	3081.49
445.641	3111.77
446.016	3116.51
446.39	3155.84
446.764	3194.7
447.139	3168.04
447.513	3215.49
447.887	3246.23
448.262	3211.65
448.636	3294.36
449.01	3370.52
449.384	3384.76
449.758	3371.65
450.132	3421.14
450.506	3456.17
450.88	3484.41
451.254	3461.82
451.628	3565.09
452.002	3608.48
452.376	3626.33
452.75	3688.25
453.123	3689.15
453.497	3753.11
453.871	3773.22
454.244	3854.35
454.618	3852.31
454.992	3943.61
455.365	3925.31
455.739	4082.59
456.112	4087.56
456.486	4126.66
456.859	4124.85
457.232	4237.16
457.606	4247.56
457.979	4302.25
458.352	4385.86
458.725	4480.32
459.099	4469.25
459.472	4613.2
459.845	4640.77
460.218	4701.11
460.591	4704.95
460.964	4722.8
461.337	4851.16
461.71	4925.73
462.083	4996.92
462.456	4986.75
462.829	5032.85
463.201	5123.92
463.574	5187.65
463.947	5247.08
464.32	5360.97
464.692	5390.35
465.065	5451.82
465.438	5534.3
465.81	5583.79
466.183	5657.46
466.555	5795.54
466.928	5855.2
467.3	5864.46
467.672	5947.85
468.045	6118.24
468.417	6143.1
468.789	6148.07
469.161	6275.75
469.534	6372.25
469.906	6547.38
470.278	6519.36
470.65	6623.09
471.022	6771.33
471.394	6912.35
471.766	6950.54
472.138	7028.95
472.51	7239.34
472.882	7316.63
473.253	7432.11
473.625	7572.89
473.997	7706
474.369	7748.48
474.74	7858.76
475.112	8031.64
475.484	8184.63
475.855	8276.38
476.227	8370.39
476.598	8555.02
476.97	8682.7
477.341	8896.25
477.713	9039.75
478.084	9115.9
478.455	9357.48
478.827	9399.96
479.198	9675.44
479.569	9721.09
479.94	9959.72
480.311	10149.32
480.682	10301.41
481.053	10572.36
481.424	10704.79
481.795	10891.9
482.166	11015.97
482.537	11172.12
482.908	11402.85
483.279	11589.06
483.65	11798.55
484.021	12010.97
484.391	12151.3
484.762	12330.74
485.133	12432.2
485.503	12568.47
485.874	12782.25
486.244	13039.42
486.615	13258.62
486.985	13470.37
487.356	13654.77
487.726	13821.77
488.097	13996.23
488.467	14097.92
488.837	14489.55
489.207	14715.76
489.578	14828.52
489.948	14913.72
490.318	15235.07
490.688	15280.94
491.058	15521.16
491.428	15732.45
491.798	15948.95
492.168	16344.19
492.538	16202.05
492.908	16374.92
493.278	16730.85
493.648	16701.02
494.017	16955.02
494.387	17177.16
494.757	17254.67
495.126	17475.46
495.496	17586.64
495.866	17736.92
496.235	17938.27
496.605	18180.07
496.974	18364.02
497.344	18401.31
497.713	18539.39
498.082	18715.2
498.452	18905.25
498.821	19016.89
499.19	19141.63
499.559	19371.45
499.928	19520.83
500.298	19624.78
500.667	19879.24
501.036	19774.61
501.405	20082.4
501.774	20067.25
502.143	20294.37
502.512	20378.89
502.88	20603.74
503.249	20700.23
503.618	20794.47
503.987	20885.31
504.356	21106.32
504.724	21236.04
505.093	21375.92
505.462	21556.71
505.83	21762.13
506.199	21936.58
506.567	22224.03
506.936	22106.75
507.304	22391.94
507.672	22533.4
508.041	22633.06
508.409	22838.71
508.777	23092.94
509.145	23327.96
509.514	23310.33
509.882	23459.26
510.25	23632.36
510.618	23747.61
510.986	23994.38
511.354	24206.81
511.722	24387.82
512.09	24630.75
512.458	24628.26
512.826	24934.92
513.193	25003.4
513.561	25161.13
513.929	25363.84
514.297	25630.27
514.664	25788.91
515.032	25968.34
515.4	26169.92
515.767	26382.34
516.135	26552.73
516.502	26383.7
516.869	26867.53
517.237	26942.78
517.604	26927.41
517.972	27338.25
518.339	27500.51
518.706	27575.53
519.073	27803.55
519.44	27968.97
519.808	28231.79
520.175	28347.72
520.542	28631.78
520.909	28815.73
521.276	28912.45
521.643	29150.41
522.009	29328.93
522.376	29626.33
522.743	29811.63
523.11	30041.46
523.477	30312.86
523.843	30499.97
524.21	30829.01
524.577	31077.13
524.943	31139.28
525.31	31332.5
525.676	31679.15
526.043	31851.58
526.409	31986.49
526.776	32332.24
527.142	32359.59
527.508	32733.36
527.874	32968.16
528.241	33141.71
528.607	33224.2
528.973	33484.3
529.339	33630.06
529.705	33981.24
530.071	34154.79
530.437	34277.28
530.803	34593.88
531.169	34731.05
531.535	34710.94
531.901	34803.14
532.267	35193.41
532.632	35307.53
532.998	35444.7
533.364	35784.36
533.73	35830
534.095	36187.51
534.461	36242.65
534.826	36352.93
535.192	36577.1
535.557	36721.05
535.923	36849.19
536.288	37055.06
536.653	37066.58
537.019	37172.79
537.384	37357.87
537.749	37535.72
538.114	37640.8
538.479	37606.68
538.845	37905.66
539.21	37834.47
539.575	38188.59
539.94	38365.08
540.305	38486.21
540.67	38431.07
541.034	38795.12
541.399	38788.34
541.764	39043.93
542.129	39051.84
542.494	39160.99
542.858	39469.68
543.223	39487.76
543.587	39666.06
543.952	39669
544.316	39977.92
544.681	39957.58
545.045	40213.62
545.41	40573.38
545.774	40483.89
546.138	40652.25
546.503	40648.18
546.867	40754.85
547.231	41102.41
547.595	41207.26
547.959	41463.08
548.324	41363.87
548.688	41472.12
549.052	41657.42
549.416	41816.06
549.779	41916.62
550.143	42024.64
550.507	42440.23
550.871	42538.98
551.235	42579.88
551.599	43060.32
551.962	42995.92
552.326	43174.22
552.689	43426.19
553.053	43357.04
553.417	43585.05
553.78	44032.05
554.143	43979.62
554.507	44236.79
554.87	44456.9
555.234	44829.54
555.597	44597.68
555.96	44801.07
556.323	45018.24
556.686	45091.23
557.05	45463.65
557.413	45500.94
557.776	45707.48
558.139	45944.77
558.502	46180.92
558.865	46294.81
559.228	46437.86
559.59	46679.89
559.953	46764.41
560.316	47193.77
560.679	47160.1
561.041	47520.09
561.404	47625.4
561.767	47902.23
562.129	47801.89
562.492	48237.36
562.854	48264.48
563.217	48176.12
563.579	48507.86
563.941	48784.01
564.304	48818.36
564.666	49069.43
565.028	49136.77
565.39	49257.45
565.753	49562.3
566.115	49561.39
566.477	49673.48
566.839	49829.41
567.201	49987.37
567.563	50106.24
567.925	50384.2
568.287	50442.28
568.648	50389.4
569.01	50618.32
569.372	50858.76
569.734	50825.32
570.095	50977.4
570.457	51151.64
570.819	51245.42
571.18	51285.87
571.542	51491.74
571.903	51435.24
572.265	51678.63
572.626	51690.6
572.987	51816.25
573.349	51814.89
573.71	52043.14
574.071	52111.38
574.432	52269.12
574.794	52458.72
575.155	52436.35
575.516	52271.38
575.877	52454.88
576.238	52500.98
576.599	52680.41
576.96	52771.93
577.32	52671.82
577.681	52823.68
578.042	52857.58
578.403	52846.51
578.763	52950.23
579.124	52934.87
579.485	53156.78
579.845	53129.89
580.206	53157.01
580.566	53133.96
580.927	53201.3
581.287	53332.14
581.648	53125.82
582.008	53324.69
582.368	53255.08
582.728	53366.04
583.089	53299.83
583.449	53320.17
583.809	53256.66
584.169	53441.29
584.529	53303.44
584.889	53564.91
585.249	53390.67
585.609	53278.13
585.969	53512.48
586.329	53419.82
586.688	53551.12
587.048	53462.99
587.408	53424.34
587.768	53416.66
588.127	53475.42
588.487	53350.22
588.846	53627.5
589.206	53428.41
589.565	53499.6
589.925	53547.05
590.284	53512.93
590.643	53477.22
591.003	53585.02
591.362	53615.75
591.721	53627.95
592.08	53558.35
592.44	53620.27
592.799	53674.05
593.158	53584.57
593.517	53736.88
593.876	53681.74
594.235	53591.57
594.593	53686.26
594.952	53633.6
595.311	53632.02
595.67	53764.67
596.029	53891.68
596.387	53888.29
596.746	53861.39
597.104	53733.71
597.463	53796.31
597.822	53941.62
598.18	53759.02
598.538	53742.53
598.897	53935.74
599.255	53619.14
599.613	54121.73
599.972	54002.63
600.33	54011.67
600.688	53884.67
601.046	53957.89
601.404	54139.58
601.762	53954.73
602.12	54170.99
602.478	54149.52
602.836	54189.97
603.194	54044.89
603.552	54151.56
603.91	54066.36
604.268	54218.22
604.625	54129.64
604.983	54259.12
605.341	54110.43
605.698	54248.28
606.056	54418.44
606.413	54304.55
606.771	54442.4
607.128	54501.83
607.485	54247.6
607.843	54351.1
608.2	54529.85
608.557	54565.1
608.914	54545.9
609.272	54734.82
609.629	54726.23
609.986	54817.75
610.343	54626.35
610.7	54857.53
611.057	54823.86
611.414	54770.75
611.771	54804.19
612.127	54879.22
612.484	54879.22
612.841	54967.81
613.198	54844.87
613.554	54859.33
613.911	55039.67
614.267	54974.59
614.624	54987.69
614.98	55004.87
615.337	55163.28
615.693	55104.07
616.05	55034.92
616.406	55228.59
616.762	55161.93
617.118	55190.63
617.475	55212.32
617.831	55319.89
618.187	55336.38
618.543	55412.99
618.899	55425.65
619.255	55371.41
619.611	55417.74
619.967	55528.24
620.323	55532.99
620.678	55387.46
621.034	55344.52
621.39	55459.32
621.746	55411.41
622.101	55740.89
622.457	55530.28
622.812	55563.27
623.168	55589.71
623.523	55557.17
623.879	55647.11
624.234	55407.57
624.589	55587.22
624.945	55470.84
625.3	55607.11
625.655	55510.62
626.01	55601.46
626.365	55559.65
626.72	55569.15
627.075	55484.4
627.43	55540.45
627.785	55449.83
628.14	55548.13
628.495	55556.04
628.85	55509.71
629.205	55369.38
629.559	55562.82
629.914	55452.99
630.269	55424.97
630.623	55405.53
630.978	55329.83
631.332	55449.15
631.687	55476.72
632.041	55323.28
632.396	55422.03
632.75	55301.58
633.104	55251.64
633.459	55187.46
633.813	55154.24
634.167	55165.99
634.521	55097.52
634.875	55178.65
635.229	55173.45
635.583	55054.81
635.937	55086.9
636.291	54966.9
636.645	55022.49
636.999	55026.11
637.352	55006
637.706	54832.67
638.06	55006.9
638.413	54984.75
638.767	54810.97
639.121	54805.55
639.474	54711.99
639.828	54719.23
640.181	54743.41
640.534	54821.82
640.888	54660.02
641.241	54532.34
641.594	54709.51
641.947	54579.12
642.301	54586.12
642.654	54553.58
643.007	54537.99
643.36	54508.16
643.713	54450.08
644.066	54562.17
644.419	54324.66
644.771	54123.53
645.124	53848.74
645.477	53781.17
645.83	53627.73
646.182	53533.95
646.535	53458.02
646.888	53503.89
647.24	53369.66
647.593	53451.24
647.945	53463.66
648.298	53196.78
648.65	53156.1
649.002	53097.8
649.355	53180.28
649.707	53138.48
650.059	53303.9
650.411	53643.32
650.763	53661.4
651.115	54011.9
651.467	53846.25
651.819	53818.46
652.171	53733.71
652.523	53573.04
652.875	53742.98
653.227	53606.03
653.578	53832.69
653.93	53720.83
654.282	53628.86
654.633	53494.62
654.985	53566.71
655.337	53552.02
655.688	53507.28
656.039	53529.65
656.391	53277.68
656.742	53312.71
657.094	53454.17
657.445	53460.73
657.796	53279.49
658.147	53338.92
658.498	53319.71
658.849	53455.53
659.2	53284.46
659.551	53230.9
659.902	53399.03
660.253	53262.99
660.604	53267.74
660.955	53192.49
661.306	53280.62
661.656	53082.88
662.007	53094.86
662.358	53053.96
662.708	52988.42
663.059	53020.51
663.409	52797.69
663.76	53049.89
664.11	53029.1
664.461	53010.34
664.811	53038.14
665.161	53030
665.511	52963.79
665.862	52996.56
666.212	53040.4
666.562	53075.88
666.912	52975.54
667.262	52881.99
667.612	52917.46
667.962	52825.94
668.312	52797.02
668.662	52946.39
669.011	52846.96
669.361	52761.08
669.711	52740.29
670.06	52725.61
670.41	52699.62
670.76	52659.62
671.109	52788.2
671.459	52682.89
671.808	52644.03
672.157	52605.38
672.507	52506.63
672.856	52519.73
673.205	52587.98
673.554	52591.15
673.904	52477.25
674.253	52560.41
674.602	52417.36
674.951	52052.63
675.3	51800.88
675.649	52406.29
675.998	52321.32
676.346	52447.42
676.695	52402.45
677.044	52166.98
677.393	52282.9
677.741	52336.01
678.09	52168.11
678.438	52050.37
678.787	52130.37
679.135	52038.84
679.484	51836.14
679.832	52033.19
680.181	51863.48
680.529	52006.3
680.877	51922.46
681.225	51897.38
681.573	52049.69
681.922	51792.52
682.27	51637.27
682.618	51701
682.966	51564.05
683.314	51572.64
683.661	51414.91
684.009	51381.91
684.357	51228.7
684.705	51185.31
685.053	51211.75
685.4	51250.62
685.748	51055.14
686.095	50975.59
686.443	50893.11
686.79	50812.66
687.138	50827.58
687.485	50798.2
687.832	50560.92
688.18	50691.76
688.527	50440.69
688.874	50395.04
689.221	50403.63
689.568	50159.34
689.915	50029.63
690.262	50070.31
690.609	49980.37
690.956	49919.13
691.303	49848.17
691.65	49736.98
691.997	49696.31
692.344	49494.73
692.69	49439.36
693.037	49410.44
693.383	49110.56
693.73	49198.47
694.077	48965.48
694.423	49004.12
694.769	48956.21
695.116	48754.86
695.462	48753.51
695.808	48663.79
696.155	48672.15
696.501	48464.25
696.847	48351.03
697.193	48172.05
697.539	48219.06
697.885	48061.77
698.231	47889.8
698.577	47798.73
698.923	47751.72
699.269	47645.96
699.614	47493.43
699.96	47340.66
700.306	47466.08
700.651	47232.42
700.997	47074.91
701.342	47042.36
701.688	46944.51
702.033	46954.46
702.379	46773.9
702.724	46646.44
703.069	46753.33
703.415	46325.55
703.76	46269.5
704.105	46420.01
704.45	46170.52
704.795	46005.33
705.14	45886.01
705.485	45937.76
705.83	45751.78
706.175	45709.52
706.52	45552.23
706.865	45356.31
707.209	45392.46
707.554	45378.45
707.899	45355.18
708.243	45287.61
708.588	45083.55
708.932	44942.31
709.277	45041.97
709.621	44827.96
709.966	44646.95
710.31	44732.59
710.654	44302.1
710.998	44504.58
711.342	44482.43
711.687	44258.94
712.031	44063.91
712.375	44157.24
712.719	44071.82
713.063	43923.35
713.407	44021.88
713.75	43856.69
714.094	43728.1
714.438	43525.17
714.782	43642.91
715.125	43453.53
715.469	43420.09
715.812	43272.52
716.156	43101
716.499	43132.19
716.843	43199.08
717.186	42729.03
717.53	43017.84
717.873	42922.02
718.216	42880.44
718.559	42710.73
718.902	42465.54
719.246	42475.93
719.589	42274.58
719.932	42126.11
720.275	42192.32
720.617	42186.9
720.96	42085.88
721.303	42071.2
721.646	42151.65
721.989	41730.41
722.331	41921.14
722.674	41798.43
723.016	41682.28
723.359	41563.41
723.701	41820.81
724.044	41530.65
724.386	41424.21
724.729	41494.04
725.071	41588.95
725.413	41339.01
725.755	41243.2
726.097	40986.25
726.439	40838.23
726.782	40948.06
727.124	41115.74
727.465	40809.31
727.807	40767.5
728.149	40704.9
728.491	40545.81
728.833	40611.8
729.175	40455.87
729.516	40486.83
729.858	40260.62
730.199	40402.31
730.541	40478.7
730.882	40295.65
731.224	40348.08
731.565	40031.25
731.906	40124.13
732.248	39964.13
732.589	39817.24
732.93	39605.05
733.271	39738.15
733.612	39664.71
733.953	39744.03
734.294	39596.23
734.635	39514.65
734.976	39534.31
735.317	39363.24
735.658	39409.57
735.999	39376.13
736.339	39295.45
736.68	39382
737.021	39319.86
737.361	39003.71
737.702	39205.96
738.042	39064.27
738.383	38994.44
738.723	39044.83
739.063	38926.87
739.404	38889.13
739.744	38686.65
740.084	38633.32
740.424	38737.72
740.764	38557.16
741.104	38732.3
741.444	38452.08
741.784	38345.64
742.124	38431.52
742.464	38349.71
742.804	38233.33
743.143	38236.04
743.483	38168.47
743.823	38048.7
744.162	37984.52
744.502	37879.89
744.841	37823.85
745.181	38030.85
745.52	37716.28
745.86	37872.66
746.199	37786.79
746.538	37691.2
746.877	37619.34
747.216	37697.3
747.556	37458.21
747.895	37427.25
748.234	37312.68
748.573	37079.24
748.911	37195.84
749.25	37279.46
749.589	36933.93
749.928	36991.78
750.267	37050.99
750.605	36852.58
750.944	36956.3
751.283	36815.52
751.621	36818.23
751.96	36710.21
752.298	36547.5
752.636	36548.4
752.975	36376.88
753.313	36238.58
753.651	36606.48
753.989	36048.08
754.327	36094.63
754.666	35940.74
755.004	36076.1
755.342	35961.98
755.679	35908.65
756.017	35626.85
756.355	35798.82
756.693	35480.86
757.031	35614.19
757.368	35278.38
757.706	35295.55
758.044	35187.76
758.381	35229.12
758.719	35093.3
759.056	35103.7
759.394	34986.86
759.731	34667.1
760.068	34670.71
760.405	34568.79
760.743	34497.38
761.08	34571.96
761.417	34355.92
761.754	34288.12
762.091	34265.75
762.428	34003.61
762.765	33877.74
763.102	34006.32
763.438	33770.4
763.775	33549.39
764.112	33619.67
764.449	33548.93
764.785	33374.7
765.122	33254.7
765.458	32995.95
765.795	33030.08
766.131	32883.42
766.467	32877.77
766.804	32573.14
767.14	32621.5
767.476	32471.45
767.812	32337.21
768.148	32329.31
768.485	32224.45
768.821	32100.38
769.157	31962.99
769.492	31958.24
769.828	31889.54
770.164	31601.87
770.5	31530.46
770.836	31540.85
771.171	31225.15
771.507	31222.44
771.842	30876.46
772.178	31086.4
772.513	31072.39
772.849	30993.75
773.184	30709.01
773.519	30670.14
773.855	30452.29
774.19	30443.03
774.525	30282.35
774.86	30292.07
775.195	30217.04
775.53	30105.18
775.865	29893.21
776.2	29656.16
776.535	29514.92
776.87	29500.23
777.205	29415.48
777.539	29353.79
777.874	29328.25
778.209	29067.02
778.543	28945.89
778.878	28836.52
779.212	28819.12
779.547	28578.67
779.881	28588.16
780.215	28370.09
780.55	28448.05
780.884	28333.25
781.218	28169.19
781.552	28267.94
781.886	28012.36
782.22	27905.47
782.554	27866.82
782.888	27541.41
783.222	27617.11
783.556	27413.05
783.889	27304.58
784.223	27024.59
784.557	27006.51
784.89	27107.3
785.224	26971.71
785.557	26871.6
785.891	26720.87
786.224	26620.75
786.558	26651.26
786.891	26343.93
787.224	26366.52
787.557	26234.55
787.891	26252.85
788.224	26261.44
788.557	26199.3
788.89	26078.17
789.223	25976.25
789.556	25700.78
789.888	25712.53
790.221	25649.93
790.554	25497.17
790.887	25436.15
791.219	25258.98
791.552	25302.37
791.884	25047.69
792.217	25162.04
792.549	24980.57
792.882	24804.08
793.214	24770.86
793.546	24850.63
793.879	24616.51
794.211	24403.86
794.543	24572.22
794.875	24461.72
795.207	24426.24
795.539	24354.83
795.871	24289.52
796.203	24079.58
796.535	23998.45
796.867	24006.13
797.198	23917.55
797.53	23970.43
797.862	23765.46
798.193	23688.63
798.525	23580.38
798.856	23595.75
799.188	23354.17
799.519	23237.11
799.85	23110.79
800.182	23173.61
800.513	23147.63
800.844	22882.32
801.175	23041.19
801.506	22973.85
801.837	22845.49
802.168	22692.04
802.499	22753.51
802.83	22624.02
803.161	22472.16
803.491	22443.69
803.822	22486.85
804.153	22257.93
804.483	22186.75
804.814	22124.6
805.145	22112.17
805.475	22163.7
805.805	21949.24
806.136	22004.61
806.466	21886.42
806.796	21874.44
807.126	21675.35
807.457	21632.64
807.787	21752.63
808.117	21594.22
808.447	21507.67
808.777	21577.05
809.107	21310.84
809.436	21450.95
809.766	21325.3
810.096	21301.57
810.426	21171.63
810.755	21136.38
811.085	21023.39
811.414	21102.71
811.744	20884.63
812.073	20895.48
812.403	20783.85
812.732	20667.01
813.061	20695.94
813.39	20595.6
813.719	20491.88
814.049	20587.24
814.378	20541.14
814.707	20423.63
815.036	20427.7
815.365	20348.6
815.693	20039.46
816.022	20136.63
816.351	20107.03
816.68	20028.16
817.008	20022.51
817.337	19850.99
817.665	19835.85
817.994	19905.9
818.322	19814.83
818.651	19765.57
818.979	19619.81
819.307	19791.56
819.636	19703.2
819.964	19535.52
820.292	19677.89
820.62	19600.6
820.948	19490.77
821.276	19536.87
821.604	19486.25
821.932	19619.81
822.259	19557.44
822.587	19482.86
822.915	19496.42
823.243	19498.68
823.57	19416.65
823.898	19503.65
824.225	19358.35
824.553	19377.78
824.88	19436.08
825.207	19380.72
825.535	19406.93
825.862	19521.51
826.189	19321.96
826.516	19400.83
826.843	19391.11
827.17	19383.66
827.497	19441.51
827.824	19398.35
828.151	19355.86
828.478	19332.81
828.805	19420.94
829.131	19371.45
829.458	19349.76
829.785	19281.06
830.111	19420.94
830.438	19360.83
830.764	19272.02
831.09	19363.09
831.417	19197
831.743	19341.4
832.069	19276.54
832.395	19231.8
832.722	19296.43
833.048	19117.68
833.374	19166.49
833.7	19092.59
834.026	19198.8
834.351	19192.02
834.677	19157.9
835.003	19109.99
835.329	19173.94
835.654	19091.24
835.98	19019.15
836.306	19062.76
836.631	18988.19
836.956	19032.03
837.282	18966.49
837.607	18933.5
837.932	18875.87
838.258	18824.35
838.583	18825.03
838.908	18743.22
839.233	18784.35
839.558	18727.18
839.883	18669.1
840.208	18564.7
840.533	18608.54
840.858	18538.26
841.182	18490.57
841.507	18561.98
841.832	18337.36
842.156	18306.17
842.481	18466.84
842.805	18328.77
843.13	18230.92
843.454	18246.29
843.778	18140.53
844.103	18156.57
844.427	18096.69
844.751	18022.56
845.075	18027.76
845.399	17942.34
845.723	17900.53
846.047	17848.33
846.371	17812.62
846.695	17741.67
847.019	17614.89
847.343	17534.44
847.666	17426.65
847.99	17381.9
848.313	17395.23
848.637	17288.12
848.96	17189.36
849.284	17224.39
849.607	17043.83
849.931	16995.25
850.254	16899.2
850.577	16791.41
850.9	16697.63
851.223	16582.37
851.546	16584.86
851.869	16390.06
852.192	16546.44
852.515	16450.4
852.838	16368.37
853.161	16435.26
853.483	16276.62
853.806	16209.96
854.129	16203.18
854.451	16113.23
854.774	16009.51
855.096	16023.29
855.419	15993.24
855.741	15946.01
856.063	15808.84
856.385	15754.6
856.708	15722.74
857.03	15727.71
857.352	15769.74
857.674	15599.35
857.996	15578.11
858.318	15452.23
858.64	15490.65
858.961	15542.4
859.283	15301.05
859.605	15247.72
859.926	15338.34
860.248	15303.09
860.57	15171.34
860.891	15275.74
861.212	15157.33
861.534	15074.62
861.855	15074.62
862.176	15075.3
862.498	15100.83
862.819	15005.47
863.14	15005.47
863.461	14957.78
863.782	14865.58
864.103	14919.59
864.424	14757.79
864.745	14897.22
865.065	14633.27
865.386	14626.72
865.707	14675.53
866.027	14643.22
866.348	14577.91
866.668	14569.77
866.989	14559.38
867.309	14436.89
867.63	14559.6
867.95	14544.46
868.27	14477.57
868.59	14402.32
868.91	14399.61
869.23	14421.98
869.55	14316.45
869.87	14443
870.19	14316.22
870.51	14311.25
870.83	14293.62
871.15	14270.35
871.469	14177.47
871.789	14353.51
872.109	14195.09
872.428	14112.16
872.748	14107.41
873.067	14173.17
873.386	14146.51
873.706	14146.05
874.025	13988.09
874.344	13928.66
874.663	14005.27
874.982	13920.52
875.301	14012.27
875.62	13946.29
875.939	13921.2
876.258	13929.56
876.577	13797.59
876.896	13892.5
877.214	13775.44
877.533	13843.01
877.852	13845.27
878.17	13816.35
878.489	13692.73
878.807	13760.3
879.125	13685.73
879.444	13721.43
879.762	13596.24
880.08	13608.89
880.398	13551.27
880.716	13560.08
881.034	13480.54
881.352	13470.37
881.67	13440.76
881.988	13473.76
882.306	13417.94
882.624	13380.65
882.941	13390.14
883.259	13273.76
883.577	13300.43
883.894	13217.94
884.212	13157.61
884.529	13193.99
884.846	13127.55
885.164	13137.04
885.481	13037.61
885.798	13083.94
886.115	12951.96
886.432	13015.91
886.75	12938.85
887.067	12875.13
887.383	12911.06
887.7	12897.27
888.017	12750.84
888.334	12784.73
888.651	12783.38
888.967	12717.39
889.284	12751.29
889.6	12653.21
889.917	12584.97
890.233	12584.97
890.55	12521.46
890.866	12518.53
891.182	12511.3
891.498	12469.04
891.815	12371.19
892.131	12306.33
892.447	12288.02
892.763	12237.63
893.079	12204.64
893.395	12230.17
893.71	12168.71
894.026	12153.34
894.342	12133.45
894.657	12016.85
894.973	12012.78
895.289	11994.47
895.604	11963.97
895.92	11852.33
896.235	11879.45
896.55	11862.72
896.865	11801.71
897.181	11783.63
897.496	11792.44
897.811	11690.07
898.126	11665.67
898.441	11587.48
898.756	11535.95
899.071	11484.2
899.386	11521.26
899.7	11400.14
900.015	11349.74
900.33	11335.73
900.644	11325.11
900.959	11343.19
901.273	11259.35
901.588	11181.16
901.902	11135.51
902.216	11110.88
902.531	11032.46
902.845	10975.52
903.159	10963.09
903.473	10910.43
903.787	10871.11
904.101	10807.39
904.415	10849.19
904.729	10704.79
905.042	10731.91
905.356	10720.38
905.67	10612.14
905.984	10700.95
906.297	10585.7
906.611	10520.16
906.924	10452.37
907.237	10472.25
907.551	10382.09
907.864	10347.96
908.177	10367.62
908.491	10337.57
908.804	10172.15
909.117	10176.22
909.43	10139.38
909.743	10060.74
910.056	10056.67
910.368	10012.83
910.681	10048.99
910.994	9969.67
911.307	9913.17
911.619	9920.63
911.932	9875.43
912.244	9702.78
912.557	9748.43
912.869	9716.57
913.181	9726.28
913.494	9679.51
913.806	9532.39
914.118	9523.8
914.43	9456.69
914.742	9531.49
915.054	9445.84
915.366	9393.86
915.678	9367.88
915.99	9286.75
916.302	9254.21
916.613	9229.35
916.925	9216.69
917.236	9183.02
917.548	9086.75
917.859	9091.5
918.171	9025.51
918.482	9034.32
918.794	8987.09
919.105	8972.63
919.416	8833.2
919.727	8926.53
920.038	8847.66
920.349	8738.97
920.66	8705.97
920.971	8675.46
921.282	8674.56
921.593	8567.9
921.903	8540.1
922.214	8587.33
922.525	8495.58
922.835	8396.6
923.146	8442.25
923.456	8423.49
923.767	8328.35
924.077	8325.87
924.387	8300.56
924.697	8239.32
925.008	8246.32
925.318	8176.49
925.628	8204.52
925.938	8122.71
926.248	8087
926.558	8038.19
926.867	8020.34
927.177	7967.91
927.487	7987.57
927.796	7888.59
928.106	7843.62
928.416	7866.22
928.725	7847.24
929.034	7810.85
929.344	7777.41
929.653	7722.49
929.962	7705.09
930.271	7653.34
930.581	7609.73
930.89	7547.13
931.199	7509.39
931.508	7573.57
931.817	7523.4
932.125	7430.52
932.434	7433.46
932.743	7318.89
933.051	7347.59
933.36	7281.15
933.669	7231.21
933.977	7233.47
934.286	7206.58
934.594	7204.09
934.902	7094.94
935.21	7085.22
935.519	7114.6
935.827	7030.54
936.135	7021.04
936.443	6967.03
936.751	6936.3
937.059	6902.18
937.367	6860.6
937.674	6855.62
937.982	6818.56
938.29	6783.99
938.597	6743.99
938.905	6724.55
939.213	6687.27
939.52	6706.48
939.827	6655.4
940.135	6559.81
940.442	6532.7
940.749	6545.58
941.056	6520.04
941.363	6463.54
941.67	6450.66
941.977	6480.49
942.284	6411.57
942.591	6401.4
942.898	6412.47
943.205	6394.62
943.511	6294.28
943.818	6273.27
944.125	6290.22
944.431	6268.07
944.738	6133.16
945.044	6129.32
945.35	6130.45
945.657	6029.66
945.963	6022.43
946.269	6043.22
946.575	6018.81
946.881	6001.64
947.187	5994.63
947.493	5945.59
947.799	5926.16
948.105	5904.92
948.41	5890.9
948.716	5838.25
949.022	5762.55
949.327	5786.95
949.633	5733.85
949.938	5737.01
950.244	5751.7
950.549	5679.38
950.854	5632.38
951.16	5668.54
951.465	5616.11
951.77	5572.72
952.075	5524.59
952.38	5525.26
952.685	5555.32
952.99	5471.93
953.294	5512.61
953.599	5438.03
953.904	5411.59
954.209	5389.22
954.513	5348.55
954.818	5394.87
955.122	5336.34
955.426	5300.41
955.731	5214.76
956.035	5197.14
956.339	5226.97
956.643	5228.55
956.948	5181.32
957.252	5207.76
957.556	5151.71
957.86	5129.79
958.163	5077.82
958.467	5106.29
958.771	5045.5
959.075	5040.31
959.378	4984.94
959.682	5011.15
959.985	4967.99
960.289	4959.18
960.592	4930.25
960.896	4902
961.199	4872.17
961.502	4841.44
961.805	4823.36
962.108	4782.01
962.411	4802.8
962.714	4730.26
963.017	4711.5
963.32	4736.36
963.623	4674.67
963.926	4673.99
964.228	4629.47
964.531	4631.28
964.833	4642.8
965.136	4599.86
965.438	4585.85
965.741	4548.11
966.043	4533.43
966.345	4545.86
966.648	4483.48
966.95	4453.2
967.252	4427.44
967.554	4432.86
967.856	4426.76
968.158	4419.08
968.46	4331.62
968.761	4385.18
969.063	4363.94
969.365	4349.25
969.666	4286.88
969.968	4284.62
970.269	4238.07
970.571	4199.2
970.872	4192.19
971.174	4153.1
971.475	4198.29
971.776	4149.26
972.077	4174.57
972.378	4137.5
972.679	4094.34
972.98	4110.84
973.281	4105.64
973.582	4032.65
973.883	4078.97
974.183	4015.25
974.484	3991.07
974.785	3999.65
975.085	4010.28
975.386	3960.56
975.686	3912.65
975.986	3943.39
976.287	3862.71
976.587	3860.45
976.887	3848.47
977.187	3873.78
977.487	3821.13
977.787	3818.64
978.087	3777.06
978.387	3751.75
978.687	3770.06
978.987	3732.09
979.286	3709.04
979.586	3736.84
979.885	3656.16
980.185	3657.52
980.484	3603.28
980.784	3646.44
981.083	3615.26
981.382	3645.77
981.682	3576.84
981.981	3582.94
982.28	3555.82
982.579	3539.33
982.878	3563.51
983.177	3521.02
983.475	3525.77
983.774	3490.29
984.073	3476.5
984.372	3417.3
984.67	3441.7
984.969	3396.28
985.267	3422.04
985.566	3423.85
985.864	3380.01
986.162	3342.04
986.461	3305.21
986.759	3325.55
987.057	3291.42
987.355	3257.53
987.653	3260.24
987.951	3244.65
988.249	3264.53
988.547	3262.05
988.844	3216.62
989.142	3166.46
989.44	3186.79
989.737	3125.78
990.035	3142.5
990.332	3164.65
990.63	3097.08
990.927	3081.03
991.224	3054.59
991.521	3068.15
991.819	3041.04
992.116	3023.86
992.413	3038.1
992.71	2987.48
993.006	3027.02
993.303	2961.04
993.6	2987.03
993.897	2984.99
994.193	2947.93
994.49	2955.61
994.787	2940.7
995.083	2886.69
995.379	2901.15
995.676	2887.14
995.972	2883.75
996.268	2813.02
996.565	2833.81
996.861	2822.06
997.157	2773.92
997.453	2798.56
997.749	2771.21
998.044	2768.73
998.34	2737.77
998.636	2733.02
998.932	2737.32
999.227	2693.93
999.523	2689.63
999.818	2638.33
1000.114	2660.71
1000.409	2625.45
1000.704	2617.77
1001	2619.35
1001.295	2601.05
1001.59	2562.4
1001.885	2556.08
1002.18	2542.07
1002.475	2545.23
1002.77	2536.87
1003.065	2516.98
1003.359	2491.45
1003.654	2519.92
1003.949	2483.99
1004.243	2453.48
1004.538	2450.77
1004.832	2447.61
1005.127	2392.01
1005.421	2407.38
1005.715	2363.77
1006.009	2356.08
1006.304	2371
1006.598	2349.98
1006.892	2329.42
1007.186	2316.99
1007.48	2316.54
1007.773	2269.76
1008.067	2264.11
1008.361	2301.85
1008.655	2229.31
1008.948	2215.07
1009.242	2190.89
1009.535	2204
1009.829	2191.11
1010.122	2184.11
1010.415	2145.47
1010.708	2165.35
1011.001	2130.1
1011.295	2112.7
1011.588	2123.77
1011.881	2090.33
1012.173	2071.57
1012.466	2087.39
1012.759	2069.31
1013.052	2043.1
1013.344	2032.93
1013.637	2040.38
1013.93	2037.45
1014.222	2020.27
1014.514	1996.32
1014.807	1953.61
1015.099	1958.58
1015.391	1959.03
1015.683	1922.87
1015.976	1918.58
1016.268	1943.89
1016.56	1902.76
1016.851	1883.55
1017.143	1876.55
1017.435	1869.09
1017.727	1883.55
1018.018	1874.74
1018.31	1839.49
1018.602	1815.98
1018.893	1815.31
1019.185	1825.7
1019.476	1793.84
1019.767	1783.67
1020.058	1764.46
1020.35	1767.85
1020.641	1732.82
1020.932	1681.52
1021.223	1716.78
1021.514	1713.61
1021.804	1689.21
1022.095	1655.08
1022.386	1675.65
1022.677	1677
1022.967	1661.19
1023.258	1642.2
1023.548	1634.29
1023.839	1613.28
1024.129	1606.27
1024.419	1575.09
1024.709	1571.7
1025	1569.89
1025.29	1549.55
1025.58	1559.04
1025.87	1538.48
1026.16	1547.52
1026.449	1533.73
1026.739	1501.64
1027.029	1495.77
1027.319	1491.25
1027.608	1485.6
1027.898	1454.18
1028.187	1453.51
1028.477	1448.31
1028.766	1461.19
1029.055	1429.55
1029.344	1404.92
1029.634	1421.42
1029.923	1384.58
1030.212	1372.15
1030.501	1372.83
1030.79	1340.97
1031.078	1366.73
1031.367	1357.46
1031.656	1319.5
1031.945	1315.21
1032.233	1328.99
1032.522	1298.26
1032.81	1309.78
1033.099	1277.47
1033.387	1291.48
1033.675	1280.4
1033.963	1238.6
1034.251	1248.77
1034.54	1256.68
1034.828	1235.89
1035.116	1234.53
1035.403	1246.05
1035.691	1224.81
1035.979	1198.6
1036.267	1193.4
1036.554	1216
1036.842	1174.42
1037.129	1160.41
1037.417	1166.96
1037.704	1166.06
1037.992	1150.46
1038.279	1124.48
1038.566	1161.54
1038.853	1161.54
1039.14	1161.54
