Data from White_reflection_standard_FLMS001491_016.txt Node
Date: Tue Feb 07 10:31:58 GMT 2017
User: dcchb
Spectrometer: FLMS00149
Trigger mode: 0
Integration Time (sec): 2.000000E-2
Scans to average: 10
Electric dark correction enabled: true
Nonlinearity correction enabled: false
Boxcar width: 0
XAxis mode: Wavelengths
Number of Pixels in Spectrum: 2048
>>>>>Begin Spectral Data<<<<<
341.393	-21.13
341.776	-21.13
342.16	-21.13
342.543	-52.99
342.927	-48.02
343.31	-66.33
343.693	-52.99
344.077	-76.27
344.46	-71.75
344.843	-55.03
345.226	-34.69
345.61	-36.04
345.993	-19.1
346.376	-8.47
346.759	13.9
347.142	42.15
347.525	43.05
347.908	52.09
348.291	64.74
348.674	100.9
349.057	103.84
349.44	127.57
349.823	149.04
350.206	182.71
350.588	235.36
350.971	272.42
351.354	282.37
351.737	280.56
352.119	310.16
352.502	302.7
352.884	321.91
353.267	328.92
353.65	337.73
354.032	356.71
354.414	339.77
354.797	363.95
355.179	363.72
355.562	371.85
355.944	398.75
356.326	377.73
356.709	381.12
357.091	410.95
357.473	421.57
357.855	406.88
358.238	412.53
358.62	414.79
359.002	420.21
359.384	434.45
359.766	405.75
360.148	392.42
360.53	406.66
360.912	401.91
361.294	439.2
361.676	411.18
362.057	435.13
362.439	411.85
362.821	423.15
363.203	405.53
363.584	434.68
363.966	411.4
364.348	421.8
364.729	433.55
365.111	420.67
365.493	437.62
365.874	402.36
366.256	396.03
366.637	405.75
367.019	410.5
367.4	431.51
367.781	415.7
368.163	423.15
368.544	427.45
368.925	418.41
369.306	436.49
369.688	412.53
370.069	415.92
370.45	435.13
370.831	429.25
371.212	424.73
371.593	449.14
371.974	459.54
372.355	463.38
372.736	446.65
373.117	459.54
373.498	457.28
373.879	453.89
374.26	443.04
374.641	444.17
375.021	441.46
375.402	477.84
375.783	489.82
376.163	518.97
376.544	506.31
376.925	482.81
377.305	488.24
377.686	489.37
378.066	508.57
378.447	501.57
378.827	522.59
379.208	498.63
379.588	520.1
379.968	511.29
380.349	540.66
380.729	551.74
381.109	566.65
381.489	528.91
381.87	540.44
382.25	559.65
382.63	558.06
383.01	588.12
383.39	580.21
383.77	556.48
384.15	587.67
384.53	592.41
384.91	588.12
385.29	609.14
385.67	602.58
386.049	614.56
386.429	617.95
386.809	629.02
387.189	627.22
387.568	656.37
387.948	633.32
388.328	648.23
388.707	642.81
389.087	651.85
389.466	697.27
389.846	686.2
390.225	701.11
390.605	691.85
390.984	682.35
391.363	704.95
391.743	715.35
392.122	722.58
392.501	735.46
392.881	735.91
393.26	760.32
393.639	765.97
394.018	751.05
394.397	770.94
394.776	753.77
395.155	789.92
395.534	792.86
395.913	803.71
396.292	830.15
396.671	830.6
397.05	844.84
397.429	862.01
397.808	859.53
398.186	843.93
398.565	858.85
398.944	867.89
399.323	884.38
399.701	890.71
400.08	896.36
400.458	919.86
400.837	900.2
401.215	919.64
401.594	942.69
401.972	930.03
402.351	972.97
402.729	959.86
403.107	973.19
403.486	970.03
403.864	1000.54
404.242	1022.68
404.62	1019.3
404.999	1029.92
405.377	1018.39
405.755	1057.94
406.133	1070.37
406.511	1105.17
406.889	1130.93
407.267	1087.32
407.645	1140.65
408.023	1137.48
408.401	1145.39
408.779	1170.48
409.156	1181.1
409.534	1180.42
409.912	1230.14
410.29	1231.72
410.667	1257.48
411.045	1262.9
411.422	1276.69
411.8	1292.06
412.178	1325.28
412.555	1337.7
412.933	1342.45
413.31	1383.58
413.687	1433.07
414.065	1424.93
414.442	1435.78
414.819	1469.9
415.197	1474.65
415.574	1477.36
415.951	1510.36
416.328	1504.48
416.705	1514.88
417.082	1516.91
417.46	1563.69
417.837	1586.29
418.214	1592.39
418.591	1638.04
418.967	1612.95
419.344	1641.43
419.721	1673.97
420.098	1661.31
420.475	1703.57
420.852	1723.46
421.228	1731.82
421.605	1745.6
421.982	1745.6
422.358	1769.78
422.735	1806.39
423.111	1779.28
423.488	1867.18
423.864	1861.31
424.241	1878.26
424.617	1886.62
424.994	1939.95
425.37	1924.81
425.746	1945.82
426.123	1973.39
426.499	1987.86
426.875	2063.56
427.251	2104.46
427.627	2112.37
428.003	2099.27
428.379	2184.91
428.756	2209.09
429.132	2193.28
429.507	2230.56
429.883	2279.38
430.259	2256.78
430.635	2336.77
431.011	2358.7
431.387	2393.04
431.763	2461.74
432.138	2431.01
432.514	2466.94
432.89	2511.23
433.265	2586.71
433.641	2608.41
434.016	2635.07
434.392	2657.67
434.767	2723.88
435.143	2753.26
435.518	2788.29
435.894	2751.45
436.269	2819.93
436.644	2857.89
437.02	2884.56
437.395	2898.12
437.77	2984.89
438.145	3007.27
438.52	3029.41
438.895	3068.05
439.271	3070.09
439.646	3144.21
440.021	3155.96
440.395	3134.49
440.77	3165.91
441.145	3193.48
441.52	3258.56
441.895	3295.85
442.27	3299.46
442.645	3314.83
443.019	3338.1
443.394	3360.7
443.769	3459.01
444.143	3419.23
444.518	3497.2
444.892	3471.21
445.267	3462.85
445.641	3511.43
446.016	3537.65
446.39	3565.44
446.764	3563.18
447.139	3618.55
447.513	3675.5
447.887	3671.43
448.262	3733.12
448.636	3734.48
449.01	3811.54
449.384	3779.9
449.758	3857.86
450.132	3868.26
450.506	3918.43
450.88	3963.62
451.254	3967.69
451.628	4007.01
452.002	4085.88
452.376	4107.8
452.75	4158.65
453.123	4202.04
453.497	4250.62
453.871	4250.17
454.244	4390.05
454.618	4392.31
454.992	4476.61
455.365	4467.34
455.739	4583.27
456.112	4650.61
456.486	4649.26
456.859	4703.49
457.232	4803.15
457.606	4809.7
457.979	4914.33
458.352	5054.67
458.725	4999.08
459.099	5089.24
459.472	5179.64
459.845	5251.5
460.218	5228.22
460.591	5337.37
460.964	5402.23
461.337	5464.38
461.71	5581.44
462.083	5625.5
462.456	5646.97
462.829	5644.03
463.201	5791.15
463.574	5778.49
463.947	5920.64
464.32	6004.02
464.692	6085.15
465.065	6142.32
465.438	6270
465.81	6319.95
466.183	6438.59
466.555	6532.14
466.928	6559.04
467.3	6583.44
467.672	6692.14
468.045	6869.76
468.417	6889.2
468.789	6933.26
469.161	7032.92
469.534	7131
469.906	7330.99
470.278	7404.66
470.65	7434.04
471.022	7609.63
471.394	7797.65
471.766	7824.99
472.138	7959.23
472.51	8142.27
472.882	8257.3
473.253	8286.67
473.625	8403.73
473.997	8664.07
474.369	8670.39
474.74	8761.46
475.112	8912.87
475.484	9135.47
475.855	9242.36
476.227	9345.63
476.598	9638.96
476.97	9650.25
477.341	9955.56
477.713	10065.39
478.084	10116.91
478.455	10395.55
478.827	10480.52
479.198	10846.61
479.569	10786.04
479.94	11177.22
480.311	11305.35
480.682	11520.04
481.053	11768.17
481.424	11933.58
481.795	12056.97
482.166	12246.12
482.537	12411.09
482.908	12709.61
483.279	12833.45
483.65	13065.08
484.021	13334.9
484.391	13455.8
484.762	13557.27
485.133	13709.81
485.503	13923.14
485.874	14257.14
486.244	14314.54
486.615	14651.71
486.985	14753.4
487.356	15024.58
487.726	15136.44
488.097	15527.61
488.467	15578.91
488.837	15903.42
489.207	16125.11
489.578	16308.84
489.948	16438.55
490.318	16657.08
490.688	16839.22
491.058	17097.52
491.428	17303.39
491.798	17433.78
492.168	17782.92
492.538	17858.63
492.908	18038.96
493.278	18258.84
493.648	18357.6
494.017	18634.43
494.387	18776.57
494.757	18994.42
495.126	19177.91
495.496	19301.3
495.866	19419.49
496.235	19620.39
496.605	19815.86
496.974	19794.39
497.344	20049.3
497.713	20186.25
498.082	20404.55
498.452	20613.36
498.821	20698.1
499.19	20768.83
499.559	21018.32
499.928	21215.6
500.298	21226.45
500.667	21481.36
501.036	21484.29
501.405	21805.64
501.774	21777.62
502.143	22060.32
502.512	22048.57
502.88	22270.71
503.249	22271.39
503.618	22607.43
503.987	22623.02
504.356	22837.48
504.724	23017.59
505.093	23079.96
505.462	23276.79
505.83	23321.76
506.199	23632.49
506.567	23857.11
506.936	23850.11
507.304	24169.87
507.672	24332.58
508.041	24430.21
508.409	24600.82
508.777	24881.49
509.145	24961.49
509.514	25089.4
509.882	25196.51
510.25	25323.97
510.618	25641.7
510.986	25684.41
511.354	26008.02
511.722	26238.75
512.09	26410.49
512.458	26395.13
512.826	26738.62
513.193	26747.88
513.561	26952.17
513.929	27188.1
514.297	27437.36
514.664	27544.7
515.032	27712.83
515.4	28034.18
515.767	28083.44
516.135	28262.19
516.502	28134.74
516.869	28627.38
517.237	28839.35
517.604	28770.43
517.972	29239.57
518.339	29324.99
518.706	29532.9
519.073	29691.76
519.44	29863.51
519.808	30211.75
520.175	30334.46
520.542	30680.21
520.909	30824.61
521.276	30863.26
521.643	31257.37
522.009	31468.44
522.376	31802.89
522.743	31920.63
523.11	32194.07
523.477	32425.25
523.843	32717.44
524.21	33033.14
524.577	33296.19
524.943	33396.52
525.31	33661.6
525.676	33899.56
526.043	34163.96
526.409	34266.56
526.776	34684.85
527.142	34864.96
527.508	35038.51
527.874	35264.27
528.241	35525.05
528.607	35468.56
528.973	35999.17
529.339	35918.26
529.705	36346.73
530.071	36578.36
530.437	36775.19
530.803	36976.09
531.169	37296.53
531.535	37259.25
531.901	37501.5
532.267	37603.42
532.632	37920.92
532.998	38056.29
533.364	38215.38
533.73	38232.78
534.095	38480.46
534.461	38834.12
534.826	38877.96
535.192	39208.12
535.557	39390.26
535.923	39340.1
536.288	39691.95
536.653	39780.08
537.019	39772.17
537.384	39968.78
537.749	40127.42
538.114	40248.77
538.479	40286.06
538.845	40605.82
539.21	40549.56
539.575	40723.11
539.94	40869.32
540.305	41172.82
540.67	41133.49
541.034	41245.81
541.399	41477.44
541.764	41612.58
542.129	41794.49
542.494	41825.91
542.858	41990.2
543.223	41989.52
543.587	42330.53
543.952	42272.22
544.316	42564.19
544.681	42518.09
545.045	42688.26
545.41	42969.6
545.774	43122.82
546.138	43116.04
546.503	43369.82
546.867	43384.51
547.231	43729.36
547.595	43756.25
547.959	43945.17
548.324	43956.02
548.688	44049.58
549.052	44240.76
549.416	44378.16
549.779	44423.35
550.143	44540.86
550.507	44832.83
550.871	44854.3
551.235	44895.43
551.599	45398.02
551.962	45399.6
552.326	45428.75
552.689	45723.2
553.053	45635.3
553.417	45732.24
553.78	46229.41
554.143	46241.38
554.507	46374.71
554.87	46509.17
555.234	46889.73
555.597	46685.89
555.96	46913.91
556.323	47096.95
556.686	47171.75
557.05	47416.72
557.413	47552.76
557.776	47665.75
558.139	47935.12
558.502	47985.74
558.865	48148.68
559.228	48549.12
559.59	48530.14
559.953	48658.49
560.316	48965.61
560.679	49032.27
561.041	49230.23
561.404	49439.94
561.767	49689.2
562.129	49580.28
562.492	49964.22
562.854	49786.37
563.217	50030.21
563.579	50140.04
563.941	50325.8
564.304	50517.88
564.666	50720.59
565.028	50855.95
565.39	50944.54
565.753	51156.73
566.115	51280.12
566.477	51432.88
566.839	51397.41
567.201	51640.11
567.563	51774.8
567.925	51945.41
568.287	52045.07
568.648	52083.72
569.01	52229.25
569.372	52385.4
569.734	52313.09
570.095	52624.04
570.457	52718.27
570.819	52778.39
571.18	52850.02
571.542	53003.47
571.903	52962.56
572.265	53159.85
572.626	53244.59
572.987	53300.41
573.349	53443.23
573.71	53402.1
574.071	53619.72
574.432	53666.72
574.794	53781.52
575.155	53778.36
575.516	53742.65
575.877	53954.63
576.238	53947.62
576.599	54122.76
576.96	54146.49
577.32	54178.12
577.681	54265.58
578.042	54317.1
578.403	54288.18
578.763	54360.04
579.124	54405.01
579.485	54496.31
579.845	54661.95
580.206	54576.98
580.566	54535.4
580.927	54569.75
581.287	54681.61
581.648	54573.37
582.008	54706.7
582.368	54661.05
582.728	54722.52
583.089	54725
583.449	54682.07
583.809	54769.29
584.169	54793.47
584.529	54772.01
584.889	54964.77
585.249	54728.17
585.609	54646.36
585.969	54851.78
586.329	54737.88
586.688	54825.79
587.048	54781.72
587.408	54883.42
587.768	54750.76
588.127	54769.07
588.487	54757.32
588.846	54958.22
589.206	54777.2
589.565	54776.53
589.925	54942.4
590.284	54804.77
590.643	54892.23
591.003	54954.83
591.362	55050.19
591.721	54946.24
592.08	54921.38
592.44	55123.18
592.799	54979.68
593.158	54935.39
593.517	55017.88
593.876	55033.69
594.235	55033.47
594.593	54926.13
594.952	55095.61
595.311	54979.01
595.67	55076.63
596.029	55164.76
596.387	55100.13
596.746	55160.7
597.104	55040.47
597.463	55068.72
597.822	55194.14
598.18	55134.93
598.538	55086.12
598.897	55325.89
599.255	55033.24
599.613	55441.14
599.972	55235.27
600.33	55414.02
600.688	55187.81
601.046	55378.09
601.404	55451.76
601.762	55395.04
602.12	55501.93
602.478	55463.06
602.836	55528.6
603.194	55408.6
603.552	55463.06
603.91	55428.26
604.268	55536.73
604.625	55356.85
604.983	55554.36
605.341	55461.48
605.698	55624.41
606.056	55647.92
606.413	55628.25
606.771	55807.23
607.128	55792.09
607.485	55650.4
607.843	55620.57
608.2	55804.07
608.557	55781.92
608.914	55748.7
609.272	55898.08
609.629	55932.43
609.986	56058.3
610.343	55970.62
610.7	56131.29
611.057	56046.77
611.414	55983.73
611.771	56014.01
612.127	56148.92
612.484	56146.89
612.841	56256.71
613.198	56175.59
613.554	56166.32
613.911	56302.81
614.267	56255.81
614.624	56252.42
614.98	56275.7
615.337	56388.69
615.693	56351.17
616.05	56296.71
616.406	56541.45
616.762	56392.98
617.118	56372.87
617.475	56376.48
617.831	56499.87
618.187	56531.73
618.543	56561.34
618.899	56570.15
619.255	56541
619.611	56487.89
619.967	56660.32
620.323	56622.8
620.678	56584.84
621.034	56518.4
621.39	56484.05
621.746	56508.91
622.101	56793.42
622.457	56522.24
622.812	56618.29
623.168	56704.61
623.523	56642.92
623.879	56651.96
624.234	56508.91
624.589	56615.8
624.945	56708.9
625.3	56688.34
625.655	56644.73
626.01	56693.99
626.365	56662.13
626.72	56637.04
627.075	56647.89
627.43	56562.47
627.785	56459.87
628.14	56627.78
628.495	56689.02
628.85	56584.84
629.205	56462.81
629.559	56606.08
629.914	56505.52
630.269	56482.47
630.623	56425.3
630.978	56328.8
631.332	56456.03
631.687	56490.15
632.041	56329.93
632.396	56414.9
632.75	56255.36
633.104	56353.89
633.459	56190.27
633.813	56270.27
634.167	56183.95
634.521	56144.63
634.875	56155.92
635.229	56120.9
635.583	55993.67
635.937	55993.44
636.291	55980.56
636.645	55957.29
636.999	55872.54
637.352	55945.53
637.706	55793.67
638.06	55879.55
638.413	55872.09
638.767	55732.43
639.121	55841.13
639.474	55626.9
639.828	55591.19
640.181	55730.63
640.534	55623.28
640.888	55566.11
641.241	55507.35
641.594	55488.82
641.947	55521.82
642.301	55398.43
642.654	55476.17
643.007	55422.16
643.36	55346
643.713	55343.97
644.066	55437.98
644.419	55227.81
644.771	54993.7
645.124	54768.62
645.477	54648.62
645.83	54547.15
646.182	54416.08
646.535	54395.74
646.888	54379.25
647.24	54176.54
647.593	54341.51
647.945	54342.86
648.298	54122.98
648.65	54078.92
649.002	54028.52
649.355	54115.07
649.707	53972.03
650.059	54160.04
650.411	54466.93
650.763	54475.29
651.115	54743.53
651.467	54634.83
651.819	54679.35
652.171	54581.5
652.523	54442.52
652.875	54549.19
653.227	54412.92
653.578	54554.61
653.93	54460.15
654.282	54275.07
654.633	54197.33
654.985	54265.8
655.337	54277.1
655.688	54285.01
656.039	54309.42
656.391	54096.32
656.742	54154.4
657.094	54143.55
657.445	54184.68
657.796	54099.48
658.147	54029.2
658.498	54073.95
658.849	54175.86
659.2	54005.7
659.551	53960.05
659.902	54025.59
660.253	53967.73
660.604	54001.4
660.955	53924.12
661.306	54025.81
661.656	53921.41
662.007	53910.11
662.358	53890
662.708	53892.03
663.059	53815.87
663.409	53669.21
663.76	53861.97
664.11	53798.02
664.461	53801.18
664.811	53713.05
665.161	53726.84
665.511	53699.72
665.862	53639.83
666.212	53744.69
666.562	53753.28
666.912	53640.74
667.262	53668.31
667.612	53646.39
667.962	53678.25
668.312	53563.68
668.662	53716.89
669.011	53560.51
669.361	53501.53
669.711	53472.15
670.06	53482.32
670.41	53428.31
670.76	53439.39
671.109	53429.44
671.459	53431.7
671.808	53381.53
672.157	53346.51
672.507	53199.39
672.856	53242.33
673.205	53311.93
673.554	53330.69
673.904	53171.37
674.253	53321.42
674.602	53201.43
674.951	52753.08
675.3	52592.85
675.649	53142.22
675.998	53005.5
676.346	53074.88
676.695	53053.41
677.044	52852.73
677.393	53048.89
677.741	52996.23
678.09	52870.59
678.438	52823.36
678.787	52878.72
679.135	52914.2
679.484	52587.66
679.832	52865.84
680.181	52596.7
680.529	52772.06
680.877	52492.52
681.225	52537.26
681.573	52697.94
681.922	52400.09
682.27	52412.75
682.618	52295.01
682.966	52224.28
683.314	52355.35
683.661	52243.94
684.009	52048.69
684.357	52103.83
684.705	51905.19
685.053	52001.68
685.4	51848.47
685.748	51840.33
686.095	51766.89
686.443	51671.97
686.79	51587.68
687.138	51635.59
687.485	51577.29
687.832	51431.3
688.18	51428.37
688.527	51216.85
688.874	51232.44
689.221	51135.04
689.568	50986.12
689.915	50883.97
690.262	50954.93
690.609	50773.02
690.956	50797.87
691.303	50730.98
691.65	50623.64
691.997	50521.95
692.344	50402.18
692.69	50247.38
693.037	50333.7
693.383	49916.31
693.73	50141.39
694.077	49840.38
694.423	49912.92
694.769	49806.04
695.116	49585.02
695.462	49576.21
695.808	49320.62
696.155	49436.33
696.501	49149.56
696.847	49235.88
697.193	49020.52
697.539	49112.04
697.885	48821.2
698.231	48691.04
698.577	48736.68
698.923	48672.05
699.269	48414.89
699.614	48305.51
699.96	48337.15
700.306	48160.43
700.651	48061.45
700.997	47902.58
701.342	47803.83
701.688	47858.06
702.033	47690.84
702.379	47595.7
702.724	47439.77
703.069	47613.32
703.415	47023.51
703.76	47066.9
704.105	47113.9
704.45	46960.01
704.795	46731.99
705.14	46664.65
705.485	46658.1
705.83	46473.47
706.175	46425.33
706.52	46393.92
706.865	46242.96
707.209	46218.56
707.554	46016.53
707.899	46029.64
708.243	45841.17
708.588	45835.97
708.932	45551.46
709.277	45338.13
709.621	45529.99
709.966	45275.08
710.31	45242.09
710.654	44943.34
710.998	45090
711.342	45020.4
711.687	44943.56
712.031	44815.88
712.375	44554.42
712.719	44606.4
713.063	44483.01
713.407	44688.66
713.75	44468.77
714.094	44470.58
714.438	44212.28
714.782	44285.28
715.125	43993.53
715.469	44227.65
715.812	43786.53
716.156	43600.1
716.499	43650.94
716.843	43729.13
717.186	43345.41
717.53	43666.08
717.873	43712.18
718.216	43408.24
718.559	43187.45
718.902	43003.5
719.246	43026.55
719.589	42913.11
719.932	42839.21
720.275	42970.28
720.617	42759.44
720.96	42636.73
721.303	42584.08
721.646	42532.55
721.989	42411.2
722.331	42473.12
722.674	42279.91
723.016	42411.2
723.359	42035.39
723.701	42318.32
724.044	41944.77
724.386	41768.05
724.729	42116.75
725.071	41817.09
725.413	41707.26
725.755	41669.98
726.097	41695.74
726.439	41304.34
726.782	41298.24
727.124	41474.28
727.465	41266.6
727.807	41286.49
728.149	41132.59
728.491	40978.92
728.833	41244
729.175	41035.42
729.516	40922.88
729.858	40820.96
730.199	40890.34
730.541	40823.45
730.882	40713.84
731.224	40625.94
731.565	40562.21
731.906	40537.58
732.248	40352.05
732.589	40317.47
732.93	40259.62
733.271	40287.64
733.612	40261.88
733.953	40287.19
734.294	40146.63
734.635	39946.18
734.976	40036.8
735.317	39693.98
735.658	39802.91
735.999	39818.95
736.339	39558.39
736.68	39825.05
737.021	39536.25
737.361	39268.23
737.702	39512.29
738.042	39394.78
738.383	39200.44
738.723	39334.67
739.063	39088.8
739.404	39130.38
739.744	38990.73
740.084	39046.54
740.424	38982.14
740.764	38720.68
741.104	38986.21
741.444	38666.21
741.784	38600.68
742.124	38664.18
742.464	38575.82
742.804	38411.08
743.143	38357.52
743.483	38305.09
743.823	38196.17
744.162	38143.29
744.502	38258.77
744.841	38038.43
745.181	38163.18
745.52	38096.74
745.86	38058.32
746.199	37938.55
746.538	37933.13
746.877	37877.99
747.216	37935.84
747.556	37654.04
747.895	37700.82
748.234	37503.08
748.573	37410.88
748.911	37470.31
749.25	37369.3
749.589	37193.49
749.928	37208.63
750.267	37210.66
750.605	37231.9
750.944	37059.03
751.283	36857.22
751.621	36958.69
751.96	36692.26
752.298	36746.27
752.636	36783.33
752.975	36450
753.313	36263.11
753.651	36473.28
753.989	36303.34
754.327	36290.68
754.666	36032.16
755.004	36117.81
755.342	36019.05
755.679	35995.32
756.017	35776.35
756.355	35804.37
756.693	35575.67
757.031	35645.73
757.368	35453.64
757.706	35372.29
758.044	35278.73
758.381	35238.51
758.719	35066.31
759.056	35071.06
759.394	34949.02
759.731	34739.76
760.068	34783.38
760.405	34548.36
760.743	34390.17
761.08	34539.32
761.417	34343.39
761.754	34252.32
762.091	34128.93
762.428	33944.76
762.765	33810.3
763.102	33918.54
763.438	33788.38
763.775	33528.27
764.112	33556.52
764.449	33643.97
764.785	33329.41
765.122	33117.43
765.458	33068.17
765.795	33058.23
766.131	33042.86
766.467	32792.7
766.804	32615.53
767.14	32530.56
767.476	32474.97
767.812	32326.72
768.148	32306.83
768.485	32134.86
768.821	31887.86
769.157	31909.33
769.492	31873.63
769.828	31837.02
770.164	31594.76
770.5	31495.1
770.836	31454.65
771.171	31239.52
771.507	31288.33
771.842	30867.78
772.178	31054.66
772.513	31034.55
772.849	30875.69
773.184	30682.24
773.519	30611.74
773.855	30406.77
774.19	30254.01
774.525	30235.02
774.86	30086.1
775.195	30068.02
775.53	29964.52
775.865	29766.79
776.2	29596.62
776.535	29426.46
776.87	29532.44
777.205	29285.44
777.539	29126.13
777.874	29169.74
778.209	28898.34
778.543	28832.8
778.878	28828.96
779.212	28726.36
779.547	28595.97
779.881	28685.69
780.215	28387.39
780.55	28464.9
780.884	28192.14
781.218	28102.65
781.552	28184
781.886	27957.57
782.22	27869.44
782.554	27750.57
782.888	27553.06
783.222	27378.6
783.556	27267.64
783.889	27190.58
784.223	27173.86
784.557	26996.69
784.89	26994.43
785.224	26876.92
785.557	26810.93
785.891	26662.46
786.224	26614.55
786.558	26463.37
786.891	26356.48
787.224	26177.5
787.557	26133.21
787.891	26122.82
788.224	26055.02
788.557	26046.43
788.89	25897.06
789.223	25749.94
789.556	25692.09
789.888	25525.32
790.221	25476.05
790.554	25229.28
790.887	25248.04
791.219	25161.94
791.552	25160.13
791.884	25096.63
792.217	24847.37
792.549	24932.34
792.882	24659.35
793.214	24613.48
793.546	24650.09
793.879	24429.3
794.211	24244
794.543	24398.12
794.875	24229.76
795.207	24359.7
795.539	24079.93
795.871	24057.33
796.203	23921.97
796.535	23898.69
796.867	23760.39
797.198	23732.14
797.53	23789.77
797.862	23513.62
798.193	23589.32
798.525	23552.04
798.856	23434.53
799.188	23184.14
799.519	23097.36
799.85	23079.73
800.182	23070.01
800.513	23042.9
800.844	22733.3
801.175	23003.8
801.506	22859.85
801.837	22776.69
802.168	22661.89
802.499	22614.66
802.83	22463.25
803.161	22392.07
803.491	22457.6
803.822	22407.66
804.153	22265.74
804.483	22155.01
804.814	22084.05
805.145	21960.67
805.475	21960.67
805.805	21940.33
806.136	21956.6
806.466	21903.49
806.796	21792.53
807.126	21665.53
807.457	21546.44
807.787	21569.04
808.117	21373.34
808.447	21367.46
808.777	21396.61
809.107	21157.07
809.436	21221.93
809.766	21186.22
810.096	21051.99
810.426	21044.53
810.755	20990.07
811.085	20972.22
811.414	20908.26
811.744	20758.66
812.073	20715.95
812.403	20700.59
812.732	20485
813.061	20498.56
813.39	20508.95
813.719	20323.87
814.049	20463.76
814.378	20353.93
814.707	20328.17
815.036	20244.33
815.365	20101.05
815.693	19949.42
816.022	19965.92
816.351	19910.78
816.68	19878.46
817.008	19939.7
817.337	19614.74
817.665	19712.82
817.994	19829.65
818.322	19794.17
818.651	19584
818.979	19571.12
819.307	19700.84
819.636	19563.67
819.964	19418.59
820.292	19500.17
820.62	19485.25
820.948	19396.44
821.276	19479.37
821.604	19346.04
821.932	19409.55
822.259	19400.05
822.587	19317.8
822.915	19222.21
823.243	19396.67
823.57	19243
823.898	19298.59
824.225	19261.53
824.553	19310.34
824.88	19226.5
825.207	19311.47
825.535	19253.39
825.862	19311.24
826.189	19224.92
826.516	19313.28
826.843	19288.19
827.17	19367.51
827.497	19343.33
827.824	19308.76
828.151	19309.44
828.478	19110.57
828.805	19329.32
829.131	19203.68
829.458	19187.18
829.785	19069.67
830.111	19136.56
830.438	19356.21
830.764	19147.86
831.09	19274.63
831.417	19073.96
831.743	19199.61
832.069	19236.44
832.395	19097.69
832.722	19101.08
833.048	19043.91
833.374	19083.68
833.7	18898.37
834.026	19011.14
834.351	19073.28
834.677	18931.82
835.003	18983.34
835.329	18968.43
835.654	18917.13
835.98	18852.27
836.306	18868.77
836.631	18687.31
836.956	18717.13
837.282	18792.61
837.607	18708.77
837.932	18697.93
838.258	18664.71
838.583	18586.06
838.908	18502.9
839.233	18530.47
839.558	18486.63
839.883	18456.58
840.208	18469.23
840.533	18478.72
840.858	18290.03
841.182	18404.37
841.507	18432.62
841.832	18306.07
842.156	18234.89
842.481	18211.16
842.805	18153.53
843.13	18151.05
843.454	18119.18
843.778	17991.28
844.103	17952.18
844.427	17970.04
844.751	17914.44
845.075	17825.41
845.399	17875.35
845.723	17658.18
846.047	17699.76
846.371	17539.99
846.695	17512.87
847.019	17419.99
847.343	17373.44
847.666	17273.11
847.99	17170.96
848.313	17244.63
848.637	17057.29
848.96	17111.75
849.284	17031.08
849.607	16958.76
849.931	16871.31
850.254	16740.24
850.577	16561.26
850.9	16566.91
851.223	16491.88
851.546	16437.19
851.869	16249.63
852.192	16428.38
852.515	16203.75
852.838	16222.51
853.161	16166.92
853.483	16123.08
853.806	16056.87
854.129	15946.36
854.451	15852.58
854.774	15803.31
855.096	15759.7
855.419	15780.94
855.741	15786.59
856.063	15601.06
856.385	15636.54
856.708	15529.2
857.03	15517.45
857.352	15513.15
857.674	15443.1
857.996	15367.62
858.318	15288.07
858.64	15335.08
858.961	15205.59
859.283	15199.04
859.605	15180.96
859.926	15116.55
860.248	15086.04
860.57	15052.6
860.891	15028.64
861.212	14923.56
861.534	14921.08
861.855	14921.75
862.176	14890.12
862.498	14957.23
862.819	14860.29
863.14	14823.68
863.461	14792.27
863.782	14721.76
864.103	14807.86
864.424	14686.28
864.745	14696
865.065	14627.75
865.386	14571.03
865.707	14616.23
866.027	14535.55
866.348	14512.73
866.668	14527.64
866.989	14327.87
867.309	14263.24
867.63	14357.25
867.95	14297.36
868.27	14278.38
868.59	14331.04
868.91	14249.46
869.23	14304.82
869.55	14044.04
869.87	14269.57
870.19	14206.75
870.51	14205.39
870.83	14185.28
871.15	14052.17
871.469	14123.36
871.789	14072.96
872.109	14091.72
872.428	13940.09
872.748	13993.19
873.067	14017.82
873.386	14033.64
873.706	14018.73
874.025	13884.27
874.344	13860.09
874.663	13839.75
874.982	13849.01
875.301	13864.38
875.62	13790.48
875.939	13795.46
876.258	13706.65
876.577	13672.52
876.896	13645.63
877.214	13595.69
877.533	13591.62
877.852	13589.59
878.17	13691.05
878.489	13615.35
878.807	13532.64
879.125	13562.92
879.444	13539.87
879.762	13488.35
880.08	13508.23
880.398	13399.99
880.716	13385.75
881.034	13361.8
881.352	13370.16
881.67	13284.28
881.988	13245.87
882.306	13293.55
882.624	13196.15
882.941	13157.51
883.259	13178.98
883.577	13110.73
883.894	13089.26
884.212	13063.05
884.529	13105.76
884.846	13056.04
885.164	12916.84
885.481	12986.21
885.798	12998.64
886.115	12801.36
886.432	12896.5
886.75	12803.39
887.067	12798.42
887.383	12699.67
887.7	12736.95
888.017	12689.5
888.334	12669.61
888.651	12669.84
888.967	12574.92
889.284	12555.04
889.6	12535.83
889.917	12480.01
890.233	12471.88
890.55	12431.88
890.866	12401.59
891.182	12348.04
891.498	12313.46
891.815	12274.37
892.131	12202.5
892.447	12230.07
892.763	12158.44
893.079	12086.35
893.395	12078.67
893.71	12138.1
894.026	12031.66
894.342	11935.39
894.657	11908.05
894.973	11930.65
895.289	11889.29
895.604	11919.57
895.92	11765.91
896.235	11742.86
896.55	11731.56
896.865	11630.99
897.181	11699.69
897.496	11566.36
897.811	11550.32
898.126	11528.4
898.441	11504.44
898.756	11372.7
899.071	11334.5
899.386	11365.92
899.7	11224.9
900.015	11230.1
900.33	11212.02
900.644	11170.89
900.959	11159.59
901.273	11139.26
901.588	11006.83
901.902	11005.7
902.216	10999.15
902.531	10932.93
902.845	10851.58
903.159	10846.83
903.473	10738.36
903.787	10730.45
904.101	10766.16
904.415	10703.79
904.729	10687.97
905.042	10540.4
905.356	10497.46
905.67	10487.52
905.984	10483.45
906.297	10525.71
906.611	10404.36
906.924	10332.95
907.237	10336.34
907.551	10350.8
907.864	10234.87
908.177	10273.29
908.491	10195.1
908.804	10154.2
909.117	10085.72
909.43	10019.06
909.743	9956.01
910.056	9971.83
910.368	9943.13
910.681	9866.52
910.994	9807.99
911.307	9792.62
911.619	9737.71
911.932	9714.43
912.244	9612.74
912.557	9650.25
912.869	9619.3
913.181	9573.87
913.494	9603.02
913.806	9490.03
914.118	9501.33
914.43	9374.1
914.742	9331.85
915.054	9330.72
915.366	9325.29
915.678	9277.38
915.99	9230.6
916.302	9171.62
916.613	9066.77
916.925	9125.75
917.236	9067.45
917.548	9016.37
917.859	8983.15
918.171	8910.61
918.482	8873.1
918.794	8879.43
919.105	8785.42
919.416	8797.85
919.727	8765.31
920.038	8733.89
920.349	8689.83
920.66	8578.87
920.971	8617.51
921.282	8593.11
921.593	8502.94
921.903	8449.83
922.214	8473.11
922.525	8445.77
922.835	8412.77
923.146	8287.35
923.456	8315.83
923.767	8263.4
924.077	8247.35
924.387	8167.81
924.697	8073.35
925.008	8156.73
925.318	8121.03
925.628	8080.58
925.938	8051.43
926.248	7919.68
926.558	7909.74
926.867	7871.09
927.177	7865.22
927.487	7796.74
927.796	7845.56
928.106	7820.02
928.416	7667.71
928.725	7718.78
929.034	7651.21
929.344	7639.01
929.653	7607.6
929.962	7575.06
930.271	7566.24
930.581	7471.33
930.89	7493.93
931.199	7376.42
931.508	7391.78
931.817	7344.33
932.125	7408.05
932.434	7335.51
932.743	7229.3
933.051	7201.51
933.36	7186.82
933.669	7129.87
933.977	7138.23
934.286	7089.64
934.594	7028.85
934.902	7042.19
935.21	7016.2
935.519	7014.84
935.827	6939.37
936.135	6897.33
936.443	6835.64
936.751	6853.04
937.059	6815.3
937.367	6775.3
937.674	6786.15
937.982	6790.89
938.29	6711.35
938.597	6656.21
938.905	6630.45
939.213	6565.14
939.52	6557.91
939.827	6601.52
940.135	6532.82
940.442	6512.94
940.749	6477.23
941.056	6461.41
941.363	6404.69
941.67	6395.65
941.977	6362.66
942.284	6296.44
942.591	6251.47
942.898	6306.39
943.205	6265.03
943.511	6204.24
943.818	6193.17
944.125	6144.81
944.431	6159.95
944.738	6132.38
945.044	6056.68
945.35	6066.17
945.657	6060.97
945.963	5972.61
946.269	5991.14
946.575	5947.53
946.881	5919.73
947.187	5807.19
947.493	5858.49
947.799	5809.68
948.105	5767.42
948.41	5733.52
948.716	5803.58
949.022	5728.55
949.327	5743.24
949.633	5637.7
949.938	5631.83
950.244	5644.94
950.549	5613.75
950.854	5599.97
951.16	5557.03
951.465	5508.89
951.77	5535.79
952.075	5466.86
952.38	5407.43
952.685	5462.12
952.99	5388.9
953.294	5393.87
953.599	5384.38
953.904	5320.65
954.209	5289.01
954.513	5286.98
954.818	5274.55
955.122	5255.79
955.426	5233.65
955.731	5209.47
956.035	5178.06
956.339	5131.28
956.643	5150.71
956.948	5068.23
957.252	5067.55
957.556	5086.31
957.86	5012.64
958.163	5033.2
958.467	5022.35
958.771	4991.39
959.075	4953.88
959.378	4906.65
959.682	4908.23
959.985	4902.13
960.289	4855.58
960.592	4842.02
960.896	4773.77
961.199	4769.93
961.502	4795.92
961.805	4737.84
962.108	4691.06
962.411	4710.95
962.714	4687.9
963.017	4651.97
963.32	4655.81
963.623	4631.86
963.926	4614.23
964.228	4516.38
964.531	4630.05
964.833	4543.72
965.136	4520.45
965.438	4480.9
965.741	4445.42
966.043	4505.76
966.345	4485.87
966.648	4445.87
966.95	4429.38
967.252	4407.45
967.554	4375.14
967.856	4321.13
968.158	4300.56
968.46	4292.66
968.761	4315.71
969.063	4291.53
969.365	4252.43
969.666	4233.9
969.968	4175.82
970.269	4185.77
970.571	4169.27
970.872	4168.36
971.174	4114.81
971.475	4092.21
971.776	4067.8
972.077	4064.19
972.378	4034.13
972.679	4057.18
972.98	3986.45
973.281	3964.3
973.582	3976.51
973.883	3967.69
974.183	3962.27
974.484	3945.09
974.785	3907.13
975.085	3907.13
975.386	3886.56
975.686	3858.09
975.986	3836.4
976.287	3863.06
976.587	3787.58
976.887	3765.21
977.187	3755.95
977.487	3737.64
977.787	3761.82
978.087	3665.78
978.387	3677.08
978.687	3696.74
978.987	3653.12
979.286	3650.86
979.586	3654.71
979.885	3587.14
980.185	3583.97
980.484	3570.41
980.784	3551.88
981.083	3548.27
981.382	3529.06
981.682	3497.42
981.981	3544.65
982.28	3482.73
982.579	3445.67
982.878	3473.92
983.177	3446.8
983.475	3438.89
983.774	3395.73
984.073	3384.66
984.372	3365.67
984.67	3356.63
984.969	3365
985.267	3314.83
985.566	3307.14
985.864	3329.29
986.162	3306.69
986.461	3266.47
986.759	3303.98
987.057	3224.66
987.355	3241.16
987.653	3200.93
987.951	3215.62
988.249	3178.56
988.547	3163.87
988.844	3168.17
989.142	3150.99
989.44	3146.02
989.737	3115.74
990.035	3101.05
990.332	3107.83
990.63	3075.06
990.927	3038.23
991.224	3048.85
991.521	3004.1
991.819	2998.68
992.116	2995.06
992.413	2986.7
992.71	2971.33
993.006	2911.67
993.303	2954.61
993.6	2967.49
993.897	2923.43
994.193	2896.76
994.49	2892.69
994.787	2835.97
995.083	2854.28
995.379	2823.54
995.676	2813.6
995.972	2815.18
996.268	2737.67
996.565	2776.31
996.861	2767.72
997.157	2723.66
997.453	2713.26
997.749	2761.4
998.044	2645.02
998.34	2704
998.636	2682.53
998.932	2661.96
999.227	2629.42
999.523	2677.78
999.818	2630.55
1000.114	2582.87
1000.409	2591.68
1000.704	2536.54
1001	2589.65
1001.295	2523.66
1001.59	2551.01
1001.885	2535.64
1002.18	2497.9
1002.475	2489.31
1002.77	2470.1
1003.065	2452.7
1003.359	2436.66
1003.654	2450.67
1003.949	2396.21
1004.243	2384.23
1004.538	2415.42
1004.832	2375.42
1005.127	2360.5
1005.421	2354.63
1005.715	2338.13
1006.009	2361.41
1006.304	2268.75
1006.598	2309.66
1006.892	2269.21
1007.186	2266.72
1007.48	2254.52
1007.773	2252.94
1008.067	2207.51
1008.361	2203.22
1008.655	2179.94
1008.948	2203.22
1009.242	2181.75
1009.535	2134.29
1009.829	2117.8
1010.122	2110.79
1010.415	2101.75
1010.708	2129.77
1011.001	2089.1
1011.295	2103.56
1011.588	2070.34
1011.881	2036.9
1012.173	2024.24
1012.466	1998.7
1012.759	2039.38
1013.052	2008.2
1013.344	1973.85
1013.637	2026.5
1013.93	1999.61
1014.222	1956.22
1014.514	1948.54
1014.807	1946.05
1015.099	1924.36
1015.391	1936.56
1015.683	1905.37
1015.976	1900.18
1016.268	1874.41
1016.56	1871.7
1016.851	1856.79
1017.143	1825.83
1017.435	1828.31
1017.727	1823.34
1018.018	1803.23
1018.31	1796.9
1018.602	1772.95
1018.893	1778.82
1019.185	1773.4
1019.476	1716.9
1019.767	1756
1020.058	1702.89
1020.35	1726.17
1020.641	1698.6
1020.932	1693.85
1021.223	1683.91
1021.514	1676.23
1021.804	1651.37
1022.095	1635.78
1022.386	1654.98
1022.677	1639.17
1022.967	1617.47
1023.258	1575.21
1023.548	1633.74
1023.839	1564.82
1024.129	1561.2
1024.419	1541.32
1024.709	1557.36
1025	1504.48
1025.29	1528.21
1025.58	1527.3
1025.87	1522.78
1026.16	1516.23
1026.449	1483.46
1026.739	1436.23
1027.029	1458.61
1027.319	1462.22
1027.608	1433.97
1027.898	1416.35
1028.187	1412.51
1028.477	1408.66
1028.766	1379.51
1029.055	1394.88
1029.344	1388.33
1029.634	1347.65
1029.923	1370.47
1030.212	1349.46
1030.501	1357.37
1030.79	1340.42
1031.078	1345.84
1031.367	1292.96
1031.656	1328.44
1031.945	1290.25
1032.233	1285.28
1032.522	1298.38
1032.81	1292.28
1033.099	1277.59
1033.387	1292.96
1033.675	1235.79
1033.963	1242.11
1034.251	1246.86
1034.54	1224.49
1034.828	1207.76
1035.116	1193.53
1035.403	1154.43
1035.691	1205.05
1035.979	1196.24
1036.267	1166.18
1036.554	1188.78
1036.842	1167.31
1037.129	1140.2
1037.417	1138.61
1037.704	1131.16
1037.992	1127.54
1038.279	1122.34
1038.566	1099.29
1038.853	1099.29
1039.14	1099.29
