Data from white_steel_sheet_FLMS001491_001.txt Node
Date: Tue Feb 07 10:57:17 GMT 2017
User: dcchb
Spectrometer: FLMS00149
Trigger mode: 0
Integration Time (sec): 2.000000E-2
Scans to average: 10
Electric dark correction enabled: true
Nonlinearity correction enabled: false
Boxcar width: 0
XAxis mode: Wavelengths
Number of Pixels in Spectrum: 2048
>>>>>Begin Spectral Data<<<<<
341.393	2.71
341.776	2.71
342.16	2.71
342.543	-82.03
342.927	-58.98
343.31	-53.56
343.693	-88.81
344.077	-69.83
344.46	-59.66
344.843	-52.88
345.226	-55.14
345.61	-52.43
345.993	-35.25
346.376	-15.14
346.759	10.4
347.142	31.41
347.525	61.47
347.908	54.46
348.291	81.35
348.674	117.74
349.057	125.87
349.44	120.45
349.823	121.35
350.206	147.79
350.588	212.42
350.971	209.71
351.354	224.4
351.737	240.45
352.119	257.39
352.502	273.21
352.884	262.14
353.267	291.07
353.65	284.74
354.032	312.53
354.414	293.1
354.797	302.36
355.179	318.86
355.562	323.61
355.944	339.88
356.326	337.17
356.709	343.95
357.091	344.85
357.473	337.84
357.855	322.7
358.238	335.58
358.62	329.93
359.002	346.21
359.384	362.02
359.766	366.54
360.148	334.23
360.53	333.1
360.912	355.92
361.294	336.94
361.676	315.92
362.057	345.75
362.439	340.33
362.821	332.19
363.203	327.9
363.584	334.68
363.966	316.83
364.348	316.6
364.729	305.53
365.111	334.68
365.493	312.08
365.874	319.09
366.256	330.61
366.637	329.93
367.019	310.05
367.4	346.88
367.781	331.74
368.163	337.39
368.544	332.19
368.925	317.96
369.306	325.42
369.688	339.2
370.069	328.8
370.45	330.39
370.831	315.92
371.212	320.67
371.593	331.74
371.974	344.4
372.355	330.16
372.736	334.23
373.117	321.8
373.498	323.16
373.879	314.79
374.26	322.93
374.641	339.2
375.021	327.68
375.402	336.04
375.783	328.35
376.163	333.32
376.544	343.49
376.925	337.62
377.305	350.73
377.686	316.83
378.066	340.78
378.447	342.82
378.827	349.14
379.208	376.49
379.588	354.57
379.968	355.02
380.349	364.51
380.729	369.03
381.109	371.06
381.489	342.36
381.87	351.18
382.25	315.7
382.63	392.31
383.01	357.05
383.39	361.57
383.77	358.18
384.15	363.61
384.53	381.01
384.91	360.22
385.29	378.75
385.67	379.2
386.049	380.33
386.429	383.94
386.809	383.27
387.189	383.27
387.568	391.18
387.948	411.97
388.328	402.02
388.707	420.33
389.087	393.89
389.466	405.87
389.846	423.27
390.225	420.78
390.605	413.1
390.984	399.09
391.363	435.02
391.743	419.42
392.122	435.24
392.501	461
392.881	448.58
393.26	449.71
393.639	442.93
394.018	471.63
394.397	464.62
394.776	451.51
395.155	451.74
395.534	472.3
395.913	502.81
396.292	497.16
396.671	489.48
397.05	470.5
397.429	505.98
397.808	515.69
398.186	521.12
398.565	519.31
398.944	507.78
399.323	541.91
399.701	544.62
400.08	543.04
400.458	561.12
400.837	562.25
401.215	555.92
401.594	552.53
401.972	562.02
402.351	581.91
402.729	589.14
403.107	590.49
403.486	604.96
403.864	620.77
404.242	637.27
404.62	608.35
404.999	651.51
405.377	639.98
405.755	652.64
406.133	689.02
406.511	664.16
406.889	675.24
407.267	692.86
407.645	721.11
408.023	742.35
408.401	732.86
408.779	748.45
409.156	751.84
409.534	776.93
409.912	773.09
410.29	809.47
410.667	814.44
411.045	818.74
411.422	819.64
411.8	854.89
412.178	849.02
412.555	873.65
412.933	882.24
413.31	876.14
413.687	931.73
414.065	897.83
414.442	931.27
414.819	948.68
415.197	944.83
415.574	969.92
415.951	969.24
416.328	1006.98
416.705	982.57
417.082	981.22
417.46	1019.41
417.837	1017.37
418.214	1036.36
418.591	1042.23
418.967	1051.95
419.344	1052.85
419.721	1090.59
420.098	1086.98
420.475	1108.9
420.852	1096.92
421.228	1125.85
421.605	1136.92
421.982	1162.46
422.358	1148.9
422.735	1170.82
423.111	1158.39
423.488	1177.6
423.864	1208.1
424.241	1224.83
424.617	1204.94
424.994	1229.12
425.37	1260.98
425.746	1248.33
426.123	1269.35
426.499	1267.99
426.875	1269.57
427.251	1317.93
427.627	1365.84
428.003	1372.39
428.379	1386.18
428.756	1379.17
429.132	1391.83
429.507	1429.34
429.883	1444.71
430.259	1474.54
430.635	1466.85
431.011	1497.59
431.387	1522.45
431.763	1537.13
432.138	1580.98
432.514	1582.11
432.89	1622.56
433.265	1629.34
433.641	1643.57
434.016	1666.62
434.392	1688.77
434.767	1714.31
435.143	1715.44
435.518	1735.1
435.894	1770.8
436.269	1781.2
436.644	1822.1
437.02	1869.78
437.395	1855.54
437.77	1870.69
438.145	1908.88
438.52	1921.53
438.895	1967.18
439.271	1950.91
439.646	1973.51
440.021	1996.78
440.395	2012.6
440.77	2036.78
441.145	1992.04
441.52	2082.43
441.895	2085.14
442.27	2092.6
442.645	2076.33
443.019	2158.59
443.394	2132.6
443.769	2163.11
444.143	2113.62
444.518	2182.99
444.892	2205.14
445.267	2238.81
445.641	2252.6
446.016	2273.39
446.39	2268.87
446.764	2273.61
447.139	2289.21
447.513	2348.64
447.887	2323.33
448.262	2361.97
448.636	2361.97
449.01	2373.5
449.384	2424.34
449.758	2416.66
450.132	2454.4
450.506	2449.65
450.88	2504.79
451.254	2478.58
451.628	2517
452.002	2577.33
452.376	2596.99
452.75	2625.47
453.123	2623.43
453.497	2701.17
453.871	2679.03
454.244	2761.28
454.618	2776.42
454.992	2821.17
455.365	2823.2
455.739	2867.72
456.112	2914.05
456.486	2920.83
456.859	2955.4
457.232	3029.75
457.606	3023.88
457.979	3078.11
458.352	3087.6
458.725	3197.43
459.099	3201.05
459.472	3296.18
459.845	3261.16
460.218	3293.92
460.591	3313.59
460.964	3310.42
461.337	3420.7
461.71	3435.84
462.083	3507.25
462.456	3504.31
462.829	3522.62
463.201	3613.01
463.574	3624.99
463.947	3712.67
464.32	3734.59
464.692	3770.97
465.065	3817.53
465.438	3864.53
465.81	3929.16
466.183	3973.68
466.555	4006
466.928	4071.08
467.3	4078.31
467.672	4120.57
468.045	4211.19
468.417	4243.96
468.789	4289.15
469.161	4313.78
469.534	4450.05
469.906	4482.59
470.278	4544.97
470.65	4605.75
471.022	4696.6
471.394	4738.63
471.766	4811.4
472.138	4825.18
472.51	4926.2
472.882	4984.5
473.253	5069.47
473.625	5151.05
473.997	5256.58
474.369	5312.4
474.74	5341.1
475.112	5464.49
475.484	5522.11
475.855	5617.48
476.227	5645.73
476.598	5792.39
476.97	5868.55
477.341	6049.78
477.713	6122.55
478.084	6116.68
478.455	6269.67
478.827	6382.66
479.198	6599.6
479.569	6505.14
479.94	6747.17
480.311	6821.06
480.682	6973.15
481.053	7119.13
481.424	7118
481.795	7263.99
482.166	7372.24
482.537	7522.97
482.908	7682.06
483.279	7731.1
483.65	7874.37
484.021	8036.4
484.391	8064.19
484.762	8195.26
485.133	8267.81
485.503	8402.26
485.874	8576.95
486.244	8624.63
486.615	8814.68
486.985	8866.21
487.356	9091.29
487.726	9189.14
488.097	9378.74
488.467	9355.46
488.837	9594.78
489.207	9667.77
489.578	9842.68
489.948	9967.2
490.318	10017.14
490.688	10150.92
491.058	10244.48
491.428	10456
491.798	10477.01
492.168	10712.71
492.538	10771.47
492.908	10942.76
493.278	11117.67
493.648	11120.84
494.017	11231.8
494.387	11321.74
494.757	11520.6
495.126	11612.58
495.496	11606.47
495.866	11756.53
496.235	11805.57
496.605	12038.55
496.974	12009.18
497.344	12173.69
497.713	12179.79
498.082	12301.82
498.452	12543.17
498.821	12574.81
499.19	12621.14
499.559	12741.13
499.928	12815.48
500.298	12872.2
500.667	13036.72
501.036	13019.32
501.405	13243.27
501.774	13215.7
502.143	13319.88
502.512	13455.47
502.88	13515.12
503.249	13609.59
503.618	13660.88
503.987	13797.83
504.356	13845.74
504.724	14013.87
505.093	14092.06
505.462	14049.8
505.83	14277.14
506.199	14292.51
506.567	14532.5
506.936	14557.13
507.304	14722.78
507.672	14829.21
508.041	14821.31
508.409	14984.01
508.777	15174.52
509.145	15228.75
509.514	15281.18
509.882	15431.23
510.25	15388.75
510.618	15573.83
510.986	15725.69
511.354	15842.52
511.722	16005
512.09	16161.38
512.458	16138.33
512.826	16317.09
513.193	16432.79
513.561	16518.89
513.929	16790.97
514.297	16814.47
514.664	16931.76
515.032	16985.32
515.4	17134.24
515.767	17201.36
516.135	17382.59
516.502	17339.43
516.869	17738.52
517.237	17728.35
517.604	17734.22
517.972	17955.46
518.339	18032.75
518.706	18189.35
519.073	18234.1
519.44	18404.26
519.808	18654.65
520.175	18736
520.542	18948.65
520.909	18984.36
521.276	19036.34
521.643	19296.44
522.009	19408.3
522.376	19604.91
522.743	19730.1
523.11	19959.93
523.477	20121.5
523.843	20133.71
524.21	20486.92
524.577	20474.26
524.943	20568.5
525.31	20855.72
525.676	20926
526.043	21236.73
526.409	21232.44
526.776	21530.51
527.142	21490.96
527.508	21624.06
527.874	21945.64
528.241	22031.96
528.607	22035.13
528.973	22285.52
529.339	22259.3
529.705	22628.56
530.071	22740.42
530.437	22930.7
530.803	22990.13
531.169	23159.17
531.535	23153.52
531.901	23269.22
532.267	23364.58
532.632	23567.29
532.998	23696.33
533.364	23896.09
533.73	23913.5
534.095	24233.04
534.461	24268.74
534.826	24308.06
535.192	24435.52
535.557	24599.13
535.923	24556.64
536.288	24778.33
536.653	24782.63
537.019	24739.01
537.384	24813.13
537.749	24919.8
538.114	25128.83
538.479	25202.5
538.845	25251.09
539.21	25275.27
539.575	25599.1
539.94	25560.01
540.305	25704.63
540.67	25717.74
541.034	25806.1
541.399	26026.66
541.764	26073.66
542.129	26186.88
542.494	26160.67
542.858	26403.15
543.223	26483.15
543.587	26544.16
543.952	26621.45
544.316	26827.77
544.681	26716.81
545.045	26806.53
545.41	26858.73
545.774	27191.6
546.138	27179.4
546.503	27175.33
546.867	27272.73
547.231	27498.71
547.595	27540.97
547.959	27536.45
548.324	27601.76
548.688	27674.3
549.052	27851.47
549.416	27929.21
549.779	27960.39
550.143	28070.67
550.507	28356.77
550.871	28363.32
551.235	28335.53
551.599	28566.03
551.962	28615.52
552.326	28761.28
552.689	28888.96
553.053	28807.83
553.417	28899.58
553.78	29304.54
554.143	29229.74
554.507	29346.57
554.87	29410.3
555.234	29780.46
555.597	29566
555.96	29683.74
556.323	29864.3
556.686	29879.67
557.05	30174.8
557.413	30344.06
557.776	30282.37
558.139	30419.77
558.502	30694.11
558.865	30742.69
559.228	30889.36
559.59	31012.74
559.953	31070.14
560.316	31337.26
560.679	31292.74
561.041	31456.8
561.404	31589.9
561.767	31895.66
562.129	31806.62
562.492	32129.1
562.854	31997.58
563.217	32112.6
563.579	32175.88
563.941	32532.7
564.304	32628.29
564.666	32848.63
565.028	32838.46
565.39	33012.01
565.753	33124.33
566.115	33334.49
566.477	33437.31
566.839	33504.66
567.201	33659
567.563	33786.46
567.925	33997.3
568.287	33947.81
568.648	34035.26
569.01	34358.87
569.372	34557.96
569.734	34391.64
570.095	34666.43
570.457	34738.75
570.819	34718.64
571.18	34845.41
571.542	35065.29
571.903	35054.22
572.265	35175.35
572.626	35285.85
572.987	35276.81
573.349	35437.49
573.71	35614.2
574.071	35669.12
574.432	35708.21
574.794	36000.41
575.155	35929.68
575.516	35904.14
575.877	36009.22
576.238	36126.28
576.599	36093.51
576.96	36263.68
577.32	36284.92
577.681	36342.1
578.042	36494.41
578.403	36538.93
578.763	36512.03
579.124	36637.45
579.485	36794.06
579.845	36860.5
580.206	36618.47
580.566	36669.09
580.927	36648.53
581.287	37018.01
581.648	36829.77
582.008	36817.79
582.368	36798.81
582.728	36932.36
583.089	36975.3
583.449	37097.33
583.809	36970.33
584.169	37036.54
584.529	36863.89
584.889	37178.46
585.249	36872.02
585.609	36849.43
585.969	37023.21
586.329	37121.96
586.688	37128.74
587.048	36979.37
587.408	37053.04
587.768	37046.94
588.127	36957.45
588.487	36896.2
588.846	37271.11
589.206	36906.83
589.565	37001.51
589.925	37184.11
590.284	37059.14
590.643	37084.45
591.003	37239.7
591.362	37305.23
591.721	37166.71
592.08	37210.32
592.44	37203.09
592.799	37266.36
593.158	37060.95
593.517	37200.6
593.876	37423.2
594.235	37004.45
594.593	37141.85
594.952	37258.91
595.311	37106.37
595.67	37290.09
596.029	37274.05
596.387	37313.6
596.746	37340.71
597.104	37323.99
597.463	37221.39
597.822	37377.55
598.18	37228.17
598.538	37306.59
598.897	37572.12
599.255	37213.94
599.613	37780.48
599.972	37512.46
600.33	37452.8
600.688	37504.1
601.046	37449.41
601.404	37648.28
601.762	37383.65
602.12	37787.71
602.478	37632.23
602.836	37756.3
603.194	37458
603.552	37568.5
603.91	37505.91
604.268	37637.43
604.625	37463.2
604.983	37730.99
605.341	37526.92
605.698	37779.8
606.056	37697.31
606.413	37766.24
606.771	37780.25
607.128	37979.57
607.485	37792.9
607.843	37808.95
608.2	37841.72
608.557	38003.07
608.914	37814.6
609.272	37998.55
609.629	38225.44
609.986	38253.01
610.343	38034.71
610.7	38410.74
611.057	38313.12
611.414	38165.1
611.771	38288.03
612.127	38373.45
612.484	38399.67
612.841	38533.45
613.198	38439.67
613.554	38413
613.911	38674.69
614.267	38440.12
614.624	38580
614.98	38565.31
615.337	38805.99
615.693	38676.5
616.05	38749.49
616.406	39017.51
616.762	38735.25
617.118	38767.12
617.475	38867.45
617.831	38872.88
618.187	38907.23
618.543	38959.2
618.899	39098.86
619.255	39048.46
619.611	39041.69
619.967	39174.11
620.323	39146.32
620.678	39074.9
621.034	38971.18
621.39	39036.26
621.746	39114.45
622.101	39554.89
622.457	39141.57
622.812	39290.94
623.168	39342.69
623.523	39330.49
623.879	39361.22
624.234	39074
624.589	39294.56
624.945	39313.99
625.3	39320.77
625.655	39319.19
626.01	39387.21
626.365	39313.09
626.72	39294.56
627.075	39239.19
627.43	39250.04
627.785	39091.4
628.14	39160.55
628.495	39204.84
628.85	39134.11
629.205	39135.24
629.559	39272.64
629.914	39061.57
630.269	39163.94
630.623	38994.68
630.978	38956.26
631.332	39041.01
631.687	39292.98
632.041	39038.07
632.396	38950.84
632.75	38925.98
633.104	38919.43
633.459	38748.36
633.813	38705.2
634.167	38771.64
634.521	38663.39
634.875	38827.91
635.229	38612.77
635.583	38574.8
635.937	38569.16
636.291	38455.71
636.645	38489.38
636.999	38270.41
637.352	38373.45
637.706	38175.27
638.06	38381.36
638.413	38239.67
638.767	38119.9
639.121	38147.47
639.474	37831.1
639.828	37883.52
640.181	38095.72
640.534	37956.74
640.888	37703.87
641.241	37656.19
641.594	37740.93
641.947	37799.46
642.301	37623.64
642.654	37628.84
643.007	37646.02
643.36	37647.15
643.713	37500.48
644.066	37741.38
644.419	37402.18
644.771	37202.41
645.124	36785.7
645.477	36636.55
645.83	36596.55
646.182	36366.28
646.535	36280.63
646.888	36343.9
647.24	36151.14
647.593	36458.02
647.945	36463.22
648.298	36099.16
648.65	35934.42
649.002	36034.31
649.355	36177.58
649.707	35956.57
650.059	36143.91
650.411	36595.42
650.763	36493.5
651.115	36843.55
651.467	36707.51
651.819	36782.54
652.171	36666.83
652.523	36581.64
652.875	36555.42
653.227	36478.36
653.578	36717.23
653.93	36515.42
654.282	36541.86
654.633	36356.78
654.985	36242.89
655.337	36371.92
655.688	36385.26
656.039	36346.39
656.391	36069.56
656.742	36139.84
657.094	36122.89
657.445	36350
657.796	35997.25
658.147	36032.95
658.498	36075.21
658.849	36084.7
659.2	36035.44
659.551	35930.81
659.902	35981.65
660.253	35916.8
660.604	35943.46
660.955	35797.25
661.306	35909.34
661.656	35675.9
662.007	35761.32
662.358	35796.12
662.708	35555.45
663.059	35665.28
663.409	35310.94
663.76	35559.97
664.11	35492.17
664.461	35476.81
664.811	35357.26
665.161	35303.93
665.511	35161.11
665.862	35129.25
666.212	35265.74
666.562	35122.24
666.912	35112.3
667.262	34976.26
667.612	34835.02
667.962	34917.5
668.312	34749.14
668.662	34880.66
669.011	34774.68
669.361	34575.14
669.711	34575.81
670.06	34493.1
670.41	34277.52
670.76	34365.2
671.109	34253.56
671.459	34184.64
671.808	34175.6
672.157	34134.02
672.507	33805.21
672.856	33909.16
673.205	33782.61
673.554	33932.67
673.904	33682.28
674.253	33878.21
674.602	33766.34
674.951	33209.52
675.3	33074.84
675.649	33515.73
675.998	33438.22
676.346	33435.73
676.695	33473.7
677.044	33212.46
677.393	33401.16
677.741	33391.89
678.09	33220.82
678.438	33237.77
678.787	33264.44
679.135	33454.49
679.484	32951.9
679.832	33168.85
680.181	33012.92
680.529	33110.54
680.877	33000.71
681.225	33036.19
681.573	33273.02
681.922	33024.67
682.27	33014.05
682.618	33066.48
682.966	32976.76
683.314	33042.3
683.661	33001.39
684.009	32852.47
684.357	32962.98
684.705	32902.19
685.053	33015.63
685.4	32902.41
685.748	32864.67
686.095	32881.85
686.443	32712.59
686.79	32693.15
687.138	32851.11
687.485	32728.18
687.832	32837.78
688.18	32851.34
688.527	32699.93
688.874	32678.91
689.221	32844.33
689.568	32797.56
689.915	32595.08
690.262	32699.03
690.609	32664.23
690.956	32472.82
691.303	32578.8
691.65	32497
691.997	32489.99
692.344	32359.83
692.69	32318.92
693.037	32253.39
693.383	32158.48
693.73	32282.77
694.077	32062.66
694.423	32082.77
694.769	32125.48
695.116	32036.22
695.462	32020.63
695.808	31963.45
696.155	31999.16
696.501	31776.79
696.847	31829.22
697.193	31503.13
697.539	31767.3
697.885	31395.33
698.231	31363.92
698.577	31425.61
698.923	31346.29
699.269	31193.53
699.614	31159.63
699.96	31017.49
700.306	31155.11
700.651	31032.86
700.997	30874.67
701.342	30805.29
701.688	30767.33
702.033	30746.76
702.379	30554
702.724	30626.99
703.069	30667.22
703.415	30293.89
703.76	30484.4
704.105	30290.28
704.45	30219.54
704.795	29956.73
705.14	29963.73
705.485	29952.88
705.83	29903.62
706.175	29893.23
706.52	29808.48
706.865	29556.06
707.209	29729.39
707.554	29627.7
707.899	29771.19
708.243	29468.15
708.588	29404.65
708.932	29219.34
709.277	29237.65
709.621	29280.81
709.966	29082.4
710.31	29168.05
710.654	28866.36
710.998	28857.55
711.342	28999.01
711.687	28837.43
712.031	28768.96
712.375	28689.42
712.719	28795.18
713.063	28581.62
713.407	28627.95
713.75	28509.76
714.094	28397.45
714.438	28482.19
714.782	28401.06
715.125	28203.78
715.469	28291.91
715.812	28159.94
716.156	27992.48
716.499	28078.13
716.843	28015.31
717.186	27843.56
717.53	27959.26
717.873	27914.52
718.216	27864.35
718.559	27822.55
718.902	27634.3
719.246	27712.49
719.589	27579.61
719.932	27486.51
720.275	27407.64
720.617	27392.73
720.96	27482.89
721.303	27372.84
721.646	27390.92
721.989	27158.16
722.331	27319.96
722.674	27184.37
723.016	27126.29
723.359	27101.66
723.701	27082.23
724.044	26958.16
724.386	26774.21
724.729	26905.51
725.071	26896.69
725.413	26868.67
725.755	26757.49
726.097	26625.74
726.439	26572.63
726.782	26759.3
727.124	26609.92
727.465	26555.46
727.807	26566.08
728.149	26482.02
728.491	26371.96
728.833	26479.98
729.175	26305.97
729.516	26260.1
729.858	26235.47
730.199	26320.44
730.541	26115.02
730.882	26143.72
731.224	26276.6
731.565	25962.48
731.906	25995.25
732.248	26078.18
732.589	25892.43
732.93	25732.43
733.271	25800.45
733.612	25870.96
733.953	25827.34
734.294	25585.09
734.635	25637.07
734.976	25689.04
735.317	25539.67
735.658	25452.66
735.999	25505.09
736.339	25516.62
736.68	25442.95
737.021	25460.12
737.361	25289.05
737.702	25501.48
738.042	25413.34
738.383	25209.05
738.723	25299.45
739.063	25248.15
739.404	25316.85
739.744	25161.15
740.084	25051.77
740.424	25047.03
740.764	25011.32
741.104	25155.95
741.444	24974.03
741.784	24859.91
742.124	24854.49
742.464	24809.97
742.804	24804.32
743.143	24750.76
743.483	24734.49
743.823	24593.03
744.162	24663.31
744.502	24708.5
744.841	24513.25
745.181	24545.8
745.52	24498.79
745.86	24582.18
746.199	24370.21
746.538	24405.69
746.877	24439.58
747.216	24322.3
747.556	24280.94
747.895	24313.71
748.234	24172.02
748.573	24056.32
748.911	24180.61
749.25	23939.94
749.589	24061.97
749.928	23989.2
750.267	23986.94
750.605	23824.91
750.944	23826.04
751.283	23753.95
751.621	23817.23
751.96	23676.21
752.298	23665.82
752.636	23600.51
752.975	23487.52
753.313	23471.93
753.651	23569.1
753.989	23366.39
754.327	23343.57
754.666	23254.3
755.004	23343.79
755.342	23258.6
755.679	23158.26
756.017	22946.06
756.355	22997.81
756.693	22974.31
757.031	22904.71
757.368	22924.14
757.706	22785.16
758.044	22588.78
758.381	22742.68
758.719	22592.85
759.056	22685.73
759.394	22581.55
759.731	22417.26
760.068	22339.75
760.405	22282.35
760.743	22196.7
761.08	22243.48
761.417	22088.23
761.754	22074.22
762.091	22053.21
762.428	21953.1
762.765	21751.52
763.102	21885.53
763.438	21702.25
763.775	21593.78
764.112	21569.83
764.449	21543.39
764.785	21516.04
765.122	21302.94
765.458	21376.39
765.795	21270.4
766.131	21185.43
766.467	21195.37
766.804	21161.48
767.14	20963.97
767.476	20940.92
767.812	20862.5
768.148	20872.45
768.485	20725.56
768.821	20687.82
769.157	20523.08
769.492	20590.42
769.828	20519.01
770.164	20298.9
770.5	20260.48
770.836	20310.65
771.171	20102.3
771.507	20113.37
771.842	20011.23
772.178	19944.11
772.513	19971
772.849	19849.87
773.184	19733.27
773.519	19726.71
773.855	19550.22
774.19	19591.58
774.525	19391.81
774.86	19461.41
775.195	19378.47
775.53	19297.12
775.865	19202.21
776.2	19027.3
776.535	18950.24
776.87	18979.61
777.205	18896.23
777.539	18826.4
777.874	18851.26
778.209	18656.01
778.543	18636.57
778.878	18524.71
779.212	18544.15
779.547	18436.8
779.881	18449.46
780.215	18242.01
780.55	18297.82
780.884	18073.2
781.218	18100.54
781.552	17985.97
781.886	17971.73
782.22	17826.88
782.554	17745.52
782.888	17607.67
783.222	17595.47
783.556	17582.14
783.889	17499.2
784.223	17403.84
784.557	17377.4
784.89	17373.78
785.224	17335.82
785.557	17306.66
785.891	17159.1
786.224	17126.33
786.558	17053.56
786.891	16956.16
787.224	16898.54
787.557	16844.75
787.891	16778.77
788.224	16682.95
788.557	16782.61
788.89	16679.11
789.223	16613.8
789.556	16579.9
789.888	16465.78
790.221	16408.16
790.554	16258.33
790.887	16297.88
791.219	16260.59
791.552	16207.26
791.884	16073.48
792.217	16068.73
792.549	16004.55
792.882	15824.67
793.214	15783.31
793.546	15831.9
793.879	15730.89
794.211	15617.89
794.543	15759.81
794.875	15635.97
795.207	15666.93
795.539	15573.15
795.871	15522.76
796.203	15426.04
796.535	15245.93
796.867	15240.28
797.198	15209.32
797.53	15193.5
797.862	15141.75
798.193	15121.86
798.525	15046.84
798.856	15080.06
799.188	14956.44
799.519	14867.86
799.85	14789.22
800.182	14832.15
800.513	14821.76
800.844	14698.6
801.175	14691.59
801.506	14698.6
801.837	14571.82
802.168	14539.5
802.499	14527.08
802.83	14410.24
803.161	14457.47
803.491	14381.32
803.822	14287.76
804.153	14255.67
804.483	14252.28
804.814	14099.74
805.145	14162.57
805.475	14102.23
805.805	14032.63
806.136	14061.55
806.466	14013.87
806.796	13916.7
807.126	13868.56
807.457	13895.45
807.787	13848.9
808.117	13740.2
808.447	13729.13
808.777	13751.5
809.107	13653.43
809.436	13552.64
809.766	13621.79
810.096	13564.39
810.426	13464.5
810.755	13470.38
811.085	13436.71
811.414	13515.12
811.744	13330.27
812.073	13351.74
812.403	13274
812.732	13192.65
813.061	13228.13
813.39	13144.51
813.719	13093.44
814.049	13168.92
814.378	13149.71
814.707	13077.4
815.036	13040.79
815.365	12979.32
815.693	12788.14
816.022	12906.33
816.351	12937.29
816.68	12737.74
817.008	12777.74
817.337	12704.52
817.665	12674.69
817.994	12743.85
818.322	12656.39
818.651	12644.41
818.979	12544.53
819.307	12674.24
819.636	12520.8
819.964	12496.39
820.292	12500.01
820.62	12500.46
820.948	12483.29
821.276	12489.39
821.604	12435.83
821.932	12438.54
822.259	12486.45
822.587	12431.99
822.915	12420.69
823.243	12357.19
823.57	12399.45
823.898	12428.15
824.225	12349.51
824.553	12363.29
824.88	12451.2
825.207	12428.83
825.535	12379.79
825.862	12404.87
826.189	12333.46
826.516	12367.13
826.843	12367.58
827.17	12404.65
827.497	12396.06
827.824	12422.05
828.151	12324.87
828.478	12321.48
828.805	12390.41
829.131	12320.81
829.458	12286.68
829.785	12279.45
830.111	12341.82
830.438	12397.19
830.764	12311.77
831.09	12307.92
831.417	12206.01
831.743	12351.54
832.069	12276.06
832.395	12237.42
832.722	12295.27
833.048	12238.32
833.374	12231.77
833.7	12204.2
834.026	12246.01
834.351	12252.33
834.677	12175.27
835.003	12269.51
835.329	12153.35
835.654	12195.16
835.98	12123.75
836.306	12135.05
836.631	12057.31
836.956	12111.32
837.282	12131.66
837.607	12014.6
837.932	11973.02
838.258	11929.86
838.583	11968.72
838.908	11877.88
839.233	11988.84
839.558	11956.75
839.883	11791.78
840.208	11807.6
840.533	11780.03
840.858	11794.49
841.182	11839.91
841.507	11841.5
841.832	11754.95
842.156	11741.39
842.481	11701.16
842.805	11689.41
843.13	11695.96
843.454	11625.46
843.778	11572.8
844.103	11575.29
844.427	11467.72
844.751	11521.96
845.075	11483.31
845.399	11484.44
845.723	11385.46
846.047	11349.76
846.371	11315.86
846.695	11276.09
847.019	11231.34
847.343	11191.34
847.666	11083.78
847.99	11054.85
848.313	10993.61
848.637	11002.42
848.96	10994.51
849.284	10968.53
849.607	10882.88
849.931	10869.09
850.254	10723.79
850.577	10687.63
850.9	10663.45
851.223	10616.9
851.546	10563.56
851.869	10562.89
852.192	10596.78
852.515	10473.17
852.838	10497.13
853.161	10417.81
853.483	10457.35
853.806	10371.03
854.129	10267.07
854.451	10260.97
854.774	10191.82
855.096	10126.74
855.419	10198.15
855.741	10185.72
856.063	10089.23
856.385	10151.6
856.708	10080.64
857.03	10002
857.352	9994.31
857.674	9913.19
857.996	9911.83
858.318	9869.12
858.64	9887.65
858.961	9825.73
859.283	9831.61
859.605	9797.93
859.926	9815.79
860.248	9727.43
860.57	9716.13
860.891	9685.4
861.212	9660.76
861.534	9701.44
861.855	9640.42
862.176	9692.85
862.498	9608.56
862.819	9636.81
863.14	9527.66
863.461	9564.72
863.782	9521.11
864.103	9520.43
864.424	9480.2
864.745	9461.45
865.065	9488.56
865.386	9478.85
865.707	9394.1
866.027	9443.82
866.348	9405.63
866.668	9341.22
866.989	9360.43
867.309	9262.58
867.63	9312.07
867.95	9251.73
868.27	9242.69
868.59	9245.41
868.91	9143.71
869.23	9256.93
869.55	9188.46
869.87	9201.79
870.19	9178.06
870.51	9136.71
870.83	9158.4
871.15	9102.36
871.469	9112.3
871.789	9151.62
872.109	9126.54
872.428	9044.06
872.748	9072.98
873.067	9105.07
873.386	9077.05
873.706	9043.15
874.025	8959.76
874.344	8917.28
874.663	8998.18
874.982	8971.06
875.301	8938.75
875.62	8896.94
875.939	8854.23
876.258	8853.1
876.577	8833.89
876.896	8807
877.214	8772.2
877.533	8826.89
877.852	8795.93
878.17	8826.89
878.489	8785.98
878.807	8803.61
879.125	8802.93
879.444	8787.34
879.762	8738.53
880.08	8775.36
880.398	8686.55
880.716	8639.09
881.034	8657.4
881.352	8623.05
881.67	8585.99
881.988	8609.72
882.306	8570.17
882.624	8545.99
882.941	8492.88
883.259	8459.44
883.577	8473.45
883.894	8454.47
884.212	8456.05
884.529	8467.12
884.846	8441.81
885.164	8405.43
885.481	8386.22
885.798	8403.17
886.115	8355.71
886.432	8388.71
886.75	8286.56
887.067	8340.8
887.383	8297.41
887.7	8245.88
888.017	8208.82
888.334	8171.99
888.651	8191.42
888.967	8173.8
889.284	8099
889.6	8050.41
889.917	8029.62
890.233	8060.13
890.55	8024.65
890.866	8022.61
891.182	8006.57
891.498	7998.21
891.815	7975.61
892.131	7939
892.447	7884.31
892.763	7891.32
893.079	7873.01
893.395	7735.39
893.71	7825.1
894.026	7808.38
894.342	7807.48
894.657	7690.42
894.973	7680.48
895.289	7726.8
895.604	7693.81
895.92	7680.25
896.235	7572.23
896.55	7639.8
896.865	7557.99
897.181	7579.24
897.496	7513.25
897.811	7451.56
898.126	7450.2
898.441	7473.7
898.756	7426.47
899.071	7310.54
899.386	7374.04
899.7	7323.65
900.015	7281.39
900.33	7265.35
900.644	7255.4
900.959	7216.76
901.273	7171.79
901.588	7200.49
901.902	7151.22
902.216	7120.26
902.531	7076.42
902.845	7106.71
903.159	7078.91
903.473	7003.21
903.787	6970.66
904.101	6873.94
904.415	6915.75
904.729	6862.19
905.042	6829.2
905.356	6856.32
905.67	6797.11
905.984	6821.29
906.297	6721.18
906.611	6748.3
906.924	6720.73
907.237	6685.02
907.551	6686.15
907.864	6647.73
908.177	6609.77
908.491	6616.32
908.804	6583.1
909.117	6556.44
909.43	6485.71
909.743	6464.01
910.056	6499.26
910.368	6447.06
910.681	6356.67
910.994	6365.03
911.307	6377.23
911.619	6287.97
911.932	6322.32
912.244	6286.84
912.557	6307.86
912.869	6200.97
913.181	6198.03
913.494	6201.19
913.806	6187.86
914.118	6202.55
914.43	6120.52
914.742	6140.86
915.054	6075.77
915.366	6065.83
915.678	6016.34
915.99	6007.75
916.302	5959.39
916.613	5985.83
916.925	5959.17
917.236	5900.86
917.548	5885.95
917.859	5878.94
918.171	5822.67
918.482	5812.05
918.794	5779.28
919.105	5802.11
919.416	5752.84
919.727	5725.95
920.038	5694.31
920.349	5662.9
920.66	5620.87
920.971	5611.83
921.282	5580.42
921.593	5556.24
921.903	5559.63
922.214	5492.51
922.525	5476.47
922.835	5442.57
923.146	5468.33
923.456	5444.38
923.767	5412.74
924.077	5378.84
924.387	5364.6
924.697	5370.25
925.008	5336.58
925.318	5306.98
925.628	5265.85
925.938	5304.72
926.248	5225.85
926.558	5212.74
926.867	5154.21
927.177	5183.82
927.487	5152.86
927.796	5095.46
928.106	5112.63
928.416	5070.38
928.725	5085.52
929.034	5043.03
929.344	5029.47
929.653	5025.63
929.962	4988.34
930.271	4912.64
930.581	4899.53
930.89	4902.7
931.199	4874.9
931.508	4861.57
931.817	4850.95
932.125	4792.19
932.434	4803.26
932.743	4748.8
933.051	4759.2
933.36	4712.19
933.669	4694.34
933.977	4648.69
934.286	4614.57
934.594	4692.08
934.902	4672.42
935.21	4596.04
935.519	4579.99
935.827	4615.7
936.135	4504.74
936.443	4525.08
936.751	4530.73
937.059	4503.38
937.367	4485.08
937.674	4482.59
937.982	4475.81
938.29	4471.07
938.597	4430.62
938.905	4408.7
939.213	4347.23
939.52	4379.77
939.827	4340.45
940.135	4333.9
940.442	4303.16
940.749	4308.14
941.056	4236.95
941.363	4248.7
941.67	4225.43
941.977	4209.38
942.284	4182.26
942.591	4157.18
942.898	4182.71
943.205	4132.77
943.511	4092.77
943.818	4093.23
944.125	4042.38
944.431	4083.06
944.738	4035.37
945.044	4033.11
945.35	4045.77
945.657	3975.49
945.963	3980.23
946.269	3933.46
946.575	3929.16
946.881	3932.1
947.187	3888.26
947.493	3896.85
947.799	3833.12
948.105	3840.35
948.41	3834.7
948.716	3869.05
949.022	3844.64
949.327	3832.44
949.633	3779.11
949.938	3760.35
950.244	3740.01
950.549	3732.11
950.854	3699.56
951.16	3749.96
951.465	3646.68
951.77	3632.9
952.075	3622.96
952.38	3654.59
952.685	3620.92
952.99	3592.22
953.294	3541.15
953.599	3578.66
953.904	3579.79
954.209	3514.03
954.513	3532.79
954.818	3492.11
955.122	3472
955.426	3494.6
955.731	3489.17
956.035	3444.66
956.339	3447.82
956.643	3420.48
956.948	3365.79
957.252	3396.29
957.556	3364.88
957.86	3353.81
958.163	3374.15
958.467	3324.21
958.771	3317.2
959.075	3298.44
959.378	3291.21
959.682	3300.48
959.985	3245.79
960.289	3242.85
960.592	3251.44
960.896	3204.21
961.199	3190.42
961.502	3204.21
961.805	3189.75
962.108	3162.85
962.411	3159.24
962.714	3118.11
963.017	3116.75
963.32	3102.52
963.623	3113.59
963.926	3096.19
964.228	3105.23
964.531	3050.32
964.833	3042.41
965.136	3002.18
965.438	3032.01
965.741	2960.37
966.043	2999.92
966.345	2977.32
966.648	2959.92
966.95	2967.38
967.252	2937.32
967.554	2935.74
967.856	2885.57
968.158	2902.52
968.46	2893.71
968.761	2881.96
969.063	2851.9
969.365	2837.44
969.666	2829.98
969.968	2805.35
970.269	2833.6
970.571	2779.59
970.872	2772.58
971.174	2797.89
971.475	2762.19
971.776	2751.79
972.077	2757.44
972.378	2729.42
972.679	2712.92
972.98	2752.7
973.281	2712.47
973.582	2726.03
973.883	2660.72
974.183	2639.03
974.484	2641.51
974.785	2678.57
975.085	2659.59
975.386	2619.37
975.686	2608.52
975.986	2545.02
976.287	2585.02
976.587	2584.11
976.887	2573.04
977.187	2554.06
977.487	2552.7
977.787	2545.24
978.087	2515.19
978.387	2539.37
978.687	2480.39
978.987	2490.33
979.286	2454.4
979.586	2466.83
979.885	2459.6
980.185	2447.62
980.484	2443.78
980.784	2427.51
981.083	2403.33
981.382	2374.17
981.682	2399.48
981.981	2389.32
982.28	2377.11
982.579	2362.88
982.878	2377.56
983.177	2366.27
983.475	2288.53
983.774	2333.95
984.073	2271.13
984.372	2282.88
984.67	2293.95
984.969	2265.25
985.267	2269.77
985.566	2270.9
985.864	2209.89
986.162	2227.51
986.461	2199.49
986.759	2221.64
987.057	2215.76
987.355	2175.54
987.653	2189.55
987.951	2199.49
988.249	2158.81
988.547	2194.97
988.844	2145.03
989.142	2129.89
989.44	2129.89
989.737	2110.9
990.035	2112.49
990.332	2112.49
990.63	2048.76
990.927	2090.34
991.224	2076.78
991.521	2084.24
991.819	2047.63
992.116	2017.8
992.413	2023
992.71	2022.09
993.006	2028.2
993.303	2024.13
993.6	2010.57
993.897	2004.24
994.193	2013.73
994.49	1987.97
994.787	1966.28
995.083	1943.68
995.379	1956.11
995.676	1914.75
995.972	1919.27
996.268	1908.2
996.565	1930.34
996.861	1915.88
997.157	1885.15
997.453	1874.08
997.749	1862.78
998.044	1862.1
998.34	1849.44
998.636	1821.87
998.932	1853.06
999.227	1813.74
999.523	1830.69
999.818	1799.27
1000.114	1801.08
1000.409	1776.9
1000.704	1776
1001	1793.63
1001.295	1732.61
1001.59	1763.8
1001.885	1708.88
1002.18	1746.62
1002.475	1726.28
1002.77	1699.62
1003.065	1724.7
1003.359	1707.53
1003.654	1700.97
1003.949	1709.33
1004.243	1678.6
1004.538	1629.56
1004.832	1651.48
1005.127	1649.22
1005.421	1655.78
1005.715	1648.54
1006.009	1637.02
1006.304	1616.91
1006.598	1601.54
1006.892	1569
1007.186	1581.43
1007.48	1577.81
1007.773	1561.31
1008.067	1526.06
1008.361	1543.01
1008.655	1522.45
1008.948	1536.46
1009.242	1535.33
1009.535	1505.5
1009.829	1492.39
1010.122	1461.43
1010.415	1462.79
1010.708	1461.43
1011.001	1482.22
1011.295	1463.24
1011.588	1454.2
1011.881	1474.54
1012.173	1444.03
1012.466	1419.85
1012.759	1417.14
1013.052	1430.24
1013.344	1411.49
1013.637	1425.95
1013.93	1396.57
1014.222	1364.26
1014.514	1362.22
1014.807	1378.72
1015.099	1353.41
1015.391	1356.12
1015.683	1356.57
1015.976	1337.82
1016.268	1330.59
1016.56	1322.45
1016.851	1328.33
1017.143	1298.5
1017.435	1320.42
1017.727	1278.84
1018.018	1299.17
1018.31	1288.78
1018.602	1284.03
1018.893	1260.76
1019.185	1243.58
1019.476	1242
1019.767	1229.35
1020.058	1254.2
1020.35	1224.37
1020.641	1248.78
1020.932	1221.89
1021.223	1216.24
1021.514	1169.46
1021.804	1171.04
1022.095	1176.24
1022.386	1166.52
1022.677	1180.53
1022.967	1144.38
1023.258	1159.52
1023.548	1131.04
1023.839	1117.26
1024.129	1140.31
1024.419	1129.91
1024.709	1118.84
1025	1115.9
1025.29	1111.16
1025.58	1087.2
1025.87	1097.15
1026.16	1051.27
1026.449	1056.7
1026.739	1059.63
1027.029	1053.76
1027.319	1058.96
1027.608	1060.09
1027.898	1030.93
1028.187	1031.39
1028.477	1031.39
1028.766	1011.5
1029.055	1020.76
1029.344	975.34
1029.634	994.32
1029.923	978.51
1030.212	1012.63
1030.501	959.97
1030.79	997.04
1031.078	959.07
1031.367	975.57
1031.656	978.96
1031.945	951.16
1032.233	941.9
1032.522	930.15
1032.81	949.58
1033.099	942.57
1033.387	932.4
1033.675	910.03
1033.963	927.66
1034.251	900.77
1034.54	884.72
1034.828	885.4
1035.116	896.47
1035.403	866.42
1035.691	888.34
1035.979	877.94
1036.267	871.39
1036.554	856.47
1036.842	876.59
1037.129	860.32
1037.417	850.15
1037.704	864.16
1037.992	833.2
1038.279	799.08
1038.566	826.19
1038.853	826.19
1039.14	826.19
