Data from white_steel_sheet_FLMS001491_077.txt Node
Date: Tue Feb 07 10:58:27 GMT 2017
User: dcchb
Spectrometer: FLMS00149
Trigger mode: 0
Integration Time (sec): 2.000000E-2
Scans to average: 10
Electric dark correction enabled: true
Nonlinearity correction enabled: false
Boxcar width: 0
XAxis mode: Wavelengths
Number of Pixels in Spectrum: 2048
>>>>>Begin Spectral Data<<<<<
341.393	-1.07
341.776	-1.07
342.16	-1.07
342.543	-39.72
342.927	-51.92
343.31	-75.42
343.693	-80.62
344.077	-70.9
344.46	-66.16
344.843	-47.63
345.226	-53.05
345.61	-11.92
345.993	-31.36
346.376	2.09
346.759	16.1
347.142	32.6
347.525	46.83
347.908	65.37
348.291	89.32
348.674	78.02
349.057	106.72
349.44	136.32
349.823	138.81
350.206	175.42
350.588	201.63
350.971	197.11
351.354	254.29
351.737	247.06
352.119	250.45
352.502	279.6
352.884	295.64
353.267	296.77
353.65	303.33
354.032	298.13
354.414	313.04
354.797	317.11
355.179	356.43
355.562	338.58
355.944	328.86
356.326	364.11
356.709	325.02
357.091	361.4
357.473	338.58
357.855	351.46
358.238	353.95
358.62	367.28
359.002	353.04
359.384	353.72
359.766	347.17
360.148	371.12
360.53	379.93
360.912	359.6
361.294	367.5
361.676	353.49
362.057	341.74
362.439	355.3
362.821	352.36
363.203	348.07
363.584	343.78
363.966	331.35
364.348	347.39
364.729	350.1
365.111	334.74
365.493	347.39
365.874	320.95
366.256	326.38
366.637	311.46
367.019	328.64
367.4	337.67
367.781	320.5
368.163	320.95
368.544	341.06
368.925	327.51
369.306	342.65
369.688	344.68
370.069	338.58
370.45	334.51
370.831	344.68
371.212	337.22
371.593	323.89
371.974	344
372.355	330.9
372.736	315.98
373.117	354.62
373.498	335.41
373.879	344.68
374.26	364.79
374.641	350.33
375.021	359.37
375.402	328.86
375.783	344.23
376.163	348.75
376.544	365.47
376.925	359.37
377.305	361.18
377.686	343.32
378.066	364.11
378.447	353.49
378.827	369.09
379.208	369.54
379.588	350.1
379.968	367.96
380.349	379.26
380.729	375.87
381.109	381.97
381.489	362.53
381.87	373.15
382.25	397.33
382.63	380.16
383.01	383.1
383.39	400.95
383.77	373.83
384.15	388.75
384.53	399.14
384.91	395.75
385.29	395.98
385.67	415.86
386.049	398.92
386.429	393.72
386.809	402.53
387.189	401.18
387.568	428.29
387.948	423.1
388.328	399.59
388.707	401.85
389.087	431.91
389.466	432.81
389.846	418.35
390.225	448.18
390.605	435.53
390.984	440.95
391.363	430.1
391.743	450.44
392.122	459.03
392.501	481.85
392.881	454.06
393.26	493.15
393.639	470.33
394.018	476.2
394.397	487.95
394.776	487.5
395.155	501.29
395.534	498.8
395.913	502.64
396.292	505.35
396.671	517.11
397.05	536.99
397.429	539.7
397.808	530.21
398.186	529.31
398.565	529.08
398.944	566.14
399.323	543.09
399.701	565.24
400.08	563.88
400.458	568.86
400.837	590.78
401.215	617.67
401.594	595.75
401.972	612.02
402.351	605.92
402.729	631.45
403.107	654.73
403.486	655.86
403.864	634.84
404.242	665.8
404.62	686.82
404.999	687.04
405.377	697.67
405.755	683.65
406.133	695.86
406.511	713.94
406.889	747.61
407.267	740.38
407.645	734.5
408.023	753.26
408.401	778.57
408.779	792.58
409.156	793.71
409.534	828.74
409.912	836.19
410.29	846.81
410.667	847.72
411.045	857.21
411.422	892.69
411.8	875.06
412.178	922.52
412.555	921.16
412.933	935.17
413.31	955.96
413.687	960.48
414.065	983.31
414.442	1001.61
414.819	1009.52
415.197	1016.07
415.574	1031.44
415.951	1046.36
416.328	1059.92
416.705	1066.24
417.082	1042.29
417.46	1094.27
417.837	1113.47
418.214	1086.58
418.591	1099.24
418.967	1125.68
419.344	1140.82
419.721	1153.92
420.098	1165.22
420.475	1173.36
420.852	1188.05
421.228	1193.47
421.605	1206.13
421.982	1204.32
422.358	1243.87
422.735	1240.48
423.111	1241.61
423.488	1280.47
423.864	1299.23
424.241	1318.89
424.617	1334.03
424.994	1363.41
425.37	1349.4
425.746	1363.86
426.123	1364.54
426.499	1390.08
426.875	1421.26
427.251	1428.95
427.627	1464.2
428.003	1462.39
428.379	1488.38
428.756	1507.14
429.132	1510.98
429.507	1571.99
429.883	1545.78
430.259	1583.07
430.635	1599.11
431.011	1606.12
431.387	1649.73
431.763	1682.05
432.138	1682.05
432.514	1687.92
432.89	1702.16
433.265	1768.37
433.641	1774.02
434.016	1798.2
434.392	1795.26
434.767	1847.47
435.143	1862.83
435.518	1896.96
435.894	1916.16
436.269	1924.3
436.644	1978.76
437.02	1983.06
437.395	1979.21
437.77	2006.11
438.145	2067.8
438.52	2046.56
438.895	2046.78
439.271	2076.39
439.646	2129.72
440.021	2131.98
440.395	2150.73
440.77	2137.85
441.145	2191.19
441.52	2235.25
441.895	2234.57
442.27	2256.72
442.645	2227.34
443.019	2276.15
443.394	2311.18
443.769	2300.79
444.143	2317.96
444.518	2374.01
444.892	2356.38
445.267	2406.55
445.641	2399.09
446.016	2432.53
446.39	2487.67
446.764	2462.14
447.139	2464.4
447.513	2481.57
447.887	2528.58
448.262	2533.32
448.636	2567.67
449.01	2584.62
449.384	2631.17
449.758	2608.58
450.132	2641.57
450.506	2675.01
450.88	2695.58
451.254	2728.8
451.628	2708.23
452.002	2796.82
452.376	2818.06
452.75	2813.77
453.123	2834.11
453.497	2951.62
453.871	2904.39
454.244	2954.56
454.618	3011.5
454.992	3060.77
455.365	3035
455.739	3155.68
456.112	3157.71
456.486	3170.59
456.859	3233.87
457.232	3280.65
457.606	3251.5
457.979	3309.8
458.352	3371.95
458.725	3408.55
459.099	3412.4
459.472	3510.25
459.845	3547.08
460.218	3610.58
460.591	3604.03
460.964	3586.85
461.337	3662.79
461.71	3774.42
462.083	3807.41
462.456	3848.99
462.829	3858.49
463.201	3910.24
463.574	3902.55
463.947	3983.45
464.32	4090.34
464.692	4061.19
465.065	4141.19
465.438	4174.64
465.81	4229.78
466.183	4324.69
466.555	4395.65
466.928	4405.82
467.3	4368.08
467.672	4491.01
468.045	4662.98
468.417	4643.55
468.789	4651.23
469.161	4736.88
469.534	4794.51
469.906	4853.49
470.278	4913.6
470.65	4986.82
471.022	5100.71
471.394	5152.92
471.766	5223.42
472.138	5281.27
472.51	5387.94
472.882	5465
473.253	5454.6
473.625	5599.46
473.997	5685.1
474.369	5775.5
474.74	5811.2
475.112	5904.99
475.484	6037.19
475.855	6151.08
476.227	6163.28
476.598	6355.6
476.97	6408.02
477.341	6527.79
477.713	6673.1
478.084	6693.21
478.455	6871.97
478.827	6945.41
479.198	7127.33
479.569	7123.49
479.94	7328.68
480.311	7431.27
480.682	7594.66
481.053	7741.77
481.424	7918.49
481.795	7999.17
482.166	8107.64
482.537	8215.66
482.908	8340.63
483.279	8428.76
483.65	8640.06
484.021	8791.01
484.391	8901.97
484.762	8979.26
485.133	9015.41
485.503	9158.23
485.874	9392.35
486.244	9496.98
486.615	9656.75
486.985	9815.84
487.356	9962.28
487.726	10053.58
488.097	10259.9
488.467	10308.03
488.837	10502.83
489.207	10587.57
489.578	10743.5
489.948	10882.71
490.318	11055.59
490.688	11082.25
491.058	11346.65
491.428	11397.72
491.798	11527.21
492.168	11829.8
492.538	11792.51
492.908	12015.56
493.278	12120.87
493.648	12167.65
494.017	12369.67
494.387	12471.59
494.757	12508.88
495.126	12649.89
495.496	12782.55
495.866	12887.18
496.235	12991.81
496.605	13062.09
496.974	13168.75
497.344	13342.76
497.713	13404.45
498.082	13494.84
498.452	13604.22
498.821	13807.6
499.19	13837.88
499.559	13956.07
499.928	14014.6
500.298	14136.86
500.667	14301.6
501.036	14265.44
501.405	14532.33
501.774	14471.31
502.143	14630.18
502.512	14731.65
502.88	14803.51
503.249	14954.92
503.618	15055.25
503.987	15188.13
504.356	15260.22
504.724	15346.09
505.093	15425.41
505.462	15435.58
505.83	15696.37
506.199	15700.43
506.567	15940.43
506.936	15968.68
507.304	16215
507.672	16281.66
508.041	16388.1
508.409	16591.71
508.777	16628.32
509.145	16778.6
509.514	16859.05
509.882	16998.93
510.25	17033.51
510.618	17177.68
510.986	17182.66
511.354	17405.7
511.722	17476.89
512.09	17782.87
512.458	17723.88
512.826	17853.6
513.193	17975.4
513.561	18082.52
513.929	18349.18
514.297	18353.92
514.664	18581.94
515.032	18687.93
515.4	18909.84
515.767	19042.49
516.135	19187.57
516.502	19006.11
516.869	19396.83
517.237	19518.41
517.604	19558.41
517.972	19730.84
518.339	19879.08
518.706	19968.57
519.073	20023.03
519.44	20200.2
519.808	20432.29
520.175	20507.31
520.542	20697.59
520.909	20831.6
521.276	20965.15
521.643	21092.84
522.009	21231.59
522.376	21518.59
522.743	21653.95
523.11	21985.02
523.477	22029.99
523.843	22166.93
524.21	22454.16
524.577	22554.72
524.943	22684.88
525.31	22884.65
525.676	23133.69
526.043	23087.13
526.409	23318.09
526.776	23517.63
527.142	23638.76
527.508	23807.34
527.874	24014.57
528.241	24310.83
528.607	24257.95
528.973	24553.99
529.339	24633.76
529.705	24759.63
530.071	25099.74
530.437	25165.95
530.803	25310.58
531.169	25468.09
531.535	25338.15
531.901	25602.32
532.267	25833.28
532.632	26029.88
532.998	26020.39
533.364	26230.78
533.73	26302.87
534.095	26513.48
534.461	26523.88
534.826	26722.52
535.192	26849.52
535.557	27090.87
535.923	26975.62
536.288	27077.99
536.653	27279.11
537.019	27268.04
537.384	27424.87
537.749	27661.02
538.114	27536.96
538.479	27720.01
538.845	27917.29
539.21	27723.85
539.575	28028.92
539.94	28153.44
540.305	28244.51
540.67	28247.45
541.034	28512.53
541.399	28524.5
541.764	28569.93
542.129	28682.01
542.494	28815.12
542.858	28932.18
543.223	29066.86
543.587	29220.53
543.952	29187.76
544.316	29474.99
544.681	29328.55
545.045	29457.14
545.41	29653.51
545.774	29614.87
546.138	29716.56
546.503	29890.12
546.867	29945.26
547.231	30262.31
547.595	30306.6
547.959	30360.84
548.324	30425.7
548.688	30377.11
549.052	30646.48
549.416	30698.91
549.779	30813.71
550.143	30826.14
550.507	31095.96
550.871	31224.55
551.235	31050.54
551.599	31316.52
551.962	31468.16
552.326	31577.31
552.689	31692.1
553.053	31634.25
553.417	31618.43
553.78	32078.31
554.143	32047.35
554.507	32195.82
554.87	32329.83
555.234	32730.95
555.597	32441.69
555.96	32666.77
556.323	32722.81
556.686	32773.21
557.05	33248.67
557.413	33226.75
557.776	33318.73
558.139	33412.51
558.502	33443.24
558.865	33607.53
559.228	33930.92
559.59	33943.8
559.953	34019.27
560.316	34458.81
560.679	34434.18
561.041	34584.46
561.404	34852.25
561.767	34809.99
562.129	34906.48
562.492	35223.54
562.854	35174.72
563.217	35428.73
563.579	35484.1
563.941	35711.21
564.304	35873.69
564.666	36114.36
565.028	36022.16
565.39	36084.76
565.753	36454.47
566.115	36471.87
566.477	36682.26
566.839	36849.03
567.201	37028.46
567.563	36957.73
567.925	37344.84
568.287	37193.43
568.648	37402.69
569.01	37585.06
569.372	37778.95
569.734	37638.39
570.095	37964.71
570.457	38155.89
570.819	38154.76
571.18	38227.75
571.542	38360.18
571.903	38474.75
572.265	38614.63
572.626	38765.14
572.987	38882.88
573.349	38873.84
573.71	38974.85
574.071	39121.06
574.432	39265.69
574.794	39481.73
575.155	39406.48
575.516	39345.46
575.877	39631.78
576.238	39567.6
576.599	39754.49
576.96	39739.12
577.32	39806.92
577.681	39919.91
578.042	40100.92
578.403	40055.73
578.763	40022.06
579.124	40018.21
579.485	40285.32
579.845	40419.11
580.206	40330.52
580.566	40424.98
580.927	40398.77
581.287	40467.24
581.648	40458.43
582.008	40551.08
582.368	40568.71
582.728	40598.31
583.089	40431.99
583.449	40499.33
583.809	40609.38
584.169	40657.52
584.529	40624.75
584.889	40830.17
585.249	40537.75
585.609	40378.88
585.969	40760.11
586.329	40456.39
586.688	40843.95
587.048	40602.15
587.408	40647.8
587.768	40756.05
588.127	40610.74
588.487	40548.82
588.846	40812.77
589.206	40704.97
589.565	40635.15
589.925	40799.21
590.284	40704.07
590.643	40656.16
591.003	40774.58
591.362	40863.16
591.721	40709.95
592.08	40607.58
592.44	40873.11
592.799	40812.99
593.158	40858.87
593.517	40648.71
593.876	40827.23
594.235	40653.68
594.593	40758.08
594.952	40954.46
595.311	40682.38
595.67	40925.53
596.029	40996.27
596.387	41183.38
596.746	41070.62
597.104	40879.43
597.463	40864.74
597.822	41101.12
598.18	40843.05
598.538	40951.3
598.897	41017.74
599.255	40743.17
599.613	41138.18
599.972	40966.21
600.33	41078.52
600.688	40932.99
601.046	41031.52
601.404	41203.04
601.762	41085.08
602.12	41287.78
602.478	41212.76
602.836	41226.54
603.194	41180.89
603.552	41172.76
603.91	41090.95
604.268	41165.98
604.625	41092.99
604.983	41196.26
605.341	41069.49
605.698	41433.54
606.056	41382.02
606.413	41386.99
606.771	41611.17
607.128	41687.77
607.485	41454.79
607.843	41436.03
608.2	41619.08
608.557	41710.82
608.914	41612.07
609.272	41758.05
609.629	41864.72
609.986	41914.21
610.343	41673.09
610.7	41958.05
611.057	41880.99
611.414	41890.93
611.771	41830.14
612.127	41897.49
612.484	41957.37
612.841	42332.73
613.198	42092.06
613.554	42104.26
613.911	42290.7
614.267	42358.72
614.624	42348.55
614.98	42357.36
615.337	42582.67
615.693	42475.78
616.05	42482.33
616.406	42614.53
616.762	42525.49
617.118	42551.71
617.475	42596.9
617.831	42681.42
618.187	42757.58
618.543	42761.87
618.899	43067.85
619.255	42892.71
619.611	42843.45
619.967	42912.83
620.323	43137.68
620.678	42892.71
621.034	42921.41
621.39	42889.55
621.746	42838.93
622.101	43300.84
622.457	43010
622.812	43031.24
623.168	43137.45
623.523	43115.31
623.879	43269.43
624.234	42927.29
624.589	43110.56
624.945	43180.84
625.3	43144.01
625.655	43086.16
626.01	43090
626.365	43132.71
626.72	43176.1
627.075	43114.63
627.43	43134.29
627.785	43021.52
628.14	43134.97
628.495	43002.09
628.85	43007.97
629.205	42889.55
629.559	43063.56
629.914	42844.13
630.269	43021.3
630.623	42839.61
630.978	42760.51
631.332	42946.95
631.687	43017.46
632.041	42854.3
632.396	42965.25
632.75	42613.85
633.104	42765.49
633.459	42518.03
633.813	42513.06
634.167	42593.96
634.521	42612.04
634.875	42560.75
635.229	42454.53
635.583	42295.67
635.937	42279.85
636.291	42241.66
636.645	42252.73
636.999	42195.33
637.352	42320.53
637.706	42007.54
638.06	42132.28
638.413	42022.91
638.767	41857.71
639.121	42112.85
639.474	41655.46
639.828	41736.36
640.181	41834.44
640.534	41768.68
640.888	41644.16
641.241	41474.67
641.594	41556.25
641.947	41581.79
642.301	41397.61
642.654	41419.08
643.007	41410.49
643.36	41370.04
643.713	41211.63
644.066	41384.96
644.419	41181.12
644.771	40865.2
645.124	40629.04
645.477	40441.48
645.83	40228.15
646.182	40059.12
646.535	39943.86
646.888	40054.37
647.24	39835.17
647.593	40038.33
647.945	39946.35
648.298	39718.33
648.65	39723.53
649.002	39585.23
649.355	39705
649.707	39601.95
650.059	39774.83
650.411	40261.6
650.763	40257.76
651.115	40587.24
651.467	40439.9
651.819	40435.15
652.171	40271.31
652.523	40311.76
652.875	40328.49
653.227	40284.65
653.578	40380.46
653.93	40150.19
654.282	39996.07
654.633	40075.84
654.985	39947.48
655.337	40085.56
655.688	39975.73
656.039	40154.48
656.391	39789.29
656.742	39807.15
657.094	39817.31
657.445	39956.29
657.796	39772.57
658.147	39695.74
658.498	39808.05
658.849	39843.08
659.2	39694.83
659.551	39472.92
659.902	39584.33
660.253	39669.52
660.604	39601.5
660.955	39447.61
661.306	39489.41
661.656	39416.87
662.007	39404.22
662.358	39375.97
662.708	39288.97
663.059	39268.4
663.409	38998.81
663.76	39229.53
664.11	39050.78
664.461	39143.66
664.811	39072.7
665.161	38887.17
665.511	38684.69
665.862	38887.4
666.212	38935.76
666.562	38989.09
666.912	38610.79
667.262	38557.69
667.612	38615.54
667.962	38418.71
668.312	38436.56
668.662	38421.19
669.011	38083.57
669.361	38121.09
669.711	38060.3
670.06	38045.38
670.41	37753.41
670.76	37717.48
671.109	37863.47
671.459	37843.13
671.808	37602.68
672.157	37621.21
672.507	37247.66
672.856	37262.13
673.205	37349.58
673.554	37337.15
673.904	37190.94
674.253	37442.24
674.602	37200.21
674.951	36679.77
675.3	36406.33
675.649	36986.88
675.998	36902.81
676.346	36901.46
676.695	37027.33
677.044	36682.71
677.393	36812.65
677.741	36830.27
678.09	36619.66
678.438	36627.34
678.787	36747.56
679.135	36642.71
679.484	36542.6
679.832	36710.28
680.181	36429.83
680.529	36626.89
680.877	36517.74
681.225	36458.98
681.573	36794.12
681.922	36344.64
682.27	36290.85
682.618	36490.17
682.966	36402.49
683.314	36540.79
683.661	36424.86
684.009	36435.26
684.357	36376.05
684.705	36244.3
685.053	36303.73
685.4	36337.41
685.748	36222.83
686.095	36307.58
686.443	36213.12
686.79	36105.1
687.138	36338.54
687.485	36407.69
687.832	36217.64
688.18	36305.09
688.527	36273.68
688.874	36118.88
689.221	36210.4
689.568	35997.53
689.915	35932.45
690.262	35899.68
690.609	35889.06
690.956	35818.55
691.303	35807.93
691.65	35688.16
691.997	35753.24
692.344	35653.81
692.69	35650.87
693.037	35705.78
693.383	35367.26
693.73	35673.69
694.077	35388.28
694.423	35434.61
694.769	35328.39
695.116	35321.16
695.462	35275.74
695.808	35176.76
696.155	35372.23
696.501	35114.16
696.847	34992.58
697.193	34876.2
697.539	35082.52
697.885	34769.31
698.231	34526.38
698.577	34629.43
698.923	34652.03
699.269	34501.3
699.614	34459.72
699.96	34356.89
700.306	34281.19
700.651	34098.82
700.997	34078.48
701.342	34048.43
701.688	33981.08
702.033	33844.36
702.379	33845.27
702.724	33828.32
703.069	33884.36
703.415	33436.47
703.76	33511.27
704.105	33466.3
704.45	33360.08
704.795	33258.84
705.14	33068.34
705.485	32989.25
705.83	32870.83
706.175	32955.12
706.52	32906.76
706.865	32775.69
707.209	32879.19
707.554	32624.96
707.899	32666.99
708.243	32485.08
708.588	32459.99
708.932	32191.53
709.277	32316.95
709.621	32424.29
709.966	32176.39
710.31	32261.13
710.654	31898.88
710.998	31870.4
711.342	31996.96
711.687	31819.56
712.031	31747.24
712.375	31637.64
712.719	31659.34
713.063	31584.76
713.407	31594.71
713.75	31509.74
714.094	31464.54
714.438	31390.87
714.782	31312.45
715.125	31252.57
715.469	31252.57
715.812	31039.47
716.156	30877.21
716.499	31020.94
716.843	30992.01
717.186	30756.54
717.53	30952.46
717.873	30912.69
718.216	30733.71
718.559	30640.38
718.902	30513.6
719.246	30668.18
719.589	30478.8
719.932	30329.88
720.275	30400.61
720.617	30359.94
720.96	30251.24
721.303	30263.44
721.646	30276.1
721.989	30062.32
722.331	30260.5
722.674	30115.65
723.016	30125.59
723.359	30059.61
723.701	30049.44
724.044	29831.14
724.386	29584.14
724.729	29793.85
725.071	29652.16
725.413	29715.89
725.755	29592.95
726.097	29470.92
726.439	29367.19
726.782	29438.15
727.124	29600.63
727.465	29424.37
727.807	29299.4
728.149	29244.26
728.491	29197.71
728.833	29201.55
729.175	29049.24
729.516	29036.36
729.858	28887.43
730.199	29104.15
730.541	28898.05
730.882	28821.45
731.224	28902.8
731.565	28635.24
731.906	28780.09
732.248	28878.85
732.589	28602.47
732.93	28455.35
733.271	28369.93
733.612	28643.15
733.953	28511.85
734.294	28298.07
734.635	28425.75
734.976	28477.05
735.317	28109.83
735.658	28299.43
735.999	28152.99
736.339	28237.51
736.68	28223.5
737.021	28009.04
737.361	28024.86
737.702	28079.77
738.042	27998.64
738.383	27850.85
738.723	27949.15
739.063	27837.06
739.404	27902.15
739.744	27858.08
740.084	27734.47
740.424	27661.7
740.764	27617.18
741.104	27624.41
741.444	27490.63
741.784	27512.78
742.124	27482.05
742.464	27447.7
742.804	27478.66
743.143	27367.47
743.483	27284.54
743.823	27085.45
744.162	27253.35
744.502	27256.74
744.841	27026.69
745.181	27165.67
745.52	27073.02
745.86	26988.5
746.199	26934.72
746.538	26925.9
746.877	26933.59
747.216	26911.89
747.556	26956.41
747.895	26790.54
748.234	26751.67
748.573	26693.14
748.911	26730.65
749.25	26584.89
749.589	26484.11
749.928	26539.25
750.267	26532.69
750.605	26380.83
750.944	26353.04
751.283	26207.05
751.621	26322.98
751.96	26200.05
752.298	26128.86
752.636	26120.27
752.975	25956.89
753.313	25928.87
753.651	25912.37
753.989	25843.9
754.327	25765.25
754.666	25637.8
755.004	25654.07
755.342	25695.65
755.679	25571.36
756.017	25409.56
756.355	25446.62
756.693	25379.5
757.031	25365.27
757.368	25127.98
757.706	25181.77
758.044	25134.76
758.381	25174.76
758.719	25008.21
759.056	25061.32
759.394	24911.49
759.731	24733.19
760.068	24730.25
760.405	24725.96
760.743	24624.49
761.08	24536.59
761.417	24448
761.754	24368
762.091	24338.85
762.428	24259.53
762.765	24048.46
763.102	24175.47
763.438	24048.92
763.775	23865.87
764.112	23937.51
764.449	23909.26
764.785	23747.45
765.122	23507.24
765.458	23425.2
765.795	23436.28
766.131	23437.41
766.467	23325.09
766.804	23208.03
767.14	23139.34
767.476	23070.18
767.812	23047.13
768.148	22979.79
768.485	22861.83
768.821	22683.08
769.157	22668.39
769.492	22678.78
769.828	22658.22
770.164	22390.2
770.5	22407.6
770.836	22369.41
771.171	22208.51
771.507	22230.88
771.842	22036.31
772.178	21989.31
772.513	21957.67
772.849	21860.95
773.184	21870.67
773.519	21772.14
773.855	21587.29
774.19	21597.45
774.525	21543.44
774.86	21519.72
775.195	21430.68
775.53	21287.41
775.865	21263
776.2	21101.87
776.535	20956.12
776.87	20930.35
777.205	20840.41
777.539	20851.94
777.874	20810.13
778.209	20596.35
778.543	20617.59
778.878	20390.25
779.212	20414.21
779.547	20271.39
779.881	20299.64
780.215	20133.54
780.55	20188.45
780.884	20029.81
781.218	20018.51
781.552	20007.67
781.886	19845.64
782.22	19748.69
782.554	19711.4
782.888	19644.29
783.222	19493.56
783.556	19479.32
783.889	19362.03
784.223	19195.71
784.557	19144.86
784.89	19304.41
785.224	19055.15
785.557	18910.52
785.891	18968.6
786.224	18902.84
786.558	18927.69
786.891	18665.1
787.224	18701.03
787.557	18603.18
787.891	18621.04
788.224	18544.88
788.557	18636.4
788.89	18449.06
789.223	18384.21
789.556	18262.4
789.888	18205.68
790.221	18102.63
790.554	18053.37
790.887	18052.46
791.219	17952.13
791.552	17913.03
791.884	17776.09
792.217	17795.29
792.549	17621.51
792.882	17592.81
793.214	17510.33
793.546	17525.7
793.879	17406.38
794.211	17232.6
794.543	17421.52
794.875	17213.39
795.207	17271.01
795.539	17267.4
795.871	17235.76
796.203	16996.67
796.535	16960.97
796.867	16818.15
797.198	16874.64
797.53	16893.4
797.862	16744.47
798.193	16723.01
798.525	16576.12
798.856	16499.06
799.188	16466.52
799.519	16402.11
799.85	16355.11
800.182	16318.72
800.513	16405.05
800.844	16232.17
801.175	16292.96
801.506	16169.57
801.837	16149.24
802.168	16039.63
802.499	16034.21
802.83	16050.48
803.161	15881.22
803.491	15921.22
803.822	15823.14
804.153	15768.91
804.483	15578.18
804.814	15613.66
805.145	15628.35
805.475	15583.83
805.805	15528.01
806.136	15553.32
806.466	15523.26
806.796	15542.02
807.126	15295.93
807.457	15279.43
807.787	15277.85
808.117	15249.15
808.447	15165.53
808.777	15232.42
809.107	15108.81
809.436	15059.55
809.766	14982.71
810.096	14940.23
810.426	14902.26
810.755	14926.44
811.085	14858.2
811.414	14762.61
811.744	14718.99
812.073	14758.09
812.403	14724.87
812.732	14641.03
813.061	14583.18
813.39	14559
813.719	14493.01
814.049	14593.35
814.378	14536.17
814.707	14400.58
815.036	14396.51
815.365	14435.84
815.693	14227.25
816.022	14232.9
816.351	14236.07
816.68	14079.69
817.008	14162.85
817.337	14029.29
817.665	14004.43
817.994	14081.04
818.322	14037.2
818.651	13926.24
818.979	13882.86
819.307	13994.26
819.636	13938.22
819.964	13842.4
820.292	13888.28
820.62	13814.16
820.948	13767.83
821.276	13795.85
821.604	13799.02
821.932	13803.08
822.259	13725.35
822.587	13799.69
822.915	13807.6
823.243	13746.36
823.57	13734.61
823.898	13736.19
824.225	13675.4
824.553	13690.54
824.88	13696.87
825.207	13747.72
825.535	13699.13
825.862	13771.22
826.189	13704.1
826.516	13698.91
826.843	13644.44
827.17	13771.45
827.497	13681.5
827.824	13703.65
828.151	13635.18
828.478	13615.07
828.805	13710.43
829.131	13581.39
829.458	13566.03
829.785	13581.17
830.111	13563.32
830.438	13643.99
830.764	13601.73
831.09	13639.25
831.417	13589.08
831.743	13622.3
832.069	13622.52
832.395	13532.58
832.722	13556.99
833.048	13582.07
833.374	13519.7
833.7	13460.49
834.026	13522.41
834.351	13555.63
834.677	13483.54
835.003	13455.3
835.329	13495.75
835.654	13443.09
835.98	13350.44
836.306	13439.03
836.631	13266.15
836.956	13425.01
837.282	13347.28
837.607	13303.66
837.932	13276.54
838.258	13227.51
838.583	13339.82
838.908	13193.83
839.233	13189.99
839.558	13196.32
839.883	13096.66
840.208	13098.47
840.533	13159.03
840.858	13087.62
841.182	13097.79
841.507	13120.16
841.832	12993.39
842.156	12944.35
842.481	12962.43
842.805	12915.42
843.13	12842.43
843.454	12857.12
843.778	12823.67
844.103	12754.75
844.427	12688.76
844.751	12740.74
845.075	12696.22
845.399	12614.19
845.723	12609.22
846.047	12606.96
846.371	12545.94
846.695	12477.47
847.019	12441.99
847.343	12409.67
847.666	12277.7
847.99	12232.28
848.313	12223.46
848.637	12161.77
848.96	12168.32
849.284	12096.91
849.607	12037.48
849.931	12019.18
850.254	11914.32
850.577	11828.22
850.9	11784.83
851.223	11773.53
851.546	11673.42
851.869	11693.76
852.192	11772.85
852.515	11632.52
852.838	11500.09
853.161	11553.65
853.483	11487.44
853.806	11433.88
854.129	11383.03
854.451	11339.87
854.774	11383.94
855.096	11248.35
855.419	11262.81
855.741	11298.29
856.063	11177.16
856.385	11134
856.708	11148.01
857.03	11005.19
857.352	11099.65
857.674	11004.29
857.996	10981.91
858.318	10861.69
858.64	10919.54
858.961	10917.28
859.283	10917.28
859.605	10794.35
859.926	10808.36
860.248	10835.7
860.57	10693.33
860.891	10725.2
861.212	10660.12
861.534	10636.16
861.855	10636.16
862.176	10659.89
862.498	10619.89
862.819	10595.03
863.14	10584.64
863.461	10539.67
863.782	10489.27
864.103	10471.65
864.424	10512.55
864.745	10432.55
865.065	10426.45
865.386	10367.24
865.707	10404.75
866.027	10416.28
866.348	10377.86
866.668	10329.95
866.989	10261.71
867.309	10259.67
867.63	10292.22
867.95	10272.55
868.27	10252.44
868.59	10263.29
868.91	10215.16
869.23	10163.86
869.55	10113.46
869.87	10153.24
870.19	10138.55
870.51	10156.63
870.83	10106.68
871.15	10099
871.469	10076.4
871.789	10161.6
872.109	10026.23
872.428	9954.15
872.748	10023.3
873.067	10011.54
873.386	10036.85
873.706	9964.54
874.025	9972
874.344	9874.6
874.663	9996.63
874.982	9878.89
875.301	9841.38
875.62	9866.69
875.939	9802.51
876.258	9844.09
876.577	9805.9
876.896	9733.36
877.214	9716.64
877.533	9762.51
877.852	9678.22
878.17	9793.7
878.489	9739.91
878.807	9805.45
879.125	9697.2
879.444	9705.11
879.762	9684.55
880.08	9649.52
880.398	9606.36
880.716	9634.38
881.034	9518.45
881.352	9580.14
881.67	9464.44
881.988	9535.85
882.306	9502.63
882.624	9452.92
882.941	9393.93
883.259	9439.58
883.577	9404.55
883.894	9417.44
884.212	9325.69
884.529	9349.64
884.846	9355.52
885.164	9360.26
885.481	9247.04
885.798	9296.54
886.115	9199.81
886.432	9185.13
886.75	9167.27
887.067	9179.48
887.383	9156.88
887.7	9122.3
888.017	9112.36
888.334	9057.67
888.651	8969.09
888.967	9037.11
889.284	9047.5
889.6	8908.75
889.917	8898.13
890.233	8913.72
890.55	8902.65
890.866	8896.77
891.182	8820.39
891.498	8799.83
891.815	8812.71
892.131	8702.65
892.447	8775.19
892.763	8760.96
893.079	8620.17
893.395	8640.51
893.71	8669.43
894.026	8616.55
894.342	8593.73
894.657	8537.23
894.973	8512.83
895.289	8549.44
895.604	8548.76
895.92	8439.16
896.235	8404.81
896.55	8379.95
896.865	8409.78
897.181	8393.28
897.496	8293.62
897.811	8254.53
898.126	8233.51
898.441	8197.36
898.756	8205.72
899.071	8185.6
899.386	8211.37
899.7	8101.09
900.015	8092.05
900.33	8057.92
900.644	8059.96
900.959	7977.93
901.273	7977.25
901.588	7988.1
901.902	7945.61
902.216	7945.38
902.531	7890.02
902.845	7820.19
903.159	7792.62
903.473	7765.73
903.787	7693.19
904.101	7610.25
904.415	7712.62
904.729	7675.79
905.042	7566.41
905.356	7507.43
905.67	7498.84
905.984	7539.07
906.297	7525.51
906.611	7481.89
906.924	7447.32
907.237	7432.18
907.551	7395.79
907.864	7364.38
908.177	7317.83
908.491	7304.5
908.804	7294.33
909.117	7190.38
909.43	7159.87
909.743	7160.09
910.056	7110.15
910.368	7092.53
910.681	7109.7
910.994	7085.07
911.307	7019.08
911.619	7019.53
911.932	6966.88
912.244	6996.26
912.557	6992.87
912.869	6914.22
913.181	6854.34
913.494	6876.26
913.806	6803.72
914.118	6761.46
914.43	6758.3
914.742	6749.26
915.054	6709.71
915.366	6683.04
915.678	6640.56
915.99	6682.14
916.302	6584.06
916.613	6549.26
916.925	6535.48
917.236	6528.02
917.548	6562.6
917.859	6492.54
918.171	6478.53
918.482	6408.02
918.794	6352.88
919.105	6406.22
919.416	6344.52
919.727	6289.16
920.038	6338.19
920.349	6238.76
920.66	6200.12
920.971	6216.39
921.282	6183.62
921.593	6154.02
921.903	6096.62
922.214	6120.12
922.525	6137.3
922.835	6089.61
923.146	6058.88
923.456	6016.4
923.767	6009.84
924.077	5978.88
924.387	5936.62
924.697	5851.88
925.008	5928.94
925.318	5864.99
925.628	5813.46
925.938	5789.96
926.248	5787.02
926.558	5773.24
926.867	5687.14
927.177	5718.55
927.487	5685.56
927.796	5612.11
928.106	5635.84
928.416	5574.37
928.725	5625.9
929.034	5557.88
929.344	5572.57
929.653	5542.96
929.962	5480.59
930.271	5476.07
930.581	5413.25
930.89	5385.45
931.199	5404.66
931.508	5382.97
931.817	5347.26
932.125	5362.18
932.434	5305.91
932.743	5267.26
933.051	5238.79
933.36	5267.49
933.669	5236.98
933.977	5179.58
934.286	5196.53
934.594	5135.97
934.902	5116.98
935.21	5062.3
935.519	5041.73
935.827	5033.6
936.135	5028.4
936.443	5044.9
936.751	5008.96
937.059	4980.72
937.367	4983.2
937.674	4953.15
937.982	4889.65
938.29	4913.6
938.597	4907.95
938.905	4855.75
939.213	4863.66
939.52	4792.92
939.827	4812.81
940.135	4750.89
940.442	4801.06
940.749	4731.46
941.056	4739.59
941.363	4711.8
941.67	4708.18
941.977	4667.73
942.284	4611.01
942.591	4595.64
942.898	4597.68
943.205	4628.86
943.511	4546.38
943.818	4549.54
944.125	4512.03
944.431	4507.06
944.738	4480.39
945.044	4483.33
945.35	4463.44
945.657	4427.28
945.963	4379.15
946.269	4354.29
946.575	4394.29
946.881	4297.34
947.187	4305.71
947.493	4304.35
947.799	4307.51
948.105	4248.08
948.41	4227.74
948.716	4223.45
949.022	4184.58
949.327	4186.39
949.633	4173.28
949.938	4185.26
950.244	4132.15
950.549	4105.26
950.854	4095.32
951.16	4088.31
951.465	4029.1
951.77	4077.24
952.075	4081.31
952.38	4030.23
952.685	4012.15
952.99	3989.1
953.294	3972.61
953.599	3963.57
953.904	3859.39
954.209	3913.4
954.513	3901.42
954.818	3826.4
955.122	3872.5
955.426	3846.96
955.731	3820.07
956.035	3814.19
956.339	3794.98
956.643	3772.61
956.948	3746.17
957.252	3766.29
957.556	3720.86
957.86	3705.95
958.163	3664.59
958.467	3656.23
958.771	3646.06
959.075	3628.44
959.378	3625.95
959.682	3583.92
959.985	3623.46
960.289	3604.03
960.592	3591.6
960.896	3556.35
961.199	3519.51
961.502	3540.53
961.805	3538.49
962.108	3479.29
962.411	3484.94
962.714	3457.82
963.017	3424.37
963.32	3442
963.623	3428.21
963.926	3451.72
964.228	3421.44
964.531	3391.38
964.833	3351.15
965.136	3325.39
965.438	3317.48
965.741	3333.08
966.043	3324.94
966.345	3249.69
966.648	3270.25
966.95	3282.23
967.252	3239.97
967.554	3245.17
967.856	3238.62
968.158	3204.72
968.46	3189.58
968.761	3175.79
969.063	3198.39
969.365	3160.65
969.666	3133.99
969.968	3073.2
970.269	3140.31
970.571	3096.92
970.872	3096.02
971.174	3047.21
971.475	3066.64
971.776	3070.26
972.077	3023.71
972.378	3041.11
972.679	3000.43
972.98	2985.51
973.281	2977.38
973.582	2935.12
973.883	2941
974.183	2922.92
974.484	2936.93
974.785	2896.48
975.085	2886.53
975.386	2882.47
975.686	2888.79
975.986	2826.87
976.287	2847.89
976.587	2865.74
976.887	2833.65
977.187	2817.38
977.487	2800.43
977.787	2770.83
978.087	2742.81
978.387	2733.32
978.687	2752.75
978.987	2731.74
979.286	2729.48
979.586	2703.71
979.885	2703.49
980.185	2704.17
980.484	2654
980.784	2645.41
981.083	2669.14
981.382	2618.74
981.682	2610.61
981.981	2627.78
982.28	2571.51
982.579	2559.76
982.878	2600.67
983.177	2582.81
983.475	2553.89
983.774	2545.98
984.073	2526.54
984.372	2530.39
984.67	2526.32
984.969	2496.71
985.267	2478.41
985.566	2473.66
985.864	2498.97
986.162	2479.99
986.461	2485.87
986.759	2427.34
987.057	2420.56
987.355	2412.2
987.653	2391.86
987.951	2403.84
988.249	2381.69
988.547	2389.6
988.844	2347.11
989.142	2352.99
989.44	2348.24
989.737	2337.4
990.035	2314.35
990.332	2341.92
990.63	2282.93
990.927	2285.87
991.224	2313.67
991.521	2256.49
991.819	2252.88
992.116	2284.74
992.413	2229.83
992.71	2219.21
993.006	2199.09
993.303	2197.96
993.6	2206.1
993.897	2181.02
994.193	2187.12
994.49	2152.54
994.787	2133.33
995.083	2142.15
995.379	2141.47
995.676	2161.81
995.972	2143.28
996.268	2122.03
996.565	2125.65
996.861	2082.94
997.157	2097.63
997.453	2063.96
997.749	2061.47
998.044	2059.21
998.34	2045.88
998.636	2054.47
998.932	2012.43
999.227	1991.42
999.523	2003.62
999.818	1989.16
1000.114	1994.35
1000.409	1960.46
1000.704	1961.81
1001	1918.65
1001.295	1928.59
1001.59	1939.89
1001.885	1910.97
1002.18	1917.07
1002.475	1880.23
1002.77	1886.79
1003.065	1894.92
1003.359	1864.87
1003.654	1879.56
1003.949	1852.21
1004.243	1843.62
1004.538	1844.3
1004.832	1814.02
1005.127	1774.93
1005.421	1783.51
1005.715	1747.36
1006.009	1758.2
1006.304	1781.7
1006.598	1757.75
1006.892	1731.54
1007.186	1731.99
1007.48	1720.24
1007.773	1722.05
1008.067	1727.92
1008.361	1684.76
1008.655	1705.32
1008.948	1664.87
1009.242	1674.14
1009.535	1660.8
1009.829	1635.04
1010.122	1651.31
1010.415	1631.65
1010.708	1629.17
1011.001	1617.42
1011.295	1606.34
1011.588	1627.81
1011.881	1588.26
1012.173	1590.52
1012.466	1569.05
1012.759	1552.78
1013.052	1572.22
1013.344	1553.24
1013.637	1533.8
1013.93	1518.43
1014.222	1506.23
1014.514	1535.16
1014.807	1515.95
1015.099	1493.58
1015.391	1478.89
1015.683	1491.99
1015.976	1482.5
1016.268	1457.42
1016.56	1444.54
1016.851	1444.09
1017.143	1409.51
1017.435	1417.65
1017.727	1432.56
1018.018	1428.95
1018.31	1401.6
1018.602	1383.75
1018.893	1389.62
1019.185	1360.92
1019.476	1344.2
1019.767	1368.38
1020.058	1327.71
1020.35	1343.07
1020.641	1342.17
1020.932	1310.08
1021.223	1348.27
1021.514	1308.27
1021.804	1289.97
1022.095	1259.91
1022.386	1264.66
1022.677	1257.42
1022.967	1271.21
1023.258	1251.77
1023.548	1256.75
1023.839	1254.71
1024.129	1225.34
1024.419	1219.23
1024.709	1230.31
1025	1209.74
1025.29	1193.02
1025.58	1189.86
1025.87	1198.22
1026.16	1191.21
1026.449	1185.11
1026.739	1162.51
1027.029	1150.99
1027.319	1126.58
1027.608	1147.6
1027.898	1129.29
1028.187	1111.44
1028.477	1134.49
1028.766	1117.32
1029.055	1109.41
1029.344	1094.94
1029.634	1084.32
1029.923	1101.95
1030.212	1065.79
1030.501	1060.82
1030.79	1053.81
1031.078	1067.37
1031.367	1039.13
1031.656	1042.51
1031.945	1026.47
1032.233	1025.57
1032.522	1016.3
1032.81	1001.16
1033.099	1005.91
1033.387	983.31
1033.675	983.53
1033.963	993.25
1034.251	974.27
1034.54	990.31
1034.828	973.82
1035.116	985.34
1035.403	965
1035.691	971.78
1035.979	942.18
1036.267	934.27
1036.554	934.27
1036.842	942.18
1037.129	930.2
1037.417	922.07
1037.704	924.1
1037.992	904.67
1038.279	908.51
1038.566	893.37
1038.853	893.37
1039.14	893.37
