Data from white_poster_card_FLMS001491_00066.txt Node
Date: Wed Feb 08 11:51:51 GMT 2017
User: dcchb
Spectrometer: FLMS00149
Trigger mode: 0
Integration Time (sec): 2.000000E-2
Scans to average: 10
Electric dark correction enabled: true
Nonlinearity correction enabled: false
Boxcar width: 0
XAxis mode: Wavelengths
Number of Pixels in Spectrum: 2048
>>>>>Begin Spectral Data<<<<<
341.393	10.52
341.776	10.52
342.16	10.52
342.543	-79.19
342.927	-79.64
343.31	-66.09
343.693	-48.46
344.077	-78.74
344.46	-77.84
344.843	-53.66
345.226	-61.57
345.61	-9.82
345.993	-12.3
346.376	15.04
346.759	4.65
347.142	28.83
347.525	44.87
347.908	60.46
348.291	63.18
348.674	86
349.057	105.44
349.44	140.46
349.823	172.33
350.206	175.94
350.588	205.55
350.971	221.36
351.354	227.01
351.737	248.93
352.119	242.38
352.502	254.58
352.884	282.15
353.267	286
353.65	294.81
354.032	309.95
354.414	286
354.797	322.15
355.179	332.77
355.562	340.46
355.944	336.84
356.326	337.52
356.709	356.73
357.091	338.65
357.473	326.67
357.855	358.99
358.238	352.66
358.62	344.07
359.002	364.41
359.384	340.68
359.766	353.11
360.148	334.58
360.53	359.67
360.912	354.92
361.294	341.59
361.676	341.14
362.057	343.17
362.439	327.58
362.821	347.24
363.203	314.47
363.584	328.48
363.966	338.42
364.348	328.93
364.729	321.7
365.111	310.63
365.493	321.47
365.874	347.69
366.256	330.97
366.637	321.47
367.019	343.39
367.4	334.58
367.781	319.89
368.163	305.66
368.544	330.06
368.925	314.24
369.306	334.58
369.688	333
370.069	335.94
370.45	315.15
370.831	316.95
371.212	316.73
371.593	324.41
371.974	322.38
372.355	319.44
372.736	321.02
373.117	312.44
373.498	309.05
373.879	340.68
374.26	311.76
374.641	312.89
375.021	317.41
375.402	335.71
375.783	324.64
376.163	339.78
376.544	322.6
376.925	332.32
377.305	329.84
377.686	328.71
378.066	345.65
378.447	340.01
378.827	332.77
379.208	326.67
379.588	347.01
379.968	333.9
380.349	344.52
380.729	351.3
381.109	331.64
381.489	346.78
381.87	336.39
382.25	340.68
382.63	353.79
383.01	348.37
383.39	356.95
383.77	366.22
384.15	354.47
384.53	383.17
384.91	391.53
385.29	368.03
385.67	359.44
386.049	370.51
386.429	387.69
386.809	366.9
387.189	368.03
387.568	380.23
387.948	380.46
388.328	359.21
388.707	376.39
389.087	379.1
389.466	369.38
389.846	389.27
390.225	406.9
390.605	387.91
390.984	403.05
391.363	397.63
391.743	405.99
392.122	377.29
392.501	402.6
392.881	393.34
393.26	402.38
393.639	401.92
394.018	395.82
394.397	423.39
394.776	399.89
395.155	419.33
395.534	434.24
395.913	425.65
396.292	434.92
396.671	434.69
397.05	432.88
397.429	443.51
397.808	426.1
398.186	455.03
398.565	444.18
398.944	453
399.323	441.02
399.701	447.8
400.08	475.59
400.458	460.68
400.837	442.6
401.215	485.09
401.594	474.92
401.972	458.65
402.351	464.52
402.729	488.48
403.107	474.46
403.486	476.05
403.864	485.99
404.242	505.88
404.62	500.23
404.999	504.52
405.377	512.2
405.755	517.18
406.133	505.88
406.511	495.93
406.889	547.68
407.267	544.52
407.645	539.32
408.023	553.78
408.401	561.47
408.779	556.27
409.156	589.72
409.534	580
409.912	569.38
410.29	614.57
410.667	602.37
411.045	624.29
411.422	630.17
411.8	643.95
412.178	682.82
412.555	671.52
412.933	672.88
413.31	711.97
413.687	729.6
414.065	736.15
414.442	724.63
414.819	766.66
415.197	770.05
415.574	778.64
415.951	799.2
416.328	791.74
416.705	845.08
417.082	843.72
417.46	868.13
417.837	872.42
418.214	871.52
418.591	901.35
418.967	906.09
419.344	927.33
419.721	931.85
420.098	928.92
420.475	964.85
420.852	983.83
421.228	989.93
421.605	1002.36
421.982	1047.11
422.358	1017.5
422.735	1038.29
423.111	1064.51
423.488	1065.41
423.864	1083.26
424.241	1122.81
424.617	1123.26
424.994	1157.61
425.37	1166.88
425.746	1137.72
426.123	1187.67
426.499	1191.28
426.875	1180.89
427.251	1206.2
427.627	1245.07
428.003	1273.54
428.379	1296.14
428.756	1308.57
429.132	1287.32
429.507	1332.07
429.883	1339.3
430.259	1417.94
430.635	1404.84
431.011	1438.51
431.387	1452.07
431.763	1464.5
432.138	1487.77
432.514	1487.09
432.89	1528.22
433.265	1541.1
433.641	1595.34
434.016	1576.13
434.392	1604.38
434.767	1626.75
435.143	1629.69
435.518	1670.59
435.894	1654.77
436.269	1703.13
436.644	1739.74
437.02	1756.69
437.395	1749.01
437.77	1787.88
438.145	1811.6
438.52	1820.64
438.895	1815.22
439.271	1848.89
439.646	1896.35
440.021	1898.38
440.395	1897.93
440.77	1921.21
441.145	1923.69
441.52	1939.96
441.895	1949.23
442.27	1954.88
442.645	1960.75
443.019	2029.23
443.394	1968.66
443.769	2020.19
444.143	2008.21
444.518	2048.66
444.892	2054.76
445.267	2087.98
445.641	2099.28
446.016	2084.82
446.39	2130.92
446.764	2170.69
447.139	2112.84
447.513	2161.2
447.887	2158.04
448.262	2144.7
448.636	2200.07
449.01	2233.29
449.384	2209.33
449.758	2270.35
450.132	2293.85
450.506	2302.89
450.88	2293.4
451.254	2315.55
451.628	2314.87
452.002	2356
452.376	2366.39
452.75	2383.34
453.123	2440.51
453.497	2462.66
453.871	2488.2
454.244	2539.04
454.618	2548.76
454.992	2600.74
455.365	2588.08
455.739	2619.27
456.112	2639.15
456.486	2687.74
456.859	2700.17
457.232	2753.73
457.606	2763.9
457.979	2761.41
458.352	2835.76
458.725	2850.22
459.099	2866.04
459.472	2962.31
459.845	2917.34
460.218	2976.55
460.591	2998.69
460.964	2995.53
461.337	3116.88
461.71	3142.64
462.083	3177.44
462.456	3194.17
462.829	3204.34
463.201	3248.86
463.574	3273.04
463.947	3340.15
464.32	3387.16
464.692	3416.76
465.065	3421.05
465.438	3506.25
465.81	3526.59
466.183	3582.18
466.555	3607.04
466.928	3631.67
467.3	3676.64
467.672	3703.98
468.045	3843.87
468.417	3836.18
468.789	3839.35
469.161	3899.23
469.534	3993.47
469.906	4059
470.278	4072.56
470.65	4101.71
471.022	4167.93
471.394	4252.22
471.766	4317.08
472.138	4296.74
472.51	4445.66
472.882	4487.24
473.253	4546
473.625	4608.59
473.997	4686.11
474.369	4744.18
474.74	4831.64
475.112	4856.27
475.484	4937.4
475.855	5023.95
476.227	5088.58
476.598	5141.69
476.97	5245.41
477.341	5349.82
477.713	5427.78
478.084	5429.59
478.455	5557.27
478.827	5609.25
479.198	5819.64
479.569	5752.52
479.94	5922.01
480.311	5999.07
480.682	6122.9
481.053	6243.8
481.424	6387.53
481.795	6430.01
482.166	6503.01
482.537	6602.67
482.908	6726.05
483.279	6799.72
483.65	6912.26
484.021	7000.85
484.391	7126.27
484.762	7254.17
485.133	7275.42
485.503	7376.2
485.874	7565.58
486.244	7647.16
486.615	7716.99
486.985	7854.16
487.356	7985.45
487.726	8102.51
488.097	8184.77
488.467	8262.06
488.837	8394.71
489.207	8508.83
489.578	8626.57
489.948	8752.67
490.318	8861.14
490.688	8901.14
491.058	9021.81
491.428	9160.34
491.798	9281.69
492.168	9446.66
492.538	9513.78
492.908	9524.17
493.278	9683.71
493.648	9698.86
494.017	9843.94
494.387	9884.84
494.757	10073.53
495.126	10089.13
495.496	10222.91
495.866	10211.84
496.235	10417.25
496.605	10530.92
496.974	10516.69
497.344	10594.65
497.713	10709.22
498.082	10806.17
498.452	10894.53
498.821	10947.86
499.19	10918.48
499.559	11056.56
499.928	11169.1
500.298	11250.45
500.667	11347.63
501.036	11399.38
501.405	11523.67
501.774	11567.96
502.143	11637.11
502.512	11669.88
502.88	11809.53
503.249	11812.02
503.618	11946.03
503.987	11998.91
504.356	12110.54
504.724	12245.45
505.093	12200.26
505.462	12283.87
505.83	12442.96
506.199	12537.42
506.567	12777.42
506.936	12616.74
507.304	12795.95
507.672	12850.18
508.041	12976.28
508.409	13053.12
508.777	13135.6
509.145	13285.88
509.514	13324.75
509.882	13481.13
510.25	13411.75
510.618	13659.2
510.986	13618.53
511.354	13783.72
511.722	13882.7
512.09	14079.76
512.458	14062.36
512.826	14187.55
513.193	14253.54
513.561	14305.06
513.929	14495.11
514.297	14622.57
514.664	14681.32
515.032	14766.97
515.4	14850.81
515.767	14882
516.135	15018.26
516.502	15037.02
516.869	15217.13
517.237	15356.56
517.604	15418.48
517.972	15553.84
518.339	15677.23
518.706	15617.8
519.073	15747.96
519.44	15873.16
519.808	16087.16
520.175	16137.78
520.542	16352.01
520.909	16515.63
521.276	16407.15
521.643	16644.66
522.009	16733.92
522.376	16876.75
522.743	16983.86
523.11	17151.54
523.477	17392.66
523.843	17482.61
524.21	17622.26
524.577	17836.49
524.943	17823.61
525.31	18053.66
525.676	18217.05
526.043	18335.92
526.409	18373.66
526.776	18528.45
527.142	18544.5
527.508	18784.49
527.874	18925.05
528.241	18999.18
528.607	19055.67
528.973	19244.82
529.339	19286.85
529.705	19459.28
530.071	19741.53
530.437	19724.81
530.803	19763
531.169	19902.43
531.535	20027.85
531.901	20014.74
532.267	20168.86
532.632	20271.23
532.998	20424.67
533.364	20574.28
533.73	20642.75
534.095	20745.57
534.461	20790.99
534.826	21003.42
535.192	21055.62
535.557	21242.96
535.923	21159.57
536.288	21350.53
536.653	21469.39
537.019	21254.03
537.384	21585.32
537.749	21572.44
538.114	21781.7
538.479	21793.45
538.845	21901.92
539.21	21877.52
539.575	22016.05
539.94	22232.76
540.305	22218.07
540.67	22197.74
541.034	22297.39
541.399	22385.08
541.764	22522.47
542.129	22585.3
542.494	22620.78
542.858	22786.42
543.223	22885.4
543.587	23007.43
543.952	23020.31
544.316	23174.88
544.681	23098.28
545.045	23187.31
545.41	23291.49
545.774	23453.52
546.138	23389.57
546.503	23528.77
546.867	23610.35
547.231	23714.31
547.595	23802.67
547.959	23830.01
548.324	23867.3
548.688	23950.68
549.052	24157.68
549.416	24153.39
549.779	24304.35
550.143	24341.63
550.507	24544.79
550.871	24562.19
551.235	24507.96
551.599	24799.7
551.962	24801.51
552.326	24848.51
552.689	25021.84
553.053	24967.38
553.417	25044.44
553.78	25455.28
554.143	25236.3
554.507	25422.74
554.87	25416.86
555.234	25706.34
555.597	25597.65
555.96	25849.84
556.323	25831.54
556.686	25911.08
557.05	26172.09
557.413	26213.68
557.776	26368.93
558.139	26487.11
558.502	26614.12
558.865	26556.94
559.228	26853.21
559.59	27012.3
559.953	27046.42
560.316	27278.28
560.679	27311.73
561.041	27513.08
561.404	27525.05
561.767	27843.46
562.129	27687.99
562.492	27961.88
562.854	27987.64
563.217	28006.17
563.579	28184.7
563.941	28355.54
564.304	28432.83
564.666	28581.75
565.028	28705.81
565.39	28791.91
565.753	28911.91
566.115	29077.33
566.477	29074.16
566.839	29299.24
567.201	29436.64
567.563	29390.09
567.925	29736.29
568.287	29630.76
568.648	29722.51
569.01	29874.82
569.372	30087.92
569.734	29968.83
570.095	30315.26
570.457	30335.37
570.819	30437.29
571.18	30624.86
571.542	30748.25
571.903	30635.25
572.265	30867.56
572.626	30981.23
572.987	31017.16
573.349	31125.86
573.71	31251.51
574.071	31369.25
574.432	31335.12
574.794	31686.53
575.155	31649.01
575.516	31486.76
575.877	31595.68
576.238	31736.47
576.599	31944.82
576.96	31946.18
577.32	31953.86
577.681	32023.24
578.042	32152.73
578.403	32160.41
578.763	32065.05
579.124	32270.92
579.485	32474.08
579.845	32422.33
580.206	32432.72
580.566	32333.97
580.927	32452.61
581.287	32570.34
581.648	32397.92
582.008	32570.57
582.368	32575.54
582.728	32580.74
583.089	32710.68
583.449	32639.04
583.809	32650.57
584.169	32710.91
584.529	32700.06
584.889	32921.97
585.249	32791.13
585.609	32623.22
585.969	32886.04
586.329	32819.6
586.688	32880.39
587.048	32771.02
587.408	32694.86
587.768	32707.29
588.127	32816.44
588.487	32726.95
588.846	32991.8
589.206	32845.59
589.565	32768.31
589.925	33047.39
590.284	32853.73
590.643	32894.4
591.003	33065.47
591.362	32975.76
591.721	32860.05
592.08	32924.23
592.44	32979.15
592.799	33043.55
593.158	33040.84
593.517	33112.93
593.876	33101.4
594.235	33040.61
594.593	33009.88
594.952	33216.2
595.311	33149.99
595.67	33091.23
596.029	33364.9
596.387	33211.01
596.746	33417.78
597.104	33113.61
597.463	33080.61
597.822	33240.38
598.18	33261.63
598.538	33124.23
598.897	33310.44
599.255	33090.33
599.613	33600.15
599.972	33404.67
600.33	33367.16
600.688	33357.89
601.046	33436.08
601.404	33495.29
601.762	33597.44
602.12	33758.56
602.478	33733.48
602.836	33650.77
603.194	33540.04
603.552	33723.53
603.91	33546.36
604.268	33693.7
604.625	33599.02
604.983	33872.68
605.341	33594.5
605.698	33711.11
606.056	33898.22
606.413	33844.43
606.771	33890.31
607.128	34030.87
607.485	33824.77
607.843	33902.74
608.2	33936.18
608.557	34100.93
608.914	34072.23
609.272	34215.05
609.629	34247.36
609.986	34366
610.343	34228.38
610.7	34522.61
611.057	34508.82
611.414	34356.29
611.771	34391.99
612.127	34499.56
612.484	34499.33
612.841	34589.95
613.198	34504.3
613.554	34453.91
613.911	34745.65
614.267	34669.95
614.624	34623.17
614.98	34719.89
615.337	34858.65
615.693	34705.88
616.05	34766.9
616.406	34875.14
616.762	34802.83
617.118	34755.37
617.475	34794.69
617.831	34923.05
618.187	34980.22
618.543	34990.85
618.899	35292.76
619.255	35163.95
619.611	34997.17
619.967	35197.17
620.323	35290.27
620.678	35187.45
621.034	35072.88
621.39	34985.65
621.746	35081.92
622.101	35391.51
622.457	35093.22
622.812	35206.43
623.168	35328.69
623.523	35344.28
623.879	35362.81
624.234	35004.63
624.589	35072.43
624.945	35263.61
625.3	35260.67
625.655	35168.47
626.01	35283.95
626.365	35224.96
626.72	35349.71
627.075	35246.88
627.43	35197.39
627.785	35060.22
628.14	35193.55
628.495	35163.5
628.85	35069.49
629.205	35196.94
629.559	35319.65
629.914	35093.89
630.269	35158.98
630.623	34940
630.978	34843.96
631.332	35048.02
631.687	34956.04
632.041	34935.25
632.396	34911.07
632.75	34681.02
633.104	34779.55
633.459	34632.66
633.813	34615.26
634.167	34559.67
634.521	34583.62
634.875	34702.49
635.229	34574.13
635.583	34467.24
635.937	34531.2
636.291	34359
636.645	34339.79
636.999	34380.47
637.352	34427.92
637.706	34269.96
638.06	34409.17
638.413	34277.19
638.767	34215.27
639.121	34160.36
639.474	33959.23
639.828	33861.38
640.181	34051.66
640.534	33972.34
640.888	33809.63
641.241	33791.78
641.594	33735.51
641.947	33867.03
642.301	33698.45
642.654	33747.04
643.007	33794.49
643.36	33747.71
643.713	33677.43
644.066	33733.48
644.419	33464.56
644.771	33246.48
645.124	33023.21
645.477	32987.96
645.83	32820.28
646.182	32641.3
646.535	32516.79
646.888	32587.52
647.24	32407.64
647.593	32550.68
647.945	32423.91
648.298	32214.87
648.65	32197.47
649.002	32128.55
649.355	32166.96
649.707	32263.69
650.059	32349.33
650.411	32668.87
650.763	32711.36
651.115	33028.86
651.467	32940.28
651.819	32852.14
652.171	32808.98
652.523	32717.68
652.875	32644.01
653.227	32670.68
653.578	32750.45
653.93	32661.87
654.282	32667.06
654.633	32498.71
654.985	32440.86
655.337	32422.33
655.688	32556.56
656.039	32631.81
656.391	32279.28
656.742	32475.43
657.094	32351.82
657.445	32400.86
657.796	32426.62
658.147	32097.59
658.498	32352.5
658.849	32429.33
659.2	32227.3
659.551	32243.12
659.902	32314.53
660.253	32137.81
660.604	32195.66
660.955	32031.38
661.306	32238.6
661.656	32090.36
662.007	32163.35
662.358	32158.38
662.708	32181.43
663.059	32075.89
663.409	31724.04
663.76	32037.93
664.11	31948.89
664.461	32115.21
664.811	32126.06
665.161	31923.81
665.511	31930.59
665.862	31947.54
666.212	31911.6
666.562	32067.08
666.912	31862.34
667.262	31755.68
667.612	31833.87
667.962	31833.87
668.312	31782.79
668.662	31947.99
669.011	31800.87
669.361	31721.78
669.711	31768.78
670.06	31745.06
670.41	31646.53
670.76	31598.62
671.109	31681.55
671.459	31609.47
671.808	31555
672.157	31572.4
672.507	31424.39
672.856	31402.47
673.205	31435.46
673.554	31542.8
673.904	31468.68
674.253	31495.8
674.602	31370.83
674.951	30981.01
675.3	30821.01
675.649	31194.79
675.998	31341.68
676.346	31276.37
676.695	31414.89
677.044	31150.04
677.393	31272.3
677.741	31249.7
678.09	31080.21
678.438	31056.26
678.787	31012.42
679.135	31110.72
679.484	31057.62
679.832	31109.14
680.181	30885.87
680.529	30983.95
680.877	30776.72
681.225	30764.97
681.573	30873.21
681.922	30699.21
682.27	30672.09
682.618	30557.06
682.966	30492.88
683.314	30610.62
683.661	30524.07
684.009	30394.58
684.357	30332.44
684.705	30369.5
685.053	30328.37
685.4	30324.08
685.748	30088.15
686.095	30059.9
686.443	29987.14
686.79	29915.05
687.138	29942.84
687.485	29989.85
687.832	29839.12
688.18	29774.26
688.527	29554.38
688.874	29665.56
689.221	29597.54
689.568	29459.01
689.915	29397.55
690.262	29351.9
690.609	29206.82
690.956	29139.25
691.303	29068.74
691.65	29090.21
691.997	29031.91
692.344	28869.88
692.69	28876.43
693.037	28780.61
693.383	28617
693.73	28694.97
694.077	28559.15
694.423	28471.24
694.769	28564.8
695.116	28391.25
695.462	28298.14
695.808	28238.03
696.155	28243.68
696.501	27999.39
696.847	27996.23
697.193	27905.38
697.539	27974.08
697.885	27864.03
698.231	27712.84
698.577	27516.01
698.923	27699.06
699.269	27525.73
699.614	27393.08
699.96	27273.53
700.306	27295.68
700.651	27213.87
700.997	27103.37
701.342	27005.74
701.688	27068.79
702.033	26915.8
702.379	26919.19
702.724	26803.26
703.069	26798.97
703.415	26598.3
703.76	26631.97
704.105	26541.8
704.45	26431.07
704.795	26331.86
705.14	26206.9
705.485	26213.45
705.83	26063.17
706.175	26136.16
706.52	26057.75
706.865	25929.84
707.209	25870.63
707.554	25776.85
707.899	25860.69
708.243	25560.36
708.588	25728.49
708.932	25476.29
709.277	25502.28
709.621	25556.97
709.966	25346.58
710.31	25364.66
710.654	25092.57
710.998	25224.77
711.342	25157.43
711.687	25196.3
712.031	25017.32
712.375	24970.32
712.719	25007.83
713.063	24901.39
713.407	25110.2
713.75	24867.04
714.094	24771.23
714.438	24720.83
714.782	24685.81
715.125	24619.37
715.469	24719.93
715.812	24478.81
716.156	24362.88
716.499	24399.26
716.843	24390.22
717.186	24144.35
717.53	24340.28
717.873	24369.43
718.216	24252.82
718.559	24213.5
718.902	23883.11
719.246	24000.17
719.589	23900.06
719.932	23787.52
720.275	23896.9
720.617	23823.91
720.96	23856
721.303	23719.5
721.646	23822.78
721.989	23596.12
722.331	23709.79
722.674	23663.69
723.016	23714.76
723.359	23566.06
723.701	23563.58
724.044	23430.25
724.386	23188.22
724.729	23442
725.071	23322.68
725.413	23293.53
725.755	23262.79
726.097	23152.29
726.439	23035.45
726.782	22973.99
727.124	23124.72
727.465	23042.46
727.807	23034.78
728.149	22886.08
728.491	22836.36
728.833	22855.8
729.175	22751.85
729.516	22802.24
729.858	22675.46
730.199	22738.96
730.541	22799.3
730.882	22661.23
731.224	22673.66
731.565	22571.51
731.906	22562.7
732.248	22596.14
732.589	22476.82
732.93	22396.37
733.271	22408.8
733.612	22379.2
733.953	22371.06
734.294	22293.78
734.635	22236.83
734.976	22290.84
735.317	22265.98
735.658	22206.1
735.999	22138.3
736.339	21998.64
736.68	22127
737.021	22036.38
737.361	21979.66
737.702	22047.68
738.042	21960.45
738.383	21968.59
738.723	21861.93
739.063	21864.41
739.404	21955.71
739.744	21792.32
740.084	21766.11
740.424	21728.82
740.764	21644.98
741.104	21715.71
741.444	21577.86
741.784	21447.92
742.124	21480.24
742.464	21594.81
742.804	21506.68
743.143	21395.72
743.483	21409.51
743.823	21276.63
744.162	21270.08
744.502	21209.74
744.841	21105.56
745.181	21266.23
745.52	21167.48
745.86	21076.41
746.199	21120.93
746.538	21105.79
746.877	21107.59
747.216	21031.89
747.556	21044.32
747.895	20970.42
748.234	20869.63
748.573	20795.29
748.911	20818.11
749.25	20897.66
749.589	20666.7
749.928	20840.03
750.267	20728.62
750.605	20615.18
750.944	20532.92
751.283	20386.03
751.621	20590.32
751.96	20455.18
752.298	20474.39
752.636	20445.92
752.975	20388.97
753.313	20285.47
753.651	20312.59
753.989	20106.94
754.327	20178.13
754.666	20039.83
755.004	20136.09
755.342	20243.89
755.679	20033.05
756.017	19855.42
756.355	19925.03
756.693	19882.09
757.031	19832.15
757.368	19763.9
757.706	19697.24
758.044	19698.14
758.381	19669.44
758.719	19473.97
759.056	19624.02
759.394	19444.59
759.731	19340.86
760.068	19307.42
760.405	19195.78
760.743	19157.59
761.08	19199.17
761.417	19073.07
761.754	19048.89
762.091	19043.92
762.428	18953.98
762.765	18793.98
763.102	18877.82
763.438	18711.95
763.775	18696.81
764.112	18677.6
764.449	18648.9
764.785	18537.27
765.122	18432.64
765.458	18363.26
765.795	18385.18
766.131	18404.16
766.467	18225.18
766.804	18181.57
767.14	18110.16
767.476	18119.65
767.812	17979.99
768.148	17898.19
768.485	17896.83
768.821	17815.93
769.157	17777.06
769.492	17758.08
769.828	17699.77
770.164	17546.33
770.5	17545.2
770.836	17452.1
771.171	17388.14
771.507	17446.45
771.842	17324.64
772.178	17259.79
772.513	17266.57
772.849	17158.09
773.184	17051.66
773.519	17039.23
773.855	16924.65
774.19	16914.71
774.525	16844.66
774.86	16883.07
775.195	16720.14
775.53	16637.43
775.865	16627.49
776.2	16535.74
776.535	16356.31
776.87	16416.42
777.205	16355.86
777.539	16257.55
777.874	16285.8
778.209	16102.3
778.543	16030.89
778.878	16040.16
779.212	15962.65
779.547	15922.42
779.881	15782.31
780.215	15862.53
780.55	15840.84
780.884	15677.91
781.218	15679.94
781.552	15711.35
781.886	15585.03
782.22	15477.69
782.554	15420.96
782.888	15334.19
783.222	15256.9
783.556	15238.6
783.889	15126.06
784.223	15052.39
784.557	15112.05
784.89	15088.77
785.224	15028.88
785.557	14852.17
785.891	14871.83
786.224	14835.67
786.558	14827.31
786.891	14672.28
787.224	14705.5
787.557	14566.75
787.891	14615.56
788.224	14511.38
788.557	14542.12
788.89	14405.85
789.223	14428.9
789.556	14258.51
789.888	14294.21
790.221	14258.28
790.554	14084.5
790.887	14075.92
791.219	14051.96
791.552	14001.34
791.884	14017.84
792.217	13868.91
792.549	13826.2
792.882	13693.33
793.214	13691.97
793.546	13742.36
793.879	13556.83
794.211	13607.23
794.543	13549.6
794.875	13558.87
795.207	13583.27
795.539	13503.27
795.871	13478.42
796.203	13338.08
796.535	13342.83
796.867	13217.63
797.198	13247.69
797.53	13158.43
797.862	13128.37
798.193	13147.8
798.525	12995.72
798.856	13082.72
799.188	12963.18
799.519	12860.35
799.85	12823.07
800.182	12826.91
800.513	12830.75
800.844	12757.53
801.175	12691.32
801.506	12702.84
801.837	12655.39
802.168	12602.06
802.499	12573.36
802.83	12554.15
803.161	12500.59
803.491	12514.37
803.822	12480.25
804.153	12365
804.483	12346.02
804.814	12280.93
805.145	12242.74
805.475	12238
805.805	12078
806.136	12222.18
806.466	12128.4
806.796	12113.93
807.126	12000.49
807.457	12044.78
807.787	12004.11
808.117	11907.61
808.447	11900.83
808.777	11930.66
809.107	11866.93
809.436	11820.61
809.766	11802.98
810.096	11788.74
810.426	11744.68
810.755	11751.91
811.085	11690.44
811.414	11611.57
811.744	11533.16
812.073	11567.28
812.403	11529.54
812.732	11496.77
813.061	11424.46
813.39	11500.16
813.719	11424.69
814.049	11505.59
814.378	11406.15
814.707	11328.19
815.036	11334.07
815.365	11249.32
815.693	11152.15
816.022	11279.15
816.351	11202.09
816.68	11159.83
817.008	11213.17
817.337	11087.29
817.665	11004.58
817.994	11051.59
818.322	10997.13
818.651	10967.75
818.979	10906.06
819.307	10951.48
819.636	10899.95
819.964	10854.76
820.292	10895.21
820.62	10850.01
820.948	10812.72
821.276	10856.11
821.604	10817.02
821.932	10733.18
822.259	10843.46
822.587	10767.3
822.915	10784.25
823.243	10843.01
823.57	10712.84
823.898	10812.5
824.225	10731.14
824.553	10682.78
824.88	10746.74
825.207	10764.36
825.535	10728.66
825.862	10802.78
826.189	10662.9
826.516	10808.43
826.843	10784.93
827.17	10787.41
827.497	10757.58
827.824	10791.48
828.151	10833.74
828.478	10720.98
828.805	10828.32
829.131	10737.47
829.458	10684.14
829.785	10703.12
830.111	10767.3
830.438	10794.42
830.764	10767.98
831.09	10802.33
831.417	10620.19
831.743	10669.9
832.069	10717.81
832.395	10658.15
832.722	10668.1
833.048	10644.82
833.374	10610.7
833.7	10638.27
834.026	10672.61
834.351	10646.85
834.677	10654.08
835.003	10608.44
835.329	10619.28
835.654	10546.29
835.98	10473.75
836.306	10617.25
836.631	10566.4
836.956	10607.31
837.282	10564.37
837.607	10533.64
837.932	10461.55
838.258	10500.42
838.583	10514.88
838.908	10388.1
839.233	10374.54
839.558	10347.88
839.883	10296.35
840.208	10357.14
840.533	10356.01
840.858	10354.66
841.182	10282.57
841.507	10315.79
841.832	10239.41
842.156	10206.86
842.481	10286.86
842.805	10137.04
843.13	10189.24
843.454	10095.45
843.778	10100.43
844.103	10109.92
844.427	10017.49
844.751	10091.84
845.075	10024.95
845.399	9991.5
845.723	9915.12
846.047	10020.43
846.371	9887.1
846.695	9804.39
847.019	9820.43
847.343	9741.11
847.666	9671.29
847.99	9642.81
848.313	9616.15
848.637	9617.05
848.96	9570.5
849.284	9644.39
849.607	9619.76
849.931	9480.33
850.254	9397.39
850.577	9421.12
850.9	9339.09
851.223	9283.27
851.546	9259.32
851.869	9206.21
852.192	9254.12
852.515	9168.47
852.838	9064.3
853.161	9110.4
853.483	9107.68
853.806	8932.32
854.129	8997.63
854.451	8929.61
854.774	8923.06
855.096	8927.8
855.419	8896.39
855.741	8849.61
856.063	8793.12
856.385	8805.55
856.708	8742.5
857.03	8735.04
857.352	8701.59
857.674	8710.18
857.996	8608.04
858.318	8623.4
858.64	8619.11
858.961	8653.01
859.283	8603.06
859.605	8511.54
859.926	8447.81
860.248	8479
860.57	8522.16
860.891	8471.32
861.212	8441.71
861.534	8473.58
861.855	8439.91
862.176	8395.61
862.498	8443.52
862.819	8434.93
863.14	8333.92
863.461	8328.5
863.782	8207.82
864.103	8302.51
864.424	8253.47
864.745	8250.08
865.065	8177.99
865.386	8193.36
865.707	8222.51
866.027	8215.28
866.348	8250.31
866.668	8182.96
866.989	8228.16
867.309	8119.46
867.63	8098.22
867.95	8116.52
868.27	8020.03
868.59	8091.44
868.91	8086.02
869.23	8007.6
869.55	8033.59
869.87	8110.2
870.19	7997.88
870.51	7991.1
870.83	8021.39
871.15	7982.97
871.469	7990.88
871.789	7962.18
872.109	7945.45
872.428	7919.47
872.748	7970.09
873.067	7910.2
873.386	7920.37
873.706	7928.73
874.025	7872.24
874.344	7869.98
874.663	7883.08
874.982	7703.43
875.301	7781.17
875.62	7793.82
875.939	7747.04
876.258	7696.87
876.577	7724.22
876.896	7744.78
877.214	7672.47
877.533	7651.9
877.852	7648.97
878.17	7744.1
878.489	7710.43
878.807	7683.54
879.125	7594.05
879.444	7616.65
879.762	7635.41
880.08	7586.82
880.398	7575.07
880.716	7611.9
881.034	7512.25
881.352	7541.85
881.67	7505.47
881.988	7503.88
882.306	7499.82
882.624	7458.24
882.941	7426.15
883.259	7405.36
883.577	7475.18
883.894	7456.65
884.212	7443.1
884.529	7379.82
884.846	7348.63
885.164	7342.08
885.481	7344.79
885.798	7353.83
886.115	7257.34
886.432	7338.47
886.75	7253.5
887.067	7218.47
887.383	7207.62
887.7	7246.04
888.017	7184.57
888.334	7237.68
888.651	7170.79
888.967	7141.41
889.284	7119.04
889.6	7038.81
889.917	7020.96
890.233	7016.44
890.55	6987.74
890.866	6983.67
891.182	7014.41
891.498	6939.15
891.815	6971.7
892.131	6931.24
892.447	6900.06
892.763	6898.25
893.079	6865.71
893.395	6823.45
893.71	6833.85
894.026	6759.27
894.342	6810.57
894.657	6785.71
894.973	6724.92
895.289	6723.34
895.604	6701.65
895.92	6668.2
896.235	6612.16
896.55	6615.09
896.865	6614.87
897.181	6628.2
897.496	6587.98
897.811	6544.81
898.126	6516.34
898.441	6508.2
898.756	6464.82
899.071	6505.72
899.386	6477.47
899.7	6376.68
900.015	6356.57
900.33	6313.86
900.644	6340.98
900.959	6327.42
901.273	6364.03
901.588	6312.5
901.902	6272.5
902.216	6252.17
902.531	6206.97
902.845	6212.62
903.159	6154.54
903.473	6114.09
903.787	6119.74
904.101	6081.55
904.415	6105.28
904.729	6046.52
905.042	6021.89
905.356	6006.52
905.67	6030.25
905.984	6013.3
906.297	5972.85
906.611	5924.94
906.924	5933.98
907.237	5929.01
907.551	5939.41
907.864	5850.14
908.177	5886.07
908.491	5825.51
908.804	5814.89
909.117	5730.37
909.43	5794.55
909.743	5734.44
910.056	5680.43
910.368	5650.37
910.681	5663.03
910.994	5652.18
911.307	5598.85
911.619	5556.59
911.932	5590.04
912.244	5544.61
912.557	5535.35
912.869	5487.89
913.181	5439.31
913.494	5427.78
913.806	5409.93
914.118	5379.42
914.43	5384.84
914.742	5370.61
915.054	5322.93
915.366	5288.58
915.678	5276.37
915.99	5301.46
916.302	5165.87
916.613	5200.44
916.925	5223.27
917.236	5213.1
917.548	5166.09
917.859	5158.18
918.171	5098.3
918.482	5093.55
918.794	5039.32
919.105	5103.72
919.416	5012.88
919.727	5011.97
920.038	4993.44
920.349	4951.86
920.66	4979.66
920.971	4925.42
921.282	4914.35
921.593	4910.28
921.903	4866.89
922.214	4892.2
922.525	4829.15
922.835	4829.15
923.146	4795.71
923.456	4742.6
923.767	4740.34
924.077	4767.23
924.387	4701.92
924.697	4695.14
925.008	4708.7
925.318	4683.17
925.628	4672.55
925.938	4622.38
926.248	4609.95
926.558	4595.03
926.867	4597.07
927.177	4552.78
927.487	4543.96
927.796	4496.96
928.106	4498.99
928.416	4518.65
928.725	4482.95
929.034	4451.08
929.344	4437.3
929.653	4444.08
929.962	4435.04
930.271	4363.18
930.581	4318.43
930.89	4349.39
931.199	4288.83
931.508	4278.88
931.817	4326.57
932.125	4285.89
932.434	4256.74
932.743	4202.5
933.051	4214.71
933.36	4225.78
933.669	4161.83
933.977	4155.27
934.286	4147.81
934.594	4142.17
934.902	4120.7
935.21	4123.41
935.519	4086.8
935.827	4046.12
936.135	4088.61
936.443	4007.71
936.751	4044.54
937.059	3983.3
937.367	3936.29
937.674	3993.92
937.982	3981.72
938.29	3960.02
938.597	3966.35
938.905	3909.4
939.213	3855.84
939.52	3885
939.827	3889.97
940.135	3862.4
940.442	3820.59
940.749	3832.57
941.056	3799.12
941.363	3761.16
941.67	3762.97
941.977	3766.81
942.284	3723.65
942.591	3683.19
942.898	3672.35
943.205	3697.21
943.511	3664.44
943.818	3693.59
944.125	3638.9
944.431	3615.4
944.738	3597.55
945.044	3601.16
945.35	3586.47
945.657	3556.64
945.963	3536.98
946.269	3557.55
946.575	3514.16
946.881	3507.61
947.187	3480.94
947.493	3468.51
947.799	3437.78
948.105	3470.54
948.41	3391.22
948.716	3438.91
949.022	3370.89
949.327	3425.35
949.633	3330.21
949.938	3362.07
950.244	3386.48
950.549	3337.44
950.854	3314.39
951.16	3274.84
951.465	3292.92
951.77	3282.53
952.075	3295.41
952.38	3245.92
952.685	3224
952.99	3221.74
953.294	3200.95
953.599	3203.66
953.904	3170.44
954.209	3189.65
954.513	3175.86
954.818	3148.07
955.122	3137.67
955.426	3118.01
955.731	3115.3
956.035	3090.89
956.339	3061.06
956.643	3071.01
956.948	3070.33
957.252	3043.21
957.556	3008.18
957.86	3010.67
958.163	3024.91
958.467	2981.52
958.771	2979.71
959.075	2961.41
959.378	2922.76
959.682	2936.55
959.985	2912.37
960.289	2890.9
960.592	2894.74
960.896	2907.17
961.199	2848.64
961.502	2888.86
961.805	2868.3
962.108	2828.98
962.411	2813.84
962.714	2771.35
963.017	2796.89
963.32	2805.48
963.623	2796.66
963.926	2746.5
964.228	2743.56
964.531	2748.08
964.833	2737.46
965.136	2746.27
965.438	2706.72
965.741	2679.15
966.043	2677.12
966.345	2692.26
966.648	2666.05
966.95	2659.27
967.252	2646.61
967.554	2660.17
967.856	2611.36
968.158	2606.61
968.46	2589.89
968.761	2581.53
969.063	2542.43
969.365	2564.81
969.666	2534.75
969.968	2543.11
970.269	2490.46
970.571	2526.39
970.872	2525.71
971.174	2511.47
971.475	2492.72
971.776	2455.2
972.077	2478.93
972.378	2438.48
972.679	2438.03
972.98	2438.03
973.281	2424.02
973.582	2457.24
973.883	2399.16
974.183	2398.71
974.484	2429.44
974.785	2392.15
975.085	2387.63
975.386	2377.01
975.686	2357.58
975.986	2331.59
976.287	2310.8
976.587	2335.66
976.887	2334.3
977.187	2301.76
977.487	2309.9
977.787	2289.56
978.087	2260.63
978.387	2253.63
978.687	2293.4
978.987	2294.3
979.286	2233.29
979.586	2231.25
979.885	2212.5
980.185	2202.78
980.484	2147.87
980.784	2221.99
981.083	2171.6
981.382	2163.91
981.682	2166.62
981.981	2143.8
982.28	2160.3
982.579	2138.38
982.878	2132.27
983.177	2135.89
983.475	2123.91
983.774	2093.18
984.073	2082.33
984.372	2068.32
984.67	2073.29
984.969	2053.18
985.267	2089.34
985.566	2041.43
985.864	2025.38
986.162	2037.81
986.461	2019.51
986.759	1979.51
987.057	1968.21
987.355	1993.75
987.653	1990.13
987.951	1953.75
988.249	1973.18
988.547	1980.87
988.844	1980.19
989.142	1960.53
989.44	1921.21
989.737	1924.6
990.035	1892.05
990.332	1920.75
990.63	1888.21
990.927	1907.42
991.224	1852.73
991.521	1891.38
991.819	1871.04
992.116	1852.96
992.413	1872.39
992.71	1841.89
993.006	1820.42
993.303	1824.94
993.6	1800.76
993.897	1835.11
994.193	1794.2
994.49	1822.9
994.787	1813.64
995.083	1775.22
995.379	1763.92
995.676	1792.62
995.972	1761.44
996.268	1755.11
996.565	1734.09
996.861	1729.8
997.157	1738.61
997.453	1713.53
997.749	1697.48
998.044	1676.02
998.34	1680.31
998.636	1666.75
998.932	1678.73
999.227	1658.16
999.523	1664.26
999.818	1639.86
1000.114	1651.61
1000.409	1634.21
1000.704	1635.79
1001	1636.24
1001.295	1627.88
1001.59	1615.9
1001.885	1613.87
1002.18	1599.41
1002.475	1572.29
1002.77	1580.88
1003.065	1573.19
1003.359	1525.51
1003.654	1546.53
1003.949	1535.68
1004.243	1523.48
1004.538	1520.77
1004.832	1529.8
1005.127	1511.05
1005.421	1519.18
1005.715	1498.39
1006.009	1489.13
1006.304	1483.48
1006.598	1474.66
1006.892	1461.56
1007.186	1455.91
1007.48	1449.13
1007.773	1461.78
1008.067	1428.79
1008.361	1398.28
1008.655	1393.08
1008.948	1416.81
1009.242	1416.59
1009.535	1416.59
1009.829	1378.4
1010.122	1385.85
1010.415	1367.32
1010.708	1350.37
1011.001	1354.67
1011.295	1372.75
1011.588	1368
1011.881	1329.13
1012.173	1309.7
1012.466	1332.3
1012.759	1315.8
1013.052	1297.95
1013.344	1298.62
1013.637	1303.14
1013.93	1287.55
1014.222	1266.31
1014.514	1273.31
1014.807	1271.28
1015.099	1271.96
1015.391	1261.34
1015.683	1245.97
1015.976	1263.82
1016.268	1256.59
1016.56	1243.94
1016.851	1215.01
1017.143	1209.59
1017.435	1202.36
1017.727	1188.8
1018.018	1196.03
1018.31	1195.35
1018.602	1148.8
1018.893	1177.5
1019.185	1138.85
1019.476	1164.84
1019.767	1161.45
1020.058	1135.01
1020.35	1118.74
1020.641	1133.88
1020.932	1141.79
1021.223	1134.11
1021.514	1108.12
1021.804	1101.79
1022.095	1089.82
1022.386	1090.27
1022.677	1071.06
1022.967	1077.84
1023.258	1068.57
1023.548	1058.18
1023.839	1055.01
1024.129	1053.66
1024.419	1035.13
1024.709	1047.56
1025	1043.04
1025.29	1026.09
1025.58	1045.98
1025.87	1041.68
1026.16	1010.5
1026.449	1014.56
1026.739	1001.23
1027.029	1017.5
1027.319	988.58
1027.608	982.7
1027.898	993.1
1028.187	980.67
1028.477	978.18
1028.766	942.25
1029.055	940.67
1029.344	961.23
1029.634	928.01
1029.923	913.32
1030.212	929.14
1030.501	927.11
1030.79	924.4
1031.078	911.06
1031.367	937.28
1031.656	911.29
1031.945	877.62
1032.233	895.02
1032.522	886.21
1032.81	862.7
1033.099	881.23
1033.387	888.92
1033.675	875.36
1033.963	876.49
1034.251	837.17
1034.54	836.49
1034.828	847.56
1035.116	829.71
1035.403	822.03
1035.691	834.23
1035.979	826.09
1036.267	829.26
1036.554	804.63
1036.842	807.79
1037.129	814.34
1037.417	810.5
1037.704	796.26
1037.992	804.63
1038.279	800.56
1038.566	781.35
1038.853	781.35
1039.14	781.35
