Data from White_reflection_standard_FLMS001491_006.txt Node
Date: Tue Feb 07 10:31:56 GMT 2017
User: dcchb
Spectrometer: FLMS00149
Trigger mode: 0
Integration Time (sec): 2.000000E-2
Scans to average: 10
Electric dark correction enabled: true
Nonlinearity correction enabled: false
Boxcar width: 0
XAxis mode: Wavelengths
Number of Pixels in Spectrum: 2048
>>>>>Begin Spectral Data<<<<<
341.393	-15.58
341.776	-15.58
342.16	-15.58
342.543	-59.87
342.927	-61.91
343.31	-94.22
343.693	-55.58
344.077	-59.87
344.46	-55.58
344.843	-30.49
345.226	-49.25
345.61	-31.4
345.993	-8.35
346.376	8.38
346.759	11.09
347.142	31.2
347.525	24.65
347.908	54.93
348.291	79.56
348.674	76.4
349.057	98.54
349.44	136.73
349.823	136.06
350.206	157.52
350.588	210.63
350.971	229.84
351.354	258.09
351.737	265.09
352.119	275.71
352.502	291.53
352.884	319.55
353.267	322.27
353.65	330.4
354.032	348.93
354.414	352.77
354.797	368.37
355.179	360.91
355.562	364.75
355.944	372.21
356.326	382.15
356.709	376.28
357.091	388.25
357.473	397.29
357.855	376.5
358.238	393
358.62	404.52
359.002	408.59
359.384	407.69
359.766	413.11
360.148	418.08
360.53	382.38
360.912	405.2
361.294	395.94
361.676	402.04
362.057	402.49
362.439	408.36
362.821	415.37
363.203	401.59
363.584	406.78
363.966	393.22
364.348	419.44
364.729	405.2
365.111	387.8
365.493	414.01
365.874	414.47
366.256	418.08
366.637	427.12
367.019	406.56
367.4	416.5
367.781	419.44
368.163	430.96
368.544	424.64
368.925	411.08
369.306	413.11
369.688	394.35
370.069	427.12
370.45	429.16
370.831	468.25
371.212	436.16
371.593	428.7
371.974	448.36
372.355	431.87
372.736	436.16
373.117	443.84
373.498	456.73
373.879	466.22
374.26	430.29
374.641	427.8
375.021	431.87
375.402	462.83
375.783	476.39
376.163	506.44
376.544	483.84
376.925	489.72
377.305	482.71
377.686	481.36
378.066	492.88
378.447	492.66
378.827	505.31
379.208	509.38
379.588	511.87
379.968	497.85
380.349	518.64
380.729	541.02
381.109	538.31
381.489	547.12
381.87	534.92
382.25	562.26
382.63	529.94
383.01	541.24
383.39	551.19
383.77	575.14
384.15	576.72
384.53	571.07
384.91	570.85
385.29	606.55
385.67	565.87
386.049	616.95
386.429	621.69
386.809	622.14
387.189	649.71
387.568	626.44
387.948	641.35
388.328	640.45
388.707	665.76
389.087	664.4
389.466	672.54
389.846	676.38
390.225	665.31
390.605	694.91
390.984	682.26
391.363	689.94
391.743	714.12
392.122	732.42
392.501	720.45
392.881	733.33
393.26	742.14
393.639	749.15
394.018	753.89
394.397	762.25
394.776	770.16
395.155	800.9
395.534	793.67
395.913	799.54
396.292	822.59
396.671	810.84
397.05	812.87
397.429	837.73
397.808	847.22
398.186	842.93
398.565	839.99
398.944	861.46
399.323	889.71
399.701	873.66
400.08	889.03
400.458	891.52
400.837	901.69
401.215	927.45
401.594	931.06
401.972	956.37
402.351	974.9
402.729	973.1
403.107	957.73
403.486	990.95
403.864	967.22
404.242	1018.52
404.62	1016.71
404.999	1026.65
405.377	1028.69
405.755	1050.83
406.133	1049.93
406.511	1091.96
406.889	1085.86
407.267	1103.26
407.645	1127.22
408.023	1133.54
408.401	1148.68
408.779	1158.63
409.156	1188.46
409.534	1201.56
409.912	1214.9
410.29	1230.94
410.667	1281.56
411.045	1273.88
411.422	1296.48
411.8	1291.73
412.178	1313.2
412.555	1348.68
412.933	1370.15
413.31	1372.18
413.687	1406.08
414.065	1402.46
414.442	1416.47
414.819	1449.24
415.197	1470.26
415.574	1492.63
415.951	1506.64
416.328	1524.95
416.705	1531.27
417.082	1543.02
417.46	1534.44
417.837	1562.68
418.214	1570.59
418.591	1604.72
418.967	1619.63
419.344	1600.88
419.721	1672.96
420.098	1659.18
420.475	1691.95
420.852	1724.26
421.228	1735.11
421.605	1725.17
421.982	1744.38
422.358	1781.21
422.735	1812.62
423.111	1819.63
423.488	1857.82
423.864	1846.29
424.241	1856.91
424.617	1939.17
424.994	1930.81
425.37	1935.78
425.746	1962.22
426.123	1959.28
426.499	1979.85
426.875	2026.63
427.251	2039.06
427.627	2104.59
428.003	2116.34
428.379	2169
428.756	2169.45
429.132	2211.93
429.507	2254.19
429.883	2276.56
430.259	2336.22
430.635	2330.57
431.011	2357.01
431.387	2403.57
431.763	2421.65
432.138	2474.53
432.514	2492.6
432.89	2517.69
433.265	2572.38
433.641	2611.47
434.016	2651.02
434.392	2680.85
434.767	2737.12
435.143	2713.62
435.518	2757.91
435.894	2787.96
436.269	2812.14
436.644	2876.32
437.02	2912.93
437.395	2910.67
437.77	2965.81
438.145	3004
438.52	2977.34
438.895	3093.04
439.271	3082.19
439.646	3114.28
440.021	3183.21
440.395	3148.18
440.77	3175.75
441.145	3198.12
441.52	3267.27
441.895	3266.59
442.27	3315.41
442.645	3295.07
443.019	3328.51
443.394	3378.46
443.769	3423.2
444.143	3417.78
444.518	3458.68
444.892	3430.66
445.267	3514.05
445.641	3518.34
446.016	3550.88
446.39	3606.25
446.764	3616.64
447.139	3546.14
447.513	3653.03
447.887	3700.03
448.262	3721.5
448.636	3737.54
449.01	3766.02
449.384	3794.94
449.758	3791.1
450.132	3896.63
450.506	3899.12
450.88	3932.57
451.254	3984.77
451.628	3997.2
452.002	4054.6
452.376	4102.51
452.75	4162.62
453.123	4189.73
453.497	4279.45
453.871	4258.21
454.244	4331.88
454.618	4348.6
454.992	4481.7
455.365	4440.12
455.739	4551.76
456.112	4623.17
456.486	4641.02
456.859	4723.73
457.232	4819.1
457.606	4822.03
457.979	4870.39
458.352	4963.73
458.725	5052.99
459.099	5069.49
459.472	5190.61
459.845	5236.26
460.218	5231.74
460.591	5342.7
460.964	5363.71
461.337	5491.62
461.71	5590.83
462.083	5643.26
462.456	5639.19
462.829	5687.77
463.201	5777.94
463.574	5798.73
463.947	5901.33
464.32	6011.83
464.692	6073.07
465.065	6179.74
465.438	6212.73
465.81	6356.46
466.183	6385.38
466.555	6543.8
466.928	6576.79
467.3	6547.19
467.672	6658.6
468.045	6805.26
468.417	6873.28
468.789	6953.96
469.161	7023.33
469.534	7122.31
469.906	7302.65
470.278	7361.63
470.65	7427.62
471.022	7541.06
471.394	7737.89
471.766	7779.02
472.138	7902.18
472.51	8032.8
472.882	8191.21
473.253	8320.02
473.625	8403.41
473.997	8583.07
474.369	8616.96
474.74	8720.69
475.112	8926.79
475.484	9067.12
475.855	9256.49
476.227	9315.48
476.598	9625.52
476.97	9630.5
477.341	9879.98
477.713	10086.75
478.084	10145.28
478.455	10420.98
478.827	10434.99
479.198	10826.4
479.569	10848.99
479.94	11153.17
480.311	11237.01
480.682	11536.89
481.053	11771.68
481.424	11952.69
481.795	11980.94
482.166	12178.45
482.537	12342.06
482.908	12700.02
483.279	12803.75
483.65	13062.04
484.021	13255.26
484.391	13435.82
484.762	13525.53
485.133	13609.15
485.503	13864.73
485.874	14230.15
486.244	14360.09
486.615	14598.27
486.985	14845.27
487.356	15042.56
487.726	15129.79
488.097	15467.4
488.467	15541.3
488.837	15902.65
489.207	15995.53
489.578	16265.35
489.948	16484.55
490.318	16714.38
490.688	16739.01
491.058	17139.22
491.428	17260.13
491.798	17452.44
492.168	17843.16
492.538	17847.23
492.908	18071.4
493.278	18376.25
493.648	18359.53
494.017	18562.46
494.387	18801.78
494.757	18889.69
495.126	19142.79
495.496	19196.12
495.866	19277.02
496.235	19585.04
496.605	19809.66
496.974	19830.23
497.344	20036.1
497.713	20129.43
498.082	20353.83
498.452	20584.78
498.821	20683.54
499.19	20647.61
499.559	20984.77
499.928	21131.21
500.298	21347.25
500.667	21462.27
501.036	21470.18
501.405	21693.91
501.774	21746.79
502.143	21992.2
502.512	22074.46
502.88	22334.12
503.249	22333.66
503.618	22583.83
503.987	22711.96
504.356	22854.55
504.724	22951.73
505.093	23035.11
505.462	23241.21
505.83	23413.18
506.199	23535.21
506.567	23848.65
506.936	23867.64
507.304	24217.91
507.672	24287.51
508.041	24433.27
508.409	24653.15
508.777	24822.41
509.145	24967.27
509.514	25026.02
509.882	25292.46
510.25	25291.33
510.618	25597.76
510.986	25596.18
511.354	25968.14
511.722	26156.84
512.09	26296.05
512.458	26364.52
512.826	26625.98
513.193	26692.87
513.561	26940.77
513.929	27176.47
514.297	27329.01
514.664	27692.17
515.032	27729
515.4	27797.7
515.767	28029.79
516.135	28308.42
516.502	28252.6
516.869	28676.77
517.237	28761.74
517.604	28792.7
517.972	29203.99
518.339	29437.66
518.706	29499.13
519.073	29557.43
519.44	29909.28
519.808	30152.67
520.175	30279.9
520.542	30560.79
520.909	30956.71
521.276	30897.05
521.643	31249.14
522.009	31490.03
522.376	31636.7
522.743	31991.94
523.11	32218.83
523.477	32558.48
523.843	32656.56
524.21	33081.86
524.577	33361.85
524.943	33387.61
525.31	33588.51
525.676	33903.98
526.043	34268.04
526.409	34338.55
526.776	34775.82
527.142	34744.64
527.508	34983.05
527.874	35258.52
528.241	35478.86
528.607	35542.13
528.973	35997.03
529.339	35946.19
529.705	36387.53
530.071	36469.79
530.437	36691.48
530.803	37021.41
531.169	37123.56
531.535	37197.23
531.901	37356.32
532.267	37566.94
532.632	37808.29
532.998	37907.27
533.364	38119.92
533.73	38196.52
534.095	38559.68
534.461	38729.84
534.826	38911.31
535.192	39006.45
535.557	39387.23
535.923	39393.55
536.288	39530.73
536.653	39764.17
537.019	39743.83
537.384	40061.11
537.749	40015.23
538.114	40150.6
538.479	40268.11
538.845	40518.72
539.21	40367.77
539.575	40637.82
539.94	40879.17
540.305	41076.67
540.67	41047.75
541.034	41261.53
541.399	41400.96
541.764	41603.67
542.129	41761.63
542.494	41863.32
542.858	41964.11
543.223	42176.53
543.587	42277.77
543.952	42346.7
544.316	42518.44
544.681	42474.6
545.045	42670.76
545.41	43033.46
545.774	42964.76
546.138	43173.79
546.503	43253.34
546.867	43233.91
547.231	43718.64
547.595	43791.63
547.959	43880.89
548.324	43851.97
548.688	44107.1
549.052	44297.83
549.416	44359.53
549.779	44506.19
550.143	44583.25
550.507	44847.87
550.871	45037.93
551.235	45059.39
551.599	45271.37
551.962	45373.74
552.326	45446.05
552.689	45667.06
553.053	45628.87
553.417	45750.22
553.78	46359.47
554.143	46007.62
554.507	46387.49
554.87	46480.6
555.234	46918.55
555.597	46574.83
555.96	46957.42
556.323	47164.2
556.686	47135.72
557.05	47463.17
557.413	47530.29
557.776	47633.79
558.139	47929.6
558.502	48048.02
558.865	48155.13
559.228	48345.86
559.59	48568.45
559.953	48555.35
560.316	49172.51
560.679	48998.05
561.041	49311.71
561.404	49337.25
561.767	49725.03
562.129	49532.05
562.492	49855.65
562.854	49979.94
563.217	49928.19
563.579	50059.26
563.941	50357.79
564.304	50560.04
564.666	50666.48
565.028	50677.78
565.39	50907.83
565.753	51101.72
566.115	51274.82
566.477	51362.28
566.839	51480.24
567.201	51673.01
567.563	51670.97
567.925	51963.39
568.287	51887.24
568.648	52051.07
569.01	52288.36
569.372	52402.25
569.734	52298.75
570.095	52587.11
570.457	52784.39
570.819	52777.16
571.18	52791.85
571.542	52946.87
571.903	53065.51
572.265	53148.67
572.626	53225.73
572.987	53299.63
573.349	53391.6
573.71	53537.82
574.071	53439.74
574.432	53638.83
574.794	53840.86
575.155	53747.08
575.516	53777.81
575.877	53951.82
576.238	54001.08
576.599	54124.47
576.96	54173.73
577.32	54074.07
577.681	54235.65
578.042	54298.93
578.403	54320.85
578.763	54333.95
579.124	54392.03
579.485	54539.6
579.845	54541.63
580.206	54553.16
580.566	54530.33
580.927	54510.9
581.287	54661.63
581.648	54505.7
582.008	54706.15
582.368	54631.57
582.728	54698.24
583.089	54611.23
583.449	54701.85
583.809	54767.39
584.169	54742.3
584.529	54719.71
584.889	54972.81
585.249	54676.99
585.609	54632.48
585.969	54868.4
586.329	54767.16
586.688	54782.75
587.048	54779.82
587.408	54792.47
587.768	54767.84
588.127	54758.8
588.487	54739.37
588.846	54945.24
589.206	54775.3
589.565	54757.44
589.925	54973.71
590.284	54749.76
590.643	54896.42
591.003	54909.53
591.362	54964.9
591.721	54861.62
592.08	54956.54
592.44	54913.37
592.799	55008.29
593.158	54969.87
593.517	54967.38
593.876	54987.72
594.235	54961.28
594.593	55061.62
594.952	55020.26
595.311	54936.65
595.67	54969.64
596.029	55108.17
596.387	55195.85
596.746	55218.9
597.104	55074.72
597.463	55065.01
597.822	55195.17
598.18	55100.94
598.538	55115.4
598.897	55218.68
599.255	55014.84
599.613	55400.37
599.972	55269.3
600.33	55279.24
600.688	55191.78
601.046	55348.62
601.404	55459.35
601.762	55323.76
602.12	55406.69
602.478	55503.64
602.836	55465.9
603.194	55353.59
603.552	55429.52
603.91	55340.48
604.268	55508.16
604.625	55450.76
604.983	55565.78
605.341	55492.79
605.698	55584.54
606.056	55659.34
606.413	55676.74
606.771	55619.12
607.128	55766.23
607.485	55642.84
607.843	55639
608.2	55683.75
608.557	55865.66
608.914	55763.97
609.272	55958.32
609.629	55907.47
609.986	56039.22
610.343	55880.8
610.7	56051.87
611.057	56019.33
611.414	56026.34
611.771	56059.11
612.127	56120.35
612.484	56116.28
612.841	56208.25
613.198	56151.98
613.554	56176.84
613.911	56275.82
614.267	56254.58
614.624	56166.22
614.98	56245.77
615.337	56378.42
615.693	56354.46
616.05	56306.78
616.406	56467
616.762	56392.66
617.118	56359.21
617.475	56403.95
617.831	56377.97
618.187	56455.03
618.543	56404.86
618.899	56625.19
619.255	56557.85
619.611	56516.27
619.967	56570.73
620.323	56719.2
620.678	56579.09
621.034	56537.51
621.39	56513.1
621.746	56481.69
622.101	56796.49
622.457	56458.19
622.812	56573.44
623.168	56614.34
623.523	56602.37
623.879	56661.8
624.234	56561.92
624.589	56544.52
624.945	56630.62
625.3	56610.95
625.655	56642.14
626.01	56635.14
626.365	56675.81
626.72	56542.48
627.075	56626.32
627.43	56517.85
627.785	56538.64
628.14	56566.89
628.495	56540.67
628.85	56592.88
629.205	56455.25
629.559	56647.56
629.914	56423.16
630.269	56456.38
630.623	56431.75
630.978	56327.35
631.332	56481.92
631.687	56502.94
632.041	56324.18
632.396	56369.83
632.75	56251.87
633.104	56385.42
633.459	56175.49
633.813	56201.25
634.167	56179.33
634.521	56102.95
634.875	56124.64
635.229	56116.96
635.583	55947.47
635.937	55985.89
636.291	55960.58
636.645	55992.89
636.999	55859.11
637.352	55934.36
637.706	55800.58
638.06	55897.3
638.413	55814.59
638.767	55623.18
639.121	55819.56
639.474	55623.86
639.828	55635.84
640.181	55694.14
640.534	55604.43
640.888	55586.8
641.241	55406.69
641.594	55527.37
641.947	55530.08
642.301	55440.36
642.654	55433.13
643.007	55364.66
643.36	55270.2
643.713	55267.04
644.066	55365.56
644.419	55161.95
644.771	54944.56
645.124	54659.59
645.477	54719.93
645.83	54487.17
646.182	54366.72
646.535	54343.9
646.888	54346.83
647.24	54152.49
647.593	54259.15
647.945	54252.6
648.298	54129.44
648.65	54018.03
649.002	53999.72
649.355	54121.53
649.707	54089.44
650.059	54140.96
650.411	54505.7
650.763	54465.25
651.115	54776.43
651.467	54606.49
651.819	54586.38
652.171	54514.29
652.523	54551.8
652.875	54396.1
653.227	54383.44
653.578	54489.2
653.93	54441.29
654.282	54308.42
654.633	54221.41
654.985	54310.68
655.337	54300.96
655.688	54218.25
656.039	54364.01
656.391	54109.78
656.742	54155.43
657.094	54107.07
657.445	54160.17
657.796	54177.57
658.147	54081.53
658.498	54063.68
658.849	54063.9
659.2	54015.54
659.551	53934.64
659.902	53977.58
660.253	53921.08
660.604	54017.8
660.955	53849.45
661.306	54057.8
661.656	53922.89
662.007	53893.06
662.358	53961.08
662.708	53862.78
663.059	53796.11
663.409	53558.61
663.76	53854.64
664.11	53829.33
664.461	53785.94
664.811	53793.4
665.161	53651.94
665.511	53719.96
665.862	53736
666.212	53791.59
666.562	53721.99
666.912	53758.83
667.262	53621.66
667.612	53629.11
667.962	53630.47
668.312	53527.42
668.662	53680.41
669.011	53570.58
669.361	53503.92
669.711	53397.48
670.06	53399.51
670.41	53374.2
670.76	53328.78
671.109	53510.47
671.459	53484.94
671.808	53281.33
672.157	53413.98
672.507	53176.02
672.856	53232.96
673.205	53219.63
673.554	53271.61
673.904	53210.59
674.253	53340.08
674.602	53247.43
674.951	52786.2
675.3	52619.65
675.649	53014.89
675.998	53025.06
676.346	52987.55
676.695	53172.4
677.044	52915.46
677.393	52966.98
677.741	52989.36
678.09	52904.61
678.438	52771.28
678.787	52843.37
679.135	52891.5
679.484	52715.69
679.832	52802.24
680.181	52516.15
680.529	52562.93
680.877	52509.14
681.225	52529.71
681.573	52703.71
681.922	52367.9
682.27	52383.27
682.618	52463.04
682.966	52297.17
683.314	52307.34
683.661	52172.65
684.009	52013.34
684.357	51939.44
684.705	51921.81
685.053	52013.56
685.4	51926.56
685.748	51776.96
686.095	51822.15
686.443	51576.74
686.79	51576.29
687.138	51639.11
687.485	51534.25
687.832	51466.23
688.18	51427.14
688.527	51316.63
688.874	51388.27
689.221	51133.58
689.568	51028.28
689.915	50939.92
690.262	51030.54
690.609	50748.51
690.956	50723.88
691.303	50674.39
691.65	50525.47
691.997	50485.24
692.344	50283.66
692.69	50245.47
693.037	50286.15
693.383	49925.48
693.73	50114.85
694.077	49841.19
694.423	49885.48
694.769	49799.61
695.116	49679.84
695.462	49608.2
695.808	49479.17
696.155	49476.23
696.501	49285.95
696.847	49180.64
697.193	48930.03
697.539	49135.22
697.885	48761.44
698.231	48763.25
698.577	48587.89
698.923	48572.07
699.269	48384.73
699.614	48239.42
699.96	48147.9
700.306	48217.05
700.651	48082.82
700.997	47887.57
701.342	47829.04
701.688	47840.56
702.033	47641.25
702.379	47675.14
702.724	47564.64
703.069	47589.27
703.415	47078.78
703.76	47087.14
704.105	47146.12
704.45	46839.91
704.795	46872.91
705.14	46679.01
705.485	46679.01
705.83	46312.24
706.175	46412.13
706.52	46334.84
706.865	46292.13
707.209	46168.07
707.554	46013.72
707.899	46010.33
708.243	45921.07
708.588	45639.27
708.932	45571.7
709.277	45461.19
709.621	45552.49
709.966	45258.49
710.31	45331.25
710.654	44926.52
710.998	45065.04
711.342	45005.38
711.687	44908.21
712.031	44745.96
712.375	44470.48
712.719	44646.98
713.063	44596.58
713.407	44675.45
713.75	44383.03
714.094	44397.94
714.438	44135.35
714.782	44228.68
715.125	43939.2
715.469	44115.01
715.812	43805.42
716.156	43615.14
716.499	43691.07
716.843	43691.97
717.186	43390.29
717.53	43584.63
717.873	43613.33
718.216	43399.32
718.559	43254.24
718.902	42974.48
719.246	43058.77
719.589	42925.67
719.932	42839.57
720.275	42746.69
720.617	42727.03
720.96	42678.21
721.303	42660.36
721.646	42633.02
721.989	42321.39
722.331	42424.21
722.674	42443.87
723.016	42405.45
723.359	42159.81
723.701	42276.19
724.044	41945.8
724.386	41824.23
724.729	42130.43
725.071	41915.3
725.413	41766.83
725.755	41730.22
726.097	41580.16
726.439	41419.04
726.782	41558.24
727.124	41409.32
727.465	41335.88
727.807	41278.93
728.149	41064.25
728.491	41121.42
728.833	41145.82
729.175	41029.67
729.516	40884.36
729.858	40793.07
730.199	40797.13
730.541	40816.79
730.882	40690.24
731.224	40801.43
731.565	40410.93
731.906	40417.03
732.248	40563.92
732.589	40267.43
732.93	40234.66
733.271	40275.11
733.612	40179.3
733.953	40202.8
734.294	40001.67
734.635	39931.39
734.976	40028.57
735.317	39675.58
735.658	39815.01
735.999	39681.23
736.339	39687.11
736.68	39660.89
737.021	39510.39
737.361	39349.49
737.702	39436.27
738.042	39339.54
738.383	39299.32
738.723	39232.43
739.063	39139.55
739.404	39265.42
739.744	39190.85
740.084	38842.83
740.424	39024.98
740.764	38840.8
741.104	38989.5
741.444	38691.43
741.784	38596.74
742.124	38670.64
742.464	38723.52
742.804	38448.27
743.143	38476.29
743.483	38386.35
743.823	38173.02
744.162	38046.25
744.502	38370.76
744.841	38043.53
745.181	38272.68
745.52	37935.51
745.86	38095.06
746.199	37929.19
746.538	37833.6
746.877	37899.36
747.216	37941.84
747.556	37798.79
747.895	37702.75
748.234	37470.67
748.573	37330.11
748.911	37513.38
749.25	37324
749.589	37225.25
749.928	37251.24
750.267	37222.09
750.605	37155.87
750.944	37022.09
751.283	37018.93
751.621	37024.13
751.96	36671.59
752.298	36643.57
752.636	36711.14
752.975	36518.15
753.313	36400.19
753.651	36590.01
753.989	36257.59
754.327	36203.58
754.666	35988.45
755.004	36149.35
755.342	36084.72
755.679	35873.87
756.017	35713.65
756.355	35805.85
756.693	35599.53
757.031	35715.01
757.368	35413.55
757.706	35363.6
758.044	35186.89
758.381	35156.83
758.719	35102.37
759.056	35063.95
759.394	35035.03
759.731	34699.21
760.068	34669.39
760.405	34484.53
760.743	34345.78
761.08	34454.02
761.417	34288.83
761.754	34155.27
762.091	34072.11
762.428	33977.88
762.765	33770.2
763.102	33917.31
763.438	33689.3
763.775	33555.97
764.112	33653.59
764.449	33551.45
764.785	33394.16
765.122	32959.37
765.458	33075.75
765.795	33068.3
766.131	32948.98
766.467	32815.65
766.804	32692.49
767.14	32486.17
767.476	32590.12
767.812	32355.55
768.148	32371.82
768.485	32054.31
768.821	31936.58
769.157	31903.36
769.492	31982.22
769.828	31886.41
770.164	31590.37
770.5	31487.1
770.836	31493.88
771.171	31197.16
771.507	31250.72
771.842	30930.95
772.178	31049.82
772.513	30886.21
772.849	30806.44
773.184	30704.07
773.519	30501.59
773.855	30525.77
774.19	30264.98
774.525	30257.07
774.86	30249.39
775.195	30076.96
775.53	30064.53
775.865	29796.74
776.2	29589.07
776.535	29528.73
776.87	29521.5
777.205	29285.35
777.539	29107.5
777.874	29291
778.209	28999.93
778.543	29008.74
778.878	28832.02
779.212	28727.85
779.547	28568.53
779.881	28646.49
780.215	28456.67
780.55	28412.15
780.884	28284.69
781.218	28227.75
781.552	28162.89
781.886	27966.51
782.22	27776.46
782.554	27727.87
782.888	27406.98
783.222	27382.8
783.556	27255.79
783.889	27272.07
784.223	27083.82
784.557	27052.64
784.89	27105.52
785.224	26806.31
785.557	26711.18
785.891	26651.06
786.224	26565.19
786.558	26591.18
786.891	26285.65
787.224	26283.62
787.557	26207.46
787.891	26134.24
788.224	26105.54
788.557	26043.17
788.89	25824.87
789.223	25828.26
789.556	25708.72
789.888	25675.72
790.221	25568.38
790.554	25293.13
790.887	25316.86
791.219	25263.08
791.552	25233.7
791.884	24957.1
792.217	24840.04
792.549	24764.79
792.882	24697.22
793.214	24618.12
793.546	24632.59
793.879	24450.9
794.211	24417.9
794.543	24496.32
794.875	24293.84
795.207	24344.01
795.539	24097.69
795.871	24081.19
796.203	23848.43
796.535	23758.94
796.867	23787.64
797.198	23682.33
797.53	23656.12
797.862	23525.72
798.193	23572.95
798.525	23429.45
798.856	23429
799.188	23196.92
799.519	23115.11
799.85	22961.67
800.182	23042.35
800.513	23055.91
800.844	22820.66
801.175	22888.68
801.506	22885.06
801.837	22601.91
802.168	22586.54
802.499	22581.57
802.83	22465.19
803.161	22390.84
803.491	22366.88
803.822	22347
804.153	22310.39
804.483	22078.08
804.814	21958.31
805.145	22011.64
805.475	21978.87
805.805	21781.14
806.136	21801.25
806.466	21882.15
806.796	21798.31
807.126	21612.78
807.457	21496.17
807.787	21591.99
808.117	21511.99
808.447	21319.91
808.777	21342.96
809.107	21254.82
809.436	21197.65
809.766	21288.95
810.096	21163.75
810.426	21005.34
810.755	21028.39
811.085	20903.87
811.414	20877.43
811.744	20618.46
812.073	20764.89
812.403	20753.14
812.732	20522.86
813.061	20498.68
813.39	20423.88
813.719	20410.1
814.049	20391.12
814.378	20420.95
814.707	20268.18
815.036	20258.46
815.365	20090.11
815.693	19935.54
816.022	20028.64
816.351	19840.17
816.68	19801.53
817.008	19994.52
817.337	19699.84
817.665	19705.71
817.994	19719.27
818.322	19738.48
818.651	19633.62
818.979	19562.66
819.307	19600.4
819.636	19433.4
819.964	19515.89
820.292	19453.29
820.62	19473.4
820.948	19359.51
821.276	19483.57
821.604	19356.79
821.932	19351.14
822.259	19335.1
822.587	19322.67
822.915	19258.49
823.243	19411.48
823.57	19316.79
823.898	19347.75
824.225	19326.51
824.553	19293.07
824.88	19300.07
825.207	19314.53
825.535	19242.45
825.862	19373.52
826.189	19135.33
826.516	19300.3
826.843	19358.83
827.17	19304.82
827.497	19277.7
827.824	19197.25
828.151	19356.57
828.478	19278.83
828.805	19356.12
829.131	19203.58
829.458	19169.23
829.785	19047.2
830.111	19114.31
830.438	19187.53
830.764	19188.44
831.09	19178.72
831.417	19007.2
831.743	19185.95
832.069	19116.8
832.395	19011.94
832.722	19009.91
833.048	19084.71
833.374	19002.45
833.7	18997.25
834.026	18972.17
834.351	18975.56
834.677	18984.6
835.003	18946.41
835.329	18962.68
835.654	18903.47
835.98	18845.17
836.306	18828.9
836.631	18790.93
836.956	18933.75
837.282	18792.74
837.607	18690.6
837.932	18638.62
838.258	18654.44
838.583	18660.54
838.908	18523.82
839.233	18491.05
839.558	18510.26
839.883	18366.08
840.208	18415.58
840.533	18427.78
840.858	18365.86
841.182	18309.82
841.507	18319.08
841.832	18295.8
842.156	18238.86
842.481	18224.62
842.805	18170.38
843.13	18060.33
843.454	18051.29
843.778	17967.68
844.103	18022.82
844.427	17992.99
844.751	17913.44
845.075	17810.85
845.399	17861.47
845.723	17712.09
846.047	17759.32
846.371	17552.55
846.695	17541.25
847.019	17402.72
847.343	17349.39
847.666	17289.05
847.99	17251.09
848.313	17132.9
848.637	17093.35
848.96	17059.68
849.284	17019.91
849.607	16843.19
849.931	16772.91
850.254	16765
850.577	16536.08
850.9	16514.83
851.223	16519.58
851.546	16357.32
851.869	16276.42
852.192	16406.59
852.515	16270.55
852.838	16142.87
853.161	16162.98
853.483	16017.22
853.806	15910.78
854.129	16007.05
854.451	15889.31
854.774	15872.82
855.096	15823.78
855.419	15797.34
855.741	15688.87
856.063	15657
856.385	15701.52
856.708	15579.72
857.03	15493.39
857.352	15485.03
857.674	15398.93
857.996	15409.55
858.318	15274.87
858.64	15295.43
858.961	15277.35
859.283	15216.56
859.605	15057.92
859.926	15169.33
860.248	15049.34
860.57	15025.16
860.891	15024.25
861.212	14993.29
861.534	14943.12
861.855	14922.79
862.176	14939.73
862.498	14867.87
862.819	14938.15
863.14	14791.26
863.461	14757.82
863.782	14702.9
864.103	14644.83
864.424	14658.84
864.745	14695.45
865.065	14497.71
865.386	14532.29
865.707	14549.91
866.027	14470.59
866.348	14494.32
866.668	14467.43
866.989	14455.45
867.309	14346.98
867.63	14379.75
867.95	14407.54
868.27	14317.6
868.59	14312.86
868.91	14311.95
869.23	14121.22
869.55	14161
869.87	14248.45
870.19	14163.26
870.51	14128.46
870.83	14144.73
871.15	14114.22
871.469	14026.99
871.789	14062.92
872.109	14046.65
872.428	13948.35
872.748	14002.13
873.067	14035.58
873.386	13951.96
873.706	13939.08
874.025	13855.47
874.344	13830.38
874.663	13893.66
874.982	13801.01
875.301	13807.79
875.62	13740.9
875.939	13697.73
876.258	13755.58
876.577	13638.3
876.896	13729.37
877.214	13551.97
877.533	13682.14
877.852	13650.28
878.17	13597.4
878.489	13563.5
878.807	13553.78
879.125	13515.14
879.444	13478.76
879.762	13466.33
880.08	13503.84
880.398	13412.32
880.716	13337.97
881.034	13397.63
881.352	13358.98
881.67	13296.84
881.988	13334.35
882.306	13257.74
882.624	13228.82
882.941	13171.19
883.259	13112.89
883.577	13063.4
883.894	13009.62
884.212	13052.78
884.529	12990.63
884.846	12989.28
885.164	13001.25
885.481	12851.2
885.798	12987.24
886.115	12852.78
886.432	12795.61
886.75	12770.3
887.067	12785.89
887.383	12728.94
887.7	12794.03
888.017	12695.05
888.334	12600.13
888.651	12589.29
888.967	12679.68
889.284	12573.47
889.6	12484.66
889.917	12499.35
890.233	12519.46
890.55	12388.16
890.866	12408.28
891.182	12353.36
891.498	12324.44
891.815	12316.75
892.131	12206.92
892.447	12182.29
892.763	12146.14
893.079	12174.61
893.395	12073.59
893.71	12039.25
894.026	12026.59
894.342	11951.34
894.657	11962.19
894.973	11905.92
895.289	11901.85
895.604	11808.74
895.92	11799.7
896.235	11702.53
896.55	11658.92
896.865	11738.24
897.181	11563.1
897.496	11569.43
897.811	11446.49
898.126	11557.68
898.441	11407.4
898.756	11382.31
899.071	11416.89
899.386	11421.63
899.7	11277.01
900.015	11196.1
900.33	11148.65
900.644	11153.62
900.959	11172.15
901.273	11062.32
901.588	11010.35
901.902	10997.01
902.216	10938.94
902.531	10918.15
902.845	10871.82
903.159	10730.81
903.473	10804.7
903.787	10732.16
904.101	10756.79
904.415	10678.83
904.729	10613.52
905.042	10611.49
905.356	10572.39
905.67	10564.03
905.984	10499.17
906.297	10446.29
906.611	10341.21
906.924	10329.69
907.237	10381.89
907.551	10284.72
907.864	10246.3
908.177	10244.04
908.491	10239.97
908.804	10111.84
909.117	10084.49
909.43	9969.7
909.743	9968.79
910.056	9978.96
910.368	9895.57
910.681	9851.73
910.994	9820.77
911.307	9820.77
911.619	9681.12
911.932	9723.6
912.244	9641.79
912.557	9647.67
912.869	9597.95
913.181	9589.14
913.494	9480.22
913.806	9387.11
914.118	9371.52
914.43	9369.03
914.742	9316.38
915.054	9242.93
915.366	9306.21
915.678	9235.93
915.99	9221.69
916.302	9105.09
916.613	9089.94
916.925	9095.37
917.236	9110.51
917.548	9011.08
917.859	8961.36
918.171	8862.61
918.482	8883.85
918.794	8837.97
919.105	8786
919.416	8729.05
919.727	8771.53
920.038	8721.59
920.349	8595.49
920.66	8581.03
920.971	8621.71
921.282	8542.84
921.593	8464.42
921.903	8421.94
922.214	8387.36
922.525	8375.16
922.835	8376.52
923.146	8307.37
923.456	8320.93
923.767	8251.1
924.077	8231.44
924.387	8182.4
924.697	8144.43
925.008	8135.39
925.318	8054.04
925.628	8075.96
925.938	8017.88
926.248	7971.78
926.558	7930.88
926.867	7848.4
927.177	7814.05
927.487	7828.06
927.796	7707.16
928.106	7729.98
928.416	7686.82
928.725	7678.23
929.034	7655.18
929.344	7655.86
929.653	7600.27
929.962	7533.6
930.271	7515.07
930.581	7456.99
930.89	7412.93
931.199	7422.19
931.508	7400.72
931.817	7373.83
932.125	7335.19
932.434	7277.11
932.743	7205.47
933.051	7188.3
933.36	7213.16
933.669	7113.27
933.977	7051.35
934.286	7101.75
934.594	7086.83
934.902	6981.3
935.21	7009.55
935.519	6998.93
935.827	6965.25
936.135	6898.82
936.443	6863.56
936.751	6817.69
937.059	6805.71
937.367	6800.06
937.674	6773.4
937.982	6763.68
938.29	6665.6
938.597	6650.23
938.905	6629.44
939.213	6630.8
939.52	6534.08
939.827	6622.89
940.135	6537.24
940.442	6498.15
940.749	6463.8
941.056	6449.11
941.363	6376.34
941.67	6371.6
941.977	6358.04
942.284	6301.32
942.591	6291.83
942.898	6266.29
943.205	6227.65
943.511	6173.41
943.818	6204.82
944.125	6182.9
944.431	6098.61
944.738	6101.77
945.044	6087.54
945.35	6066.3
945.657	6006.86
945.963	5985.17
946.269	5988.33
946.575	5939.74
946.881	5872.63
947.187	5926.19
947.493	5800.77
947.799	5797.15
948.105	5805.96
948.41	5720.32
948.716	5791.95
949.022	5739.3
949.327	5719.19
949.633	5698.62
949.938	5649.36
950.244	5661.56
950.549	5616.36
950.854	5587.44
951.16	5520.77
951.465	5558.51
951.77	5447.78
952.075	5498.63
952.38	5436.03
952.685	5410.49
952.99	5366.65
953.294	5370.27
953.599	5311.29
953.904	5313.77
954.209	5276.26
954.513	5335.69
954.818	5278.29
955.122	5222.7
955.426	5168.24
955.731	5183.61
956.035	5180.44
956.339	5136.6
956.643	5116.49
956.948	5125.76
957.252	5044.63
957.556	5043.27
957.86	5008.7
958.163	4998.53
958.467	4954.69
958.771	4900
959.075	4957.85
959.378	4905.2
959.682	4932.09
959.985	4879.43
960.289	4861.36
960.592	4851.64
960.896	4791.53
961.199	4782.94
961.502	4760.57
961.805	4737.52
962.108	4735.26
962.411	4695.94
962.714	4751.08
963.017	4660.46
963.32	4647.58
963.623	4621.59
963.926	4587.01
964.228	4572.32
964.531	4533.91
964.833	4542.49
965.136	4489.16
965.438	4501.59
965.741	4446.22
966.043	4515.6
966.345	4407.36
966.648	4419.33
966.95	4377.98
967.252	4360.8
967.554	4355.15
967.856	4324.87
968.158	4295.49
968.46	4269.73
968.761	4272.9
969.063	4271.31
969.365	4219.34
969.666	4232.22
969.968	4153.8
970.269	4189.28
970.571	4163.52
970.872	4135.5
971.174	4112.67
971.475	4078.1
971.776	4067.93
972.077	4081.71
972.378	4043.52
972.679	4053.24
972.98	4037.87
973.281	3936.18
973.582	4022.96
973.883	3977.54
974.183	3922.85
974.484	3895.96
974.785	3893.25
975.085	3870.42
975.386	3859.57
975.686	3845.79
975.986	3807.82
976.287	3812.12
976.587	3775.96
976.887	3784.77
977.187	3776.86
977.487	3752.68
977.787	3713.81
978.087	3670.65
978.387	3669.97
978.687	3681.27
978.987	3656.42
979.286	3601.73
979.586	3623.2
979.885	3615.29
980.185	3625.91
980.484	3613.93
980.784	3600.82
981.083	3618.22
981.382	3551.56
981.682	3529.64
981.981	3518.11
982.28	3498.45
982.579	3451.22
982.878	3469.98
983.177	3452.13
983.475	3444.22
983.774	3402.18
984.073	3410.09
984.372	3389.98
984.67	3360.6
984.969	3346.59
985.267	3321.28
985.566	3311.11
985.864	3286.93
986.162	3261.4
986.461	3298.68
986.759	3256.88
987.057	3258.69
987.355	3201.06
987.653	3192.92
987.951	3168.52
988.249	3160.16
988.547	3145.69
988.844	3170.1
989.142	3109.99
989.44	3131.23
989.737	3120.84
990.035	3091.46
990.332	3080.84
990.63	3026.15
990.927	3018.47
991.224	3013.95
991.521	3019.6
991.819	3012.14
992.116	3010.56
992.413	2999.94
992.71	2977.11
993.006	2955.87
993.303	2913.38
993.6	2875.19
993.897	2914.51
994.193	2879.49
994.49	2895.31
994.787	2848.3
995.083	2843.78
995.379	2828.87
995.676	2815.08
995.972	2790.68
996.268	2763.56
996.565	2765.37
996.861	2790
997.157	2765.14
997.453	2712.26
997.749	2721.98
998.044	2658.93
998.34	2682.2
998.636	2643.11
998.932	2643.11
999.227	2607.86
999.523	2644.24
999.818	2629.1
1000.114	2599.27
1000.409	2572.15
1000.704	2566.95
1001	2578.48
1001.295	2525.6
1001.59	2554.75
1001.885	2504.58
1002.18	2498.93
1002.475	2493.96
1002.77	2434.75
1003.065	2445.37
1003.359	2442.44
1003.654	2431.59
1003.949	2407.18
1004.243	2385.94
1004.538	2389.33
1004.832	2383.23
1005.127	2334.87
1005.421	2333.29
1005.715	2330.8
1006.009	2321.31
1006.304	2327.86
1006.598	2302.55
1006.892	2275.21
1007.186	2221.88
1007.48	2221.2
1007.773	2223.01
1008.067	2209
1008.361	2192.95
1008.655	2181.43
1008.948	2158.15
1009.242	2167.64
1009.535	2128.77
1009.829	2119.51
1010.122	2115.89
1010.415	2127.42
1010.708	2091.94
1011.001	2107.53
1011.295	2064.37
1011.588	2069.34
1011.881	2020.98
1012.173	2047.19
1012.466	1994.76
1012.759	2003.8
1013.052	2020.75
1013.344	1971.26
1013.637	1973.75
1013.93	1976.23
1014.222	1946.63
1014.514	1942.11
1014.807	1947.08
1015.099	1916.57
1015.391	1924.03
1015.683	1895.78
1015.976	1909.12
1016.268	1849.91
1016.56	1857.14
1016.851	1856.01
1017.143	1871.83
1017.435	1833.64
1017.727	1799.29
1018.018	1819.4
1018.31	1764.94
1018.602	1773.75
1018.893	1811.72
1019.185	1722.23
1019.476	1736.92
1019.767	1733.08
1020.058	1714.77
1020.35	1691.72
1020.641	1700.31
1020.932	1694.66
1021.223	1671.83
1021.514	1609.01
1021.804	1647.65
1022.095	1638.84
1022.386	1630.25
1022.677	1635
1022.967	1602.23
1023.258	1587.77
1023.548	1581.89
1023.839	1535.12
1024.129	1597.26
1024.419	1563.14
1024.709	1527.88
1025	1526.3
1025.29	1486.3
1025.58	1520.88
1025.87	1491.5
1026.16	1480.43
1026.449	1455.8
1026.739	1446.08
1027.029	1447.21
1027.319	1416.02
1027.608	1435.23
1027.898	1413.99
1028.187	1402.24
1028.477	1425.74
1028.766	1384.61
1029.055	1377.83
1029.344	1357.94
1029.634	1357.94
1029.923	1341.9
1030.212	1358.17
1030.501	1342.58
1030.79	1340.54
1031.078	1331.73
1031.367	1347.1
1031.656	1295.57
1031.945	1277.27
1032.233	1311.84
1032.522	1266.65
1032.81	1240.89
1033.099	1256.03
1033.387	1245.18
1033.675	1253.54
1033.963	1246.76
1034.251	1250.15
1034.54	1210.38
1034.828	1211.51
1035.116	1194.33
1035.403	1197.5
1035.691	1183.03
1035.979	1199.3
1036.267	1159.76
1036.554	1161.57
1036.842	1163.15
1037.129	1173.54
1037.417	1129.48
1037.704	1125.18
1037.992	1141.23
1038.279	1129.02
1038.566	1081.34
1038.853	1081.34
1039.14	1081.34
