Data from white_steel_sheet_FLMS001491_034.txt Node
Date: Tue Feb 07 10:57:45 GMT 2017
User: dcchb
Spectrometer: FLMS00149
Trigger mode: 0
Integration Time (sec): 2.000000E-2
Scans to average: 10
Electric dark correction enabled: true
Nonlinearity correction enabled: false
Boxcar width: 0
XAxis mode: Wavelengths
Number of Pixels in Spectrum: 2048
>>>>>Begin Spectral Data<<<<<
341.393	-18.47
341.776	-18.47
342.16	-18.47
342.543	-69.55
342.927	-52.37
343.31	-59.15
343.693	-65.48
344.077	-62.54
344.46	-59.83
344.843	-46.04
345.226	-37.46
345.61	-51.02
345.993	-16.89
346.376	-12.82
346.759	-5.14
347.142	16.78
347.525	46.61
347.908	67.85
348.291	84.35
348.674	99.94
349.057	100.84
349.44	119.38
349.823	153.27
350.206	177.9
350.588	197.79
350.971	219.49
351.354	242.08
351.737	248.19
352.119	227.62
352.502	256.32
352.884	284.34
353.267	281.41
353.65	282.08
354.032	313.27
354.414	298.81
354.797	308.75
355.179	311.01
355.562	343.55
355.944	356.21
356.326	333.61
356.709	336.32
357.091	326.6
357.473	325.25
357.855	327.28
358.238	335.64
358.62	344.45
359.002	340.39
359.384	328.18
359.766	334.74
360.148	345.36
360.53	345.13
360.912	348.52
361.294	352.36
361.676	353.27
362.057	327.05
362.439	335.64
362.821	349.43
363.203	335.19
363.584	334.28
363.966	321.18
364.348	317.56
364.729	320.27
365.111	337
365.493	329.99
365.874	316.88
366.256	313.95
366.637	336.54
367.019	330.44
367.4	318.01
367.781	326.38
368.163	324.12
368.544	323.44
368.925	344.91
369.306	328.64
369.688	315.98
370.069	318.47
370.45	311.46
370.831	333.83
371.212	341.29
371.593	327.96
371.974	317.11
372.355	330.44
372.736	326.15
373.117	327.96
373.498	317.56
373.879	328.18
374.26	316.43
374.641	313.95
375.021	308.75
375.402	320.27
375.783	342.87
376.163	351.23
376.544	345.58
376.925	345.58
377.305	332.93
377.686	340.61
378.066	333.16
378.447	350.33
378.827	348.3
379.208	322.76
379.588	343.55
379.968	333.61
380.349	358.69
380.729	365.92
381.109	333.83
381.489	374.51
381.87	369.31
382.25	374.28
382.63	362.08
383.01	353.27
383.39	360.5
383.77	383.78
384.15	368.18
384.53	372.7
384.91	371.35
385.29	365.02
385.67	370.67
386.049	387.62
386.429	400.5
386.809	396.43
387.189	379.03
387.568	393.04
387.948	388.52
388.328	392.36
388.707	406.83
389.087	405.47
389.466	404.57
389.846	406.15
390.225	405.02
390.605	424
390.984	397.33
391.363	416.77
391.743	434.4
392.122	417.9
392.501	428.29
392.881	438.24
393.26	442.08
393.639	462.19
394.018	451.57
394.397	455.41
394.776	467.39
395.155	473.49
395.534	470.33
395.913	454.73
396.292	492.7
396.671	500.38
397.05	480.95
397.429	520.27
397.808	484.79
398.186	504.9
398.565	500.16
398.944	530.44
399.323	521.62
399.701	529.99
400.08	534.51
400.458	549.65
400.837	550.55
401.215	546.93
401.594	557.78
401.972	567.95
402.351	583.09
402.729	576.31
403.107	607.95
403.486	583.09
403.864	591.91
404.242	620.38
404.62	621.06
404.999	651.79
405.377	649.3
405.755	638.91
406.133	660.83
406.511	651.56
406.889	705.57
407.267	681.39
407.645	707.61
408.023	721.17
408.401	741.96
408.779	732.01
409.156	782.86
409.534	756.65
409.912	763.2
410.29	785.12
410.667	787.61
411.045	811.11
411.422	807.27
411.8	835.97
412.178	826.25
412.555	864.21
412.933	872.12
413.31	875.51
413.687	888.85
414.065	903.08
414.442	897.43
414.819	910.99
415.197	960.94
415.574	948.28
415.951	948.05
416.328	973.59
416.705	964.78
417.082	978.79
417.46	998.9
417.837	1016.53
418.214	1013.14
418.591	1033.93
418.967	1011.1
419.344	1028.96
419.721	1034.38
420.098	1076.86
420.475	1065.79
420.852	1089.52
421.228	1098.56
421.605	1104.89
421.982	1137.2
422.358	1133.13
422.735	1132.23
423.111	1155.96
423.488	1156.41
423.864	1170.2
424.241	1174.94
424.617	1208.39
424.994	1203.64
425.37	1207.48
425.746	1243.19
426.123	1248.39
426.499	1258.55
426.875	1293.58
427.251	1276.18
427.627	1310.53
428.003	1314.15
428.379	1355.5
428.756	1353.69
429.132	1366.57
429.507	1391.43
429.883	1413.35
430.259	1423.3
430.635	1440.92
431.011	1458.55
431.387	1491.99
431.763	1510.53
432.138	1498.55
432.514	1522.95
432.89	1544.65
433.265	1574.48
433.641	1603.4
434.016	1635.04
434.392	1639.56
434.767	1668.04
435.143	1640.24
435.518	1703.06
435.894	1722.72
436.269	1752.78
436.644	1752.78
437.02	1761.37
437.395	1771.99
437.77	1826.9
438.145	1833.45
438.52	1860.35
438.895	1879.33
439.271	1886.33
439.646	1910.29
440.021	1944.64
440.395	1967.01
440.77	1934.02
441.145	1969.27
441.52	1986.67
441.895	1986.22
442.27	2009.27
442.645	2033.22
443.019	2054.47
443.394	2036.61
443.769	2112.09
444.143	2071.19
444.518	2133.56
444.892	2109.15
445.267	2144.63
445.641	2177.17
446.016	2194.58
446.39	2190.73
446.764	2194.8
447.139	2212.2
447.513	2240.68
447.887	2239.09
448.262	2256.72
448.636	2287
449.01	2343.05
449.384	2324.97
449.758	2343.05
450.132	2425.76
450.506	2407.22
450.88	2395.7
451.254	2417.85
451.628	2440.22
452.002	2485.87
452.376	2481.12
452.75	2528.35
453.123	2549.14
453.497	2587.11
453.871	2572.19
454.244	2653.77
454.618	2661.91
454.992	2711.17
455.365	2697.61
455.739	2806.31
456.112	2816.93
456.486	2852.41
456.859	2872.3
457.232	2919.98
457.606	2900.09
457.979	2924.5
458.352	2990.49
458.725	3039.75
459.099	3090.6
459.472	3116.81
459.845	3168.11
460.218	3164.72
460.591	3207.88
460.964	3245.39
461.337	3288.33
461.71	3330.14
462.083	3402.68
462.456	3386.63
462.829	3414.66
463.201	3460.76
463.574	3490.81
463.947	3529.46
464.32	3573.97
464.692	3626.18
465.065	3692.84
465.438	3745.27
465.81	3765.83
466.183	3823.68
466.555	3878.15
466.928	3908.43
467.3	3892.38
467.672	4013.51
468.045	4070.68
468.417	4092.83
468.789	4103.45
469.161	4190.91
469.534	4223.22
469.906	4346.16
470.278	4345.48
470.65	4409.43
471.022	4520.84
471.394	4565.36
471.766	4611.91
472.138	4687.16
472.51	4724.9
472.882	4825.69
473.253	4852.81
473.625	4953.82
473.997	5053.71
474.369	5091.45
474.74	5112.92
475.112	5236.53
475.484	5334.38
475.855	5401.95
476.227	5468.16
476.598	5584.09
476.97	5614.6
477.341	5785.89
477.713	5877.87
478.084	5857.76
478.455	6046.68
478.827	6124.87
479.198	6303.17
479.569	6272.43
479.94	6456.16
480.311	6504.07
480.682	6687.11
481.053	6854.34
481.424	6982.92
481.795	6988.35
482.166	7076.48
482.537	7191.05
482.908	7363.25
483.279	7397.83
483.65	7579.97
484.021	7741.77
484.391	7835.33
484.762	7888.66
485.133	7963.69
485.503	8036.23
485.874	8274.87
486.244	8340.85
486.615	8482.32
486.985	8581.07
487.356	8718.47
487.726	8772.71
488.097	8982.65
488.467	9050.67
488.837	9264.45
489.207	9311.68
489.578	9542.4
489.948	9553.7
490.318	9709.63
490.688	9729.07
491.058	9819.46
491.428	10007.25
491.798	10086.57
492.168	10302.16
492.538	10271.2
492.908	10459.67
493.278	10582.6
493.648	10657.4
494.017	10759.1
494.387	10864.4
494.757	10969.49
495.126	11136.03
495.496	11130.16
495.866	11243.15
496.235	11409.02
496.605	11484.27
496.974	11567.89
497.344	11641.11
497.713	11744.15
498.082	11857.6
498.452	11974.43
498.821	12000.42
499.19	12121.09
499.559	12260.53
499.928	12327.64
500.298	12366.06
500.667	12567.18
501.036	12524.47
501.405	12673.17
501.774	12683.11
502.143	12775.31
502.512	12862.54
502.88	13042.43
503.249	13023.67
503.618	13149.77
503.987	13272.48
504.356	13299.82
504.724	13388.18
505.093	13437.9
505.462	13603.31
505.83	13614.84
506.199	13781.62
506.567	13974.38
506.936	13976.41
507.304	14153.58
507.672	14203.3
508.041	14361.49
508.409	14450.98
508.777	14536.17
509.145	14678.09
509.514	14674.92
509.882	14790.63
510.25	14897.07
510.618	15013.22
510.986	14994.69
511.354	15335.7
511.722	15403.49
512.09	15450.27
512.458	15554.22
512.826	15628.12
513.193	15833.09
513.561	15807.1
513.929	16074.21
514.297	16103.14
514.664	16218.61
515.032	16341.1
515.4	16553.97
515.767	16554.2
516.135	16696.34
516.502	16686.85
516.869	16951.48
517.237	17010.23
517.604	17053.62
517.972	17222.43
518.339	17332.48
518.706	17487.96
519.073	17535.87
519.44	17687.28
519.808	17842.75
520.175	17871
520.542	18132.46
520.909	18336.07
521.276	18239.35
521.643	18427.59
522.009	18689.06
522.376	18672.56
522.743	18910.75
523.11	19180.57
523.477	19256.5
523.843	19317.51
524.21	19561.8
524.577	19772.42
524.943	19829.82
525.31	19919.53
525.676	20173.99
526.043	20319.07
526.409	20448.11
526.776	20664.6
527.142	20713.64
527.508	20773.97
527.874	21011.71
528.241	21182.78
528.607	21205.6
528.973	21410.12
529.339	21369.21
529.705	21647.62
530.071	21861.85
530.437	21940.27
530.803	22041.74
531.169	22269.3
531.535	22180.94
531.901	22224.33
532.267	22447.83
532.632	22597.88
532.998	22744.77
533.364	22707.71
533.73	22838.78
534.095	23154.25
534.461	23149.73
534.826	23404.64
535.192	23359.67
535.557	23508.36
535.923	23627.68
536.288	23601.92
536.653	23834.68
537.019	23706.55
537.384	23944.74
537.749	24125.3
538.114	24158.52
538.479	24214.11
538.845	24300.21
539.21	24408.91
539.575	24497.04
539.94	24592.63
540.305	24664.49
540.67	24748.33
541.034	24895.22
541.399	24919.85
541.764	24936.58
542.129	25203.24
542.494	25297.24
542.858	25326.62
543.223	25396.45
543.587	25585.37
543.952	25520.29
544.316	25699.04
544.681	25651.59
545.045	25874.63
545.41	25844.35
545.774	25937.68
546.138	26022.65
546.503	26103.55
546.867	26149.2
547.231	26502.18
547.595	26371.57
547.959	26489.53
548.324	26605.46
548.688	26725.91
549.052	26763.19
549.416	26733.59
549.779	26868.5
550.143	26915.96
550.507	27172
550.871	27263.75
551.235	27142.85
551.599	27395.95
551.962	27390.97
552.326	27564.08
552.689	27842.49
553.053	27576.51
553.417	27809.49
553.78	28095.81
554.143	28015.14
554.507	28162.93
554.87	28210.61
555.234	28529.7
555.597	28463.71
555.96	28522.47
556.323	28687.21
556.686	28772.41
557.05	28921.33
557.413	29100.76
557.776	29048.33
558.139	29280.87
558.502	29343.24
558.865	29378.27
559.228	29632.95
559.59	29727.18
559.953	29808.99
560.316	30179.83
560.679	30158.59
561.041	30381.18
561.404	30459.59
561.767	30705.24
562.129	30636.99
562.492	30942.75
562.854	30940.03
563.217	30949.3
563.579	31087.15
563.941	31379.8
564.304	31352.9
564.666	31580.47
565.028	31640.35
565.39	31729.62
565.753	31964.87
566.115	32048.03
566.477	32142.49
566.839	32193.33
567.201	32462.25
567.563	32482.37
567.925	32616.83
568.287	32643.49
568.648	32765.3
569.01	32900.21
569.372	33030.83
569.734	33123.25
570.095	33249.13
570.457	33405.51
570.819	33459.97
571.18	33446.63
571.542	33737.93
571.903	33653.63
572.265	33861.99
572.626	33898.83
572.987	33909.67
573.349	34217.01
573.71	34177.69
574.071	34266.05
574.432	34410.45
574.794	34668.98
575.155	34560.05
575.516	34520.5
575.877	34605.02
576.238	34730.67
576.599	34916.88
576.96	34896.54
577.32	34849.08
577.681	35052.47
578.042	35120.71
578.403	34995.07
578.763	35151
579.124	35215.18
579.485	35328.85
579.845	35341.95
580.206	35190.32
580.566	35307.38
580.927	35369.07
581.287	35487.48
581.648	35260.82
582.008	35648.38
582.368	35473.25
582.728	35499.46
583.089	35471.21
583.449	35464.43
583.809	35508.28
584.169	35649.29
584.529	35510.31
584.889	35760.25
585.249	35619.68
585.609	35433.93
585.969	35686.12
586.329	35570.42
586.688	35664.88
587.048	35586.69
587.408	35724.77
587.768	35621.27
588.127	35576.75
588.487	35486.58
588.846	35821.26
589.206	35507.82
589.565	35603.87
589.925	35813.13
590.284	35683.64
590.643	35676.18
591.003	35826.23
591.362	35644.77
591.721	35573.81
592.08	35698.33
592.44	35831.43
592.799	35675.05
593.158	35778.55
593.517	35706.91
593.876	35729.06
594.235	35739.46
594.593	35692
594.952	35764.31
595.311	35672.34
595.67	35744.65
596.029	36011.09
596.387	35841.15
596.746	35981.48
597.104	35794.37
597.463	35781.71
597.822	35761.15
598.18	35875.05
598.538	35729.51
598.897	35991.2
599.255	35756.63
599.613	36191.2
599.972	35913.01
600.33	36095.6
600.688	35909.39
601.046	36019
601.404	36164.08
601.762	36049.28
602.12	36221.03
602.478	36209.95
602.836	36252.89
603.194	35983.29
603.552	36009.05
603.91	35901.26
604.268	36315.94
604.625	36014.25
604.983	36195.71
605.341	35990.52
605.698	36297.86
606.056	36202.95
606.413	36263.96
606.771	36411.08
607.128	36491.53
607.485	36207.47
607.843	36294.47
608.2	36517.29
608.557	36475.03
608.914	36397.29
609.272	36676.15
609.629	36691.07
609.986	36821.01
610.343	36544.18
610.7	36880.44
611.057	36792.54
611.414	36753.89
611.771	36754.57
612.127	36999.08
612.484	36886.32
612.841	37121.79
613.198	36826.43
613.554	36871.4
613.911	37156.37
614.267	37070.04
614.624	37076.14
614.98	37222.13
615.337	37274.33
615.693	37389.58
616.05	37173.99
616.406	37406.76
616.762	37317.95
617.118	37278.17
617.475	37202.92
617.831	37493.76
618.187	37446.08
618.543	37582.57
618.899	37750.7
619.255	37532.4
619.611	37554.78
619.967	37600.2
620.323	37537.83
620.678	37511.39
621.034	37497.6
621.39	37556.36
621.746	37517.26
622.101	37960.87
622.457	37597.49
622.812	37786.18
623.168	37823.92
623.523	37838.61
623.879	37923.58
624.234	37574.44
624.589	37694.88
624.945	37886.97
625.3	37702.34
625.655	37748.89
626.01	37761.32
626.365	37891.26
626.72	37689.46
627.075	37696.92
627.43	37703.47
627.785	37625.06
628.14	37899.4
628.495	37735.34
628.85	37722.68
629.205	37673.42
629.559	37820.3
629.914	37610.59
630.269	37644.04
630.623	37564.04
630.978	37443.82
631.332	37700.76
631.687	37802.23
632.041	37530.14
632.396	37376.02
632.75	37307.32
633.104	37497.15
633.459	37278.17
633.813	37328.57
634.167	37308.68
634.521	37252.86
634.875	37301.67
635.229	37304.39
635.583	37046.77
635.937	37164.95
636.291	37114.11
636.645	37098.06
636.999	37087.22
637.352	36959.31
637.706	36719.77
638.06	36922.7
638.413	36731.07
638.767	36689.04
639.121	36717.74
639.474	36481.13
639.828	36483.39
640.181	36439.32
640.534	36490.17
640.888	36388.03
641.241	36243.17
641.594	36409.27
641.947	36280.46
642.301	36195.94
642.654	36296.96
643.007	36272.55
643.36	36205.88
643.713	36173.12
644.066	36277.75
644.419	35943.97
644.771	35830.3
645.124	35331.56
645.477	35438.45
645.83	35094.05
646.182	34944.45
646.535	34885.69
646.888	35026.48
647.24	34825.58
647.593	34981.51
647.945	34969.31
648.298	34809.76
648.65	34648.86
649.002	34527.28
649.355	34686.38
649.707	34572.03
650.059	34685.7
650.411	35100.15
650.763	35109.64
651.115	35596.63
651.467	35352.12
651.819	35299.02
652.171	35257.43
652.523	35198.68
652.875	35384.89
653.227	34979.02
653.578	35363.42
653.93	35244.78
654.282	35202.52
654.633	35027.84
654.985	34984.67
655.337	35068.74
655.688	35071.68
656.039	35014.05
656.391	34861.29
656.742	34697.22
657.094	34696.77
657.445	35020.83
657.796	34752.59
658.147	34789.65
658.498	34797.79
658.849	34783.77
659.2	34764.79
659.551	34631.24
659.902	34605.25
660.253	34490.9
660.604	34560.73
660.955	34429.66
661.306	34465.59
661.656	34332.04
662.007	34296.56
662.358	34259.49
662.708	34398.7
663.059	34250.68
663.409	34000.74
663.76	34198.25
664.11	34162.1
664.461	34111.25
664.811	34144.47
665.161	34023.34
665.511	33754.2
665.862	33902.89
666.212	33879.39
666.562	33815.89
666.912	33782.45
667.262	33718.04
667.612	33600.75
667.962	33483.7
668.312	33339.97
668.662	33514.66
669.011	33400.08
669.361	33161.44
669.711	33174.78
670.06	33018.62
670.41	32977.27
670.76	32838.06
671.109	32986.31
671.459	32699.76
671.808	32620.89
672.157	32774.79
672.507	32520.56
672.856	32538.64
673.205	32475.81
673.554	32552.42
673.904	32391.97
674.253	32511.29
674.602	32396.04
674.951	31831.76
675.3	31788.37
675.649	32161.24
675.998	32085.09
676.346	32173.22
676.695	32261.58
677.044	32187.01
677.393	32056.84
677.741	32133.67
678.09	31954.92
678.438	31896.39
678.787	31925.09
679.135	32008.93
679.484	31812.1
679.832	32004.41
680.181	31788.15
680.529	31859.78
680.877	31755.15
681.225	31697.3
681.573	32034.02
681.922	31745.66
682.27	31560.13
682.618	31648.94
682.966	31795.83
683.314	31854.59
683.661	31683.29
684.009	31600.13
684.357	31613.01
684.705	31586.12
685.053	31585.21
685.4	31623.86
685.748	31524.2
686.095	31738.21
686.443	31447.37
686.79	31380.02
687.138	31656.17
687.485	31651.65
687.832	31503.41
688.18	31593.8
688.527	31505.67
688.874	31570.53
689.221	31527.36
689.568	31602.16
689.915	31375.5
690.262	31388.84
690.609	31330.08
690.956	31272
691.303	31297.99
691.65	31156.53
691.997	31224.09
692.344	31113.14
692.69	31174.6
693.037	31112.68
693.383	30874.5
693.73	31039.24
694.077	30825.91
694.423	30840.15
694.769	30782.07
695.116	30911.56
695.462	30873.59
695.808	30687.39
696.155	30785.01
696.501	30515.41
696.847	30609.2
697.193	30348.19
697.539	30478.8
697.885	30381.18
698.231	30161.3
698.577	30301.86
698.923	30187.51
699.269	29985.03
699.614	30016.67
699.96	29880.63
700.306	29884.69
700.651	29830.68
700.997	29684.02
701.342	29790.46
701.688	29603.8
702.033	29565.61
702.379	29585.95
702.724	29493.97
703.069	29568.32
703.415	29249.91
703.76	29327.87
704.105	29044.26
704.45	29052.17
704.795	28765.4
705.14	28974.44
705.485	28868
705.83	28733.76
706.175	28773.54
706.52	28659.19
706.865	28616.03
707.209	28460.1
707.554	28479.99
707.899	28491.28
708.243	28377.16
708.588	28427.11
708.932	28199.09
709.277	28198.86
709.621	28209.26
709.966	28000.68
710.31	28149.6
710.654	27804.75
710.998	27876.84
711.342	27933.79
711.687	27720.01
712.031	27644.98
712.375	27629.61
712.719	27528.37
713.063	27561.37
713.407	27708.93
713.75	27511.2
714.094	27519.56
714.438	27417.19
714.782	27463.74
715.125	27296.97
715.469	27237.53
715.812	27165.9
716.156	26997.99
716.499	27014.04
716.843	27027.14
717.186	26841.61
717.53	26937.88
717.873	27038.22
718.216	26881.84
718.559	26705.57
718.902	26545.35
719.246	26658.34
719.589	26491.79
719.932	26480.94
720.275	26473.71
720.617	26386.03
720.96	26407.95
721.303	26409.98
721.646	26390.32
721.989	26174.74
722.331	26262.64
722.674	26134.96
723.016	26252.02
723.359	26164.11
723.701	26033.72
724.044	25935.65
724.386	25849.09
724.729	25903.78
725.071	25816.78
725.413	25907.62
725.755	25757.35
726.097	25737.01
726.439	25594.86
726.782	25562.32
727.124	25648.42
727.465	25504.92
727.807	25473.74
728.149	25452.27
728.491	25437.58
728.833	25408.88
729.175	25261.77
729.516	25283.23
729.858	25316.68
730.199	25227.64
730.541	25147.19
730.882	25138.15
731.224	25228.55
731.565	24972.73
731.906	25013.41
732.248	25020.42
732.589	24885.96
732.93	24745.62
733.271	24863.36
733.612	24787.65
733.953	24744.49
734.294	24669.24
734.635	24649.13
734.976	24716.47
735.317	24588.56
735.658	24641.44
735.999	24545.63
736.339	24473.09
736.68	24521.45
737.021	24342.92
737.361	24307.44
737.702	24384.05
738.042	24356.25
738.383	24168.23
738.723	24215.69
739.063	24176.37
739.404	24280.77
739.744	24207.33
740.084	24176.37
740.424	24108.35
740.764	24130.04
741.104	24162.13
741.444	24023.83
741.784	23904.96
742.124	23878.3
742.464	23892.54
742.804	23856.15
743.143	23955.36
743.483	23885.3
743.823	23675.37
744.162	23705.2
744.502	23678.08
744.841	23654.12
745.181	23738.42
745.52	23545.65
745.86	23597.85
746.199	23561.92
746.538	23416.16
746.877	23521.47
747.216	23487.35
747.556	23382.27
747.895	23449.84
748.234	23234.02
748.573	23283.06
748.911	23219.11
749.25	23169.39
749.589	23068.6
749.928	23180.01
750.267	23188.37
750.605	23073.35
750.944	22827.7
751.283	22862.05
751.621	22873.58
751.96	22748.84
752.298	22725.11
752.636	22810.3
752.975	22593.13
753.313	22514.27
753.651	22704.09
753.989	22520.59
754.327	22456.64
754.666	22389.75
755.004	22417.32
755.342	22329.86
755.679	22332.58
756.017	22221.39
756.355	22187.04
756.693	22011
757.031	22106.59
757.368	21947.5
757.706	22030.89
758.044	21790.67
758.381	21848.07
758.719	21654.4
759.056	21855.98
759.394	21745.47
759.731	21525.59
760.068	21552.26
760.405	21408.31
760.743	21207.63
761.08	21389.55
761.417	21273.62
761.754	21226.17
762.091	21182.32
762.428	21064.36
762.765	20955.89
763.102	21030.46
763.438	20865.5
763.775	20835.44
764.112	20812.16
764.449	20905.04
764.785	20682.22
765.122	20431.84
765.458	20525.39
765.795	20486.52
766.131	20448.56
766.467	20318.62
766.804	20220.32
767.14	20194.1
767.476	20137.61
767.812	20016.03
768.148	20045.18
768.485	19967.67
768.821	19794.11
769.157	19809.48
769.492	19614.46
769.828	19727.22
770.164	19594.8
770.5	19495.82
770.836	19497.62
771.171	19321.58
771.507	19231.87
771.842	19231.19
772.178	19232.32
772.513	19176.95
772.849	19068.26
773.184	19089.5
773.519	18962.95
773.855	18865.1
774.19	18732.45
774.525	18750.52
774.86	18672.56
775.195	18645.22
775.53	18594.82
775.865	18430.98
776.2	18371.32
776.535	18285.68
776.87	18320.03
777.205	18221.72
777.539	18125.91
777.874	18146.47
778.209	18008.85
778.543	17930.88
778.878	17821.28
779.212	17867.16
779.547	17668.74
779.881	17676.43
780.215	17526.83
780.55	17620.61
780.884	17435.98
781.218	17434.63
781.552	17379.26
781.886	17254.97
782.22	17174.07
782.554	17084.13
782.888	17033.28
783.222	16976.33
783.556	16889.78
783.889	16870.35
784.223	16789.22
784.557	16720.75
784.89	16807.75
785.224	16737.47
785.557	16524.59
785.891	16523.46
786.224	16491.83
786.558	16534.76
786.891	16386.29
787.224	16297.03
787.557	16211.83
787.891	16173.19
788.224	16210.93
788.557	16086.19
788.89	16076.24
789.223	16000.54
789.556	15991.95
789.888	15922.12
790.221	15832.41
790.554	15727.1
790.887	15691.17
791.219	15665.18
791.552	15581.34
791.884	15444.4
792.217	15533.21
792.549	15395.81
792.882	15286.66
793.214	15250.5
793.546	15230.39
793.879	15138.19
794.211	15118.3
794.543	15097.29
794.875	15048.25
795.207	15038.76
795.539	14945.2
795.871	14955.37
796.203	14792.44
796.535	14771.65
796.867	14717.86
797.198	14707.24
797.53	14665.66
797.862	14530.97
798.193	14632.21
798.525	14506.57
798.856	14550.18
799.188	14404.88
799.519	14254.37
799.85	14282.17
800.182	14289.17
800.513	14201.72
800.844	14044.66
801.175	14125.33
801.506	14137.09
801.837	14092.34
802.168	14075.84
802.499	13949.29
802.83	13911.1
803.161	13874.95
803.491	13845.34
803.822	13890.99
804.153	13736.64
804.483	13673.82
804.814	13639.92
805.145	13557.21
805.475	13519.93
805.805	13606.25
806.136	13521.06
806.466	13474.73
806.796	13462.98
807.126	13373.94
807.457	13329.65
807.787	13303.66
808.117	13212.82
808.447	13181.18
808.777	13196.77
809.107	13195.64
809.436	13095.76
809.766	13173.95
810.096	13010.56
810.426	12987.74
810.755	13011.01
811.085	12944.35
811.414	12809.44
811.744	12822.32
812.073	12711.13
812.403	12777.35
812.732	12761.75
813.061	12782.55
813.39	12771.92
813.719	12644.47
814.049	12716.33
814.378	12669.55
814.707	12531.93
815.036	12574.19
815.365	12478.37
815.693	12435.89
816.022	12358.15
816.351	12371.93
816.68	12292.84
817.008	12350.47
817.337	12251.03
817.665	12193.86
817.994	12213.52
818.322	12187.76
818.651	12087.42
818.979	12136.69
819.307	12168.1
819.636	12072.73
819.964	12068.67
820.292	12063.69
820.62	12060.53
820.948	11987.54
821.276	12001.55
821.604	12039.97
821.932	12023.02
822.259	12060.3
822.587	11960.65
822.915	11959.06
823.243	11973.75
823.57	11969.01
823.898	11944.6
824.225	11978.27
824.553	11943.25
824.88	11939.4
825.207	11955.22
825.535	11942.57
825.862	11988.44
826.189	11898.73
826.516	11953.64
826.843	11990.7
827.17	11938.27
827.497	11940.76
827.824	11985.96
828.151	11964.04
828.478	11911.61
828.805	12029.12
829.131	11868.67
829.458	11963.81
829.785	11868.22
830.111	11849.24
830.438	11891.27
830.764	11857.82
831.09	11872.51
831.417	11845.39
831.743	11838.62
832.069	11819.41
832.395	11747.32
832.722	11909.8
833.048	11759.3
833.374	11797.94
833.7	11796.36
834.026	11835.9
834.351	11822.12
834.677	11783.7
835.003	11796.36
835.329	11709.35
835.654	11742.57
835.98	11662.12
836.306	11755
836.631	11644.95
836.956	11643.82
837.282	11621.22
837.607	11627.32
837.932	11577.38
838.258	11594.33
838.583	11593.88
838.908	11436.14
839.233	11543.26
839.558	11463.48
839.883	11466.42
840.208	11451.28
840.533	11431.85
840.858	11435.46
841.182	11407.21
841.507	11404.5
841.832	11329.7
842.156	11279.76
842.481	11309.59
842.805	11239.76
843.13	11155.7
843.454	11195.92
843.778	11144.4
844.103	11127.45
844.427	11084.74
844.751	11103.72
845.075	11074.79
845.399	11108.01
845.723	10950.05
846.047	11018.07
846.371	10896.27
846.695	10901.01
847.019	10801.81
847.343	10762.71
847.666	10724.07
847.99	10743.28
848.313	10673.67
848.637	10644.3
848.96	10637.74
849.284	10495.37
849.607	10451.99
849.931	10516.62
850.254	10423.74
850.577	10377.18
850.9	10320.01
851.223	10280.01
851.546	10228.71
851.869	10235.04
852.192	10193.23
852.515	10191.88
852.838	10003.18
853.161	10035.05
853.483	9997.08
853.806	9938.33
854.129	9979
854.451	9891.32
854.774	9832.57
855.096	9856.52
855.419	9847.26
855.741	9788.73
856.063	9822.17
856.385	9706.02
856.708	9661.72
857.03	9657.88
857.352	9666.69
857.674	9632.8
857.996	9669.18
858.318	9510.09
858.64	9570.43
858.961	9539.92
859.283	9457.66
859.605	9406.36
859.926	9528.17
860.248	9415.18
860.57	9379.02
860.891	9402.75
861.212	9300.83
861.534	9315.29
861.855	9303.99
862.176	9313.94
862.498	9301.51
862.819	9311.68
863.14	9164.34
863.461	9192.13
863.782	9202.75
864.103	9217.44
864.424	9094.28
864.745	9132.7
865.065	9133.15
865.386	9099.93
865.707	9074.39
866.027	9028.75
866.348	9002.98
866.668	9058.58
866.989	8996.2
867.309	8932.93
867.63	8986.94
867.95	8949.43
868.27	8917.11
868.59	8985.81
868.91	8835.53
869.23	8857.45
869.55	8831.46
869.87	8913.49
870.19	8827.17
870.51	8821.29
870.83	8828.98
871.15	8787.62
871.469	8762.76
871.789	8800.5
872.109	8776.77
872.428	8677.79
872.748	8743.56
873.067	8797.34
873.386	8765.48
873.706	8709.21
874.025	8655.42
874.344	8631.92
874.663	8669.21
874.982	8619.94
875.301	8593.95
875.62	8533.62
875.939	8580.85
876.258	8537.91
876.577	8483.9
876.896	8493.84
877.214	8511.7
877.533	8469.89
877.852	8508.53
878.17	8554.86
878.489	8521.87
878.807	8465.6
879.125	8473.28
879.444	8466.05
879.762	8365.71
880.08	8390.34
880.398	8388.76
880.716	8394.19
881.034	8296.11
881.352	8336.56
881.67	8280.06
881.988	8367.29
882.306	8291.14
882.624	8272.61
882.941	8257.47
883.259	8180.41
883.577	8145.15
883.894	8171.59
884.212	8189.9
884.529	8092.73
884.846	8117.81
885.164	8104.7
885.481	8079.62
885.798	8104.93
886.115	8040.52
886.432	8002.56
886.75	7938.6
887.067	7960.07
887.383	7936.34
887.7	7876.69
888.017	7958.72
888.334	7913.97
888.651	7927.53
888.967	7894.99
889.284	7847.08
889.6	7800.53
889.917	7774.54
890.233	7838.72
890.55	7738.84
890.866	7764.15
891.182	7696.35
891.498	7670.59
891.815	7642.12
892.131	7646.41
892.447	7621.33
892.763	7597.14
893.079	7538.62
893.395	7513.98
893.71	7481.67
894.026	7506.07
894.342	7443.93
894.657	7390.82
894.973	7485.74
895.289	7386.53
895.604	7421.33
895.92	7327.1
896.235	7303.59
896.55	7317.6
896.865	7297.04
897.181	7273.99
897.496	7225.63
897.811	7238.96
898.126	7185.18
898.441	7175.69
898.756	7141.79
899.071	7034.9
899.386	7111.51
899.7	7005.07
900.015	7057.05
900.33	6991.96
900.644	6992.42
900.959	6980.89
901.273	6948.8
901.588	6918.07
901.902	6871.51
902.216	6901.34
902.531	6886.2
902.845	6875.58
903.159	6735.7
903.473	6784.06
903.787	6791.74
904.101	6717.62
904.415	6686.43
904.729	6649.37
905.042	6656.15
905.356	6613.67
905.67	6642.82
905.984	6567.57
906.297	6532.54
906.611	6507
906.924	6458.87
907.237	6509.72
907.551	6434.01
907.864	6405.31
908.177	6378.65
908.491	6432.43
908.804	6348.14
909.117	6315.6
909.43	6261.13
909.743	6264.07
910.056	6277.86
910.368	6228.82
910.681	6181.59
910.994	6191.76
911.307	6156.96
911.619	6137.07
911.932	6110.86
912.244	6102.72
912.557	6033.8
912.869	6041.25
913.181	6006.23
913.494	5981.37
913.806	5962.84
914.118	5899.11
914.43	5924.42
914.742	5853.46
915.054	5861.82
915.366	5871.99
915.678	5766.23
915.99	5799.23
916.302	5756.97
916.613	5745.22
916.925	5754.48
917.236	5757.65
917.548	5667.7
917.859	5710.19
918.171	5664.77
918.482	5656.86
918.794	5571.21
919.105	5599.68
919.416	5536.63
919.727	5514.26
920.038	5528.05
920.349	5452.79
920.66	5462.96
920.971	5392.23
921.282	5371.89
921.593	5387.26
921.903	5327.37
922.214	5370.54
922.525	5306.36
922.835	5289.41
923.146	5217.09
923.456	5272.23
923.767	5190.65
924.077	5199.47
924.387	5181.39
924.697	5185.23
925.008	5148.85
925.318	5107.94
925.628	5133.48
925.938	5089.87
926.248	5067.27
926.558	5063.65
926.867	5024.56
927.177	4998.34
927.487	4967.16
927.796	4935.97
928.106	4928.06
928.416	4902.53
928.725	4876.31
929.034	4825.92
929.344	4847.61
929.653	4872.47
929.962	4763.32
930.271	4754.73
930.581	4782.76
930.89	4716.99
931.199	4696.2
931.508	4674.51
931.817	4662.76
932.125	4691.01
932.434	4681.06
932.743	4582.08
933.051	4600.39
933.36	4530.11
933.669	4500.73
933.977	4509.77
934.286	4512.93
934.594	4508.19
934.902	4453.72
935.21	4509.54
935.519	4443.1
935.827	4436.32
936.135	4375.08
936.443	4302.77
936.751	4358.36
937.059	4312.71
937.367	4313.16
937.674	4310
937.982	4294.18
938.29	4307.29
938.597	4238.36
938.905	4222.32
939.213	4263.9
939.52	4181.19
939.827	4216.89
940.135	4183.22
940.442	4147.52
940.749	4157.69
941.056	4131.7
941.363	4095.32
941.67	4070.68
941.977	4067.29
942.284	4051.7
942.591	4026.62
942.898	4002.21
943.205	3990.46
943.511	3956.11
943.818	3954.98
944.125	3952.27
944.431	3916.11
944.738	3922.44
945.044	3904.81
945.35	3895.55
945.657	3823.46
945.963	3846.06
946.269	3810.13
946.575	3870.01
946.881	3774.87
947.187	3770.35
947.493	3769.67
947.799	3761.09
948.105	3764.03
948.41	3699.85
948.716	3703.91
949.022	3705.72
949.327	3684.93
949.633	3624.14
949.938	3664.59
950.244	3616.01
950.549	3624.37
950.854	3571.94
951.16	3571.94
951.465	3566.29
951.77	3509.34
952.075	3540.3
952.38	3513.41
952.685	3511.15
952.99	3480.42
953.294	3464.15
953.599	3474.77
953.904	3425.28
954.209	3423.92
954.513	3415.11
954.818	3391.83
955.122	3311.61
955.426	3337.37
955.731	3327.2
956.035	3356.58
956.339	3329.69
956.643	3327.65
956.948	3301.21
957.252	3293.98
957.556	3266.19
957.86	3254.21
958.163	3241.1
958.467	3243.36
958.771	3228.22
959.075	3210.59
959.378	3196.13
959.682	3200.88
959.985	3149.13
960.289	3174.66
960.592	3124.72
960.896	3107.09
961.199	3082.69
961.502	3097.6
961.805	3033.2
962.108	3034.78
962.411	3048.79
962.714	3051.28
963.017	3037.49
963.32	3008.56
963.623	2973.09
963.926	2943.93
964.228	2948.45
964.531	2959.3
964.833	2934.89
965.136	2902.58
965.438	2887.66
965.741	2893.09
966.043	2939.19
966.345	2881.79
966.648	2867.55
966.95	2901.68
967.252	2856.48
967.554	2824.16
967.856	2823.03
968.158	2806.99
968.46	2800.89
968.761	2759.53
969.063	2789.36
969.365	2757.72
969.666	2744.62
969.968	2709.36
970.269	2713.88
970.571	2694
970.872	2701.23
971.174	2705.07
971.475	2642.02
971.776	2682.92
972.077	2662.13
972.378	2630.5
972.679	2614.9
972.98	2623.94
973.281	2648.57
973.582	2607.22
973.883	2601.34
974.183	2570.61
974.484	2600.44
974.785	2555.92
975.085	2572.19
975.386	2502.59
975.686	2502.36
975.986	2544.17
976.287	2520.89
976.587	2505.53
976.887	2488.8
977.187	2483.38
977.487	2449.48
977.787	2429.37
978.087	2452.2
978.387	2447
978.687	2422.82
978.987	2448.35
979.286	2356.6
979.586	2420.78
979.885	2352.31
980.185	2360.9
980.484	2328.81
980.784	2386.43
981.083	2303.5
981.382	2308.7
981.682	2319.54
981.981	2299.21
982.28	2285.19
982.579	2282.26
982.878	2272.09
983.177	2305.76
983.475	2258.08
983.774	2286.32
984.073	2244.29
984.372	2180.34
984.67	2223.5
984.969	2249.94
985.267	2207.46
985.566	2201.13
985.864	2171.07
986.162	2183.95
986.461	2132.88
986.759	2145.99
987.057	2141.47
987.355	2117.06
987.653	2110.96
987.951	2122.03
988.249	2113.22
988.547	2071.87
988.844	2096.05
989.142	2121.13
989.44	2054.92
989.737	2060.57
990.035	2053.79
990.332	2033.45
990.63	2027.35
990.927	2019.66
991.224	2020.12
991.521	1985.99
991.819	2003.39
992.116	1992.32
992.413	2000.46
992.71	1963.62
993.006	1934.24
993.303	1957.07
993.6	1936.5
993.897	1968.59
994.193	1944.41
994.49	1908.48
994.787	1906.9
995.083	1891.98
995.379	1909.16
995.676	1877.07
995.972	1835.94
996.268	1835.94
996.565	1852.89
996.861	1844.53
997.157	1854.92
997.453	1813.79
997.749	1838.65
998.044	1783.06
998.34	1761.14
998.636	1807.01
998.932	1756.17
999.227	1784.19
999.523	1753.23
999.818	1768.82
1000.114	1766.11
1000.409	1743.06
1000.704	1717.3
1001	1717.3
1001.295	1719.33
1001.59	1691.99
1001.885	1678.2
1002.18	1657.19
1002.475	1665.32
1002.77	1661.26
1003.065	1646.57
1003.359	1644.98
1003.654	1625.1
1003.949	1626.23
1004.243	1641.37
1004.538	1598.43
1004.832	1604.99
1005.127	1581.26
1005.421	1585.1
1005.715	1580.35
1006.009	1563.63
1006.304	1563.63
1006.598	1520.24
1006.892	1536.74
1007.186	1537.42
1007.48	1524.31
1007.773	1540.81
1008.067	1504.88
1008.361	1540.81
1008.655	1522.28
1008.948	1473.69
1009.242	1472.56
1009.535	1463.07
1009.829	1455.16
1010.122	1467.81
1010.415	1466.01
1010.708	1452
1011.001	1442.96
1011.295	1409.51
1011.588	1435.72
1011.881	1399.79
1012.173	1439.57
1012.466	1400.02
1012.759	1401.15
1013.052	1395.95
1013.344	1391.66
1013.637	1359.79
1013.93	1364.31
1014.222	1345.33
1014.514	1348.95
1014.807	1321.6
1015.099	1311.89
1015.391	1319.12
1015.683	1343.52
1015.976	1302.85
1016.268	1288.38
1016.56	1282.73
1016.851	1275.5
1017.143	1283.86
1017.435	1248.61
1017.727	1260.36
1018.018	1225.56
1018.31	1252
1018.602	1270.08
1018.893	1226.92
1019.185	1218.33
1019.476	1205
1019.767	1217.65
1020.058	1195.51
1020.35	1186.69
1020.641	1188.73
1020.932	1146.02
1021.223	1154.83
1021.514	1173.13
1021.804	1131.55
1022.095	1139.46
1022.386	1156.86
1022.677	1143.3
1022.967	1136.75
1023.258	1125.9
1023.548	1137.43
1023.839	1101.95
1024.129	1110.99
1024.419	1073.7
1024.709	1085.23
1025	1081.16
1025.29	1076.86
1025.58	1047.26
1025.87	1034.38
1026.16	1047.71
1026.449	1053.14
1026.739	1052.23
1027.029	1016.3
1027.319	1016.98
1027.608	1026.92
1027.898	989.86
1028.187	996.87
1028.477	1012.23
1028.766	975.62
1029.055	1008.62
1029.344	1006.81
1029.634	974.95
1029.923	953.03
1030.212	950.77
1030.501	970.65
1030.79	968.84
1031.078	953.48
1031.367	953.93
1031.656	930.88
1031.945	926.81
1032.233	920.71
1032.522	931.56
1032.81	911.9
1033.099	907.15
1033.387	918.45
1033.675	928.62
1033.963	893.82
1034.251	879.13
1034.54	874.16
1034.828	856.98
1035.116	869.64
1035.403	884.78
1035.691	865.34
1035.979	845.23
1036.267	847.72
1036.554	834.61
1036.842	833.93
1037.129	821.05
1037.417	836.42
1037.704	843.65
1037.992	812.92
1038.279	816.98
1038.566	813.59
1038.853	813.59
1039.14	813.59
