Data from whiteboard_FLMS001491_00019.txt Node
Date: Wed Feb 08 11:25:29 GMT 2017
User: dcchb
Spectrometer: FLMS00149
Trigger mode: 0
Integration Time (sec): 2.000000E-2
Scans to average: 10
Electric dark correction enabled: true
Nonlinearity correction enabled: false
Boxcar width: 0
XAxis mode: Wavelengths
Number of Pixels in Spectrum: 2048
>>>>>Begin Spectral Data<<<<<
341.393	-5.92
341.776	-5.92
342.16	-5.92
342.543	-58.12
342.927	-60.61
343.31	-66.48
343.693	-76.65
344.077	-64.22
344.46	-63.54
344.843	-56.31
345.226	-41.17
345.61	-42.3
345.993	-17.9
346.376	12.16
346.759	4.03
347.142	21.65
347.525	35.66
347.908	74.31
348.291	69.56
348.674	98.49
349.057	112.72
349.44	114.98
349.823	137.13
350.206	184.13
350.588	215.32
350.971	253.06
351.354	241.31
351.737	279.27
352.119	288.54
352.502	294.87
352.884	309.1
353.267	322.44
353.65	333.73
354.032	350.46
354.414	363.11
354.797	352.72
355.179	346.16
355.562	355.2
355.944	351.81
356.326	357.91
356.709	369.89
357.091	385.71
357.473	396.11
357.855	371.02
358.238	392.26
358.62	370.34
359.002	394.3
359.384	380.51
359.766	381.42
360.148	367.41
360.53	393.17
360.912	388.2
361.294	364.02
361.676	382.09
362.057	375.31
362.439	371.93
362.821	372.15
363.203	380.29
363.584	384.13
363.966	385.48
364.348	383.9
364.729	370.8
365.111	378.7
365.493	382.55
365.874	385.48
366.256	359.72
366.637	374.19
367.019	394.3
367.4	363.34
367.781	397.46
368.163	360.17
368.544	393.62
368.925	366.73
369.306	376.67
369.688	390
370.069	378.7
370.45	389.1
370.831	364.69
371.212	375.31
371.593	371.25
371.974	392.49
372.355	373.28
372.736	394.75
373.117	390.46
373.498	400.17
373.879	395.65
374.26	400.85
374.641	387.07
375.021	404.92
375.402	405.37
375.783	384.35
376.163	419.38
376.544	424.81
376.925	393.85
377.305	409.66
377.686	418.48
378.066	409.66
378.447	419.83
378.827	421.19
379.208	409.66
379.588	421.64
379.968	420.74
380.349	440.17
380.729	453.28
381.109	430.45
381.489	447.86
381.87	430.68
382.25	424.13
382.63	448.53
383.01	446.73
383.39	450.12
383.77	453.05
384.15	448.99
384.53	486.05
384.91	476.56
385.29	505.93
385.67	491.7
386.049	505.48
386.429	501.41
386.809	493.05
387.189	495.54
387.568	501.87
387.948	513.16
388.328	516.78
388.707	526.95
389.087	541.64
389.466	531.92
389.846	523.56
390.225	557.01
390.605	558.81
390.984	549.1
391.363	537.34
391.743	579.83
392.122	578.7
392.501	587.74
392.881	611.92
393.26	615.31
393.639	583.67
394.018	614.18
394.397	636.1
394.776	612.6
395.155	613.05
395.534	656.44
395.913	641.52
396.292	649.43
396.671	676.32
397.05	677
397.429	654.18
397.808	696.89
398.186	688.3
398.565	698.47
398.944	705.48
399.323	728.98
399.701	734.85
400.08	734.85
400.458	745.25
400.837	758.36
401.215	786.15
401.594	770.78
401.972	786.15
402.351	797.9
402.729	818.24
403.107	846.72
403.486	827.96
403.864	840.39
404.242	872.48
404.62	881.74
404.999	900.95
405.377	904.79
405.755	925.13
406.133	941.85
406.511	933.94
406.889	956.09
407.267	965.58
407.645	1001.74
408.023	1033.15
408.401	1020.72
408.779	1055.52
409.156	1092.58
409.534	1089.65
409.912	1101.4
410.29	1152.92
410.667	1152.24
411.045	1180.72
411.422	1209.64
411.8	1167.38
412.178	1229.08
412.555	1276.53
412.933	1248.96
413.31	1307.27
413.687	1308.85
414.065	1306.82
414.442	1371.67
414.819	1391.11
415.197	1409.19
415.574	1429.98
415.951	1420.71
416.328	1438.56
416.705	1479.47
417.082	1503.87
417.46	1516.75
417.837	1516.3
418.214	1566.92
418.591	1580.93
418.967	1565.57
419.344	1606.24
419.721	1615.73
420.098	1646.47
420.475	1653.02
420.852	1671.1
421.228	1689.86
421.605	1706.81
421.982	1736.41
422.358	1751.1
422.735	1795.62
423.111	1800.36
423.488	1835.39
423.864	1831.1
424.241	1853.47
424.617	1890.76
424.994	1903.64
425.37	1902.05
425.746	1943.18
426.123	1989.51
426.499	1991.32
426.875	2001.94
427.251	2047.59
427.627	2112.22
428.003	2082.39
428.379	2142.05
428.756	2192.44
429.132	2182.5
429.507	2230.18
429.883	2253.23
430.259	2332.55
430.635	2306.79
431.011	2328.03
431.387	2404.41
431.763	2429.27
432.138	2449.61
432.514	2487.12
432.89	2490.74
433.265	2554.92
433.641	2587.01
434.016	2662.26
434.392	2654.58
434.767	2741.13
435.143	2772.54
435.518	2755.59
435.894	2797.17
436.269	2849.83
436.644	2881.92
437.02	2930.05
437.395	2913.33
437.77	2982.7
438.145	2998.3
438.52	3075.36
438.895	3051.63
439.271	3098.18
439.646	3149.03
440.021	3181.57
440.395	3187.9
440.77	3144.06
441.145	3281
441.52	3297.72
441.895	3287.78
442.27	3332.75
442.645	3339.98
443.019	3375.01
443.394	3365.07
443.769	3466.99
444.143	3473.99
444.518	3504.27
444.892	3512.18
445.267	3534.1
445.641	3534.78
446.016	3604.16
446.39	3612.29
446.764	3651.39
447.139	3673.99
447.513	3734.32
447.887	3725.74
448.262	3753.98
448.636	3785.62
449.01	3817.94
449.384	3871.27
449.758	3906.07
450.132	3942.68
450.506	3958.72
450.88	3958.72
451.254	3985.62
451.628	4059.51
452.002	4132.05
452.376	4131.15
452.75	4197.14
453.123	4225.16
453.497	4278.49
453.871	4368.2
454.244	4402.55
454.618	4451.14
454.992	4515.32
455.365	4520.52
455.739	4635.09
456.112	4713.05
456.486	4753.05
456.859	4767.74
457.232	4932.48
457.606	4899.72
457.979	4928.19
458.352	5043.67
458.725	5111.24
459.099	5121.63
459.472	5273.72
459.845	5332.92
460.218	5356.65
460.591	5436.88
460.964	5409.08
461.337	5585.57
461.71	5668.28
462.083	5741.73
462.456	5757.55
462.829	5812.46
463.201	5911.67
463.574	5926.81
463.947	5981.95
464.32	6232.11
464.692	6223.52
465.065	6254.26
465.438	6376.29
465.81	6440.47
466.183	6457.41
466.555	6679.78
466.928	6647.24
467.3	6694.24
467.672	6841.59
468.045	7000.9
468.417	7040.45
468.789	7106.89
469.161	7170.39
469.534	7363.38
469.906	7538.97
470.278	7503.26
470.65	7675.24
471.022	7812.86
471.394	7986.87
471.766	8032.74
472.138	8091.72
472.51	8293.75
472.882	8413.3
473.253	8515.89
473.625	8684.25
473.997	8804.47
474.369	8916.79
474.74	9062.77
475.112	9165.37
475.484	9396.09
475.855	9479.26
476.227	9563.1
476.598	9881.96
476.97	9966.93
477.341	10102.97
477.713	10377.09
478.084	10336.63
478.455	10680.35
478.827	10718.09
479.198	11050.29
479.569	11119.89
479.94	11480.11
480.311	11523.95
480.682	11832.64
481.053	11996.7
481.424	12198.96
481.795	12337.49
482.166	12548.33
482.537	12709
482.908	12994.87
483.279	13104.7
483.65	13295.43
484.021	13616.32
484.391	13818.13
484.762	13910.78
485.133	14002.08
485.503	14267.15
485.874	14680.7
486.244	14772.68
486.615	15029.62
486.985	15237.98
487.356	15495.37
487.726	15672.31
488.097	15978.07
488.467	15966.32
488.837	16404.72
489.207	16548.9
489.578	16877.25
489.948	17004.48
490.318	17218.04
490.688	17269.11
491.058	17560.17
491.428	17781.86
491.798	18004
492.168	18458.91
492.538	18384.11
492.908	18676.98
493.278	18879.46
493.648	18987.03
494.017	19181.83
494.387	19356.51
494.757	19627.24
495.126	19780.45
495.496	19813
495.866	19994.69
496.235	20279.2
496.605	20403.26
496.974	20603.26
497.344	20791.5
497.713	20966.64
498.082	21079.4
498.452	21273.52
498.821	21469
499.19	21525.27
499.559	21666.73
499.928	21913.73
500.298	21990.79
500.667	22280.95
501.036	22213.84
501.405	22547.61
501.774	22508.97
502.143	22703.32
502.512	22864.89
502.88	23051.55
503.249	23000.93
503.618	23290.87
503.987	23286.35
504.356	23516.18
504.724	23600.02
505.093	23710.97
505.462	23877.3
505.83	24055.37
506.199	24306.21
506.567	24548.92
506.936	24490.16
507.304	24908.23
507.672	24974.44
508.041	25265.96
508.409	25297.15
508.777	25631.6
509.145	25864.81
509.514	25786.17
509.882	26061.19
510.25	26190.68
510.618	26451.47
510.986	26533.05
511.354	26809.65
511.722	27021.62
512.09	27285.57
512.458	27373.48
512.826	27533.92
513.193	27689.63
513.561	27768.49
513.929	28117.18
514.297	28369.61
514.664	28538.19
515.032	28705.42
515.4	29077.84
515.767	29058.18
516.135	29199.19
516.502	29076.26
516.869	29645.51
517.237	29773.41
517.604	29744.49
517.972	30057.92
518.339	30261.08
518.706	30196.9
519.073	30450.46
519.44	30826.27
519.808	30987.62
520.175	30983.32
520.542	31514.16
520.909	31607.26
521.276	31654.49
521.643	32023.3
522.009	32204.76
522.376	32429.39
522.743	32624.41
523.11	33002.03
523.477	33272.53
523.843	33447.67
524.21	33963.81
524.577	34019.85
524.943	34308.66
525.31	34515.66
525.676	34874.07
526.043	35090.56
526.409	35260.27
526.776	35559.02
527.142	35774.38
527.508	36005.79
527.874	36380.47
528.241	36420.47
528.607	36615.27
528.973	37087.12
529.339	37013
529.705	37399.2
530.071	37621.79
530.437	37816.82
530.803	38003.25
531.169	38104.04
531.535	38208.67
531.901	38406.18
532.267	38549.68
532.632	38848.65
532.998	39009.33
533.364	39048.65
533.73	39400.73
534.095	39595.53
534.461	39728.18
534.826	39869.64
535.192	40207.94
535.557	40389.4
535.923	40367.26
536.288	40502.4
536.653	40716.63
537.019	40732.45
537.384	41012.89
537.749	41162.27
538.114	41203.62
538.479	41323.16
538.845	41546.89
539.21	41463.05
539.575	41751.85
539.94	41922.02
540.305	42075.01
540.67	42120.21
541.034	42378.5
541.399	42273.87
541.764	42630.7
542.129	42716.35
542.494	42824.59
542.858	43009
543.223	43217.58
543.587	43296.22
543.952	43190.46
544.316	43371.02
544.681	43463
545.045	43755.87
545.41	44031.79
545.774	44046.03
546.138	44136.2
546.503	44496.87
546.867	44329.87
547.231	44827.93
547.595	44881.94
547.959	44888.95
548.324	44959
548.688	45043.52
549.052	45199
549.416	45265.89
549.779	45406.67
550.143	45606.44
550.507	45900.22
550.871	45953.78
551.235	45882.37
551.599	46139.31
551.962	46434.89
552.326	46400.09
552.689	46708.11
553.053	46667.43
553.417	46713.53
553.78	47293.4
554.143	47011.15
554.507	47384.25
554.87	47359.84
555.234	47767.74
555.597	47743.56
555.96	47777.91
556.323	48009.77
556.686	48111.23
557.05	48431.9
557.413	48393.94
557.776	48489.08
558.139	48878.22
558.502	48928.39
558.865	48873.7
559.228	49292.22
559.59	49365.67
559.953	49371.31
560.316	49758.65
560.679	49731.98
561.041	49923.62
561.404	50211.97
561.767	50383.49
562.129	50368.35
562.492	50646.99
562.854	50641.56
563.217	50701.22
563.579	50849.92
563.941	51084.49
564.304	51195
564.666	51390.24
565.028	51482.22
565.39	51561.31
565.753	51689.22
566.115	51787.97
566.477	51909.1
566.839	51979.38
567.201	52270
567.563	52226.83
567.925	52488.75
568.287	52527.16
568.648	52652.58
569.01	52829.53
569.372	52973.71
569.734	52891.67
570.095	53175.73
570.457	53333.7
570.819	53401.72
571.18	53387.93
571.542	53668.38
571.903	53678.77
572.265	53876.51
572.626	53893.23
572.987	53966.22
573.349	54109.72
573.71	54198.76
574.071	54228.14
574.432	54296.38
574.794	54557.85
575.155	54520.56
575.516	54408.7
575.877	54636.49
576.238	54713.32
576.599	54806.88
576.96	54761.23
577.32	54848.01
577.681	54963.71
578.042	55041.45
578.403	54998.74
578.763	55076.02
579.124	55109.92
579.485	55084.16
579.845	55236.25
580.206	55167.55
580.566	55155.57
580.927	55144.04
581.287	55332.06
581.648	55156.25
582.008	55314.66
582.368	55238.51
582.728	55352.17
583.089	55170.71
583.449	55241.89
583.809	55232.18
584.169	55274.89
584.529	55221.78
584.889	55498.39
585.249	55350.59
585.609	55290.03
585.969	55430.59
586.329	55252.74
586.688	55358.05
587.048	55329.58
587.408	55422.91
587.768	55390.59
588.127	55305.62
588.487	55323.02
588.846	55532.28
589.206	55317.15
589.565	55405.05
589.925	55544.26
590.284	55450.48
590.643	55581.32
591.003	55601.21
591.362	55688.89
591.721	55646.4
592.08	55716.01
592.44	55786.51
592.799	55755.1
593.158	55753.07
593.517	55754.2
593.876	55812.95
594.235	55784.25
594.593	55810.02
594.952	55839.39
595.311	55805.04
595.67	56004.13
596.029	56038.94
596.387	56007.3
596.746	56141.76
597.104	55987.64
597.463	56025.6
597.822	56109.22
598.18	55981.08
598.538	55908.32
598.897	56139.27
599.255	55956.9
599.613	56304.24
599.972	56014.53
600.33	56108.09
600.688	56074.87
601.046	56112.15
601.404	56155.32
601.762	56077.35
602.12	56218.82
602.478	56215.88
602.836	56109.67
603.194	55983.34
603.552	56065.83
603.91	56000.75
604.268	56061.31
604.625	56010.69
604.983	56093.4
605.341	56011.14
605.698	56079.61
606.056	56191.93
606.413	56124.13
606.771	56195.54
607.128	56159.84
607.485	56133.4
607.843	56151.48
608.2	56218.59
608.557	56389.89
608.914	56283.45
609.272	56456.33
609.629	56454.07
609.986	56536.55
610.343	56350.79
610.7	56671.46
611.057	56600.73
611.414	56641.86
611.771	56661.29
612.127	56682.76
612.484	56721.4
612.841	56897.67
613.198	56751.23
613.554	56816.99
613.911	56952.36
614.267	56979.48
614.624	56960.27
614.98	56965.01
615.337	57211.56
615.693	57062.86
616.05	57054.5
616.406	57310.54
616.762	57190.54
617.118	57102.86
617.475	57153.03
617.831	57306.7
618.187	57318.68
618.543	57336.53
618.899	57470.76
619.255	57406.13
619.611	57386.47
619.967	57456.53
620.323	57508.73
620.678	57484.32
621.034	57306.93
621.39	57340.82
621.746	57280.03
622.101	57596.86
622.457	57308.96
622.812	57386.7
623.168	57423.08
623.523	57412.46
623.879	57465.79
624.234	57288.17
624.589	57366.13
624.945	57390.31
625.3	57354.38
625.655	57421.95
626.01	57283.88
626.365	57321.61
626.72	57280.94
627.075	57279.81
627.43	57228.74
627.785	57186.25
628.14	57150.77
628.495	57231.9
628.85	57196.87
629.205	57038.91
629.559	57245.23
629.914	57124.78
630.269	57066.03
630.623	57014.28
630.978	56979.25
631.332	57103.77
631.687	57083.88
632.041	57008.18
632.396	57047.5
632.75	56977.22
633.104	57002.3
633.459	56863.55
633.813	56860.84
634.167	56868.52
634.521	56867.84
634.875	56885.92
635.229	56871.68
635.583	56738.35
635.937	56722.99
636.291	56720.95
636.645	56818.35
636.999	56630.78
637.352	56744.23
637.706	56552.59
638.06	56741.29
638.413	56682.99
638.767	56624.68
639.121	56701.74
639.474	56498.13
639.828	56556.44
640.181	56541.75
640.534	56551.47
640.888	56424.91
641.241	56309.21
641.594	56367.74
641.947	56485.48
642.301	56367.29
642.654	56386.27
643.007	56311.02
643.36	56301.3
643.713	56302.66
644.066	56263.34
644.419	56119.39
644.771	56015.89
645.124	55713.29
645.477	55663.8
645.83	55522.57
646.182	55471.95
646.535	55353.08
646.888	55317.83
647.24	55210.48
647.593	55296.81
647.945	55241.22
648.298	55161.67
648.65	55091.16
649.002	54996.03
649.355	55151.5
649.707	55059.53
650.059	55147.43
650.411	55394.89
650.763	55477.14
651.115	55733.41
651.467	55591.04
651.819	55570.47
652.171	55488.67
652.523	55505.39
652.875	55509.23
653.227	55413.87
653.578	55438.5
653.93	55460.87
654.282	55325.51
654.633	55273.31
654.985	55270.82
655.337	55306.98
655.688	55217.49
656.039	55342.46
656.391	55094.33
656.742	55232.4
657.094	55179.98
657.445	55200.54
657.796	55149.02
658.147	55098.17
658.498	55050.94
658.849	55162.8
659.2	54993.54
659.551	54972.52
659.902	55109.02
660.253	55091.84
660.604	55105.85
660.955	54904.73
661.306	54972.3
661.656	54846.2
662.007	54861.79
662.358	54908.34
662.708	54928.68
663.059	54817.27
663.409	54590.61
663.76	54853.66
664.11	54857.72
664.461	54856.14
664.811	54835.58
665.161	54837.16
665.511	54733.43
665.862	54769.82
666.212	54840.78
666.562	54828.35
666.912	54761.46
667.262	54704.96
667.612	54721
667.962	54752.87
668.312	54689.82
668.662	54819.99
669.011	54671.06
669.361	54653.44
669.711	54657.28
670.06	54632.65
670.41	54579.31
670.76	54537.73
671.109	54656.83
671.459	54566.43
671.808	54514.68
672.157	54675.13
672.507	54425.87
672.856	54399.43
673.205	54456.83
673.554	54558.07
673.904	54434.01
674.253	54560.56
674.602	54457.28
674.951	54034.7
675.3	53874.7
675.649	54387.45
675.998	54280.11
676.346	54268.59
676.695	54372.54
677.044	54168.93
677.393	54268.59
677.741	54364.4
678.09	54194.01
678.438	54090.74
678.787	54064.98
679.135	54022.49
679.484	53902.5
679.832	53998.09
680.181	53648.94
680.529	53855.94
680.877	53700.92
681.225	53631.54
681.573	53866.11
681.922	53487.82
682.27	53455.95
682.618	53508.61
682.966	53470.64
683.314	53469.74
683.661	53374.15
684.009	53300.7
684.357	53145
684.705	53149.07
685.053	53126.92
685.4	53081.27
685.748	52858.68
686.095	52858.23
686.443	52741.62
686.79	52741.62
687.138	52664.34
687.485	52687.61
687.832	52436.09
688.18	52525.36
688.527	52351.58
688.874	52333.04
689.221	52320.84
689.568	52126.95
689.915	51967.4
690.262	52103.22
690.609	51944.13
690.956	51751.82
691.303	51738.26
691.65	51631.82
691.997	51676.34
692.344	51404.03
692.69	51371.26
693.037	51305.05
693.383	51136.69
693.73	51211.27
694.077	51030.03
694.423	51093.08
694.769	50924.95
695.116	50796.81
695.462	50824.61
695.808	50708.68
696.155	50862.8
696.501	50502.81
696.847	50642.24
697.193	50266.88
697.539	50541.68
697.885	50174.46
698.231	50039.32
698.577	50080.22
698.923	49990.96
699.269	49889.49
699.614	49764.75
699.96	49737.41
700.306	49743.28
700.651	49529.05
700.997	49420.13
701.342	49357.53
701.688	49505.55
702.033	49342.39
702.379	49300.36
702.724	49061.49
703.069	49178.1
703.415	48900.37
703.76	48820.59
704.105	48827.37
704.45	48670.54
704.795	48495.41
705.14	48432.81
705.485	48410.21
705.83	48220.61
706.175	48290.89
706.52	48040.5
706.865	47948.08
707.209	47995.31
707.554	47859.72
707.899	47896.1
708.243	47619.5
708.588	47620.63
708.932	47440.97
709.277	47355.32
709.621	47335.89
709.966	47113.75
710.31	47219.06
710.654	46882.79
710.998	46989.23
711.342	46970.7
711.687	46766.41
712.031	46712.85
712.375	46531.16
712.719	46622.23
713.063	46470.37
713.407	46462.69
713.75	46089.37
714.094	46214.56
714.438	45800.11
714.782	46095.24
715.125	45724.63
715.469	45712.43
715.812	45671.07
716.156	45357.64
716.499	45297.98
716.843	45435.6
717.186	45090.07
717.53	45267.69
717.873	45288.26
718.216	44965.55
718.559	44674.49
718.902	44528.96
719.246	44736.41
719.589	44498.22
719.932	44282.64
720.275	44281.96
720.617	44104.56
720.96	44053.04
721.303	44063.21
721.646	44241.73
721.989	43829.09
722.331	44107.05
722.674	43769.43
723.016	43717.9
723.359	43766.49
723.701	43534.86
724.044	43413.73
724.386	43082.44
724.729	43444.92
725.071	43135.77
725.413	43148.43
725.755	42994.53
726.097	42976.91
726.439	42700.08
726.782	42644.49
727.124	42907.53
727.465	42588.44
727.807	42618.95
728.149	42404.49
728.491	42381.44
728.833	42432.06
729.175	42092.86
729.516	42209.92
729.858	42079.98
730.199	42143.26
730.541	42057.83
730.882	41889.93
731.224	42018.51
731.565	41670.95
731.906	41707.34
732.248	41769.03
732.589	41616.26
732.93	41518.64
733.271	41495.36
733.612	41622.82
733.953	41530.39
734.294	41442.94
734.635	41367.91
734.976	41407.46
735.317	41368.36
735.658	41251.98
735.999	41192.77
736.339	41101.25
736.68	41224.18
737.021	41060.57
737.361	40912.55
737.702	41125.66
738.042	40987.81
738.383	40783.52
738.723	40964.08
739.063	40710.07
739.404	40861.48
739.744	40705.55
740.084	40528.38
740.424	40712.11
740.764	40491.1
741.104	40625.33
741.444	40399.12
741.784	40230.09
742.124	40331.78
742.464	40278.45
742.804	40142.86
743.143	40156.19
743.483	40106.7
743.823	39949.42
744.162	39918.46
744.502	39884.56
744.841	39724.11
745.181	39929.53
745.52	39815.63
745.86	39713.72
746.199	39518.01
746.538	39494.06
746.877	39515.3
747.216	39426.04
747.556	39401.63
747.895	39381.52
748.234	39073.28
748.573	39088.65
748.911	39040.74
749.25	39023.56
749.589	38788.54
749.928	38885.94
750.267	38837.13
750.605	38584.71
750.944	38642.33
751.283	38511.26
751.621	38599.39
751.96	38243.47
752.298	38302.23
752.636	38398.95
752.975	38034.66
753.313	37982.46
753.651	38176.13
753.989	37859.75
754.327	37907.89
754.666	37626.54
755.004	37698.4
755.342	37681.9
755.679	37471.97
756.017	37288.92
756.355	37363.72
756.693	37164.86
757.031	37305.87
757.368	37083.28
757.706	37019.55
758.044	36800.57
758.381	36962.38
758.719	36759.44
759.056	36921.47
759.394	36579.79
759.731	36177.99
760.068	36149.97
760.405	36126.69
760.743	35916.3
761.08	35997.88
761.417	35744.78
761.754	35775.51
762.091	35535.97
762.428	35314.51
762.765	35175.76
763.102	35491.23
763.438	35117
763.775	34920.4
764.112	34977.12
764.449	34951.36
764.785	34791.81
765.122	34573.06
765.458	34486.06
765.795	34432.05
766.131	34336.68
766.467	34318.15
766.804	34095.78
767.14	33840.42
767.476	33947.77
767.812	33615.8
768.148	33656.7
768.485	33402.02
768.821	33221.91
769.157	33209.48
769.492	33252.19
769.828	33135.58
770.164	32822.37
770.5	32723.84
770.836	32755.93
771.171	32547.12
771.507	32482.72
771.842	32202.05
772.178	32240.92
772.513	32179.22
772.849	31830.08
773.184	31727.71
773.519	31735.85
773.855	31655.62
774.19	31469.64
774.525	31374.73
774.86	31305.35
775.195	31340.83
775.53	31216.76
775.865	30889.99
776.2	30710.11
776.535	30471.47
776.87	30391.02
777.205	30348.76
777.539	30208.43
777.874	30345.15
778.209	30106.06
778.543	29946.51
778.878	29869
779.212	29849.57
779.547	29631.27
779.881	29519.63
780.215	29461.56
780.55	29339.75
780.884	29212.07
781.218	29170.49
781.552	29044.39
781.886	28972.98
782.22	28754.23
782.554	28640.33
782.888	28450.73
783.222	28515.59
783.556	28282.6
783.889	28269.27
784.223	28008.94
784.557	27897.53
784.89	28006.23
785.224	27772.79
785.557	27638.33
785.891	27684.65
786.224	27585.22
786.558	27634.94
786.891	27269.75
787.224	27281.27
787.557	27277.88
787.891	27112.69
788.224	27132.35
788.557	27048.51
788.89	27100.71
789.223	27070.66
789.556	26721.29
789.888	26641.29
790.221	26564.23
790.554	26357.46
790.887	26415.08
791.219	26298.48
791.552	26215.09
791.884	26130.12
792.217	26000.86
792.549	25965.38
792.882	25911.59
793.214	25725.38
793.546	25699.39
793.879	25602.45
794.211	25454.88
794.543	25498.5
794.875	25408.33
795.207	25506.63
795.539	25367.88
795.871	25341.21
796.203	25024.84
796.535	25010.37
796.867	24931.51
797.198	24881.11
797.53	24932.64
797.862	24682.92
798.193	24755.92
798.525	24523.38
798.856	24651.74
799.188	24310.73
799.519	24292.65
799.85	24132.2
800.182	24111.41
800.513	24129.49
800.844	23939.67
801.175	24006.33
801.506	23897.18
801.837	23794.13
802.168	23782.84
802.499	23641.82
802.83	23459.45
803.161	23458.32
803.491	23506.46
803.822	23492
804.153	23331.77
804.483	23203.19
804.814	23181.49
805.145	23188.27
805.475	23035.96
805.805	22910.09
806.136	22932.01
806.466	22929.3
806.796	22729.76
807.126	22539.93
807.457	22506.71
807.787	22619.25
808.117	22380.61
808.447	22352.36
808.777	22432.59
809.107	22277.56
809.436	22149.88
809.766	22237.34
810.096	22139.04
810.426	22098.59
810.755	22142.2
811.085	21956.67
811.414	21953.96
811.744	21720.74
812.073	21707.64
812.403	21689.33
812.732	21582.44
813.061	21440.3
813.39	21321.2
813.719	21403.91
814.049	21366.4
814.378	21348.1
814.707	21165.73
815.036	21226.52
815.365	21139.74
815.693	20771.84
816.022	20876.47
816.351	20690.71
816.68	20613.43
817.008	20731.39
817.337	20559.42
817.665	20363.72
817.994	20516.93
818.322	20500.66
818.651	20290.27
818.979	20240.78
819.307	20317.84
819.636	20204.17
819.964	20090.5
820.292	20202.82
820.62	20098.86
820.948	19978.87
821.276	20100.67
821.604	20007.12
821.932	20143.38
822.259	20119.2
822.587	20028.13
822.915	20012.09
823.243	20067.68
823.57	20017.06
823.898	19939.77
824.225	19953.56
824.553	19966.89
824.88	20003.95
825.207	20066.77
825.535	19892.99
825.862	19981.35
826.189	19929.6
826.516	20006.21
826.843	20178.41
827.17	20111.97
827.497	20048.7
827.824	20044.85
828.151	20138.86
828.478	20092.31
828.805	20138.41
829.131	20019.54
829.458	19987
829.785	19968.25
830.111	20022.03
830.438	20070.62
830.764	20107.9
831.09	20081.46
831.417	19955.59
831.743	20052.99
832.069	20042.14
832.395	20026.1
832.722	20032.43
833.048	19920.56
833.374	20027
833.7	19986.78
834.026	20037.62
834.351	20038.3
834.677	20049.83
835.003	20055.48
835.329	20022.48
835.654	19918.98
835.98	19867.68
836.306	19933.67
836.631	19836.5
836.956	20043.72
837.282	19920.34
837.607	19800.34
837.932	19858.64
838.258	19864.75
838.583	19797.4
838.908	19741.81
839.233	19746.56
839.558	19673.34
839.883	19605.32
840.208	19596.5
840.533	19560.35
840.858	19651.64
841.182	19589.73
841.507	19530.07
841.832	19357.19
842.156	19356.74
842.481	19418.43
842.805	19307.02
843.13	19347.7
843.454	19203.07
843.778	19241.49
844.103	19090.53
844.427	19061.15
844.751	19033.81
845.075	18979.35
845.399	18824.55
845.723	18728.05
846.047	18741.61
846.371	18598.79
846.695	18608.28
847.019	18499.13
847.343	18425.91
847.666	18281.74
847.99	18213.26
848.313	18237.9
848.637	18086.94
848.96	17994.96
849.284	17941.63
849.607	17763.78
849.931	17800.85
850.254	17615.54
850.577	17574.18
850.9	17402.21
851.223	17478.59
851.546	17437.47
851.869	17235.21
852.192	17357.92
852.515	16997.02
852.838	17034.09
853.161	16928.55
853.483	16811.27
853.806	16792.96
854.129	16782.34
854.451	16762.91
854.774	16686.98
855.096	16550.93
855.419	16501.9
855.741	16378.06
856.063	16350.49
856.385	16198.85
856.708	16185.52
857.03	16153.66
857.352	16195.24
857.674	16068.69
857.996	16006.09
858.318	15951.85
858.64	15905.98
858.961	15778.98
859.283	15838.86
859.605	15640.68
859.926	15677.51
860.248	15675.25
860.57	15564.97
860.891	15563.84
861.212	15528.59
861.534	15347.58
861.855	15487.01
862.176	15367.46
862.498	15394.36
862.819	15321.59
863.14	15338.76
863.461	15208.6
863.782	15121.14
864.103	15121.37
864.424	15129.73
864.745	15160.69
865.065	15034.14
865.386	15069.84
865.707	15032.56
866.027	15026.46
866.348	14906.46
866.668	14905.1
866.989	14996.63
867.309	14852.22
867.63	14959.11
867.95	14845.22
868.27	14767.48
868.59	14776.29
868.91	14835.5
869.23	14781.04
869.55	14788.72
869.87	14829.17
870.19	14754.82
870.51	14802.05
870.83	14708.27
871.15	14674.15
871.469	14661.27
871.789	14699.23
872.109	14624.43
872.428	14549.18
872.748	14547.82
873.067	14576.52
873.386	14548.28
873.706	14574.26
874.025	14461.72
874.344	14457.2
874.663	14457.43
874.982	14461.72
875.301	14428.96
875.62	14446.13
875.939	14480.03
876.258	14376.3
876.577	14366.13
876.896	14398
877.214	14350.09
877.533	14341.28
877.852	14341.28
878.17	14353.93
878.489	14321.39
878.807	14408.84
879.125	14316.64
879.444	14343.76
879.762	14262.86
880.08	14291.79
880.398	14218.57
880.716	14245.01
881.034	14139.02
881.352	14187.16
881.67	14099.93
881.988	14030.1
882.306	14134.28
882.624	14116.42
882.941	14028.97
883.259	14043.43
883.577	13994.39
883.894	13876.2
884.212	13870.55
884.529	13946.48
884.846	13770.44
885.164	13840.05
885.481	13797.79
885.798	13797.56
886.115	13720.73
886.432	13754.62
886.75	13700.61
887.067	13764.79
887.383	13584.46
887.7	13661.97
888.017	13581.3
888.334	13551.69
888.651	13510.34
888.967	13529.32
889.284	13455.65
889.6	13428.31
889.917	13388.53
890.233	13383.33
890.55	13356.67
890.866	13261.76
891.182	13306.27
891.498	13264.02
891.815	13243.68
892.131	13123.23
892.447	13087.75
892.763	12987.41
893.079	13081.87
893.395	12977.24
893.71	12940.18
894.026	12896.79
894.342	12879.17
894.657	12799.62
894.973	12805.72
895.289	12824.03
895.604	12755.78
895.92	12643.92
896.235	12622.45
896.55	12596.69
896.865	12519.85
897.181	12357.37
897.496	12435.34
897.811	12286.64
898.126	12333.19
898.441	12210.03
898.756	12210.94
899.071	12133.65
899.386	12154.44
899.7	11992.64
900.015	11973.43
900.33	11879.87
900.644	11885.29
900.959	11824.28
901.273	11743.15
901.588	11653.21
901.902	11610.95
902.216	11545.19
902.531	11611.18
902.845	11442.14
903.159	11451.18
903.473	11398.3
903.787	11329.38
904.101	11329.38
904.415	11279.89
904.729	11231.98
905.042	11182.94
905.356	11084.86
905.67	11063.17
905.984	11038.76
906.297	11020.46
906.611	10868.15
906.924	10846.23
907.237	10836.28
907.551	10805.55
907.864	10747.47
908.177	10722.39
908.491	10683.07
908.804	10595.16
909.117	10547.25
909.43	10460.93
909.743	10386.13
910.056	10395.84
910.368	10341.61
910.681	10273.13
910.994	10218.9
911.307	10184.32
911.619	10170.99
911.932	10135.51
912.244	10113.14
912.557	10101.39
912.869	9951.56
913.181	10031.33
913.494	9975.74
913.806	9886.03
914.118	9792.69
914.43	9809.87
914.742	9742.53
915.054	9674.51
915.366	9683.54
915.678	9602.19
915.99	9590.21
916.302	9534.62
916.613	9474.51
916.925	9401.07
917.236	9466.15
917.548	9449.88
917.859	9425.7
918.171	9376.66
918.482	9213.5
918.794	9216.44
919.105	9278.36
919.416	9170.56
919.727	9108.19
920.038	9157.91
920.349	9048.08
920.66	9001.53
920.971	8961.76
921.282	8938.25
921.593	8888.76
921.903	8870.68
922.214	8842.66
922.525	8833.62
922.835	8755.89
923.146	8702.55
923.456	8754.53
923.767	8670.01
924.077	8652.84
924.387	8598.15
924.697	8537.59
925.008	8522.45
925.318	8514.76
925.628	8460.98
925.938	8442.22
926.248	8365.16
926.558	8292.62
926.867	8258.27
927.177	8185.28
927.487	8233.19
927.796	8209.23
928.106	8160.87
928.416	8131.27
928.725	8052.18
929.034	8074.32
929.344	8096.24
929.653	8021.22
929.962	7955.68
930.271	7945.29
930.581	7924.04
930.89	7864.84
931.199	7877.49
931.508	7830.94
931.817	7812.63
932.125	7807.21
932.434	7711.39
932.743	7700.55
933.051	7612.64
933.36	7599.31
933.669	7553.43
933.977	7530.38
934.286	7590.72
934.594	7475.47
934.902	7468.46
935.21	7449.25
935.519	7412.19
935.827	7360.22
936.135	7377.84
936.443	7249.94
936.751	7259.43
937.059	7240.67
937.367	7193.67
937.674	7125.87
937.982	7174.23
938.29	7115.48
938.597	7089.04
938.905	7007.23
939.213	7002.26
939.52	6961.81
939.827	7004.97
940.135	6939.66
940.442	6921.81
940.749	6938.76
941.056	6947.35
941.363	6828.7
941.67	6820.34
941.977	6767.92
942.284	6720.91
942.591	6689.05
942.898	6702.83
943.205	6633.68
943.511	6611.99
943.818	6650.18
944.125	6550.75
944.431	6517.75
944.738	6505.78
945.044	6540.12
945.35	6412.9
945.657	6429.17
945.963	6395.72
946.269	6369.96
946.575	6378.32
946.881	6362.28
947.187	6311.2
947.493	6275.5
947.799	6264.88
948.105	6230.08
948.41	6185.33
948.716	6146.01
949.022	6157.08
949.327	6161.15
949.633	6063.75
949.938	6067.82
950.244	6046.8
950.549	5999.35
950.854	5941.5
951.16	5942.4
951.465	5907.15
951.77	5852.46
952.075	5878
952.38	5795.96
952.685	5864.66
952.99	5803.87
953.294	5762.97
953.599	5704.44
953.904	5664.22
954.209	5642.3
954.513	5664.44
954.818	5645.01
955.122	5593.48
955.426	5580.6
955.731	5550.09
956.035	5524.33
956.339	5530.43
956.643	5470.55
956.948	5442.75
957.252	5376.54
957.556	5355.3
957.86	5410.21
958.163	5397.1
958.467	5365.01
958.771	5310.55
959.075	5318.46
959.378	5319.82
959.682	5278.24
959.985	5208.63
960.289	5169.99
960.592	5160.27
960.896	5156.66
961.199	5120.27
961.502	5137.9
961.805	5072.14
962.108	5037.57
962.411	4996.21
962.714	4993.5
963.017	4977.23
963.32	4948.3
963.623	4901.98
963.926	4967.51
964.228	4865.59
964.531	4862.43
964.833	4882.54
965.136	4843.67
965.438	4810.23
965.741	4817.68
966.043	4724.58
966.345	4716.22
966.648	4740.4
966.95	4731.13
967.252	4705.14
967.554	4632.38
967.856	4712.83
968.158	4615.88
968.46	4623.79
968.761	4616.56
969.063	4632.6
969.365	4543.79
969.666	4534.98
969.968	4491.36
970.269	4475.77
970.571	4460.86
970.872	4457.92
971.174	4436.9
971.475	4376.11
971.776	4389.9
972.077	4323.46
972.378	4351.03
972.679	4336.57
972.98	4321.88
973.281	4248.66
973.582	4294.53
973.883	4216.34
974.183	4212.95
974.484	4227.64
974.785	4203.24
975.085	4132.05
975.386	4170.92
975.686	4115.78
975.986	4104.48
976.287	4113.75
976.587	4034.2
976.887	4019.74
977.187	3980.64
977.487	3954.43
977.787	3958.95
978.087	3984.94
978.387	3970.47
978.687	3932.74
978.987	3878.73
979.286	3890.7
979.586	3900.87
979.885	3833.98
980.185	3810.25
980.484	3803.25
980.784	3801.67
981.083	3779.52
981.382	3729.8
981.682	3708.11
981.981	3735
982.28	3645.51
982.579	3718.96
982.878	3702.46
983.177	3606.19
983.475	3643.25
983.774	3589.47
984.073	3554.67
984.372	3565.51
984.67	3558.73
984.969	3540.66
985.267	3507.89
985.566	3470.83
985.864	3478.28
986.162	3441.68
986.461	3451.39
986.759	3437.38
987.057	3395.8
987.355	3414.11
987.653	3417.49
987.951	3399.19
988.249	3399.87
988.547	3340.89
988.844	3359.42
989.142	3320.32
989.44	3313.99
989.737	3309.02
990.035	3254.11
990.332	3286.88
990.63	3262.92
990.927	3257.95
991.224	3202.81
991.521	3201.46
991.819	3222.92
992.116	3165.07
992.413	3134.56
992.71	3120.78
993.006	3136.37
993.303	3132.53
993.6	3099.54
993.897	3098.18
994.193	3052.31
994.49	3012.76
994.787	3049.37
995.083	2988.35
995.379	2956.04
995.676	2990.39
995.972	2977.05
996.268	2979.31
996.565	2946.32
996.861	2932.54
997.157	2892.76
997.453	2877.17
997.749	2845.76
998.044	2835.36
998.34	2844.18
998.636	2854.57
998.932	2807.79
999.227	2777.06
999.523	2796.72
999.818	2770.51
1000.114	2742.71
1000.409	2756.5
1000.704	2723.5
1001	2741.81
1001.295	2702.94
1001.59	2677.85
1001.885	2672.88
1002.18	2635.82
1002.475	2677.18
1002.77	2618.65
1003.065	2639.44
1003.359	2606.44
1003.654	2594.69
1003.949	2577.29
1004.243	2559.21
1004.538	2551.08
1004.832	2560.12
1005.127	2540.91
1005.421	2501.81
1005.715	2490.29
1006.009	2455.26
1006.304	2442.83
1006.598	2439.44
1006.892	2457.52
1007.186	2402.38
1007.48	2397.41
1007.773	2384.53
1008.067	2384.3
1008.361	2364.19
1008.655	2352.89
1008.948	2322.16
1009.242	2352.66
1009.535	2340.01
1009.829	2295.49
1010.122	2303.85
1010.415	2265.66
1010.708	2241.71
1011.001	2239.45
1011.295	2220.69
1011.588	2227.24
1011.881	2199.45
1012.173	2211.88
1012.466	2160.35
1012.759	2159.9
1013.052	2175.27
1013.344	2162.84
1013.637	2144.99
1013.93	2170.07
1014.222	2111.09
1014.514	2116.74
1014.807	2107.92
1015.099	2093.69
1015.391	2097.98
1015.683	2077.19
1015.976	2010.3
1016.268	2001.49
1016.56	2002.84
1016.851	1998.1
1017.143	2011.88
1017.435	1981.37
1017.727	1993.58
1018.018	1974.37
1018.31	1926.23
1018.602	1912.22
1018.893	1952.67
1019.185	1915.39
1019.476	1884.43
1019.767	1865.22
1020.058	1868.61
1020.35	1847.14
1020.641	1824.54
1020.932	1845.78
1021.223	1820.93
1021.514	1779.35
1021.804	1795.16
1022.095	1777.31
1022.386	1763.98
1022.677	1748.61
1022.967	1752.68
1023.258	1714.04
1023.548	1703.64
1023.839	1702.51
1024.129	1686.47
1024.419	1667.03
1024.709	1646.69
1025	1654.83
1025.29	1642.63
1025.58	1639.91
1025.87	1604.89
1026.16	1621.61
1026.449	1609.86
1026.739	1626.13
1027.029	1586.58
1027.319	1580.48
1027.608	1563.08
1027.898	1535.51
1028.187	1533.7
1028.477	1511.33
1028.766	1521.95
1029.055	1510.2
1029.344	1476.53
1029.634	1490.09
1029.923	1469.3
1030.212	1465.91
1030.501	1474.95
1030.79	1421.16
1031.078	1429.98
1031.367	1445.57
1031.656	1384.55
1031.945	1390.88
1032.233	1382.97
1032.522	1383.88
1032.81	1367.15
1033.099	1340.71
1033.387	1340.49
1033.675	1336.19
1033.963	1332.35
1034.251	1342.52
1034.54	1301.17
1034.828	1284.9
1035.116	1290.55
1035.403	1281.05
1035.691	1265.24
1035.979	1253.71
1036.267	1270.88
1036.554	1248.29
1036.842	1233.37
1037.129	1201.73
1037.417	1208.97
1037.704	1197.89
1037.992	1218.68
1038.279	1186.82
1038.566	1186.82
1038.853	1186.82
1039.14	1186.82
