Data from white_wall_FLMS001491_009.txt Node
Date: Tue Feb 07 11:03:12 GMT 2017
User: dcchb
Spectrometer: FLMS00149
Trigger mode: 0
Integration Time (sec): 2.000000E-2
Scans to average: 10
Electric dark correction enabled: true
Nonlinearity correction enabled: false
Boxcar width: 0
XAxis mode: Wavelengths
Number of Pixels in Spectrum: 2048
>>>>>Begin Spectral Data<<<<<
341.393	-24.69
341.776	-24.69
342.16	-24.69
342.543	-57
342.927	-54.07
343.31	-79.83
343.693	-62.88
344.077	-53.61
344.46	-56.78
344.843	-54.74
345.226	-48.42
345.61	-49.55
345.993	-26.04
346.376	-10.68
346.759	-6.16
347.142	13.73
347.525	51.47
347.908	76.33
348.291	89.21
348.674	104.12
349.057	113.84
349.44	113.39
349.823	147.96
350.206	167.4
350.588	234.06
350.971	248.98
351.354	241.75
351.737	246.26
352.119	257.79
352.502	299.37
352.884	308.41
353.267	305.25
353.65	309.54
354.032	316.55
354.414	339.37
354.797	354.28
355.179	347.28
355.562	337.34
355.944	340.73
356.326	334.4
356.709	363.1
357.091	355.19
357.473	354.51
357.855	385.47
358.238	371.69
358.62	369.65
359.002	372.59
359.384	357
359.766	353.38
360.148	351.8
360.53	379.14
360.912	345.25
361.294	371.46
361.676	365.36
362.057	360.61
362.439	361.29
362.821	348.41
363.203	349.54
363.584	364
363.966	369.65
364.348	354.06
364.729	363.78
365.111	360.84
365.493	356.77
365.874	362.42
366.256	342.99
366.637	355.64
367.019	340.27
367.4	348.41
367.781	357
368.163	359.03
368.544	319.26
368.925	325.58
369.306	349.09
369.688	342.99
370.069	350.67
370.45	330.1
370.831	338.92
371.212	349.76
371.593	347.96
371.974	354.06
372.355	337.34
372.736	335.53
373.117	352.02
373.498	355.64
373.879	347.73
374.26	353.61
374.641	375.53
375.021	341.18
375.402	373.49
375.783	354.06
376.163	383.44
376.544	394.51
376.925	381.85
377.305	356.09
377.686	399.71
378.066	375.53
378.447	380.95
378.827	360.39
379.208	364.45
379.588	360.39
379.968	345.25
380.349	383.66
380.729	385.02
381.109	386.83
381.489	390.89
381.87	394.51
382.25	398.8
382.63	390.89
383.01	381.63
383.39	402.19
383.77	418.69
384.15	402.19
384.53	413.04
384.91	415.3
385.29	430.21
385.67	408.97
386.049	428.86
386.429	422.76
386.809	441.29
387.189	422.31
387.568	424.34
387.948	417.56
388.328	424.34
388.707	447.39
389.087	451.91
389.466	458.91
389.846	458.46
390.225	466.15
390.605	462.76
390.984	463.89
391.363	468.63
391.743	466.82
392.122	492.13
392.501	476.32
392.881	500.95
393.26	515.64
393.639	532.13
394.018	525.35
394.397	509.99
394.776	536.43
395.155	544.56
395.534	536.88
395.913	550.44
396.292	578.91
396.671	580.27
397.05	573.26
397.429	585.46
397.808	586.59
398.186	603.32
398.565	624.56
398.944	621.85
399.323	636.99
399.701	639.47
400.08	663.65
400.458	658.01
400.837	679.93
401.215	700.49
401.594	710.66
401.972	719.47
402.351	718.34
402.729	747.95
403.107	760.6
403.486	768.28
403.864	747.49
404.242	793.37
404.62	799.7
404.999	795.63
405.377	817.55
405.755	845.12
406.133	860.26
406.511	878.56
406.889	924.21
407.267	906.81
407.645	937.32
408.023	956.08
408.401	970.31
408.779	976.64
409.156	956.3
409.534	1001.05
409.912	1046.7
410.29	1026.36
410.667	1065.68
411.045	1075.17
411.422	1106.58
411.8	1100.48
412.178	1114.72
412.555	1165.56
412.933	1154.72
413.31	1201.27
413.687	1236.97
414.065	1222.96
414.442	1231.78
414.819	1240.81
415.197	1282.85
415.574	1305.45
415.951	1295.95
416.328	1332.34
416.705	1311.1
417.082	1363.3
417.46	1376.18
417.837	1393.13
418.214	1400.81
418.591	1424.31
418.967	1427.48
419.344	1449.62
419.721	1503.18
420.098	1469.06
420.475	1505.44
420.852	1532.11
421.228	1521.94
421.605	1561.03
421.982	1558.09
422.358	1589.28
422.735	1589.05
423.111	1603.52
423.488	1615.27
423.864	1604.65
424.241	1656.17
424.617	1683.97
424.994	1691.2
425.37	1720.35
425.746	1732.55
426.123	1740.01
426.499	1762.84
426.875	1787.92
427.251	1808.48
427.627	1885.77
428.003	1892.32
428.379	1900.23
428.756	1933
429.132	1974.81
429.507	1965.77
429.883	1987.46
430.259	2052.77
430.635	2038.99
431.011	2104.52
431.387	2113.33
431.763	2158.08
432.138	2158.98
432.514	2205.99
432.89	2205.31
433.265	2281.01
433.641	2295.7
434.016	2304.06
434.392	2368.02
434.767	2386.55
435.143	2408.47
435.518	2456.83
435.894	2458.41
436.269	2479.65
436.644	2516.71
437.02	2557.62
437.395	2543.61
437.77	2614.79
438.145	2632.64
438.52	2664.73
438.895	2706.99
439.271	2724.62
439.646	2773.43
440.021	2788.12
440.395	2818.85
440.77	2819.98
441.145	2859.53
441.52	2882.81
441.895	2889.36
442.27	2926.42
442.645	2921.9
443.019	2970.94
443.394	2976.81
443.769	3004.16
444.143	3034.67
444.518	3062.91
444.892	3043.48
445.267	3088.22
445.641	3147.88
446.016	3127.77
446.39	3173.42
446.764	3177.49
447.139	3159.86
447.513	3208.9
447.887	3263.13
448.262	3285.73
448.636	3293.42
449.01	3330.7
449.384	3373.19
449.758	3405.96
450.132	3416.8
450.506	3482.11
450.88	3481.89
451.254	3476.01
451.628	3572.28
452.002	3642.11
452.376	3648.89
452.75	3686.63
453.123	3719.39
453.497	3767.53
453.871	3761.88
454.244	3852.5
454.618	3923.91
454.992	3989.44
455.365	3962.55
455.739	4077.12
456.112	4106.95
456.486	4142.66
456.859	4194.41
457.232	4275.99
457.606	4240.74
457.979	4340.39
458.352	4418.81
458.725	4483.22
459.099	4500.39
459.472	4579.03
459.845	4680.5
460.218	4660.61
460.591	4726.15
460.964	4725.02
461.337	4850.66
461.71	4958.91
462.083	5044.33
462.456	5008.17
462.829	5042.3
463.201	5154.16
463.574	5216.53
463.947	5243.87
464.32	5384.43
464.692	5452.91
465.065	5460.14
465.438	5591.43
465.81	5668.27
466.183	5723.86
466.555	5871.2
466.928	5912.56
467.3	5844.99
467.672	5987.58
468.045	6128.14
468.417	6160.69
468.789	6176.96
469.161	6390.28
469.534	6363.17
469.906	6497.63
470.278	6637.96
470.65	6674.12
471.022	6814.23
471.394	6982.58
471.766	7057.16
472.138	7113.65
472.51	7267.55
472.882	7361.78
473.253	7398.17
473.625	7606.3
473.997	7748.89
474.369	7832.51
474.74	7935.33
475.112	8082.44
475.484	8201.08
475.855	8345.03
476.227	8460.06
476.598	8585.93
476.97	8752.03
477.341	8976.66
477.713	9067.95
478.084	9151.34
478.455	9433.59
478.827	9467.94
479.198	9736.64
479.569	9709.07
479.94	10046.68
480.311	10161.03
480.682	10396.96
481.053	10597.4
481.424	10730.96
481.795	10896.38
482.166	11085.75
482.537	11316.48
482.908	11488.23
483.279	11632.86
483.65	11944.49
484.021	12145.16
484.391	12257.7
484.762	12321.88
485.133	12462.89
485.503	12634.87
485.874	12962.77
486.244	13044.12
486.615	13326.82
486.985	13440.72
487.356	13742.63
487.726	13769.07
488.097	14102.17
488.467	14190.98
488.837	14499.22
489.207	14712.78
489.578	14844.52
489.948	15010.85
490.318	15390.27
490.688	15256.49
491.058	15572.42
491.428	15853.54
491.798	15954.78
492.168	16348.89
492.538	16278.84
492.908	16602.67
493.278	16781.65
493.648	16837.01
494.017	17183.45
494.387	17259.83
494.757	17480.39
495.126	17602.19
495.496	17710.66
495.866	17841.28
496.235	17987.72
496.605	18235.62
496.974	18294.6
497.344	18534.82
497.713	18692.11
498.082	18819.56
498.452	19009.39
498.821	19191.3
499.19	19233.34
499.559	19441.47
499.928	19606.89
500.298	19738.41
500.667	19948.12
501.036	19951.51
501.405	20142.24
501.774	20248.22
502.143	20447.99
502.512	20588.1
502.88	20606.86
503.249	20717.14
503.618	20987.41
503.987	21146.51
504.356	21182.44
504.724	21270.34
505.093	21433.73
505.462	21666.27
505.83	21897.45
506.199	21975.86
506.567	22354.38
506.936	22354.16
507.304	22618.56
507.672	22692.45
508.041	22796.18
508.409	23049.28
508.777	23200.01
509.145	23373.79
509.514	23484.07
509.882	23589.15
510.25	23756.16
510.618	24017.39
510.986	24072.53
511.354	24369.02
511.722	24479.75
512.09	24759.29
512.458	24792.96
512.826	24942.79
513.193	25211.48
513.561	25320.86
513.929	25556.79
514.297	25754.75
514.664	25958.58
515.032	26074.29
515.4	26455.97
515.767	26441.51
516.135	26570.32
516.502	26527.83
516.869	27083.3
517.237	27112.68
517.604	27066.12
517.972	27355.38
518.339	27692.55
518.706	27725.54
519.073	27914.24
519.44	28172.08
519.808	28485.3
520.175	28448.46
520.542	28931.84
520.909	28937.94
521.276	29024.72
521.643	29362.11
522.009	29584.25
522.376	29757.13
522.743	29970
523.11	30200.51
523.477	30505.81
523.843	30651.79
524.21	31154.83
524.577	31245.9
524.943	31349.4
525.31	31517.08
525.676	31920.23
526.043	32093.34
526.409	32286.33
526.776	32628.92
527.142	32609.26
527.508	32946.65
527.874	33152.74
528.241	33401.78
528.607	33472.74
528.973	33761.32
529.339	33774.2
529.705	34142.1
530.071	34255.99
530.437	34459.15
530.803	34712.48
531.169	34950.89
531.535	34891.23
531.901	35192.69
532.267	35495.96
532.632	35518.56
532.998	35594.04
533.364	35855.72
533.73	36118.99
534.095	36247.8
534.461	36390.63
534.826	36514.46
535.192	36736.6
535.557	37062.7
535.923	36935.24
536.288	37009.59
536.653	37285.06
537.019	37291.17
537.384	37511.95
537.749	37780.87
538.114	37933.86
538.479	37914.88
538.845	38157.81
539.21	38109.22
539.575	38313.74
539.94	38476.22
540.305	38715.99
540.67	38778.81
541.034	38816.32
541.399	39191.91
541.764	39108.52
542.129	39311
542.494	39522.97
542.858	39644.78
543.223	39586.7
543.587	40020.81
543.952	40051.09
544.316	40290.64
544.681	40026.69
545.045	40458.54
545.41	40511.87
545.774	40665.31
546.138	40844.75
546.503	41020.79
546.867	41077.51
547.231	41384.39
547.595	41368.35
547.959	41508.46
548.324	41758.85
548.688	41858.05
549.052	42141.21
549.416	42089.91
549.779	42170.13
550.143	42418.26
550.507	42691.25
550.871	42763.11
551.235	42794.07
551.599	43128.75
551.962	43425.47
552.326	43357
552.689	43638.34
553.053	43579.81
553.417	43711.79
553.78	44279.23
554.143	44081.95
554.507	44372.79
554.87	44452.33
555.234	44992.88
555.597	44655.27
555.96	45020.68
556.323	45176.16
556.686	45425.19
557.05	45694.34
557.413	45898.85
557.776	45878.96
558.139	46272.4
558.502	46369.35
558.865	46407.99
559.228	46698.38
559.59	46903.34
559.953	46995.77
560.316	47304.01
560.679	47276.44
561.041	47649.76
561.404	47743.09
561.767	48125.46
562.129	47961.85
562.492	48351.67
562.854	48376.3
563.217	48485
563.579	48564.77
563.941	48879.11
564.304	49107.8
564.666	49220.34
565.028	49392.09
565.39	49480
565.753	49743.04
566.115	49770.16
566.477	49936.94
566.839	50089.93
567.201	50293.31
567.563	50335.34
567.925	50576.69
568.287	50586.86
568.648	50621.44
569.01	50839.06
569.372	51124.93
569.734	51042.22
570.095	51190.46
570.457	51354.07
570.819	51439.72
571.18	51421.87
571.542	51605.37
571.903	51717.45
572.265	51839.71
572.626	51952.48
572.987	51980.72
573.349	52019.37
573.71	52211.45
574.071	52272.47
574.432	52348.62
574.794	52632.68
575.155	52646.69
575.516	52443.31
575.877	52699.8
576.238	52725.34
576.599	52857.54
576.96	52887.14
577.32	52916.97
577.681	53021.15
578.042	53096.85
578.403	53173.01
578.763	53133.46
579.124	53105.21
579.485	53224.98
579.845	53358.99
580.206	53290.29
580.566	53285.55
580.927	53292.1
581.287	53413.68
581.648	53376.85
582.008	53490.06
582.368	53562.38
582.728	53573
583.089	53463.17
583.449	53420.46
583.809	53546.56
584.169	53581.13
584.529	53486.9
584.889	53712.43
585.249	53454.58
585.609	53525.99
585.969	53735.71
586.329	53566.9
586.688	53632.43
587.048	53655.03
587.408	53567.57
587.768	53628.14
588.127	53693.45
588.487	53658.42
588.846	53786.78
589.206	53642.6
589.565	53664.3
589.925	53818.42
590.284	53703.62
590.643	53694.12
591.003	53824.06
591.362	53796.27
591.721	53803.73
592.08	53834.23
592.44	53844.63
592.799	53975.25
593.158	53726.67
593.517	53827.23
593.876	53925.31
594.235	53796.5
594.593	53889.15
594.952	53901.8
595.311	53775.7
595.67	53881.46
596.029	53987.9
596.387	54013.66
596.746	54048.47
597.104	53843.95
597.463	53909.71
597.822	54101.8
598.18	53935.02
598.538	53946.77
598.897	54134.57
599.255	53914.23
599.613	54368.68
599.972	54110.16
600.33	54166.88
600.688	54111.97
601.046	54228.35
601.404	54380.43
601.762	54219.08
602.12	54380.89
602.478	54326.42
602.836	54415.91
603.194	54226.99
603.552	54288.91
603.91	54208.24
604.268	54334.79
604.625	54279.65
604.983	54423.37
605.341	54209.82
605.698	54466.53
606.056	54479.41
606.413	54456.59
606.771	54542.69
607.128	54603.93
607.485	54492.52
607.843	54634.67
608.2	54739.07
608.557	54776.13
608.914	54684.61
609.272	54858.61
609.629	54897.26
609.986	55034.88
610.343	54874.88
610.7	55084.14
611.057	54977.48
611.414	54907.65
611.771	55014.54
612.127	55037.59
612.484	55103.13
612.841	55157.14
613.198	55050.25
613.554	55044.37
613.911	55231.26
614.267	55248.89
614.624	55283.91
614.98	55259.06
615.337	55424.02
615.693	55351.71
616.05	55285.04
616.406	55572.27
616.762	55447.07
617.118	55434.87
617.475	55443.23
617.831	55451.82
618.187	55579.73
618.543	55630.57
618.899	55779.04
619.255	55705.15
619.611	55594.19
619.967	55704.47
620.323	55753.96
620.678	55577.69
621.034	55555.32
621.39	55545.38
621.746	55611.81
622.101	55959.6
622.457	55706.73
622.812	55753.96
623.168	55743.11
623.523	55751.02
623.879	55889.1
624.234	55657.46
624.589	55778.14
624.945	55874.63
625.3	55816.33
625.655	55790.57
626.01	55836.22
626.365	55866.5
626.72	55819.27
627.075	55819.49
627.43	55754.41
627.785	55693.17
628.14	55760.06
628.495	55748.08
628.85	55745.6
629.205	55624.7
629.559	55803.22
629.914	55742.66
630.269	55726.61
630.623	55558.71
630.978	55497.47
631.332	55727.07
631.687	55762.77
632.041	55632.38
632.396	55637.58
632.75	55387.19
633.104	55567.75
633.459	55426.73
633.813	55525.04
634.167	55484.36
634.521	55377.47
634.875	55396.23
635.229	55398.49
635.583	55270.58
635.937	55356.68
636.291	55261.09
636.645	55289.11
636.999	55171.37
637.352	55307.19
637.706	55097.7
638.06	55212.96
638.413	55020.64
638.767	54997.82
639.121	55131.83
639.474	54889.8
639.828	54890.7
640.181	54904.49
640.534	54902.68
640.888	54864.26
641.241	54745.62
641.594	54810.48
641.947	54879.86
642.301	54772.06
642.654	54742.68
643.007	54717.83
643.36	54796.24
643.713	54676.47
644.066	54704.72
644.419	54574.55
644.771	54334.56
645.124	54053.44
645.477	53988.58
645.83	53888.47
646.182	53697.74
646.535	53654.8
646.888	53738.64
647.24	53573.68
647.593	53666.1
647.945	53608.25
648.298	53421.36
648.65	53433.11
649.002	53375.26
649.355	53435.15
649.707	53464.3
650.059	53548.37
650.411	53949.49
650.763	53864.74
651.115	54166.2
651.467	54050.5
651.819	54048.47
652.171	53989.94
652.523	53793.78
652.875	53899.32
653.227	53832.65
653.578	54019.99
653.93	53990.61
654.282	53879.66
654.633	53772.54
654.985	53801.92
655.337	53758.3
655.688	53713.79
656.039	53821.13
656.391	53588.14
656.742	53667.23
657.094	53671.3
657.445	53707.23
657.796	53571.19
658.147	53560.34
658.498	53603.28
658.849	53621.81
659.2	53535.71
659.551	53567.35
659.902	53644.41
660.253	53557.63
660.604	53558.08
660.955	53469.95
661.306	53559.21
661.656	53479.89
662.007	53502.49
662.358	53391.53
662.708	53435.83
663.059	53354.47
663.409	53255.27
663.76	53400.57
664.11	53313.34
664.461	53431.98
664.811	53390.63
665.161	53358.54
665.511	53201.26
665.862	53274.93
666.212	53336.62
666.562	53373.23
666.912	53271.31
667.262	53171.43
667.612	53160.35
667.962	53143.4
668.312	53180.92
668.662	53293.23
669.011	53238.77
669.361	53136.4
669.711	53073.12
670.06	52939.79
670.41	53006.91
670.76	52957.65
671.109	53099.11
671.459	53023.41
671.808	52960.58
672.157	53019.79
672.507	52812.79
672.856	52806.01
673.205	52883.07
673.554	52950.19
673.904	52712.23
674.253	52877.65
674.602	52697.54
674.951	52297.33
675.3	52098.23
675.649	52602.18
675.998	52577.32
676.346	52606.7
676.695	52667.26
677.044	52485.8
677.393	52547.94
677.741	52628.62
678.09	52473.59
678.438	52324.44
678.787	52375.52
679.135	52460.49
679.484	52121.06
679.832	52295.07
680.181	52139.36
680.529	52225.69
680.877	52157.22
681.225	52142.98
681.573	52282.41
681.922	51965.81
682.27	51910.22
682.618	51972.59
682.966	51882.87
683.314	51810.78
683.661	51712.48
684.009	51531.02
684.357	51523.33
684.705	51519.04
685.053	51434.75
685.4	51320.18
685.748	51220.07
686.095	51235.66
686.443	51097.13
686.79	51089.45
687.138	51173.51
687.485	51129.67
687.832	50928.32
688.18	51027.3
688.527	50835.89
688.874	50818.27
689.221	50742.11
689.568	50598.39
689.915	50427.32
690.262	50469.12
690.609	50382.8
690.956	50337.83
691.303	50313.65
691.65	50094.45
691.997	50060.32
692.344	49776.49
692.69	49776.49
693.037	49712.08
693.383	49444.52
693.73	49621.24
694.077	49266.44
694.423	49306.44
694.769	49201.36
695.116	49116.62
695.462	49105.54
695.808	48885.44
696.155	49018.54
696.501	48685.67
696.847	48764.54
697.193	48468.73
697.539	48649.29
697.885	48267.37
698.231	48154.38
698.577	48216.3
698.923	48117.32
699.269	47956.42
699.614	47755.3
699.96	47764.56
700.306	47721.17
700.651	47602.76
700.997	47553.5
701.342	47326.61
701.688	47325.48
702.033	47233.96
702.379	47169.1
702.724	47083
703.069	47106.5
703.415	46745.16
703.76	46597.81
704.105	46712.16
704.45	46586.74
704.795	46298.84
705.14	46291.16
705.485	46227.2
705.83	45936.81
706.175	46058.62
706.52	45913.54
706.865	45749.48
707.209	45701.57
707.554	45542.25
707.899	45826.08
708.243	45564.85
708.588	45419.54
708.932	45167.34
709.277	45225.87
709.621	45246.44
709.966	45065.88
710.31	45048.7
710.654	44613.23
710.998	44868.59
711.342	44771.2
711.687	44614.36
712.031	44392.45
712.375	44331.43
712.719	44456.18
713.063	44259.57
713.407	44445.1
713.75	44075.62
714.094	44122.85
714.438	43874.95
714.782	44031.1
715.125	43778.23
715.469	43868.17
715.812	43700.49
716.156	43469.99
716.499	43363.78
716.843	43435.86
717.186	43223.89
717.53	43357
717.873	43284.46
718.216	43307.96
718.559	43211.01
718.902	42738.93
719.246	43003.11
719.589	42732.83
719.932	42599.73
720.275	42754.3
720.617	42477.24
720.96	42594.08
721.303	42660.74
721.646	42503.23
721.989	42307.53
722.331	42357.25
722.674	42311.6
723.016	42296.01
723.359	42121.32
723.701	42173.98
724.044	41883.81
724.386	41701.9
724.729	41980.31
725.071	41743.25
725.413	41790.71
725.755	41723.82
726.097	41535.35
726.439	41387.1
726.782	41385.97
727.124	41518.17
727.465	41180.56
727.807	41308.69
728.149	41134.23
728.491	41081.8
728.833	41185.08
729.175	40961.13
729.516	40906.66
729.858	40965.65
730.199	41020.11
730.541	40687.69
730.882	40695.6
731.224	40781.24
731.565	40424.42
731.906	40493.12
732.248	40658.76
732.589	40330.86
732.93	40323.85
733.271	40256.96
733.612	40338.09
733.953	40302.84
734.294	40176.97
734.635	39923.64
734.976	40127.93
735.317	39960.7
735.658	39903.08
735.999	39958.21
736.339	39807.26
736.68	39814.72
737.021	39831.21
737.361	39533.82
737.702	39739.92
738.042	39606.13
738.383	39503.09
738.723	39620.6
739.063	39360.72
739.404	39285.46
739.744	39255.63
740.084	39090.67
740.424	39200.27
740.764	39174.28
741.104	39229.87
741.444	39014.06
741.784	38841.63
742.124	39016.54
742.464	38849.32
742.804	38706.72
743.143	38555.77
743.483	38678.25
743.823	38492.04
744.162	38507.41
744.502	38460.18
744.841	38283
745.181	38418.37
745.52	38227.86
745.86	38123.01
746.199	38206.17
746.538	38150.58
746.877	38299.05
747.216	38064.03
747.556	37954.65
747.895	37964.14
748.234	37793.07
748.573	37580.2
748.911	37525.96
749.25	37449.13
749.589	37350.6
749.928	37449.81
750.267	37417.26
750.605	37400.54
750.944	37222.47
751.283	37127.33
751.621	37173.43
751.96	36937.28
752.298	37018.18
752.636	36857.96
752.975	36777.06
753.313	36660.9
753.651	36669.71
753.989	36663.16
754.327	36465.43
754.666	36258.43
755.004	36288.71
755.342	36317.41
755.679	36257.07
756.017	35943.41
756.355	36091.65
756.693	35937.3
757.031	35935.5
757.368	35775.73
757.706	35665.9
758.044	35641.94
758.381	35678.78
758.719	35574.6
759.056	35495.51
759.394	35345.23
759.731	35257.77
760.068	35169.41
760.405	34987.05
760.743	34834.73
761.08	34862.76
761.417	34826.37
761.754	34552.26
762.091	34528.08
762.428	34413.95
762.765	34041.53
763.102	34314.3
763.438	34102.78
763.775	33951.59
764.112	33879.28
764.449	34039.73
764.785	33822.56
765.122	33484.26
765.458	33493.75
765.795	33479.29
766.131	33376.47
766.467	33332.63
766.804	33065.06
767.14	32838.63
767.476	32901.23
767.812	32741.23
768.148	32821.91
768.485	32745.75
768.821	32400.45
769.157	32399.32
769.492	32346.66
769.828	32321.81
770.164	32045.43
770.5	31952.78
770.836	31985.09
771.171	31727.24
771.507	31793.01
771.842	31491.54
772.178	31519.57
772.513	31315.5
772.849	31122.52
773.184	31027.38
773.519	30974.04
773.855	30866.48
774.19	30753.03
774.525	30636.65
774.86	30623.77
775.195	30597.56
775.53	30308.53
775.865	30199.15
776.2	30123.67
776.535	29796.45
776.87	29838.93
777.205	29739.95
777.539	29582.67
777.874	29606.4
778.209	29534.31
778.543	29367.98
778.878	29199.63
779.212	29076.92
779.547	28950.59
779.881	28991.72
780.215	28853.42
780.55	28850.94
780.884	28935.23
781.218	28667.66
781.552	28591.51
781.886	28381.12
782.22	28212.31
782.554	28204.17
782.888	27942.49
783.222	27896.16
783.556	27667.46
783.889	27718.31
784.223	27429.05
784.557	27498.2
784.89	27427.7
785.224	27347.92
785.557	27100.47
785.891	27182.73
786.224	27086.91
786.558	27057.99
786.891	26773.02
787.224	26709.07
787.557	26529.87
787.891	26577.32
788.224	26478.57
788.557	26540.49
788.89	26483.54
789.223	26334.39
789.556	26119.48
789.888	26041.97
790.221	25907.51
790.554	25800.4
790.887	25745.26
791.219	25596.33
791.552	25519.72
791.884	25410.35
792.217	25441.31
792.549	25387.75
792.882	25102.33
793.214	25049.45
793.546	25145.95
793.879	24946.41
794.211	24865.73
794.543	24989.79
794.875	24826.86
795.207	24901.66
795.539	24644.49
795.871	24578.28
796.203	24409.25
796.535	24240.44
796.867	24332.41
797.198	24156.82
797.53	24114.56
797.862	23965.64
798.193	24099.65
798.525	23936.04
798.856	23901.46
799.188	23546.22
799.519	23600.9
799.85	23560.68
800.182	23451.98
800.513	23496.95
800.844	23249.28
801.175	23280.91
801.506	23254.93
801.837	23116.62
802.168	23096.74
802.499	22979.68
802.83	22879.57
803.161	22856.97
803.491	22680.03
803.822	22720.93
804.153	22743.98
804.483	22490.65
804.814	22443.2
805.145	22403.42
805.475	22266.02
805.805	22324.1
806.136	22341.73
806.466	22226.7
806.796	22159.81
807.126	22051.12
807.457	21932.47
807.787	21986.03
808.117	21824.23
808.447	21772.93
808.777	21770.67
809.107	21746.72
809.436	21695.19
809.766	21685.93
810.096	21522.54
810.426	21480.06
810.755	21544.01
811.085	21423.34
811.414	21403
811.744	21057.24
812.073	21117.58
812.403	21155.55
812.732	20926.17
813.061	21052.95
813.39	20863.58
813.719	20813.18
814.049	20969.34
814.378	20794.65
814.707	20759.4
815.036	20722.56
815.365	20589.46
815.693	20402.8
816.022	20471.27
816.351	20385.85
816.68	20179.98
817.008	20376.36
817.337	20137.95
817.665	20128
817.994	20175.91
818.322	20186.53
818.651	20028.8
818.979	19958.51
819.307	20032.86
819.636	20011.62
819.964	19869.93
820.292	19904.28
820.62	19828.35
820.948	19799.87
821.276	19881.68
821.604	19741.35
821.932	19794
822.259	19820.67
822.587	19755.58
822.915	19675.13
823.243	19863.6
823.57	19770.72
823.898	19756.49
824.225	19657.96
824.553	19656.83
824.88	19699.54
825.207	19678.07
825.535	19637.85
825.862	19664.51
826.189	19623.16
826.516	19699.09
826.843	19741.57
827.17	19809.37
827.497	19667.22
827.824	19731.4
828.151	19725.3
828.478	19713.55
828.805	19617.51
829.131	19577.96
829.458	19567.11
829.785	19511.75
830.111	19671.97
830.438	19647.56
830.764	19623.83
831.09	19698.63
831.417	19505.19
831.743	19651.18
832.069	19546.77
832.395	19441.24
832.722	19545.42
833.048	19542.48
833.374	19489.15
833.7	19394.24
834.026	19403.73
834.351	19452.31
834.677	19454.8
835.003	19468.36
835.329	19399.43
835.654	19335.93
835.98	19253
836.306	19295.93
836.631	19192.43
836.956	19291.41
837.282	19244.41
837.607	19161.25
837.932	19008.94
838.258	19081.25
838.583	19060.91
838.908	19025.88
839.233	19091.19
839.558	18977.98
839.883	18827.7
840.208	18795.38
840.533	18897.3
840.858	18948.6
841.182	18897.75
841.507	18751.99
841.832	18692.56
842.156	18616.18
842.481	18721.94
842.805	18645.1
843.13	18585.67
843.454	18563.3
843.778	18443.75
844.103	18502.28
844.427	18448.95
844.751	18541.15
845.075	18316.52
845.399	18371.66
845.723	18206.7
846.047	18173.93
846.371	18086.93
846.695	18051.9
847.019	17895.97
847.343	17852.58
847.666	17675.41
847.99	17655.52
848.313	17565.58
848.637	17534.85
848.96	17590.89
849.284	17450.56
849.607	17317.91
849.931	17235.87
850.254	17172.83
850.577	17048.76
850.9	16967.18
851.223	17086.95
851.546	16875.21
851.869	16757.47
852.192	16942.1
852.515	16679.5
852.838	16591.37
853.161	16663.46
853.483	16475.22
853.806	16441.09
854.129	16412.39
854.451	16423.01
854.774	16261.89
855.096	16260.08
855.419	16274.09
855.741	16111.38
856.063	16012.4
856.385	16035.68
856.708	15957.26
857.03	15916.36
857.352	15920.43
857.674	15918.62
857.996	15712.52
858.318	15696.03
858.64	15702.36
858.961	15654
859.283	15675.92
859.605	15441.12
859.926	15580.1
860.248	15512.3
860.57	15424.85
860.891	15406.54
861.212	15275.93
861.534	15321.12
861.855	15245.19
862.176	15251.75
862.498	15325.19
862.819	15270.73
863.14	15152.31
863.461	15134.01
863.782	15084.97
864.103	15044.97
864.424	15082.71
864.745	15105.08
865.065	14899.66
865.386	14828.48
865.707	14888.59
866.027	14932.88
866.348	14856.95
866.668	14842.72
866.989	14814.02
867.309	14665.09
867.63	14674.13
867.95	14700.8
868.27	14651.54
868.59	14667.13
868.91	14551.65
869.23	14508.49
869.55	14549.84
869.87	14621.03
870.19	14525.44
870.51	14503.29
870.83	14472.11
871.15	14392.33
871.469	14341.71
871.789	14369.74
872.109	14403.63
872.428	14293.35
872.748	14422.39
873.067	14288.38
873.386	14259.68
873.706	14184.43
874.025	14195.95
874.344	14214.26
874.663	14207.71
874.982	14207.48
875.301	14233.47
875.62	14124.77
875.939	14064.88
876.258	14074.6
876.577	14062.4
876.896	14034.38
877.214	14017.65
877.533	13952.8
877.852	14044.32
878.17	13889.3
878.489	14025.79
878.807	13895.62
879.125	13864.21
879.444	13932.01
879.762	13722.52
880.08	13786.47
880.398	13743.31
880.716	13656.53
881.034	13708.96
881.352	13727.49
881.67	13661.51
881.988	13653.82
882.306	13586.03
882.624	13510.1
882.941	13504.22
883.259	13438.23
883.577	13362.08
883.894	13396.2
884.212	13357.56
884.529	13271.91
884.846	13294.74
885.164	13295.19
885.481	13264.23
885.798	13363.43
886.115	13242.53
886.432	13241.18
886.75	13187.17
887.067	13167.73
887.383	13081.18
887.7	13067.4
888.017	12982.65
888.334	12994.63
888.651	13024.91
888.967	12901.07
889.284	12894.75
889.6	12855.42
889.917	12729.33
890.233	12857.23
890.55	12723.68
890.866	12687.29
891.182	12698.82
891.498	12633.74
891.815	12555.55
892.131	12532.27
892.447	12531.82
892.763	12493.4
893.079	12452.05
893.395	12389.45
893.71	12345.61
894.026	12248.66
894.342	12306.29
894.657	12139.06
894.973	12218.38
895.289	12176.35
895.604	12175.67
895.92	12062.9
896.235	11992.62
896.55	11956.47
896.865	11933.42
897.181	11922.12
897.496	11922.79
897.811	11826.75
898.126	11829.24
898.441	11752.63
898.756	11733.87
899.071	11588.34
899.386	11671.5
899.7	11494.33
900.015	11549.02
900.33	11481.45
900.644	11471.96
900.959	11504.5
901.273	11299.76
901.588	11321.91
901.902	11239.2
902.216	11165.3
902.531	11183.15
902.845	11150.61
903.159	11123.72
903.473	11045.3
903.787	11011.63
904.101	10932.76
904.415	10921.69
904.729	10877.62
905.042	10868.36
905.356	10891.86
905.67	10856.61
905.984	10826.1
906.297	10768.02
906.611	10637.63
906.924	10710.85
907.237	10634.24
907.551	10551.08
907.864	10539.33
908.177	10491.19
908.491	10470.85
908.804	10388.6
909.117	10263.63
909.43	10285.55
909.743	10237.19
910.056	10222.27
910.368	10265.21
910.681	10118.55
910.994	10109.96
911.307	10075.16
911.619	10053.92
911.932	10051.66
912.244	9923.07
912.557	9941.83
912.869	9877.65
913.181	9803.3
913.494	9798.1
913.806	9778.44
914.118	9697.54
914.43	9581.61
914.742	9648.96
915.054	9557.21
915.366	9500.26
915.678	9537.32
915.99	9420.71
916.302	9361.73
916.613	9339.13
916.925	9368.28
917.236	9301.17
917.548	9230.89
917.859	9301.39
918.171	9154.96
918.482	9112.25
918.794	9068.86
919.105	9030.21
919.416	9011.01
919.727	8994.28
920.038	8964
920.349	8893.95
920.66	8860.28
920.971	8840.62
921.282	8727.62
921.593	8708.42
921.903	8675.42
922.214	8673.84
922.525	8691.92
922.835	8597.91
923.146	8544.8
923.456	8571.92
923.767	8468.65
924.077	8542.32
924.387	8406.05
924.697	8399.5
925.008	8369.89
925.318	8319.72
925.628	8303.45
925.938	8246.73
926.248	8178.03
926.558	8211.03
926.867	8105.49
927.177	8129.22
927.487	8058.49
927.796	7936.68
928.106	7967.42
928.416	7955.67
928.725	7911.15
929.034	7876.57
929.344	7910.7
929.653	7832.96
929.962	7796.35
930.271	7727.65
930.581	7691.27
930.89	7646.3
931.199	7601.33
931.508	7572.4
931.817	7622.79
932.125	7548.9
932.434	7545.96
932.743	7458.73
933.051	7410.82
933.36	7398.17
933.669	7315.46
933.977	7265.06
934.286	7273.88
934.594	7291.5
934.902	7209.92
935.21	7176.25
935.519	7203.82
935.827	7152.07
936.135	7056.48
936.443	7061.68
936.751	7004.96
937.059	7072.53
937.367	6980.1
937.674	6995.24
937.982	6947.11
938.29	6885.86
938.597	6881.34
938.905	6785.53
939.213	6751.4
939.52	6743.5
939.827	6784.85
940.135	6678.86
940.442	6672.54
940.749	6633.89
941.056	6678.86
941.363	6585.31
941.67	6570.39
941.977	6499.89
942.284	6457.4
942.591	6449.27
942.898	6431.19
943.205	6431.86
943.511	6378.08
943.818	6387.57
944.125	6311.19
944.431	6255.6
944.738	6339.21
945.044	6233.9
945.35	6190.74
945.657	6195.03
945.963	6172.89
946.269	6113
946.575	6131.31
946.881	6055.83
947.187	6138.77
947.493	6051.08
947.799	6025.77
948.105	5972.44
948.41	5946
948.716	5938.09
949.022	5859.45
949.327	5860.81
949.633	5777.64
949.938	5819
950.244	5793.69
950.549	5769.74
950.854	5748.72
951.16	5739.23
951.465	5661.94
951.77	5623.98
952.075	5648.16
952.38	5571.1
952.685	5588.27
952.99	5546.24
953.294	5555.73
953.599	5486.13
953.904	5483.87
954.209	5423.08
954.513	5470.08
954.818	5400.25
955.122	5383.76
955.426	5400.71
955.731	5320.71
956.035	5333.14
956.339	5322.97
956.643	5277.54
956.948	5231.44
957.252	5211.11
957.556	5237.32
957.86	5199.81
958.163	5150.99
958.467	5137.66
958.771	5120.26
959.075	5134.95
959.378	5041.84
959.682	5037.1
959.985	5071.22
960.289	5032.35
960.592	5007.04
960.896	4951.23
961.199	4908.74
961.502	4937.89
961.805	4931.57
962.108	4883.43
962.411	4840.27
962.714	4824
963.017	4817.67
963.32	4764.56
963.623	4784.68
963.926	4751.01
964.228	4776.54
964.531	4692.93
964.833	4712.81
965.136	4670.56
965.438	4588.07
965.741	4632.14
966.043	4568.18
966.345	4576.77
966.648	4597.56
966.95	4572.7
967.252	4516.89
967.554	4534.97
967.856	4472.14
968.158	4440.28
968.46	4420.62
968.761	4412.71
969.063	4406.38
969.365	4388.3
969.666	4342.88
969.968	4367.29
970.269	4322.77
970.571	4322.99
970.872	4293.62
971.174	4207.52
971.475	4193.28
971.776	4210.45
972.077	4277.12
972.378	4252.49
972.679	4195.99
972.98	4145.6
973.281	4125.03
973.582	4095.88
973.883	4111.93
974.183	4052.72
974.484	4049.1
974.785	4019.72
975.085	4032.15
975.386	4054.53
975.686	4027.63
975.986	3937.92
976.287	3965.94
976.587	3924.36
976.887	3939.05
977.187	3911.93
977.487	3887.07
977.787	3884.36
978.087	3821.99
978.387	3863.12
978.687	3787.64
978.987	3781.76
979.286	3798.94
979.586	3785.38
979.885	3738.38
980.185	3679.85
980.484	3676.68
980.784	3726.63
981.083	3685.27
981.382	3610.02
981.682	3610.24
981.981	3589.23
982.28	3636.46
982.579	3581.32
982.878	3579.28
983.177	3579.06
983.475	3543.81
983.774	3538.83
984.073	3502.22
984.372	3438.27
984.67	3476.69
984.969	3459.51
985.267	3477.14
985.566	3434.66
985.864	3431.49
986.162	3419.29
986.461	3385.84
986.759	3371.15
987.057	3383.81
987.355	3317.14
987.653	3303.13
987.951	3291.61
988.249	3318.73
988.547	3273.53
988.844	3250.93
989.142	3200.99
989.44	3233.98
989.737	3218.16
990.035	3160.76
990.332	3164.61
990.63	3128.67
990.927	3178.17
991.224	3134.32
991.521	3097.26
991.819	3111.95
992.116	3085.74
992.413	3076.7
992.71	3092.97
993.006	3036.47
993.303	3026.76
993.6	3041.67
993.897	3030.15
994.193	3017.72
994.49	2956.93
994.787	2991.96
995.083	2943.59
995.379	2940.66
995.676	2904.73
995.972	2897.95
996.268	2886.65
996.565	2873.77
996.861	2847.33
997.157	2860.66
997.453	2835.12
997.749	2798.74
998.044	2786.31
998.34	2783.6
998.636	2769.14
998.932	2753.77
999.227	2739.53
999.523	2701.57
999.818	2662.92
1000.114	2707.67
1000.409	2662.7
1000.704	2638.74
1001	2674.22
1001.295	2643.94
1001.59	2608.91
1001.885	2627.9
1002.18	2585.41
1002.475	2547.45
1002.77	2574.34
1003.065	2560.33
1003.359	2546.09
1003.654	2514.23
1003.949	2527.79
1004.243	2492.99
1004.538	2469.03
1004.832	2462.48
1005.127	2465.42
1005.421	2444.85
1005.715	2385.42
1006.009	2411.63
1006.304	2415.47
1006.598	2379.54
1006.892	2348.13
1007.186	2331.18
1007.48	2323.27
1007.773	2328.47
1008.067	2312.88
1008.361	2314.01
1008.655	2264.74
1008.948	2270.84
1009.242	2237.62
1009.535	2246.66
1009.829	2206.21
1010.122	2223.39
1010.415	2204.86
1010.708	2196.5
1011.001	2185.42
1011.295	2188.81
1011.588	2143.39
1011.881	2079.44
1012.173	2130.06
1012.466	2123.5
1012.759	2085.99
1013.052	2091.41
1013.344	2082.6
1013.637	2077.18
1013.93	2062.26
1014.222	2065.43
1014.514	2039.66
1014.807	2040.12
1015.099	1977.97
1015.391	2002.38
1015.683	1967.58
1015.976	1978.87
1016.268	1949.04
1016.56	1928.03
1016.851	1907.69
1017.143	1913.11
1017.435	1883.51
1017.727	1877.41
1018.018	1855.71
1018.31	1857.07
1018.602	1855.49
1018.893	1837.86
1019.185	1811.42
1019.476	1801.03
1019.767	1799.22
1020.058	1777.98
1020.35	1775.26
1020.641	1724.87
1020.932	1740.24
1021.223	1728.94
1021.514	1735.04
1021.804	1696.17
1022.095	1691.2
1022.386	1697.3
1022.677	1667.02
1022.967	1647.81
1023.258	1658.66
1023.548	1603.52
1023.839	1655.49
1024.129	1620.92
1024.419	1594.25
1024.709	1615.72
1025	1578.66
1025.29	1550.64
1025.58	1552.22
1025.87	1543.86
1026.16	1549.73
1026.449	1554.03
1026.739	1505.67
1027.029	1523.97
1027.319	1499.57
1027.608	1488.72
1027.898	1471.54
1028.187	1490.98
1028.477	1459.79
1028.766	1472
1029.055	1448.04
1029.344	1451.88
1029.634	1404.65
1029.923	1406.46
1030.212	1362.39
1030.501	1400.58
1030.79	1394.71
1031.078	1355.61
1031.367	1359.46
1031.656	1349.96
1031.945	1343.64
1032.233	1366.01
1032.522	1329.4
1032.81	1335.28
1033.099	1307.03
1033.387	1323.52
1033.675	1295.73
1033.963	1283.07
1034.251	1276.52
1034.54	1265.67
1034.828	1237.2
1035.116	1254.37
1035.403	1238.56
1035.691	1227.93
1035.979	1223.64
1036.267	1190.65
1036.554	1183.87
1036.842	1173.47
1037.129	1198.33
1037.417	1184.32
1037.704	1168.95
1037.992	1168.05
1038.279	1165.56
1038.566	1137.99
1038.853	1137.99
1039.14	1137.99
