Data from whiteboard_FLMS001491_00076.txt Node
Date: Wed Feb 08 11:28:03 GMT 2017
User: dcchb
Spectrometer: FLMS00149
Trigger mode: 0
Integration Time (sec): 2.000000E-2
Scans to average: 10
Electric dark correction enabled: true
Nonlinearity correction enabled: false
Boxcar width: 0
XAxis mode: Wavelengths
Number of Pixels in Spectrum: 2048
>>>>>Begin Spectral Data<<<<<
341.393	-10.31
341.776	-10.31
342.16	-10.31
342.543	-62.74
342.927	-50.99
343.31	-78.78
343.693	-68.39
344.077	-52.57
344.46	-73.13
344.843	-61.83
345.226	-34.94
345.61	-37.2
345.993	-8.28
346.376	6.41
346.759	10.03
347.142	26.98
347.525	43.25
347.908	63.81
348.291	68.11
348.674	96.81
349.057	99.74
349.44	131.15
349.823	140.19
350.206	156.24
350.588	215.67
350.971	218.16
351.354	240.53
351.737	273.52
352.119	303.81
352.502	290.7
352.884	292.51
353.267	308.78
353.65	307.2
354.032	329.12
354.414	345.84
354.797	329.12
355.179	372.05
355.562	360.53
355.944	363.01
356.326	378.15
356.709	380.41
357.091	349
357.473	379.74
357.855	365.27
358.238	368.21
358.62	377.25
359.002	352.39
359.384	389.68
359.766	372.05
360.148	374.54
360.53	372.05
360.912	383.13
361.294	363.69
361.676	365.5
362.057	374.76
362.439	352.84
362.821	352.39
363.203	354.43
363.584	361.88
363.966	367.08
364.348	364.14
364.729	370.7
365.111	344.26
365.493	359.17
365.874	354.43
366.256	367.53
366.637	371.6
367.019	349
367.4	372.05
367.781	363.92
368.163	347.65
368.544	355.1
368.925	337.93
369.306	385.16
369.688	367.76
370.069	362.11
370.45	369.34
370.831	371.83
371.212	378.15
371.593	363.69
371.974	371.37
372.355	366.18
372.736	377.93
373.117	354.43
373.498	359.4
373.879	344.26
374.26	367.31
374.641	368.44
375.021	353.97
375.402	376.35
375.783	400.75
376.163	380.41
376.544	394.88
376.925	392.39
377.305	375.22
377.686	389.91
378.066	389.91
378.447	396.91
378.827	365.95
379.208	394.42
379.588	392.84
379.968	409.11
380.349	417.47
380.729	409.11
381.109	400.98
381.489	408.21
381.87	430.58
382.25	440.75
382.63	414.54
383.01	395.78
383.39	419.06
383.77	427.87
384.15	418.15
384.53	424.48
384.91	440.53
385.29	422.22
385.67	451.15
386.049	462.67
386.429	416.34
386.809	456.8
387.189	450.47
387.568	447.3
387.948	489.79
388.328	481.88
388.707	461.77
389.087	488.89
389.466	467.64
389.846	492.28
390.225	513.07
390.605	505.16
390.984	500.18
391.363	522.78
391.743	515.1
392.122	504.93
392.501	523.91
392.881	534.53
393.26	570.69
393.639	538.6
394.018	552.61
394.397	540.41
394.776	579.28
395.155	579.05
395.534	563.01
395.913	588.09
396.292	591.93
396.671	614.31
397.05	613.63
397.429	614.08
397.808	604.81
398.186	617.47
398.565	649.56
398.944	661.99
399.323	660.86
399.701	672.61
400.08	668.77
400.458	676.68
400.837	715.55
401.215	718.48
401.594	715.55
401.972	727.75
402.351	767.75
402.729	769.1
403.107	769.1
403.486	780.18
403.864	811.14
404.242	828.99
404.62	850.68
404.999	860.18
405.377	853.4
405.755	877.58
406.133	921.42
406.511	924.81
406.889	935.65
407.267	940.62
407.645	947.18
408.023	984.24
408.401	1011.36
408.779	1021.3
409.156	1036.22
409.534	1094.97
409.912	1084.58
410.29	1108.98
410.667	1119.83
411.045	1134.97
411.422	1151.69
411.8	1165.7
412.178	1211.58
412.555	1252.93
412.933	1257.23
413.31	1282.76
413.687	1297
414.065	1326.15
414.442	1366.38
414.819	1351.24
415.197	1398.01
415.574	1449.09
415.951	1443.66
416.328	1466.71
416.705	1472.59
417.082	1490.44
417.46	1527.05
417.837	1524.79
418.214	1552.36
418.591	1536.99
418.967	1590.33
419.344	1604.11
419.721	1615.86
420.098	1642.08
420.475	1647.5
420.852	1687.5
421.228	1700.83
421.605	1713.94
421.982	1753.26
422.358	1773.6
422.735	1788.74
423.111	1812.24
423.488	1830.77
423.864	1846.59
424.241	1881.17
424.617	1903.09
424.994	1883.2
425.37	1905.57
425.746	1969.3
426.123	1995.06
426.499	1995.74
426.875	2027.83
427.251	2076.19
427.627	2099.92
428.003	2127.94
428.379	2132.01
428.756	2183.3
429.132	2220.14
429.507	2254.71
429.883	2280.48
430.259	2279.35
430.635	2319.8
431.011	2357.99
431.387	2430.76
431.763	2451.55
432.138	2455.84
432.514	2525.22
432.89	2538.55
433.265	2575.16
433.641	2619.45
434.016	2649.05
434.392	2662.16
434.767	2742.16
435.143	2759.33
435.518	2786.9
435.894	2768.83
436.269	2819.45
436.644	2839.78
437.02	2939.67
437.395	2876.62
437.77	2962.72
438.145	3002.27
438.52	3023.51
438.895	3072.32
439.271	3091.98
439.646	3163.17
440.021	3178.31
440.395	3179.21
440.77	3149.61
441.145	3179.21
441.52	3327.68
441.895	3284.52
442.27	3345.53
442.645	3286.33
443.019	3387.11
443.394	3394.57
443.769	3404.97
444.143	3376.49
444.518	3486.77
444.892	3469.6
445.267	3523.83
445.641	3497.85
446.016	3562.7
446.39	3584.62
446.764	3579.88
447.139	3609.03
447.513	3656.49
447.887	3669.37
448.262	3679.99
448.636	3720.44
449.01	3766.54
449.384	3781.91
449.758	3828.23
450.132	3882.47
450.506	3845.18
450.88	3938.06
451.254	3932.86
451.628	4020.77
452.002	4066.87
452.376	4104.84
452.75	4143.03
453.123	4146.64
453.497	4219.41
453.871	4236.36
454.244	4317.49
454.618	4383.25
454.992	4423.92
455.365	4446.97
455.739	4561.55
456.112	4641.09
456.486	4695.78
456.859	4723.12
457.232	4752.73
457.606	4783.24
457.979	4867.3
458.352	4964.47
458.725	5029.78
459.099	5074.08
459.472	5152.04
459.845	5187.29
460.218	5249.89
460.591	5258.25
460.964	5362.66
461.337	5509.09
461.71	5504.57
462.083	5596.32
462.456	5639.94
462.829	5669.09
463.201	5829.76
463.574	5778.01
463.947	5876.99
464.32	6030.66
464.692	6016.2
465.065	6077.21
465.438	6153.37
465.81	6248.06
466.183	6362.18
466.555	6498.9
466.928	6523.3
467.3	6631.32
467.672	6622.51
468.045	6823.86
468.417	6796.52
468.789	6881.03
469.161	6978.21
469.534	7110.41
469.906	7223.62
470.278	7284.19
470.65	7415.93
471.022	7524.18
471.394	7665.87
471.766	7770.73
472.138	7883.49
472.51	8033.77
472.882	8094.11
473.253	8241.45
473.625	8346.08
473.997	8528
474.369	8586.07
474.74	8707.2
475.112	8854.32
475.484	8975.67
475.855	9121.2
476.227	9206.4
476.598	9498.59
476.97	9641.19
477.341	9766.16
477.713	9915.76
478.084	9989.2
478.455	10287.95
478.827	10287.5
479.198	10677.54
479.569	10648.84
479.94	10967.25
480.311	11034.6
480.682	11336.06
481.053	11527.01
481.424	11698.53
481.795	11855.37
482.166	12047.45
482.537	12188.69
482.908	12466.42
483.279	12623.26
483.65	12844.27
484.021	13058.5
484.391	13251.94
484.762	13287.19
485.133	13494.42
485.503	13691.02
485.874	13944.35
486.244	14141.41
486.615	14353.15
486.985	14511.79
487.356	14787.72
487.726	14970.54
488.097	15282.62
488.467	15187.71
488.837	15609.17
489.207	15746.56
489.578	16045.54
489.948	16142.26
490.318	16366.21
490.688	16490.5
491.058	16743.37
491.428	16888.45
491.798	17144.04
492.168	17404.6
492.538	17414.54
492.908	17697.47
493.278	17919.61
493.648	17935.88
494.017	18173.84
494.387	18352.6
494.757	18482.99
495.126	18670.78
495.496	18720.72
495.866	18901.06
496.235	19168.39
496.605	19317.32
496.974	19436.18
497.344	19583.75
497.713	19626.91
498.082	19830.52
498.452	20016.96
498.821	20128.82
499.19	20129.05
499.559	20416.72
499.928	20480.22
500.298	20663.27
500.667	20895.13
501.036	20838.41
501.405	21017.39
501.774	21135.35
502.143	21337.15
502.512	21518.84
502.88	21658.27
503.249	21751.38
503.618	21934.42
503.987	21966.29
504.356	22213.06
504.724	22295.77
505.093	22459.38
505.462	22483.34
505.83	22663.67
506.199	22982.08
506.567	23169.19
506.936	23066.14
507.304	23499.13
507.672	23476.98
508.041	23660.03
508.409	23826.12
508.777	24053.69
509.145	24231.31
509.514	24245.32
509.882	24411.65
510.25	24519.67
510.618	24644.41
510.986	24767.57
511.354	25075.58
511.722	25199.42
512.09	25426.31
512.458	25495.91
512.826	25591.73
513.193	25829.69
513.561	25992.4
513.929	26081.88
514.297	26356.91
514.664	26702.66
515.032	26619.5
515.4	26741.3
515.767	27072.14
516.135	27163.89
516.502	27132.48
516.869	27612.24
517.237	27761.84
517.604	27698.34
517.972	28047.03
518.339	28146.92
518.706	28314.14
519.073	28449.51
519.44	28790.06
519.808	28869.61
520.175	28865.77
520.542	29291.74
520.909	29577.84
521.276	29481.34
521.643	29879.98
522.009	30055.34
522.376	30205.84
522.743	30437.7
523.11	30892.38
523.477	31116.55
523.843	31274.74
524.21	31502.99
524.577	31803.09
524.943	31931.22
525.31	32064.1
525.676	32308.16
526.043	32709.96
526.409	32696.4
526.776	33124.19
527.142	33130.51
527.508	33339.55
527.874	33651.86
528.241	33824.96
528.607	33982.69
528.973	34238.96
529.339	34305.4
529.705	34630.59
530.071	35025.6
530.437	35232.38
530.803	35322.32
531.169	35336.33
531.535	35445.71
531.901	35611.13
532.267	35863.32
532.632	35975.41
532.998	36240.94
533.364	36400.48
533.73	36572.23
534.095	36753.24
534.461	36895.16
534.826	37169.28
535.192	37287.69
535.557	37555.93
535.923	37408.82
536.288	37633.45
536.653	37971.29
537.019	37684.29
537.384	37873.21
537.749	38197.95
538.114	38282.47
538.479	38277.27
538.845	38663.02
539.21	38462.8
539.575	38687.2
539.94	38890.14
540.305	39154.08
540.67	39114.31
541.034	39438.6
541.399	39494.19
541.764	39519.5
542.129	39675.43
542.494	39877
542.858	39961.75
543.223	39933.5
543.587	40245.13
543.952	40153.38
544.316	40486.03
544.681	40411.45
545.045	40573.93
545.41	40998.33
545.774	40961.72
546.138	41020.48
546.503	41200.13
546.867	41124.2
547.231	41516.96
547.595	41688.71
547.959	41662.72
548.324	41860.68
548.688	41909.72
549.052	42175.7
549.416	42196.04
549.779	42322.59
550.143	42454.34
550.507	42679.41
550.871	42747.44
551.235	42929.35
551.599	43238.72
551.962	43232.17
552.326	43329.57
552.689	43735.66
553.053	43457.02
553.417	43616.57
553.78	44130
554.143	43901.53
554.507	44232.14
554.87	44252.03
555.234	44707.16
555.597	44613.83
555.96	44769.53
556.323	44962.07
556.686	44988.05
557.05	45259.23
557.413	45442.28
557.776	45399.57
558.139	45778.77
558.502	45653.57
558.865	45829.16
559.228	46164.52
559.59	46380.79
559.953	46545.3
560.316	46900.55
560.679	46736.03
561.041	47040.66
561.404	47314.32
561.767	47491.27
562.129	47317.71
562.492	47876.11
562.854	47718.38
563.217	47809
563.579	47885.83
563.941	48323.11
564.304	48393.61
564.666	48640.84
565.028	48676.32
565.39	48872.92
565.753	49003.54
566.115	49102.52
566.477	49115.63
566.839	49322.63
567.201	49569.85
567.563	49617.54
567.925	49928.26
568.287	49977.98
568.648	49854.82
569.01	50154.02
569.372	50370.29
569.734	50210.52
570.095	50624.97
570.457	50721.24
570.819	50872.87
571.18	50702.71
571.542	51017.05
571.903	50986.09
572.265	51135.46
572.626	51208.68
572.987	51277.83
573.349	51435.12
573.71	51572.97
574.071	51632.4
574.432	51753.98
574.794	52011.6
575.155	51845.28
575.516	51846.86
575.877	52003.92
576.238	52054.08
576.599	52129.56
576.96	52265.83
577.32	52224.47
577.681	52462.66
578.042	52543.56
578.403	52467.86
578.763	52523.45
579.124	52589.66
579.485	52725.93
579.845	52703.78
580.206	52706.95
580.566	52736.55
580.927	52649.55
581.287	52903.33
581.648	52738.36
582.008	52965.47
582.368	52925.25
582.728	52921.18
583.089	52886.6
583.449	52921.18
583.809	52993.27
584.169	53072.36
584.529	53021.52
584.889	53243.43
585.249	53165.92
585.609	53024
585.969	53205.01
586.329	53127.28
586.688	53158.01
587.048	53159.59
587.408	53105.36
587.768	53089.08
588.127	53139.03
588.487	53055.86
588.846	53353.03
589.206	52966.38
589.565	53122.08
589.925	53249.08
590.284	53156.2
590.643	53195.97
591.003	53256.54
591.362	53354.84
591.721	53309.42
592.08	53331.34
592.44	53354.39
592.799	53442.75
593.158	53389.19
593.517	53332.47
593.876	53337.21
594.235	53281.85
594.593	53320.26
594.952	53416.99
595.311	53230.78
595.67	53303.54
596.029	53492.92
596.387	53407.49
596.746	53468.28
597.104	53360.72
597.463	53298.57
597.822	53403.65
598.18	53329.53
598.538	53359.59
598.897	53449.53
599.255	53279.14
599.613	53736.75
599.972	53586.47
600.33	53655.85
600.688	53549.64
601.046	53565.91
601.404	53745.56
601.762	53647.49
602.12	53771.33
602.478	53725.9
602.836	53736.07
603.194	53566.81
603.552	53666.24
603.91	53562.74
604.268	53744.43
604.625	53710.31
604.983	53789.4
605.341	53634.15
605.698	53790.08
606.056	53830.31
606.413	53748.05
606.771	53878.89
607.128	53971.55
607.485	53796.64
607.843	53758.9
608.2	54061.49
608.557	54115.5
608.914	54004.99
609.272	54140.13
609.629	54091.77
609.986	54286.11
610.343	53997.31
610.7	54321.14
611.057	54299.22
611.414	54212.22
611.771	54255.83
612.127	54432.78
612.484	54360.24
612.841	54413.57
613.198	54215.38
613.554	54373.8
613.911	54528.37
614.267	54465.77
614.624	54390.52
614.98	54459.67
615.337	54586.22
615.693	54513.91
616.05	54548.93
616.406	54724.52
616.762	54603.85
617.118	54610.85
617.475	54501.25
617.831	54611.3
618.187	54671.42
618.543	54653.11
618.899	54817.85
619.255	54770.17
619.611	54716.84
619.967	54828.93
620.323	54812.2
620.678	54770.85
621.034	54671.42
621.39	54679.55
621.746	54623.06
622.101	54865.31
622.457	54677.29
622.812	54706.67
623.168	54782.37
623.523	54741.47
623.879	54788.7
624.234	54594.58
624.589	54719.32
624.945	54753.22
625.3	54719.32
625.655	54788.25
626.01	54764.52
626.365	54723.39
626.72	54721.58
627.075	54745.31
627.43	54713
627.785	54650.85
628.14	54710.74
628.495	54686.56
628.85	54622.38
629.205	54579.44
629.559	54663.28
629.914	54468.03
630.269	54529.5
630.623	54372.67
630.978	54324.98
631.332	54449.5
631.687	54440.69
632.041	54364.31
632.396	54392.55
632.75	54197.98
633.104	54344.64
633.459	54145.55
633.813	54149.85
634.167	54143.07
634.521	54206.12
634.875	54188.04
635.229	54127.7
635.583	53960.7
635.937	53910.08
636.291	53980.13
636.645	53971.32
636.999	53889.74
637.352	53942.62
637.706	53751.44
638.06	53789.4
638.413	53792.79
638.767	53681.84
639.121	53725.9
639.474	53604.1
639.828	53641.39
640.181	53591.22
640.534	53623.76
640.888	53537.21
641.241	53414.27
641.594	53438.23
641.947	53474.61
642.301	53348.06
642.654	53336.08
643.007	53317.78
643.36	53346.7
643.713	53316.87
644.066	53396.19
644.419	53136.31
644.771	52982.42
645.124	52622.2
645.477	52532.94
645.83	52377.24
646.182	52216.56
646.535	52174.31
646.888	52229.67
647.24	52023.58
647.593	52276.68
647.945	52159.84
648.298	52048.43
648.65	51904.26
649.002	51792.62
649.355	51990.13
649.707	51867.2
650.059	52067.42
650.411	52305.38
650.763	52365.04
651.115	52776.78
651.467	52558.7
651.819	52595.76
652.171	52446.62
652.523	52405.26
652.875	52471.47
653.227	52375.88
653.578	52574.75
653.93	52492.72
654.282	52239.62
654.633	52265.83
654.985	52267.41
655.337	52217.47
655.688	52171.37
656.039	52393.51
656.391	51947.87
656.742	52068.77
657.094	52095.66
657.445	52133.18
657.796	51996.23
658.147	51890.25
658.498	51923.69
658.849	51953.97
659.2	51929.11
659.551	51812.96
659.902	52013.63
660.253	51696.35
660.604	51918.49
660.955	51684.6
661.306	51736.35
661.656	51655.9
662.007	51661.55
662.358	51629.46
662.708	51722.11
663.059	51578.62
663.409	51411.39
663.76	51650.93
664.11	51672.4
664.461	51767.09
664.811	51555.11
665.161	51544.72
665.511	51443.25
665.862	51476.25
666.212	51564.38
666.562	51523.25
666.912	51502.69
667.262	51427.66
667.612	51358.51
667.962	51415.46
668.312	51201.9
668.662	51400.99
669.011	51312.63
669.361	51323.26
669.711	51263.14
670.06	51135.92
670.41	51091.62
670.76	51061.79
671.109	51250.71
671.459	51149.93
671.808	51008.01
672.157	51098.63
672.507	50865.87
672.856	50935.24
673.205	51049.59
673.554	51052.3
673.904	50960.55
674.253	51063.83
674.602	50949.25
674.951	50499.1
675.3	50138.43
675.649	50808.01
675.998	50706.1
676.346	50768.69
676.695	50821.8
677.044	50557.4
677.393	50634.01
677.741	50667.45
678.09	50498.19
678.438	50531.19
678.787	50606.44
679.135	50347.91
679.484	50177.97
679.832	50351.76
680.181	50114.93
680.529	50199.22
680.877	50038.54
681.225	50073.8
681.573	50181.59
681.922	49935.04
682.27	49858.89
682.618	49849.85
682.966	49851.88
683.314	49731.21
683.661	49591.78
684.009	49469.52
684.357	49386.81
684.705	49393.36
685.053	49386.13
685.4	49255.74
685.748	49175.06
686.095	49096.19
686.443	48935.97
686.79	48903.21
687.138	48935.3
687.485	48999.93
687.832	48759.03
688.18	48909.76
688.527	48542.76
688.874	48491.69
689.221	48473.61
689.568	48328.08
689.915	48203.11
690.262	48079.95
690.609	48163.56
690.956	47954.53
691.303	47817.81
691.65	47559.29
691.997	47685.84
692.344	47501.43
692.69	47415.34
693.037	47423.24
693.383	47078.39
693.73	47186.64
694.077	46936.7
694.423	46921.79
694.769	46843.37
695.116	46600.44
695.462	46723.6
695.808	46482.93
696.155	46637.05
696.501	46205.42
696.847	46197.97
697.193	45810.18
697.539	46079.33
697.885	45843.17
698.231	45684.08
698.577	45673.23
698.923	45437.76
699.269	45341.49
699.614	45293.36
699.96	45166.13
700.306	45011.78
700.651	44842.07
700.997	44610.66
701.342	44714.62
701.688	44696.76
702.033	44469.42
702.379	44344.68
702.724	44303.78
703.069	44376.32
703.415	43838.93
703.76	43789.44
704.105	43838.48
704.45	43748.54
704.795	43537.92
705.14	43352.84
705.485	43430.58
705.83	43174.32
706.175	43211.6
706.52	43277.82
706.865	42979.52
707.209	42985.62
707.554	42781.56
707.899	42775.91
708.243	42549.93
708.588	42460.21
708.932	42322.14
709.277	42318.07
709.621	42483.94
709.966	42177.51
710.31	42331.18
710.654	41808.93
710.998	41896.16
711.342	41931.41
711.687	41584.75
712.031	41357.42
712.375	41336.85
712.719	41548.82
713.063	41370.3
713.407	41478.77
713.75	41258.66
714.094	41196.97
714.438	41010.31
714.782	41176.63
715.125	40964.21
715.469	40962.62
715.812	40682.18
716.156	40437.21
716.499	40523.09
716.843	40633.82
717.186	40264.34
717.53	40452.58
717.873	40345.92
718.216	40262.98
718.559	40112.93
718.902	39992.25
719.246	39907.96
719.589	39744.35
719.932	39684.92
720.275	39736.44
720.617	39665.93
720.96	39451.02
721.303	39382.33
721.646	39414.19
721.989	39177.36
722.331	39322.44
722.674	39209.22
723.016	39067.53
723.359	38911.83
723.701	39080.87
724.044	38793.64
724.386	38690.82
724.729	38756.58
725.071	38662.8
725.413	38682.23
725.755	38567.43
726.097	38325.4
726.439	38262.13
726.782	38030.27
727.124	38264.39
727.465	37999.76
727.807	37918.18
728.149	37792.54
728.491	37674.57
728.833	37858.52
729.175	37645.42
729.516	37657.85
729.858	37439.55
730.199	37529.04
730.541	37427.12
730.882	37371.31
731.224	37483.17
731.565	37046.12
731.906	37069.62
732.248	37096.96
732.589	36955.05
732.93	36822.85
733.271	36748.05
733.612	36817.2
733.953	36904.88
734.294	36634.15
734.635	36606.81
734.976	36631.89
735.317	36440.48
735.658	36449.52
735.999	36368.85
736.339	36397.55
736.68	36384.21
737.021	36152.58
737.361	35980.38
737.702	36286.59
738.042	36075.52
738.383	36004.79
738.723	35892.93
739.063	35895.86
739.404	35858.12
739.744	35689.99
740.084	35542.2
740.424	35593.5
740.764	35518.02
741.104	35717.79
741.444	35332.04
741.784	35347.63
742.124	35287.74
742.464	35423.11
742.804	35158.48
743.143	35064.25
743.483	35065.15
743.823	34857.7
744.162	34833.07
744.502	34895.89
744.841	34827.87
745.181	34868.09
745.52	34664.94
745.86	34803.01
746.199	34636.24
746.538	34659.96
746.877	34512.62
747.216	34549.46
747.556	34480.99
747.895	34309.24
748.234	34246.42
748.573	34210.26
748.911	34259.07
749.25	34216.36
749.589	33994.22
749.928	34048
750.267	33885.3
750.605	33886.65
750.944	33804.17
751.283	33670.61
751.621	33538.64
751.96	33594.68
752.298	33542.48
752.636	33518.75
752.975	33371.18
753.313	33179.1
753.651	33255.48
753.989	33162.38
754.327	32956.51
754.666	32907.02
755.004	33036.73
755.342	32946.34
755.679	32901.37
756.017	32577.99
756.355	32755.61
756.693	32473.36
757.031	32565.33
757.368	32443.3
757.706	32308.39
758.044	32233.14
758.381	32158.34
758.719	31849.87
759.056	32014.84
759.394	31901.17
759.731	31602.87
760.068	31557.45
760.405	31408.98
760.743	31291.24
761.08	31334.4
761.417	31335.53
761.754	31227.29
762.091	31120.4
762.428	31007.41
762.765	30813.74
763.102	31011.7
763.438	30670.24
763.775	30642.67
764.112	30608.77
764.449	30627.75
764.785	30498.94
765.122	30301.43
765.458	30156.35
765.795	30091.95
766.131	30025.06
766.467	29859.41
766.804	29717.5
767.14	29643.15
767.476	29696.25
767.812	29349.6
768.148	29528.35
768.485	29315.02
768.821	29144.18
769.157	29042.48
769.492	28982.83
769.828	28983.05
770.164	28680.69
770.5	28706.67
770.836	28679.33
771.171	28476.62
771.507	28346.01
771.842	28056.52
772.178	28099.91
772.513	28081.38
772.849	28047.03
773.184	27768.39
773.519	27802.29
773.855	27609.98
774.19	27533.37
774.525	27494.28
774.86	27498.34
775.195	27264.23
775.53	27167.05
775.865	27122.54
776.2	26824.69
776.535	26680.74
776.87	26709.66
777.205	26580.18
777.539	26454.08
777.874	26434.42
778.209	26269
778.543	26231.71
778.878	26115.78
779.212	26071.94
779.547	25907.2
779.881	26009.8
780.215	25741.1
780.55	25829.46
780.884	25601.22
781.218	25469.02
781.552	25447.33
781.886	25303.37
782.22	25219.99
782.554	25088.69
782.888	24937.96
783.222	24819.32
783.556	24806.66
783.889	24658.65
784.223	24490.29
784.557	24524.41
784.89	24356.96
785.224	24190.86
785.557	24079
785.891	24024.99
786.224	23893.02
786.558	23926.91
786.891	23730.76
787.224	23622.06
787.557	23548.17
787.891	23457.32
788.224	23401.73
788.557	23291.9
788.89	23252.35
789.223	23278.79
789.556	23121.96
789.888	22932.36
790.221	22922.42
790.554	22694.63
790.887	22745.02
791.219	22500.51
791.552	22499.15
791.884	22490.79
792.217	22411.7
792.549	22235.88
792.882	22212.38
793.214	22068.21
793.546	22188.65
793.879	22008.55
794.211	21862.33
794.543	21872.5
794.875	21745.28
795.207	21911.6
795.539	21743.24
795.871	21732.62
796.203	21476.58
796.535	21461.44
796.867	21421.67
797.198	21322.24
797.53	21236.59
797.862	21120.43
798.193	21241.56
798.525	20969.02
798.856	20978.52
799.188	20830.27
799.519	20750.73
799.85	20754.79
800.182	20733.78
800.513	20587.34
800.844	20469.6
801.175	20628.92
801.506	20455.14
801.837	20406.33
802.168	20310.96
802.499	20242.04
802.83	20100.12
803.161	20048.6
803.491	20055.6
803.822	20153.68
804.153	19854.7
804.483	19680.92
804.814	19722.96
805.145	19667.36
805.475	19694.93
805.805	19567.71
806.136	19560.93
806.466	19519.8
806.796	19483.64
807.126	19329.07
807.457	19337.43
807.787	19245.23
808.117	19117.1
808.447	19147.83
808.777	19144.44
809.107	19095.4
809.436	18968.17
809.766	19018.79
810.096	18974.05
810.426	18879.59
810.755	18945.12
811.085	18786.48
811.414	18687.73
811.744	18648.86
812.073	18520.05
812.403	18565.02
812.732	18510.11
813.061	18505.36
813.39	18460.62
813.719	18288.87
814.049	18403.44
814.378	18339.26
814.707	18178.14
815.036	18273.05
815.365	18034.64
815.693	18001.87
816.022	17973.17
816.351	17960.52
816.68	17823.34
817.008	17912.61
817.337	17715.78
817.665	17671.26
817.994	17850.24
818.322	17735.89
818.651	17684.59
818.979	17552.62
819.307	17640.75
819.636	17541.32
819.964	17376.58
820.292	17436.01
820.62	17492.28
820.948	17431.49
821.276	17440.08
821.604	17402.11
821.932	17443.92
822.259	17444.15
822.587	17313.3
822.915	17353.07
823.243	17177.49
823.57	17178.62
823.898	17258.16
824.225	17216.58
824.553	17200.54
824.88	17167.09
825.207	17352.17
825.535	17164.83
825.862	17247.54
826.189	17175.68
826.516	17372.74
826.843	17328.22
827.17	17330.25
827.497	17294.32
827.824	17224.04
828.151	17205.06
828.478	17191.72
828.805	17266.07
829.131	17173.42
829.458	17132.97
829.785	17150.82
830.111	17043.48
830.438	17172.29
830.764	17131.16
831.09	17100.43
831.417	16964.61
831.743	17162.57
832.069	17121.89
832.395	17007.32
832.722	17134.32
833.048	16971.16
833.374	17018.39
833.7	16930.04
834.026	16963.71
834.351	16942.69
834.677	16884.61
835.003	17008
835.329	16962.58
835.654	16774.11
835.98	16730.27
836.306	16773.66
836.631	16692.75
836.956	16787.67
837.282	16811.39
837.607	16715.35
837.932	16570.04
838.258	16630.83
838.583	16610.72
838.908	16505.41
839.233	16556.03
839.558	16464.28
839.883	16332.31
840.208	16391.52
840.533	16409.6
840.858	16308.58
841.182	16378.86
841.507	16250.96
841.832	16247.34
842.156	16077.18
842.481	16227.23
842.805	16127.12
843.13	16036.27
843.454	16102.03
843.778	15965.09
844.103	15914.92
844.427	15994.69
844.751	15931.64
845.075	15883.96
845.399	15709.05
845.723	15694.59
846.047	15799.67
846.371	15532.78
846.695	15519
847.019	15391.54
847.343	15334.14
847.666	15330.53
847.99	15183.87
848.313	15128.05
848.637	15072
848.96	15104.77
849.284	14987.26
849.607	14894.16
849.931	14872.69
850.254	14800.15
850.577	14755.63
850.9	14613.03
851.223	14676.76
851.546	14536.2
851.869	14439.71
852.192	14579.14
852.515	14388.18
852.838	14289.88
853.161	14230.67
853.483	14230.9
853.806	14108.19
854.129	14116.55
854.451	14102.31
854.774	14083.1
855.096	13949.1
855.419	13978.7
855.741	13991.81
856.063	13785.26
856.385	13809.89
856.708	13747.97
857.03	13714.53
857.352	13752.27
857.674	13636.34
857.996	13635.88
858.318	13563.34
858.64	13539.62
858.961	13494.87
859.283	13460.75
859.605	13401.77
859.926	13423.01
860.248	13413.29
860.57	13256.01
860.891	13315.67
861.212	13241.77
861.534	13252.17
861.855	13203.81
862.176	13244.93
862.498	13169.91
862.819	13119.06
863.14	13058.27
863.461	13037.48
863.782	13041.1
864.103	13019.4
864.424	12963.81
864.745	12932.4
865.065	12871.38
865.386	12852.85
865.707	12820.76
866.027	12862.35
866.348	12815.34
866.668	12834.78
866.989	12801.78
867.309	12675.68
867.63	12736.02
867.95	12728.34
868.27	12648.79
868.59	12656.93
868.91	12625.29
869.23	12635.46
869.55	12536.93
869.87	12593.2
870.19	12564.05
870.51	12524.73
870.83	12554.78
871.15	12477.27
871.469	12394.11
871.789	12468.46
872.109	12380.32
872.428	12402.47
872.748	12414.45
873.067	12267.11
873.386	12324.96
873.706	12249.48
874.025	12187.11
874.344	12259.88
874.663	12247.45
874.982	12236.6
875.301	12128.58
875.62	12263.49
875.939	12085.42
876.258	12061.69
876.577	12107.34
876.896	12024.4
877.214	11993.22
877.533	11989.6
877.852	11962.03
878.17	11982.37
878.489	12004.97
878.807	11976.49
879.125	11928.81
879.444	11944.18
879.762	11798.19
880.08	11899.43
880.398	11883.61
880.716	11847.68
881.034	11703.51
881.352	11858.98
881.67	11714.13
881.988	11717.74
882.306	11669.38
882.624	11666.22
882.941	11588.48
883.259	11605.88
883.577	11563.17
883.894	11514.13
884.212	11464.64
884.529	11410.41
884.846	11493.34
885.164	11442.72
885.481	11350.52
885.798	11351.88
886.115	11273.01
886.432	11390.07
886.75	11318.21
887.067	11230.75
887.383	11171.09
887.7	11232.78
888.017	11095.39
888.334	11141.49
888.651	11075.5
888.967	11078.66
889.284	11027.59
889.6	10969.51
889.917	10971.32
890.233	10929.51
890.55	10868.73
890.866	10860.82
891.182	10823.75
891.498	10831.21
891.815	10746.69
892.131	10756.41
892.447	10663.76
892.763	10711.44
893.079	10689.52
893.395	10582.41
893.71	10532.24
894.026	10533.59
894.342	10459.92
894.657	10472.8
894.973	10446.82
895.289	10407.49
895.604	10362.98
895.92	10307.38
896.235	10220.16
896.55	10209.08
896.865	10181.96
897.181	10175.41
897.496	10168.18
897.811	10106.03
898.126	10092.7
898.441	10015.41
898.756	9925.7
899.071	9894.29
899.386	9934.74
899.7	9837.34
900.015	9801.63
900.33	9793.95
900.644	9749.43
900.959	9754.18
901.273	9708.08
901.588	9574.07
901.902	9617.68
902.216	9553.05
902.531	9506.05
902.845	9495.88
903.159	9433.06
903.473	9447.52
903.787	9334.98
904.101	9325.26
904.415	9297.92
904.729	9238.49
905.042	9207.3
905.356	9220.86
905.67	9209.11
905.984	9205.49
906.297	9146.51
906.611	9044.82
906.924	9054.08
907.237	9015.89
907.551	9033.07
907.864	8937.48
908.177	8903.58
908.491	8927.08
908.804	8793.75
909.117	8738.16
909.43	8676.47
909.743	8674.66
910.056	8693.19
910.368	8623.13
910.681	8649.57
910.994	8617.71
911.307	8495
911.619	8455.46
911.932	8490.03
912.244	8336.59
912.557	8369.81
912.869	8312.41
913.181	8246.2
913.494	8316.25
913.806	8201.23
914.118	8202.58
914.43	8198.06
914.742	8186.31
915.054	8003.04
915.366	8093.88
915.678	8066.99
915.99	8036.71
916.302	7914
916.613	7938.86
916.925	7889.14
917.236	7849.6
917.548	7775.7
917.859	7792.2
918.171	7749.94
918.482	7714.23
918.794	7712.88
919.105	7694.35
919.416	7629.71
919.727	7573.44
920.038	7562.6
920.349	7533.9
920.66	7478.53
920.971	7439.89
921.282	7448.48
921.593	7390.4
921.903	7396.5
922.214	7326.45
922.525	7314.92
922.835	7249.16
923.146	7192.44
923.456	7222.04
923.767	7196.73
924.077	7127.58
924.387	7127.35
924.697	7120.8
925.008	7093.23
925.318	7076.28
925.628	7011.43
925.938	6932.56
926.248	6881.03
926.558	6921.48
926.867	6874.93
927.177	6851.66
927.487	6817.76
927.796	6785.44
928.106	6735.05
928.416	6759.91
928.725	6753.58
929.034	6712.9
929.344	6675.39
929.653	6639.68
929.962	6555.84
930.271	6602.85
930.581	6528.5
930.89	6505.22
931.199	6467.71
931.508	6427.26
931.817	6449.41
932.125	6395.62
932.434	6360.37
932.743	6328.05
933.051	6288.51
933.36	6249.19
933.669	6227.72
933.977	6203.99
934.286	6192.92
934.594	6183.2
934.902	6109.08
935.21	6095.52
935.519	6073.15
935.827	6032.24
936.135	6017.33
936.443	5933.71
936.751	5923.09
937.059	5940.72
937.367	5889.42
937.674	5901.62
937.982	5873.15
938.29	5826.6
938.597	5848.52
938.905	5745.02
939.213	5695.08
939.52	5740.5
939.827	5701.86
940.135	5625.02
940.442	5633.16
940.749	5618.24
941.056	5602.2
941.363	5516.78
941.67	5529.2
941.977	5493.73
942.284	5473.39
942.591	5416.67
942.898	5424.8
943.205	5377.12
943.511	5391.13
943.818	5364.01
944.125	5288.76
944.431	5247.4
944.738	5263.68
945.044	5225.48
945.35	5220.74
945.657	5196.78
945.963	5168.54
946.269	5154.98
946.575	5131.25
946.881	5098.93
947.187	5093.74
947.493	5066.84
947.799	5021.87
948.105	4965.38
948.41	4982.33
948.716	4963.34
949.022	5003.57
949.327	4919.96
949.633	4858.71
949.938	4868.43
950.244	4944.59
950.549	4845.61
950.854	4790.47
951.16	4810.58
951.465	4803.8
951.77	4739.62
952.075	4726.51
952.38	4691.26
952.685	4700.75
952.99	4640.41
953.294	4655.1
953.599	4610.81
953.904	4592.05
954.209	4579.4
954.513	4577.59
954.818	4552.06
955.122	4533.07
955.426	4504.83
955.731	4484.03
956.035	4477.48
956.339	4468.22
956.643	4449.01
956.948	4410.36
957.252	4382.12
957.556	4363.36
957.86	4333.98
958.163	4363.81
958.467	4270.71
958.771	4277.26
959.075	4284.94
959.378	4238.39
959.682	4237.71
959.985	4221.22
960.289	4195.91
960.592	4154.33
960.896	4117.04
961.199	4142.8
961.502	4128.34
961.805	4123.37
962.108	4094.67
962.411	4024.84
962.714	4056.25
963.017	4026.42
963.32	4003.14
963.623	4014.44
963.926	3950.26
964.228	3958.4
964.531	3937.38
964.833	3919.08
965.136	3935.12
965.438	3820.1
965.741	3850.38
966.043	3837.72
966.345	3841.79
966.648	3816.71
966.95	3814.9
967.252	3781.23
967.554	3761.34
967.856	3751.85
968.158	3733.77
968.46	3703.26
968.761	3684.96
969.063	3701.46
969.365	3658.29
969.666	3671.17
969.968	3614.23
970.269	3590.05
970.571	3609.48
970.872	3541.46
971.174	3528.58
971.475	3559.99
971.776	3520.9
972.077	3530.84
972.378	3567.22
972.679	3513.66
972.98	3501.69
973.281	3494.23
973.582	3474.34
973.883	3441.58
974.183	3396.61
974.484	3382.59
974.785	3393.22
975.085	3389.37
975.386	3368.36
975.686	3343.27
975.986	3330.62
976.287	3318.87
976.587	3305.53
976.887	3301.47
977.187	3274.12
977.487	3258.98
977.787	3227.8
978.087	3224.86
978.387	3220.34
978.687	3206.55
978.987	3202.49
979.286	3191.19
979.586	3175.14
979.885	3167.01
980.185	3140.57
980.484	3138.76
980.784	3090.4
981.083	3122.49
981.382	3108.93
981.682	3065.99
981.981	3023.28
982.28	3064.41
982.579	3001.36
982.878	3031.42
983.177	2994.81
983.475	2990.29
983.774	2964.75
984.073	2926.34
984.372	2916.84
984.67	2942.15
984.969	2939.22
985.267	2872.1
985.566	2902.16
985.864	2889.05
986.162	2884.08
986.461	2843.4
986.759	2856.73
987.057	2829.39
987.355	2809.05
987.653	2797.53
987.951	2783.97
988.249	2765.44
988.547	2747.58
988.844	2720.47
989.142	2718.88
989.44	2745.1
989.737	2720.69
990.035	2668.04
990.332	2670.3
990.63	2674.82
990.927	2653.57
991.224	2641.6
991.521	2617.87
991.819	2604.99
992.116	2614.25
992.413	2607.7
992.71	2540.58
993.006	2570.64
993.303	2550.98
993.6	2531.77
993.897	2513.69
994.193	2512.79
994.49	2495.39
994.787	2485.9
995.083	2473.24
995.379	2457.87
995.676	2464.43
995.972	2417.65
996.268	2399.12
996.565	2396.86
996.861	2374.26
997.157	2395.5
997.453	2361.38
997.749	2358.89
998.044	2336.52
998.34	2321.38
998.636	2338.1
998.932	2306.46
999.227	2245.45
999.523	2256.75
999.818	2280.7
1000.114	2268.95
1000.409	2257.88
1000.704	2228.73
1001	2240.03
1001.295	2176.75
1001.59	2199.35
1001.885	2182.4
1002.18	2188.5
1002.475	2176.52
1002.77	2161.61
1003.065	2125.68
1003.359	2150.76
1003.654	2127.71
1003.949	2083.65
1004.243	2083.42
1004.538	2077.77
1004.832	2042.52
1005.127	2009.75
1005.421	2057.43
1005.715	1985.8
1006.009	2014.27
1006.304	1994.83
1006.598	2002.07
1006.892	1993.7
1007.186	1957.32
1007.48	1987.15
1007.773	1944.89
1008.067	1929.3
1008.361	1898.79
1008.655	1894.05
1008.948	1902.41
1009.242	1881.84
1009.535	1877.78
1009.829	1845.69
1010.122	1852.92
1010.415	1834.84
1010.708	1820.38
1011.001	1814.73
1011.295	1811.79
1011.588	1771.56
1011.881	1761.62
1012.173	1787.16
1012.466	1795.97
1012.759	1783.09
1013.052	1763.43
1013.344	1721.17
1013.637	1740.38
1013.93	1706.93
1014.222	1696.99
1014.514	1676.2
1014.807	1705.8
1015.099	1673.71
1015.391	1641.17
1015.683	1637.56
1015.976	1619.7
1016.268	1631.68
1016.56	1605.69
1016.851	1623.32
1017.143	1587.61
1017.435	1596.43
1017.727	1569.54
1018.018	1579.48
1018.31	1530.44
1018.602	1572.92
1018.893	1524.79
1019.185	1519.59
1019.476	1521.4
1019.767	1527.73
1020.058	1480.27
1020.35	1518.46
1020.641	1478.01
1020.932	1457.9
1021.223	1455.87
1021.514	1440.5
1021.804	1415.19
1022.095	1415.41
1022.386	1407.51
1022.677	1429.88
1022.967	1388.52
1023.258	1372.48
1023.548	1374.06
1023.839	1366.83
1024.129	1351.24
1024.419	1339.48
1024.709	1353.04
1025	1363.21
1025.29	1297.45
1025.58	1306.04
1025.87	1304.23
1026.16	1280.5
1026.449	1299.26
1026.739	1277.79
1027.029	1289.77
1027.319	1247.51
1027.608	1250.67
1027.898	1222.88
1028.187	1262.88
1028.477	1249.32
1028.766	1203.44
1029.055	1216.32
1029.344	1234.85
1029.634	1208.19
1029.923	1185.59
1030.212	1195.31
1030.501	1163.67
1030.79	1167.06
1031.078	1157.57
1031.367	1160.28
1031.656	1155.53
1031.945	1143.78
1032.233	1133.61
1032.522	1122.32
1032.81	1135.2
1033.099	1130.9
1033.387	1094.29
1033.675	1066.72
1033.963	1089.1
1034.251	1080.51
1034.54	1082.77
1034.828	1060.17
1035.116	1057.01
1035.403	1026.72
1035.691	1018.59
1035.979	1017.91
1036.267	1025.82
1036.554	1007.06
1036.842	1046.84
1037.129	1014.07
1037.417	985.82
1037.704	988.99
1037.992	1008.87
1038.279	988.08
1038.566	976.1
1038.853	976.1
1039.14	976.1
