Data from white_steel_sheet_FLMS001491_070.txt Node
Date: Tue Feb 07 10:58:17 GMT 2017
User: dcchb
Spectrometer: FLMS00149
Trigger mode: 0
Integration Time (sec): 2.000000E-2
Scans to average: 10
Electric dark correction enabled: true
Nonlinearity correction enabled: false
Boxcar width: 0
XAxis mode: Wavelengths
Number of Pixels in Spectrum: 2048
>>>>>Begin Spectral Data<<<<<
341.393	-20.35
341.776	-20.35
342.16	-20.35
342.543	-66.45
342.927	-62.16
343.31	-92.44
343.693	-65.55
344.077	-60.35
344.46	-63.06
344.843	-43.63
345.226	-39.34
345.61	-22.39
345.993	-1.82
346.376	-10.86
346.759	15.8
347.142	11.29
347.525	30.27
347.908	58.06
348.291	89.93
348.674	97.61
349.057	96.48
349.44	131.28
349.823	130.38
350.206	152.98
350.588	204.05
350.971	214.67
351.354	229.58
351.737	235.69
352.119	272.07
352.502	240.43
352.884	273.43
353.267	289.92
353.65	279.53
354.032	293.76
354.414	308.9
354.797	335.34
355.179	328.34
355.562	295.12
355.944	324.05
356.326	313.42
356.709	325.4
357.091	340.77
357.473	361.56
357.855	350.94
358.238	352.29
358.62	355.68
359.002	362.91
359.384	326.98
359.766	349.58
360.148	348.9
360.53	339.41
360.912	347.55
361.294	357.26
361.676	348.68
362.057	343.71
362.439	335.8
362.821	321.33
363.203	316.59
363.584	334.67
363.966	335.12
364.348	334.89
364.729	322.24
365.111	319.53
365.493	323.59
365.874	359.98
366.256	330.15
366.637	320.2
367.019	327.66
367.4	326.98
367.781	308.23
368.163	323.37
368.544	305.51
368.925	328.34
369.306	334.67
369.688	314.33
370.069	317.04
370.45	309.81
370.831	326.53
371.212	321.56
371.593	324.95
371.974	324.27
372.355	320.66
372.736	325.63
373.117	342.8
373.498	323.37
373.879	336.7
374.26	333.76
374.641	335.12
375.021	308
375.402	350.03
375.783	339.86
376.163	351.39
376.544	314.78
376.925	361.33
377.305	358.62
377.686	374.21
378.066	343.25
378.447	339.86
378.827	340.32
379.208	339.86
379.588	338.51
379.968	336.02
380.349	363.37
380.729	366.98
381.109	372.63
381.489	366.08
381.87	364.72
382.25	363.14
382.63	360.2
383.01	358.39
383.39	368.11
383.77	382.8
384.15	369.47
384.53	389.58
384.91	379.18
385.29	371.73
385.67	392.74
386.049	408.34
386.429	366.53
386.809	389.81
387.189	372.86
387.568	383.48
387.948	399.07
388.328	411.95
388.707	398.17
389.087	392.74
389.466	405.85
389.846	421.67
390.225	403.59
390.605	412.18
390.984	432.06
391.363	420.77
391.743	436.13
392.122	438.84
392.501	423.25
392.881	425.51
393.26	442.46
393.639	454.21
394.018	448.34
394.397	468.45
394.776	455.79
395.155	464.38
395.534	478.39
395.913	475.68
396.292	478.39
396.671	465.28
397.05	487.88
397.429	487.66
397.808	500.09
398.186	520.65
398.565	505.28
398.944	504.38
399.323	514.77
399.701	521.55
400.08	525.17
400.458	558.16
400.837	548.45
401.215	534.44
401.594	545.96
401.972	590.48
402.351	564.72
402.729	585.51
403.107	594.09
403.486	612.17
403.864	619.63
404.242	619.18
404.62	611.5
404.999	636.35
405.377	625.05
405.755	639.74
406.133	671.15
406.511	647.88
406.889	693.3
407.267	695.33
407.645	724.49
408.023	713.19
408.401	740.31
408.779	723.58
409.156	754.99
409.534	717.03
409.912	762.9
410.29	769.23
410.667	794.99
411.045	792.06
411.422	805.39
411.8	802.68
412.178	829.57
412.555	873.86
412.933	862.56
413.31	858.72
413.687	871.83
414.065	890.58
414.442	910.24
414.819	922.67
415.197	909.11
415.574	931.71
415.951	930.36
416.328	954.54
416.705	958.83
417.082	967.64
417.46	989.56
417.837	977.36
418.214	986.63
418.591	1041.99
418.967	1013.07
419.344	1022.56
419.721	1059.85
420.098	1058.94
420.475	1070.24
420.852	1065.04
421.228	1082.67
421.605	1104.36
421.982	1102.56
422.358	1114.53
422.735	1116.34
423.111	1157.24
423.488	1166.96
423.864	1160.41
424.241	1149.79
424.617	1214.19
424.994	1194.53
425.37	1213.29
425.746	1219.16
426.123	1250.12
426.499	1228.43
426.875	1281.31
427.251	1268.65
427.627	1289.22
428.003	1320.4
428.379	1302.32
428.756	1339.84
429.132	1358.37
429.507	1372.38
429.883	1400.4
430.259	1420.51
430.635	1414.41
431.011	1443.79
431.387	1502.32
431.763	1491.47
432.138	1511.58
432.514	1514.3
432.89	1520.17
433.265	1574.86
433.641	1567.63
434.016	1612.15
434.392	1629.32
434.767	1648.98
435.143	1625.48
435.518	1689.43
435.894	1718.13
436.269	1722.65
436.644	1719.94
437.02	1726.49
437.395	1768.98
437.77	1798.36
438.145	1811.01
438.52	1837.45
438.895	1862.08
439.271	1868.86
439.646	1894.63
440.021	1935.08
440.395	1924.91
440.77	1917
441.145	1938.69
441.52	1959.71
441.895	1969.65
442.27	2022.31
442.645	2023.66
443.019	2047.39
443.394	2055.75
443.769	2083.55
444.143	2004.45
444.518	2100.72
444.892	2090.1
445.267	2103.66
445.641	2142.53
446.016	2159.25
446.39	2202.41
446.764	2171
447.139	2209.65
447.513	2253.94
447.887	2192.7
448.262	2234.73
448.636	2238.12
449.01	2305.69
449.384	2299.59
449.758	2352.92
450.132	2352.69
450.506	2397.21
450.88	2374.84
451.254	2394.5
451.628	2446.02
452.002	2465.23
452.376	2436.53
452.75	2523.54
453.123	2540.26
453.497	2604.89
453.871	2622.97
454.244	2621.39
454.618	2650.99
454.992	2668.84
455.365	2684.89
455.739	2753.81
456.112	2766.01
456.486	2773.02
456.859	2856.86
457.232	2905.67
457.606	2872
457.979	2929.17
458.352	2996.07
458.725	3022.28
459.099	2992.22
459.472	3120.13
459.845	3095.05
460.218	3126.68
460.591	3127.14
460.964	3173.46
461.337	3256.4
461.71	3290.07
462.083	3358.09
462.456	3342.5
462.829	3334.14
463.201	3409.84
463.574	3447.35
463.947	3506.56
464.32	3585.88
464.692	3594.47
465.065	3603.51
465.438	3677.63
465.81	3722.83
466.183	3736.84
466.555	3830.85
466.928	3869.49
467.3	3825.65
467.672	3925.08
468.045	4071.29
468.417	4035.81
468.789	4044.4
469.161	4139.31
469.534	4200.1
469.906	4230.61
470.278	4284.84
470.65	4341.34
471.022	4407.33
471.394	4502.24
471.766	4544.5
472.138	4619.3
472.51	4678.05
472.882	4738.62
473.253	4832.63
473.625	4897.03
473.997	4977.93
474.369	5029.46
474.74	5094.54
475.112	5145.84
475.484	5235.33
475.855	5328.43
476.227	5332.5
476.598	5501.76
476.97	5566.85
477.341	5716.22
477.713	5784.01
478.084	5782.43
478.455	5960.06
478.827	6002.77
479.198	6172.48
479.569	6162.08
479.94	6387.39
480.311	6397.56
480.682	6582.86
481.053	6704.67
481.424	6792.58
481.795	6912.12
482.166	6986.24
482.537	7069.86
482.908	7243.19
483.279	7328.38
483.65	7456.74
484.021	7565.66
484.391	7649.05
484.762	7727.47
485.133	7800.23
485.503	7989.83
485.874	8137.85
486.244	8171.52
486.615	8386.43
486.985	8444.06
487.356	8581.46
487.726	8678.18
488.097	8892.86
488.467	8837.72
488.837	9011.73
489.207	9157.71
489.578	9191.16
489.948	9388.89
490.318	9451.94
490.688	9476.12
491.058	9742.33
491.428	9820.29
491.798	9878.14
492.168	10098.48
492.538	10141.87
492.908	10233.84
493.278	10383.44
493.648	10460.73
494.017	10586.37
494.387	10642.19
494.757	10792.7
495.126	10908.85
495.496	10924.9
495.866	11069.75
496.235	11205.11
496.605	11233.59
496.974	11372.34
497.344	11405.79
497.713	11568.04
498.082	11664.99
498.452	11764.65
498.821	11836.74
499.19	11821.6
499.559	11998.77
499.928	12090.74
500.298	12150.17
500.667	12376.84
501.036	12293.45
501.405	12424.29
501.774	12477.62
502.143	12585.87
502.512	12685.08
502.88	12751.06
503.249	12750.61
503.618	12954
503.987	12986.76
504.356	13100.43
504.724	13193.76
505.093	13233.31
505.462	13362.8
505.83	13405.28
506.199	13587.2
506.567	13711.72
506.936	13662.68
507.304	13940.64
507.672	13970.24
508.041	14048.88
508.409	14198.03
508.777	14273.28
509.145	14317.12
509.514	14472.15
509.882	14518.93
510.25	14609.32
510.618	14733.16
510.986	14739.03
511.354	14953.49
511.722	15061.74
512.09	15219.7
512.458	15277.32
512.826	15367.94
513.193	15437.55
513.561	15494.49
513.929	15609.52
514.297	15802.96
514.664	16025.33
515.032	16058.09
515.4	16092.22
515.767	16266.68
516.135	16404.75
516.502	16286.34
516.869	16564.75
517.237	16697.63
517.604	16629.83
517.972	16940.33
518.339	17054.23
518.706	17072.31
519.073	17129.48
519.44	17287.89
519.808	17613.53
520.175	17503.48
520.542	17827.54
520.909	17888.56
521.276	17924.94
521.643	18138.49
522.009	18226.63
522.376	18387.07
522.743	18511.36
523.11	18698.48
523.477	18882.2
523.843	19015.98
524.21	19255.98
524.577	19313.15
524.943	19447.38
525.31	19580.04
525.676	19805.57
526.043	19976.41
526.409	20001.27
526.776	20271.54
527.142	20241.04
527.508	20560.35
527.874	20646
528.241	20752.66
528.607	20843.28
528.973	20939.77
529.339	20977.74
529.705	21203.04
530.071	21411.4
530.437	21560.77
530.803	21632.86
531.169	21889.58
531.535	21831.95
531.901	21859.52
532.267	22080.99
532.632	22315.56
532.998	22335.9
533.364	22411.15
533.73	22536.12
534.095	22692.04
534.461	22650.69
534.826	22945.82
535.192	22962.77
535.557	23103.56
535.923	23122.32
536.288	23339.94
536.653	23494.51
537.019	23425.36
537.384	23502.19
537.749	23705.58
538.114	23739.7
538.479	23827.61
538.845	23851.11
539.21	23871.45
539.575	24104.21
539.94	24224.21
540.305	24325.45
540.67	24261.95
541.034	24493.35
541.399	24451.09
541.764	24637.98
542.129	24645.67
542.494	24734.7
542.858	24967.69
543.223	24904.64
543.587	24970.63
543.952	25073.9
544.316	25218.53
544.681	25248.14
545.045	25270.96
545.41	25265.76
545.774	25484.97
546.138	25529.94
546.503	25680.21
546.867	25700.1
547.231	25934.45
547.595	25909.81
547.959	26013.99
548.324	26092.18
548.688	26133.54
549.052	26386.41
549.416	26342.34
549.779	26401.1
550.143	26506.41
550.507	26628.66
550.871	26702.79
551.235	26830.01
551.599	27060.97
551.962	26938.49
552.326	27061.65
552.689	27178.93
553.053	27140.97
553.417	27219.38
553.78	27572.59
554.143	27532.37
554.507	27660.28
554.87	27748.41
555.234	27945.92
555.597	27944.56
555.96	28085.35
556.323	28216.65
556.686	28181.84
557.05	28455.28
557.413	28481.27
557.776	28583.64
558.139	28844.2
558.502	28786.35
558.865	28885.78
559.228	29189.73
559.59	29196.73
559.953	29224.3
560.316	29495.93
560.679	29575.71
561.041	29748.36
561.404	29777.73
561.767	30116.26
562.129	29829.71
562.492	30303.14
562.854	30269.92
563.217	30338.62
563.579	30468.34
563.941	30719.4
564.304	30806.86
564.666	31028.77
565.028	30978.83
565.39	31205.72
565.753	31431.93
566.115	31342.66
566.477	31651.13
566.839	31593.05
567.201	31968.18
567.563	31830.56
567.925	32103.1
568.287	32020.16
568.648	32097.9
569.01	32357.33
569.372	32576.98
569.734	32433.48
570.095	32772.01
570.457	32932.23
570.819	32887.71
571.18	32991.21
571.542	33153.24
571.903	33152.33
572.265	33317.08
572.626	33407.02
572.987	33501.48
573.349	33622.83
573.71	33648.37
574.071	33778.08
574.432	33769.27
574.794	34023.27
575.155	34088.13
575.516	33915.03
575.877	34105.08
576.238	34124.74
576.599	34246.54
576.96	34294.45
577.32	34366.54
577.681	34462.13
578.042	34585.52
578.403	34498.97
578.763	34571.73
579.124	34485.86
579.485	34614.67
579.845	34935.79
580.206	34804.95
580.566	34809.69
580.927	34837.26
581.287	34970.59
581.648	34687.44
582.008	34959.97
582.368	34796.81
582.728	34949.8
583.089	34986.64
583.449	34868.45
583.809	34879.52
584.169	34984.83
584.529	34898.73
584.889	35020.53
585.249	34833.87
585.609	34914.77
585.969	35104.6
586.329	34912.97
586.688	35082.23
587.048	35022.12
587.408	35000.65
587.768	35075
588.127	34920.2
588.487	34952.06
588.846	35242.9
589.206	34973.3
589.565	35132.4
589.925	35223.69
590.284	35178.04
590.643	35177.14
591.003	35203.13
591.362	35210.59
591.721	35083.13
592.08	35160.64
592.44	35276.8
592.799	35139.85
593.158	35089.23
593.517	35206.07
593.876	35135.79
594.235	35027.77
594.593	35068.22
594.952	35216.91
595.311	35103.24
595.67	35172.39
596.029	35340.75
596.387	35282
596.746	35293.75
597.104	35172.17
597.463	35181.89
597.822	35252.62
598.18	35194.54
598.538	35274.99
598.897	35379.62
599.255	35124.94
599.613	35614.87
599.972	35402.44
600.33	35521.09
600.688	35303.69
601.046	35287.19
601.404	35619.16
601.762	35408.32
602.12	35601.31
602.478	35578.26
602.836	35714.53
603.194	35305.72
603.552	35468.21
603.91	35333.75
604.268	35415.78
604.625	35458.26
604.983	35575.1
605.341	35313.18
605.698	35585.49
606.056	35699.61
606.413	35625.72
606.771	35822.32
607.128	35811.02
607.485	35631.59
607.843	35657.13
608.2	35893.05
608.557	35868.2
608.914	35806.95
609.272	35968.31
609.629	35972.15
609.986	36098.47
610.343	35863.68
610.7	36252.82
611.057	36119.26
611.414	36174.18
611.771	36185.48
612.127	36337.34
612.484	36268.41
612.841	36310.9
613.198	36186.15
613.554	36251.46
613.911	36532.13
614.267	36426.37
614.624	36498.01
614.98	36443.1
615.337	36625.01
615.693	36676.76
616.05	36554.28
616.406	36745.01
616.762	36569.19
617.118	36581.85
617.475	36656.65
617.831	36724.9
618.187	36813.26
618.543	36797.66
618.899	37048.96
619.255	36955.85
619.611	36898
619.967	36990.43
620.323	37027.03
620.678	36837.66
621.034	36900.94
621.39	36991.33
621.746	36945.23
622.101	37263.41
622.457	36954.27
622.812	36992.01
623.168	37066.36
623.523	37003.08
623.879	37392.9
624.234	37036.07
624.589	37034.04
624.945	37192.68
625.3	37220.48
625.655	37109.29
626.01	36987.04
626.365	37168.27
626.72	37105
627.075	37036.98
627.43	36987.49
627.785	37073.14
628.14	37011.67
628.495	37108.84
628.85	37079.69
629.205	36770.54
629.559	37010.09
629.914	36900.26
630.269	36946.36
630.623	36976.87
630.978	36775.52
631.332	36895.29
631.687	36891.67
632.041	36796.76
632.396	36858
632.75	36752.47
633.104	36827.94
633.459	36630.66
633.813	36668.85
634.167	36547.05
634.521	36549.76
634.875	36421.4
635.229	36451
635.583	36265.47
635.937	36363.78
636.291	36252.82
636.645	36302.53
636.999	36232.93
637.352	36329.65
637.706	35996.78
638.06	36211.92
638.413	36111.8
638.767	35988.64
639.121	36095.76
639.474	35924.69
639.828	35985.48
640.181	35852.38
640.534	35712.95
640.888	35755.43
641.241	35611.25
641.594	35530.35
641.947	35651.7
642.301	35497.36
642.654	35642.21
643.007	35515.66
643.36	35427.3
643.713	35373.75
644.066	35556.79
644.419	35204.48
644.771	35006.3
645.124	34721.33
645.477	34552.98
645.83	34342.81
646.182	34301.91
646.535	34220.1
646.888	34288.8
647.24	34042.48
647.593	34183.95
647.945	34122.7
648.298	34065.76
648.65	33872.54
649.002	33795.03
649.355	34066.89
649.707	33773.34
650.059	34015.36
650.411	34220.78
650.763	34416.71
651.115	34721.78
651.467	34581.68
651.819	34676.14
652.171	34556.37
652.523	34417.16
652.875	34443.15
653.227	34369.03
653.578	34519.3
653.93	34311.4
654.282	34218.52
654.633	34298.07
654.985	34259.88
655.337	34297.39
655.688	34374.45
656.039	34356.37
656.391	33980.11
656.742	34070.95
657.094	34148.01
657.445	34191.86
657.796	34152.99
658.147	33970.84
658.498	34021.01
658.849	33977.4
659.2	34059.88
659.551	33900.56
659.902	33975.14
660.253	33780.79
660.604	33947.34
660.955	33638.2
661.306	33732.88
661.656	33622.38
662.007	33600.46
662.358	33577.18
662.708	33491.08
663.059	33506.22
663.409	33125.44
663.76	33489.95
664.11	33549.39
664.461	33483.17
664.811	33388.94
665.161	33225.1
665.511	33140.13
665.862	33132.67
666.212	33190.98
666.562	33160.47
666.912	33007.93
667.262	32813.81
667.612	32908.5
667.962	32893.36
668.312	32733.81
668.662	32919.12
669.011	32687.94
669.361	32611.56
669.711	32377.21
670.06	32388.51
670.41	32246.6
670.76	32267.84
671.109	32219.03
671.459	32188.29
671.808	31982.2
672.157	32139.03
672.507	31945.13
672.856	31806.83
673.205	31845.02
673.554	31999.14
673.904	31753.95
674.253	31891.58
674.602	31776.33
674.951	31244.14
675.3	31135.21
675.649	31570
675.998	31525.48
676.346	31497.24
676.695	31716.44
677.044	31443.45
677.393	31339.27
677.741	31373.85
678.09	31306.06
678.438	31246.17
678.787	31317.13
679.135	31256.57
679.484	31112.84
679.832	31304.93
680.181	31169.79
680.529	31117.36
680.877	31013.18
681.225	31149.22
681.573	31297.69
681.922	30957.82
682.27	31152.16
682.618	31105.16
682.966	30972.05
683.314	31265.83
683.661	31091.82
684.009	30951.94
684.357	30965.5
684.705	30914.65
685.053	31079.62
685.4	31000.75
685.748	30870.59
686.095	31007.08
686.443	30837.37
686.79	30847.31
687.138	31044.59
687.485	30888.21
687.832	30897.7
688.18	30987.19
688.527	30654.32
688.874	30782.68
689.221	30768.89
689.568	30697.71
689.915	30558.05
690.262	30587.66
690.609	30640.31
690.956	30555.34
691.303	30531.39
691.65	30376.81
691.997	30456.36
692.344	30429.92
692.69	30372.29
693.037	30391.5
693.383	30214.56
693.73	30315.8
694.077	30059.08
694.423	30039.65
694.769	30137.5
695.116	29977.28
695.462	30086.2
695.808	29986.54
696.155	30020.67
696.501	29846.66
696.847	29894.79
697.193	29601.92
697.539	29814.8
697.885	29575.71
698.231	29394.47
698.577	29434.69
698.923	29402.83
699.269	29415.26
699.614	29128.26
699.96	29191.31
700.306	29207.35
700.651	29117.19
700.997	28999.22
701.342	28956.51
701.688	28869.51
702.033	28726.01
702.379	28847.36
702.724	28709.74
703.069	28734.15
703.415	28403.31
703.76	28381.16
704.105	28362.63
704.45	28440.37
704.795	28155.4
705.14	27994.05
705.485	28074.28
705.83	28035.86
706.175	28069.3
706.52	27951.57
706.865	27794.96
707.209	27726.26
707.554	27766.49
707.899	27771.91
708.243	27514.97
708.588	27510.67
708.932	27273.85
709.277	27294.64
709.621	27385.25
709.966	27142.1
710.31	27265.94
710.654	27020.74
710.998	27151.59
711.342	27093.96
711.687	27030.69
712.031	26902.33
712.375	26853.29
712.719	26767.87
713.063	26760.41
713.407	26812.61
713.75	26691.49
714.094	26750.69
714.438	26577.82
714.782	26641.09
715.125	26444.26
715.469	26434.55
715.812	26401.78
716.156	26270.03
716.499	26289.01
716.843	26231.84
717.186	26057.38
717.53	26195.23
717.873	26229.58
718.216	26133.31
718.559	25992.52
718.902	25676.82
719.246	25918.85
719.589	25708.01
719.932	25716.6
720.275	25755.47
720.617	25665.3
720.96	25657.16
721.303	25646.77
721.646	25586.88
721.989	25450.39
722.331	25441.35
722.674	25434.8
723.016	25381.47
723.359	25284.97
723.701	25473.89
724.044	25197.06
724.386	25098.53
724.729	25153.45
725.071	25125.43
725.413	25156.39
725.755	25083.17
726.097	24970.85
726.439	24861.71
726.782	24872.78
727.124	24948.26
727.465	24891.53
727.807	24764.76
728.149	24726.34
728.491	24752.1
728.833	24664.42
729.175	24564.54
729.516	24480.02
729.858	24437.99
730.199	24568.15
730.541	24526.12
730.882	24501.49
731.224	24484.09
731.565	24266.01
731.906	24293.36
732.248	24206.81
732.589	24159.58
732.93	24103.76
733.271	24121.16
733.612	24052.23
733.953	24130.42
734.294	24032.57
734.635	23899.02
734.976	24021.5
735.317	23837.55
735.658	23833.48
735.999	23895.63
736.339	23796.42
736.68	23919.36
737.021	23803.2
737.361	23525.69
737.702	23680.72
738.042	23598.46
738.383	23522.31
738.723	23565.02
739.063	23449.99
739.404	23512.81
739.744	23413.38
740.084	23167.06
740.424	23377.68
740.764	23293.16
741.104	23358.24
741.444	23138.36
741.784	23109.43
742.124	23225.59
742.464	23161.86
742.804	23028.76
743.143	22952.6
743.483	22998.03
743.823	22963
744.162	22911.47
744.502	22917.58
744.841	22743.79
745.181	22868.99
745.52	22783.57
745.86	22820.85
746.199	22752.83
746.538	22706.06
746.877	22666.06
747.216	22681.2
747.556	22554.42
747.895	22581.54
748.234	22490.69
748.573	22491.15
748.911	22328.21
749.25	22353.07
749.589	22258.16
749.928	22378.61
750.267	22179.97
750.605	22208.22
750.944	22152.85
751.283	22090.93
751.621	22089.35
751.96	21930.26
752.298	21883.7
752.636	21937.49
752.975	21902.91
753.313	21760.09
753.651	21829.47
753.989	21776.81
754.327	21786.76
754.666	21621.79
755.004	21684.61
755.342	21709.7
755.679	21609.14
756.017	21424.96
756.355	21396.26
756.693	21280.1
757.031	21447.78
757.368	21249.37
757.706	21199.43
758.044	21101.58
758.381	21074.91
758.719	21013.67
759.056	21080.56
759.394	21006.67
759.731	20841.25
760.068	20823.85
760.405	20656.39
760.743	20698.88
761.08	20604.19
761.417	20505.21
761.754	20526.9
762.091	20386.57
762.428	20445.1
762.765	20232
763.102	20311.32
763.438	20126.69
763.775	20133.02
764.112	20135.95
764.449	20200.81
764.785	19952.91
765.122	19950.87
765.458	19833.59
765.795	19735.06
766.131	19728.28
766.467	19561.73
766.804	19599.92
767.14	19524.67
767.476	19494.16
767.812	19378.91
768.148	19373.94
768.485	19201.29
768.821	19137.79
769.157	19139.6
769.492	19110.67
769.828	19059.37
770.164	18869.32
770.5	18778.93
770.836	18841.3
771.171	18764.24
771.507	18667.97
771.842	18534.19
772.178	18453.96
772.513	18497.8
772.849	18429.56
773.184	18354.31
773.519	18290.35
773.855	18229.79
774.19	18085.84
774.525	18116.35
774.86	18041.32
775.195	18053.3
775.53	17908.44
775.865	17869.8
776.2	17705.96
776.535	17690.59
776.87	17554.55
777.205	17541.45
777.539	17427.78
777.874	17551.16
778.209	17372.41
778.543	17216.03
778.878	17170.83
779.212	17178.52
779.547	17102.59
779.881	17055.58
780.215	16910.95
780.55	16973.78
780.884	16890.39
781.218	16809.04
781.552	16822.59
781.886	16665.76
782.22	16673.45
782.554	16564.97
782.888	16446.11
783.222	16227.58
783.556	16276.39
783.889	16258.09
784.223	16249.73
784.557	16139.67
784.89	16061.26
785.224	16054.93
785.557	15968.83
785.891	15861.04
786.224	15841.6
786.558	15844.09
786.891	15661.04
787.224	15670.99
787.557	15554.38
787.891	15562.97
788.224	15539.69
788.557	15630.08
788.89	15583.53
789.223	15473.48
789.556	15348.28
789.888	15406.59
790.221	15208.63
790.554	15056.54
790.887	15131.57
791.219	15066.26
791.552	15022.42
791.884	14930.44
792.217	14864.45
792.549	14880.5
792.882	14742.2
793.214	14750.33
793.546	14660.39
793.879	14612.48
794.211	14531.36
794.543	14614.97
794.875	14438.48
795.207	14562.31
795.539	14391.7
795.871	14371.81
796.203	14325.71
796.535	14258.82
796.867	14263.79
797.198	14192.38
797.53	14114.87
797.862	14056.79
798.193	14082.55
798.525	14019.05
798.856	14002.56
799.188	13777.25
799.519	13739.06
799.85	13708.55
800.182	13745.84
800.513	13693.41
800.844	13566.18
801.175	13688.21
801.506	13624.26
801.837	13565.05
802.168	13480.31
802.499	13473.3
802.83	13436.02
803.161	13355.34
803.491	13345.85
803.822	13382.68
804.153	13342.01
804.483	13153.09
804.814	13140.66
805.145	13043.71
805.475	13093.88
805.805	13023.37
806.136	13019.3
806.466	13051.62
806.796	12997.84
807.126	12916.03
807.457	12821.57
807.787	12755.36
808.117	12780.67
808.447	12688.24
808.777	12753.55
809.107	12672.87
809.436	12542.93
809.766	12627.9
810.096	12601.46
810.426	12518.75
810.755	12575.02
811.085	12468.36
811.414	12507
811.744	12366.44
812.073	12338.87
812.403	12357.18
812.732	12330.96
813.061	12247.12
813.39	12166.45
813.719	12245.77
814.049	12207.8
814.378	12160.8
814.707	12119.89
815.036	12117.41
815.365	12020.23
815.693	11974.36
816.022	11995.6
816.351	11898.66
816.68	11825.44
817.008	11847.81
817.337	11779.11
817.665	11734.59
817.994	11755.61
818.322	11773.46
818.651	11682.39
818.979	11580.02
819.307	11679.9
819.636	11630.64
819.964	11568.72
820.292	11626.8
820.62	11610.98
820.948	11593.58
821.276	11603.75
821.604	11535.73
821.932	11563.75
822.259	11453.24
822.587	11481.27
822.915	11439.23
823.243	11500.93
823.57	11507.03
823.898	11548.83
824.225	11426.13
824.553	11431.32
824.88	11446.46
825.207	11540.93
825.535	11401.49
825.862	11487.82
826.189	11383.42
826.516	11431.55
826.843	11501.83
827.17	11594.26
827.497	11504.09
827.824	11457.54
828.151	11539.12
828.478	11439.69
828.805	11478.33
829.131	11412.57
829.458	11427.48
829.785	11384.77
830.111	11369.86
830.438	11401.95
830.764	11451.44
831.09	11437.2
831.417	11416.41
831.743	11379.35
832.069	11327.82
832.395	11304.55
832.722	11369.18
833.048	11396.52
833.374	11266.36
833.7	11272.23
834.026	11337.54
834.351	11320.14
834.677	11303.42
835.003	11270.65
835.329	11293.7
835.654	11283.08
835.98	11269.29
836.306	11192.91
836.631	11189.75
836.956	11274.72
837.282	11240.59
837.607	11132.57
837.932	11064.33
838.258	11048.28
838.583	11074.95
838.908	11029.53
839.233	10974.61
839.558	11011
839.883	10954.05
840.208	10984.1
840.533	10936.87
840.858	10992.01
841.182	11050.32
841.507	10921.73
841.832	10801.06
842.156	10875.18
842.481	10860.94
842.805	10902.3
843.13	10809.19
843.454	10840.83
843.778	10754.73
844.103	10649.2
844.427	10780.49
844.751	10636.77
845.075	10651.23
845.399	10600.16
845.723	10525.58
846.047	10522.2
846.371	10503.21
846.695	10495.3
847.019	10420.5
847.343	10344.12
847.666	10311.13
847.99	10279.94
848.313	10168.53
848.637	10181.19
848.96	10145.48
849.284	10121.08
849.607	10112.94
849.931	10039.5
850.254	10014.64
850.577	9887.86
850.9	9886.05
851.223	9867.3
851.546	9867.52
851.869	9716.34
852.192	9794.76
852.515	9690.13
852.838	9654.87
853.161	9646.96
853.483	9528.55
853.806	9548.66
854.129	9530.58
854.451	9465.95
854.774	9427.31
855.096	9388.67
855.419	9365.39
855.741	9425.5
856.063	9392.96
856.385	9288.33
856.708	9309.57
857.03	9239.74
857.352	9275.45
857.674	9213.75
857.996	9214.88
858.318	9129.24
858.64	9210.59
858.961	9063.48
859.283	9032.74
859.605	9044.04
859.926	9024.38
860.248	8984.61
860.57	8957.72
860.891	8998.62
861.212	9008.79
861.534	8940.99
861.855	8926.08
862.176	8936.7
862.498	8937.83
862.819	8907.77
863.14	8847.44
863.461	8813.54
863.782	8799.53
864.103	8798.85
864.424	8731.28
864.745	8757.27
865.065	8749.13
865.386	8686.09
865.707	8676.37
866.027	8696.71
866.348	8654
866.668	8625.97
866.989	8654.9
867.309	8542.36
867.63	8570.16
867.95	8565.64
868.27	8512.98
868.59	8554.79
868.91	8544.17
869.23	8506.2
869.55	8435.92
869.87	8564.96
870.19	8430.27
870.51	8513.66
870.83	8519.31
871.15	8380.56
871.469	8397.05
871.789	8420.33
872.109	8405.64
872.428	8317.06
872.748	8369.94
873.067	8396.6
873.386	8385.75
873.706	8309.15
874.025	8251.29
874.344	8280.9
874.663	8277.51
874.982	8213.78
875.301	8268.7
875.62	8161.13
875.939	8163.61
876.258	8234.35
876.577	8152.54
876.896	8178.3
877.214	8137.17
877.533	8126.33
877.852	8043.16
878.17	8130.85
878.489	8134.01
878.807	8120
879.125	8097.17
879.444	8119.09
879.762	8009.94
880.08	8036.38
880.398	7999.32
880.716	8005.88
881.034	8007.23
881.352	8021.02
881.67	7913
881.988	7977.63
882.306	7970.85
882.624	7916.84
882.941	7875.03
883.259	7820.8
883.577	7921.13
883.894	7849.95
884.212	7846.56
884.529	7843.4
884.846	7747.13
885.164	7764.75
885.481	7750.74
885.798	7716.85
886.115	7694.92
886.432	7673.46
886.75	7618.99
887.067	7717.52
887.383	7592.55
887.7	7643.17
888.017	7604.98
888.334	7555.95
888.651	7544.42
888.967	7558.88
889.284	7485.44
889.6	7470.75
889.917	7424.88
890.233	7426.68
890.55	7399.79
890.866	7433.24
891.182	7444.76
891.498	7321.38
891.815	7319.34
892.131	7231.89
892.447	7297.87
892.763	7236.41
893.079	7230.3
893.395	7226.46
893.71	7192.34
894.026	7210.19
894.342	7194.37
894.657	7168.84
894.973	7116.63
895.289	7085.9
895.604	7108.73
895.92	7031.21
896.235	6981.05
896.55	6981.05
896.865	6984.89
897.181	6926.36
897.496	7011.78
897.811	6909.86
898.126	6902.4
898.441	6852.91
898.756	6868.51
899.071	6810.65
899.386	6808.85
899.7	6785.12
900.015	6727.72
900.33	6683.2
900.644	6740.37
900.959	6686.59
901.273	6676.87
901.588	6625.35
901.902	6648.85
902.216	6633.03
902.531	6656.53
902.845	6549.87
903.159	6502.87
903.473	6471
903.787	6417.67
904.101	6414.28
904.415	6439.59
904.729	6343.32
905.042	6305.81
905.356	6315.53
905.67	6289.31
905.984	6293.61
906.297	6301.97
906.611	6208.41
906.924	6221.97
907.237	6154.85
907.551	6160.28
907.864	6142.65
908.177	6107.4
908.491	6115.76
908.804	6071.01
909.117	5983.56
909.43	5981.3
909.743	5941.98
910.056	6021.97
910.368	5937.68
910.681	5883
910.994	5913.5
911.307	5924.58
911.619	5847.29
911.932	5874.63
912.244	5809.78
912.557	5799.38
912.869	5793.28
913.181	5707.86
913.494	5753.05
913.806	5681.87
914.118	5693.17
914.43	5631.25
914.742	5660.63
915.054	5655.88
915.366	5580.63
915.678	5562.1
915.99	5545.15
916.302	5492.95
916.613	5495.21
916.925	5466.51
917.236	5443.68
917.548	5428.77
917.859	5422.67
918.171	5370.24
918.482	5376.12
918.794	5372.95
919.105	5316.91
919.416	5297.47
919.727	5280.75
920.038	5240.75
920.349	5190.58
920.66	5183.35
920.971	5189.68
921.282	5123.69
921.593	5113.52
921.903	5108.33
922.214	5084.6
922.525	5074.2
922.835	5016.8
923.146	5026.29
923.456	5037.59
923.767	4988.78
924.077	5004.6
924.387	4953.08
924.697	4930.48
925.008	4905.39
925.318	4891.83
925.628	4892.96
925.938	4909.24
926.248	4808
926.558	4779.97
926.867	4795.11
927.177	4780.65
927.487	4753.99
927.796	4713.08
928.106	4685.96
928.416	4678.96
928.725	4660.2
929.034	4671.73
929.344	4569.36
929.653	4622.92
929.962	4567.1
930.271	4562.13
930.581	4540.88
930.89	4533.2
931.199	4499.3
931.508	4505.63
931.817	4461.56
932.125	4456.59
932.434	4443.26
932.743	4446.2
933.051	4414.56
933.36	4361.91
933.669	4333.66
933.977	4321.91
934.286	4346.31
934.594	4327.78
934.902	4274.9
935.21	4276.94
935.519	4224.51
935.827	4243.26
936.135	4209.82
936.443	4186.77
936.751	4148.8
937.059	4171.63
937.367	4126.66
937.674	4123.27
937.982	4101.12
938.29	4091.63
938.597	4077.84
938.905	4050.73
939.213	4017.96
939.52	4011.63
939.827	4016.6
940.135	3974.57
940.442	3956.94
940.749	3961.46
941.056	3913.78
941.363	3871.52
941.67	3882.82
941.977	3898.41
942.284	3810.28
942.591	3842.14
942.898	3831.98
943.205	3803.5
943.511	3781.13
943.818	3733.45
944.125	3772.09
944.431	3765.54
944.738	3742.26
945.044	3701.36
945.35	3692.32
945.657	3703.62
945.963	3681.7
946.269	3623.62
946.575	3634.47
946.881	3648.25
947.187	3595.37
947.493	3617.52
947.799	3574.36
948.105	3591.76
948.41	3513.11
948.716	3544.75
949.022	3483.51
949.327	3532.55
949.633	3455.71
949.938	3486.9
950.244	3486.9
950.549	3429.05
950.854	3398.54
951.16	3420.69
951.465	3418.88
951.77	3351.54
952.075	3369.84
952.38	3348.37
952.685	3342.04
952.99	3315.15
953.294	3299.79
953.599	3286.23
953.904	3265.66
954.209	3236.28
954.513	3283.74
954.818	3231.54
955.122	3222.95
955.426	3241.26
955.731	3211.43
956.035	3159.22
956.339	3156.51
956.643	3162.61
956.948	3120.81
957.252	3133.01
957.556	3103.41
957.86	3122.84
958.163	3051.88
958.467	3078.32
958.771	3050.53
959.075	3088.72
959.378	3051.66
959.682	3027.25
959.985	3024.77
960.289	3012.11
960.592	2993.13
960.896	2982.28
961.199	2956.52
961.502	2956.97
961.805	2940.7
962.108	2920.14
962.411	2921.26
962.714	2870.87
963.017	2879.23
963.32	2858.22
963.623	2848.72
963.926	2856.41
964.228	2799.91
964.531	2831.32
964.833	2842.17
965.136	2791.55
965.438	2821.15
965.741	2775.28
966.043	2755.17
966.345	2758.56
966.648	2735.51
966.95	2763.98
967.252	2712
967.554	2723.98
967.856	2671.1
968.158	2668.84
968.46	2674.27
968.761	2667.71
969.063	2618.22
969.365	2612.57
969.666	2603.99
969.968	2612.12
970.269	2611.89
970.571	2573.25
970.872	2572.12
971.174	2568.28
971.475	2531.67
971.776	2570.99
972.077	2560.6
972.378	2540.48
972.679	2528.05
972.98	2521.28
973.281	2468.17
973.582	2487.38
973.883	2487.15
974.183	2435.4
974.484	2464.33
974.785	2464.78
975.085	2435.18
975.386	2425.01
975.686	2420.71
975.986	2389.75
976.287	2393.6
976.587	2380.71
976.887	2367.16
977.187	2391.34
977.487	2371.67
977.787	2294.84
978.087	2349.3
978.387	2339.59
978.687	2311.79
978.987	2300.26
979.286	2255.75
979.586	2256.65
979.885	2274.28
980.185	2232.7
980.484	2252.36
980.784	2222.07
981.083	2220.94
981.382	2218.91
981.682	2235.18
981.981	2225.01
982.28	2189.53
982.579	2159.7
982.878	2189.08
983.177	2182.75
983.475	2145.01
983.774	2169.87
984.073	2108.41
984.372	2136.88
984.67	2135.97
984.969	2109.76
985.267	2118.12
985.566	2109.53
985.864	2091.46
986.162	2084.9
986.461	2024.11
986.759	2035.19
987.057	2019.59
987.355	2027.28
987.653	2023.89
987.951	2024.79
988.249	2009.88
988.547	1981.85
988.844	1987.28
989.142	2003.1
989.44	1981.63
989.737	1973.27
990.035	1962.19
990.332	1939.6
990.63	1942.76
990.927	1927.62
991.224	1927.62
991.521	1895.98
991.819	1874.96
992.116	1925.13
992.413	1897.11
992.71	1895.76
993.006	1824.57
993.303	1848.3
993.6	1857.79
993.897	1844.91
994.193	1807.4
994.49	1802.2
994.787	1806.72
995.083	1830.45
995.379	1807.4
995.676	1765.36
995.972	1785.93
996.268	1763.56
996.565	1759.26
996.861	1776.21
997.157	1781.41
997.453	1751.13
997.749	1730.34
998.044	1733.05
998.34	1726.72
998.636	1719.04
998.932	1714.97
999.227	1714.74
999.523	1689.21
999.818	1660.96
1000.114	1687.17
1000.409	1679.49
1000.704	1620.51
1001	1628.87
1001.295	1625.93
1001.59	1630.68
1001.885	1611.92
1002.18	1614.18
1002.475	1634.97
1002.77	1625.25
1003.065	1587.06
1003.359	1570.34
1003.654	1539.15
1003.949	1550.68
1004.243	1550.45
1004.538	1566.05
1004.832	1552.49
1005.127	1538.02
1005.421	1546.16
1005.715	1516.1
1006.009	1475.65
1006.304	1497.57
1006.598	1490.57
1006.892	1467.29
1007.186	1445.6
1007.48	1484.24
1007.773	1428.42
1008.067	1439.27
1008.361	1427.52
1008.655	1439.95
1008.948	1411.25
1009.242	1413.51
1009.535	1415.54
1009.829	1405.15
1010.122	1394.53
1010.415	1397.69
1010.708	1391.59
1011.001	1362.44
1011.295	1358.59
1011.588	1352.94
1011.881	1371.7
1012.173	1354.75
1012.466	1348.2
1012.759	1338.48
1013.052	1328.54
1013.344	1325.83
1013.637	1313.85
1013.93	1281.76
1014.222	1300.29
1014.514	1290.35
1014.807	1294.19
1015.099	1250.35
1015.391	1273.62
1015.683	1248.77
1015.976	1253.74
1016.268	1259.39
1016.56	1204.93
1016.851	1210.58
1017.143	1218.03
1017.435	1228.88
1017.727	1207.41
1018.018	1205.6
1018.31	1209.22
1018.602	1210.12
1018.893	1180.75
1019.185	1162.22
1019.476	1164.25
1019.767	1169.9
1020.058	1144.14
1020.35	1134.19
1020.641	1142.33
1020.932	1154.76
1021.223	1105.72
1021.514	1110.24
1021.804	1104.59
1022.095	1106.62
1022.386	1087.64
1022.677	1067.3
1022.967	1100.97
1023.258	1080.86
1023.548	1059.17
1023.839	1073.4
1024.129	1050.81
1024.419	1063.69
1024.709	1043.35
1025	1058.04
1025.29	1024.59
1025.58	1026.4
1025.87	1010.81
1026.16	997.02
1026.449	1030.47
1026.739	962.9
1027.029	1017.81
1027.319	991.37
1027.608	992.95
1027.898	984.82
1028.187	964.48
1028.477	991.15
1028.766	960.86
1029.055	930.81
1029.344	970.58
1029.634	939.62
1029.923	926.06
1030.212	942.79
1030.501	932.62
1030.79	921.09
1031.078	896.46
1031.367	912.05
1031.656	905.05
1031.945	899.17
1032.233	905.95
1032.522	889.91
1032.81	893.07
1033.099	868.21
1033.387	865.05
1033.675	874.77
1033.963	872.05
1034.251	852.84
1034.54	857.14
1034.828	856.01
1035.116	833.86
1035.403	849.46
1035.691	810.13
1035.979	815.78
1036.267	811.94
1036.554	817.82
1036.842	806.97
1037.129	794.99
1037.417	768.55
1037.704	799.74
1037.992	791.6
1038.279	781.43
1038.566	781.66
1038.853	781.66
1039.14	781.66
