Data from White_reflection_standard_FLMS001491_089.txt Node
Date: Tue Feb 07 10:32:13 GMT 2017
User: dcchb
Spectrometer: FLMS00149
Trigger mode: 0
Integration Time (sec): 2.000000E-2
Scans to average: 10
Electric dark correction enabled: true
Nonlinearity correction enabled: false
Boxcar width: 0
XAxis mode: Wavelengths
Number of Pixels in Spectrum: 2048
>>>>>Begin Spectral Data<<<<<
341.393	-14.49
341.776	-14.49
342.16	-14.49
342.543	-59.69
342.927	-52.46
343.31	-54.49
343.693	-67.15
344.077	-55.85
344.46	-73.25
344.843	-56.07
345.226	-35.73
345.61	-43.64
345.993	-14.27
346.376	-13.81
346.759	15.11
347.142	14.43
347.525	30.48
347.908	50.82
348.291	92.62
348.674	103.47
349.057	107.31
349.44	119.74
349.823	131.04
350.206	157.03
350.588	234.54
350.971	242.68
351.354	277.48
351.737	277.25
352.119	284.94
352.502	331.94
352.884	318.83
353.267	331.04
353.65	326.06
354.032	343.69
354.414	359.06
354.797	365.39
355.179	350.25
355.562	364.93
355.944	380.53
356.326	381.43
356.709	364.26
357.091	400.64
357.473	400.41
357.855	394.09
358.238	417.59
358.62	386.85
359.002	410.36
359.384	425.27
359.766	382.11
360.148	394.31
360.53	406.06
360.912	406.51
361.294	415.33
361.676	415.78
362.057	430.24
362.439	406.29
362.821	409
363.203	409
363.584	416.91
363.966	436.57
364.348	410.58
364.729	428.44
365.111	394.76
365.493	412.84
365.874	418.49
366.256	415.33
366.637	413.29
367.019	439.28
367.4	407.19
367.781	409
368.163	411.03
368.544	416.01
368.925	414.2
369.306	420.3
369.688	436.8
370.069	433.18
370.45	430.47
370.831	430.24
371.212	451.49
371.593	443.8
371.974	450.36
372.355	448.32
372.736	453.97
373.117	448.1
373.498	450.81
373.879	456
374.26	443.8
374.641	443.58
375.021	443.35
375.402	485.83
375.783	488.55
376.163	496
376.544	497.81
376.925	480.64
377.305	483.8
377.686	493.29
378.066	495.78
378.447	495.33
378.827	501.43
379.208	508.66
379.588	529.9
379.968	533.07
380.349	544.36
380.729	526.96
381.109	516.79
381.489	569.45
381.87	527.64
382.25	549.79
382.63	551.14
383.01	558.15
383.39	579.39
383.77	568.54
384.15	561.99
384.53	555.66
384.91	583.23
385.29	606.28
385.67	606.96
386.049	601.09
386.429	619.39
386.809	616.68
387.189	630.01
387.568	640.18
387.948	642.89
388.328	660.75
388.707	660.29
389.087	678.6
389.466	699.61
389.846	679.95
390.225	691.25
390.605	690.58
390.984	703.46
391.363	727.86
391.743	727.41
392.122	713.85
392.501	730.12
392.881	740.07
393.26	753.62
393.639	750.23
394.018	761.76
394.397	779.39
394.776	806.73
395.155	802.89
395.534	797.24
395.913	823.9
396.292	831.14
396.671	807.18
397.05	840.85
397.429	837.92
397.808	841.98
398.186	870.23
398.565	866.84
398.944	867.29
399.323	891.25
399.701	906.16
400.08	893.73
400.458	902.55
400.837	932.38
401.215	898.48
401.594	933.28
401.972	925.82
402.351	932.38
402.729	947.74
403.107	994.3
403.486	996.1
403.864	1003.11
404.242	1014.18
404.62	1032.49
404.999	1003.79
405.377	1019.83
405.755	1040.85
406.133	1074.29
406.511	1099.15
406.889	1111.81
407.267	1120.85
407.645	1150
408.023	1149.32
408.401	1164.01
408.779	1154.29
409.156	1180.51
409.534	1213.27
409.912	1207.17
410.29	1258.92
410.667	1268.64
411.045	1270.9
411.422	1284.68
411.8	1302.99
412.178	1313.61
412.555	1327.85
412.933	1377.34
413.31	1394.06
413.687	1402.19
414.065	1403.55
414.442	1418.69
414.819	1464.11
415.197	1432.7
415.574	1489.2
415.951	1479.48
416.328	1516.77
416.705	1515.64
417.082	1544.56
417.46	1555.64
417.837	1584.11
418.214	1620.72
418.591	1612.81
418.967	1621.4
419.344	1632.02
419.721	1673.6
420.098	1645.13
420.475	1691
420.852	1696.88
421.228	1704.56
421.605	1728.74
421.982	1777.78
422.358	1782.52
422.735	1830.21
423.111	1807.38
423.488	1859.13
423.864	1864.33
424.241	1872.46
424.617	1885.12
424.994	1918.34
425.37	1941.16
425.746	1972.35
426.123	1995.63
426.499	2056.19
426.875	2015.51
427.251	2108.16
427.627	2120.14
428.003	2094.61
428.379	2169.18
428.756	2183.19
429.132	2207.6
429.507	2218.44
429.883	2274.94
430.259	2295.96
430.635	2294.37
431.011	2375.28
431.387	2420.93
431.763	2463.41
432.138	2506.35
432.514	2506.12
432.89	2527.59
433.265	2562.84
433.641	2579.79
434.016	2610.98
434.392	2698.21
434.767	2704.31
435.143	2691.2
435.518	2772.78
435.894	2798.77
436.269	2836.51
436.644	2882.61
437.02	2943.85
437.395	2923.74
437.77	2952.66
438.145	3022.72
438.52	2989.95
438.895	3037.18
439.271	3062.04
439.646	3148.59
440.021	3172.77
440.395	3181.81
440.77	3137.74
441.145	3189.94
441.52	3257.29
441.895	3238.3
442.27	3269.26
442.645	3313.1
443.019	3363.73
443.394	3389.04
443.769	3408.24
444.143	3391.07
444.518	3463.61
444.892	3471.52
445.267	3489.15
445.641	3559.2
446.016	3577.73
446.39	3574.79
446.764	3608.69
447.139	3634.23
447.513	3670.84
447.887	3678.52
448.262	3707.9
448.636	3703.83
449.01	3783.38
449.384	3824.5
449.758	3844.84
450.132	3903.82
450.506	3917.83
450.88	3960.77
451.254	3975.69
451.628	4031.05
452.002	4073.31
452.376	4112.63
452.75	4165.29
453.123	4162.57
453.497	4253.87
453.871	4268.11
454.244	4366.41
454.618	4395.11
454.992	4488.67
455.365	4435.56
455.739	4595.78
456.112	4576.8
456.486	4689.11
456.859	4681.88
457.232	4814.76
457.606	4859.05
457.979	4878.94
458.352	5024.25
458.725	5061.76
459.099	5033.74
459.472	5141.98
459.845	5212.72
460.218	5292.49
460.591	5286.61
460.964	5372.49
461.337	5515.98
461.71	5566.15
462.083	5629.88
462.456	5660.84
462.829	5682.76
463.201	5802.31
463.574	5793.27
463.947	5885.47
464.32	6014.28
464.692	6060.38
465.065	6171.79
465.438	6279.81
465.81	6312.57
466.183	6404.32
466.555	6503.98
466.928	6579.46
467.3	6582.62
467.672	6723.18
468.045	6847.25
468.417	6875.5
468.789	6950.3
469.161	7069.84
469.534	7186
469.906	7338.31
470.278	7369.5
470.65	7460.34
471.022	7660.79
471.394	7760.9
471.766	7770.61
472.138	7957.05
472.51	8081.57
472.882	8237.95
473.253	8268.91
473.625	8458.73
473.997	8585.96
474.369	8653.98
474.74	8704.38
475.112	8941.88
475.484	9082.44
475.855	9265.72
476.227	9324.25
476.598	9629.1
476.97	9649.21
477.341	9870.22
477.713	10089.2
478.084	10125.13
478.455	10420.49
478.827	10480.15
479.198	10854.15
479.569	10789.29
479.94	11098.21
480.311	11242.84
480.682	11514.92
481.053	11692.32
481.424	11960.34
481.795	11998.98
482.166	12212.08
482.537	12354
482.908	12728.9
483.279	12819.3
483.65	13014.32
484.021	13278.72
484.391	13389.45
484.762	13525.27
485.133	13713.28
485.503	13981.98
485.874	14251.8
486.244	14259.94
486.615	14600.94
486.985	14715.97
487.356	15131.78
487.726	15210.87
488.097	15546.46
488.467	15586
488.837	16011.08
489.207	16119.1
489.578	16323.38
489.948	16520.67
490.318	16700.55
490.688	16887.66
491.058	17028.22
491.428	17310.93
491.798	17461.66
492.168	17858.26
492.538	17790.92
492.908	18086.5
493.278	18276.33
493.648	18404.91
494.017	18609.43
494.387	18771.68
494.757	18845.8
495.126	19146.13
495.496	19221.16
495.866	19352.91
496.235	19606.01
496.605	19727.81
496.974	19832.9
497.344	20019.78
497.713	20155.15
498.082	20395.59
498.452	20687.11
498.821	20645.53
499.19	20723.04
499.559	21041.9
499.928	21241.45
500.298	21231.28
500.667	21453.42
501.036	21470.82
501.405	21673.98
501.774	21776.35
502.143	21918.49
502.512	22068.09
502.88	22294.75
503.249	22370.23
503.618	22590.79
503.987	22549.89
504.356	22738.58
504.724	22975.19
505.093	23128.86
505.462	23177.44
505.83	23455.4
506.199	23678.45
506.567	23875.73
506.936	23883.64
507.304	24178.55
507.672	24346.9
508.041	24397.3
508.409	24638.65
508.777	24813.1
509.145	25006.09
509.514	25109.14
509.882	25309.81
510.25	25427.33
510.618	25575.34
510.986	25610.15
511.354	25938.95
511.722	26081.77
512.09	26349.79
512.458	26399.28
512.826	26609.22
513.193	26754.97
513.561	26917.68
513.929	27165.59
514.297	27366.48
514.664	27648.51
515.032	27718.34
515.4	27995.39
515.767	28022.96
516.135	28341.6
516.502	28217.99
516.869	28785.43
517.237	28788.82
517.604	28879.66
517.972	29256.6
518.339	29492.53
518.706	29519.87
519.073	29646.42
519.44	29855.46
519.808	30279.63
520.175	30206.86
520.542	30696.79
520.909	30759.84
521.276	30854.53
521.643	31335.64
522.009	31446.38
522.376	31655.18
522.743	31818.34
523.11	32315.51
523.477	32542.17
523.843	32681.82
524.21	33030.52
524.577	33193.45
524.943	33349.15
525.31	33638.18
525.676	33982.36
526.043	34104.61
526.409	34315.91
526.776	34661.89
527.142	34825.5
527.508	35160.18
527.874	35239.27
528.241	35405.14
528.607	35558.58
528.973	36029.98
529.339	35922.19
529.705	36413.25
530.071	36564.43
530.437	36840.81
530.803	37051.65
531.169	37171.42
531.535	37170.29
531.901	37376.39
532.267	37611.64
532.632	37906.77
532.998	37930.5
533.364	38219.76
533.73	38322.35
534.095	38752.63
534.461	38704.26
534.826	39092.96
535.192	38944.48
535.557	39472.38
535.923	39318.49
536.288	39567.97
536.653	39758.7
537.019	39701.3
537.384	40005.25
537.749	40157.56
538.114	40232.36
538.479	40353.04
538.845	40485.91
539.21	40581.96
539.575	40836.41
539.94	40794.61
540.305	41153.24
540.67	41017.42
541.034	41260.81
541.399	41341.48
541.764	41635.71
542.129	41754.35
542.494	41806.78
542.858	42088.36
543.223	41972.43
543.587	42304.17
543.952	42243.38
544.316	42470.49
544.681	42480.89
545.045	42653.77
545.41	42992.97
545.774	43042.23
546.138	43209.23
546.503	43220.76
546.867	43344.14
547.231	43848.99
547.595	43781.19
547.959	43949.1
548.324	43889.89
548.688	44061.86
549.052	44272.03
549.416	44332.59
549.779	44407.84
550.143	44594.96
550.507	44768.29
550.871	44871.33
551.235	44900.71
551.599	45337.31
551.962	45425.22
552.326	45549.51
552.689	45673.35
553.053	45626.34
553.417	45751.99
553.78	46370.73
554.143	46064.75
554.507	46260
554.87	46559.65
555.234	46906.54
555.597	46669.48
555.96	46773.66
556.323	47137.94
556.686	47256.58
557.05	47493.19
557.413	47462.45
557.776	47694.31
558.139	47977.69
558.502	47975.21
558.865	48233.51
559.228	48439.15
559.59	48516.21
559.953	48728.41
560.316	49119.81
560.679	49091.79
561.041	49199.58
561.404	49391.22
561.767	49687.7
562.129	49517.77
562.492	49937.64
562.854	49991.43
563.217	50059.45
563.579	50178.99
563.941	50359.1
564.304	50518.87
564.666	50769.26
565.028	50786.43
565.39	50910.72
565.753	51161.34
566.115	51334.67
566.477	51393.65
566.839	51439.52
567.201	51645.62
567.563	51728.78
567.925	51923.13
568.287	52068.21
568.648	52055.33
569.01	52265.04
569.372	52454.41
569.734	52336.45
570.095	52584.8
570.457	52708.19
570.819	52785.93
571.18	52810.11
571.542	52920.61
571.903	53019.82
572.265	53231.34
572.626	53211.23
572.987	53243.54
573.349	53395.18
573.71	53567.15
574.071	53495.51
574.432	53587.04
574.794	53888.05
575.155	53856.63
575.516	53728.05
575.877	53983.64
576.238	53935.28
576.599	54044.88
576.96	54178.66
577.32	54117.64
577.681	54239
578.042	54300.24
578.403	54277.19
578.763	54286.68
579.124	54442.16
579.485	54507.92
579.845	54526.22
580.206	54421.14
580.566	54494.81
580.927	54499.33
581.287	54734.13
581.648	54566.9
582.008	54742.71
582.368	54563.28
582.728	54707.23
583.089	54699.1
583.449	54765.54
583.809	54685.31
584.169	54754.69
584.529	54745.2
584.889	55048.24
585.249	54780.23
585.609	54733.67
585.969	54920.11
586.329	54689.61
586.688	54881.92
587.048	54795.82
587.408	54739.55
587.768	54831.98
588.127	54783.39
588.487	54747.46
588.846	54908.13
589.206	54759.44
589.565	54767.12
589.925	54897.29
590.284	54840.11
590.643	54914.01
591.003	54901.81
591.362	54937.51
591.721	54961.92
592.08	54856.83
592.44	54938.19
592.799	55019.99
593.158	54936.61
593.517	54954.68
593.876	54994.01
594.235	54928.02
594.593	54989.26
594.952	55039.43
595.311	55035.13
595.67	55004.85
596.029	55143.15
596.387	55214.57
596.746	55246.2
597.104	55101.8
597.463	55151.29
597.822	55227.9
598.18	55134.57
598.538	55071.52
598.897	55261.34
599.255	55062.7
599.613	55429.02
599.972	55194.68
600.33	55284.62
600.688	55250.72
601.046	55288.24
601.404	55371.4
601.762	55360.55
602.12	55479.19
602.478	55522.81
602.836	55503.37
603.194	55406.42
603.552	55478.96
603.91	55344.73
604.268	55556.93
604.625	55492.3
604.983	55593.31
605.341	55458.4
605.698	55638.96
606.056	55699.98
606.413	55618.17
606.771	55702.91
607.128	55794.21
607.485	55627.44
607.843	55586.08
608.2	55842.12
608.557	55863.14
608.914	55843.48
609.272	55921.21
609.629	55986.75
609.986	56037.14
610.343	55890.93
610.7	56073.98
611.057	56073.98
611.414	56074.43
611.771	56054.09
612.127	56116.01
612.484	56180.42
612.841	56274.2
613.198	56120.08
613.554	56185.39
613.911	56291.37
614.267	56231.94
614.624	56246.85
614.98	56226.52
615.337	56385.61
615.693	56359.85
616.05	56313.07
616.406	56521.2
616.762	56355.33
617.118	56402.1
617.475	56419.05
617.831	56517.13
618.187	56389.45
618.543	56501.08
618.899	56542.44
619.255	56584.7
619.611	56542.67
619.967	56611.82
620.323	56654.53
620.678	56516.45
621.034	56483.46
621.39	56481.65
621.746	56474.42
622.101	56762.55
622.457	56469.45
622.812	56604.36
623.168	56639.84
623.523	56659.27
623.879	56721.87
624.234	56500.18
624.589	56623.57
624.945	56652.49
625.3	56692.72
625.655	56641.65
626.01	56664.7
626.365	56584.02
626.72	56644.36
627.075	56597.81
627.43	56642.55
627.785	56481.88
628.14	56611.14
628.495	56605.94
628.85	56571.14
629.205	56435.78
629.559	56686.39
629.914	56417.7
630.269	56518.71
630.623	56398.71
630.978	56323.69
631.332	56497.02
631.687	56523.23
632.041	56331.15
632.396	56471.26
632.75	56337.25
633.104	56350.13
633.459	56209.57
633.813	56244.82
634.167	56134.77
634.521	56178.38
634.875	56122.79
635.229	56073.75
635.583	55983.36
635.937	55971.61
636.291	55985.84
636.645	56047.09
636.999	55942.91
637.352	55988.1
637.706	55785.85
638.06	55857.71
638.413	55849.58
638.767	55708.79
639.121	55815.45
639.474	55636.7
639.828	55601
640.181	55673.54
640.534	55647.1
640.888	55597.61
641.241	55507.66
641.594	55516.03
641.947	55542.24
642.301	55423.6
642.654	55476.03
643.007	55463.82
643.36	55360.1
643.713	55299.53
644.066	55391.28
644.419	55107.68
644.771	55027
645.124	54737.52
645.477	54683.73
645.83	54537.97
646.182	54366.23
646.535	54409.16
646.888	54358.09
647.24	54144.99
647.593	54377.07
647.945	54231.77
648.298	54155.84
648.65	54132.11
649.002	53993.58
649.355	54116.51
649.707	53979.8
650.059	54160.81
650.411	54471.08
650.763	54459.78
651.115	54784.75
651.467	54581.36
651.819	54579.55
652.171	54566.45
652.523	54509.27
652.875	54504.53
653.227	54359.22
653.578	54566.67
653.93	54434.02
654.282	54292.1
654.633	54256.62
654.985	54340.92
655.337	54338.43
655.688	54306.57
656.039	54260.69
656.391	54092.56
656.742	54183.41
657.094	54121.49
657.445	54285.55
657.796	54121.03
658.147	54138.89
658.498	53997.2
658.849	54186.8
659.2	54059.12
659.551	53967.82
659.902	54054.14
660.253	53994.26
660.604	53947.93
660.955	53940.02
661.306	53951.55
661.656	53912.23
662.007	53841.95
662.358	53884.66
662.708	53908.61
663.059	53780.93
663.409	53771.89
663.76	53947.71
664.11	53825.45
664.461	53832.91
664.811	53705.68
665.161	53715.62
665.511	53703.87
665.862	53654.83
666.212	53818.22
666.562	53730.76
666.912	53727.15
667.262	53620.71
667.612	53582.07
667.962	53698.67
668.312	53538.9
668.662	53694.15
669.011	53570.77
669.361	53511.33
669.711	53534.84
670.06	53475.63
670.41	53392.92
670.76	53335.07
671.109	53459.58
671.459	53353.82
671.808	53291.9
672.157	53317.89
672.507	53168.07
672.856	53295.75
673.205	53190.21
673.554	53317.67
673.904	53171.91
674.253	53342.98
674.602	53183.21
674.951	52678.36
675.3	52658.93
675.649	53079.25
675.998	53044
676.346	53078.8
676.695	53109.08
677.044	52909.77
677.393	53056.43
677.741	52998.13
678.09	52938.69
678.438	52870.9
678.787	52895.53
679.135	52888.3
679.484	52616.67
679.832	52863.89
680.181	52608.31
680.529	52692.6
680.877	52642.88
681.225	52553.17
681.573	52808.53
681.922	52455.99
682.27	52387.97
682.618	52428.88
682.966	52310.23
683.314	52364.24
683.661	52273.4
684.009	52087.19
684.357	52030.24
684.705	51898.72
685.053	51967.19
685.4	51948.66
685.748	51776.69
686.095	51810.81
686.443	51698.5
686.79	51537.37
687.138	51627.77
687.485	51615.34
687.832	51447.43
688.18	51593.64
688.527	51296.7
688.874	51274.1
689.221	51176.25
689.568	51080.89
689.915	50938.07
690.262	50953.21
690.609	50899.65
690.956	50710.28
691.303	50642.71
691.65	50604.06
691.997	50504.86
692.344	50347.12
692.69	50303.96
693.037	50332.89
693.383	49987.81
693.73	50168.14
694.077	49930.18
694.423	49927.02
694.769	49767.7
695.116	49694.48
695.462	49552.57
695.808	49444.32
696.155	49390.31
696.501	49207.49
696.847	49167.72
697.193	48886.14
697.539	49114.39
697.885	48907.39
698.231	48666.26
698.577	48682.99
698.923	48613.38
699.269	48368.87
699.614	48346.95
699.96	48265.82
700.306	48184.47
700.651	48156.67
700.997	47768.66
701.342	47808.66
701.688	47637.59
702.033	47688.89
702.379	47668.77
702.724	47502.68
703.069	47531.6
703.415	47112.63
703.76	47150.37
704.105	47204.83
704.45	46923.94
704.795	46841.9
705.14	46641.91
705.485	46724.62
705.83	46635.36
706.175	46519.2
706.52	46309.49
706.865	46193.56
707.209	46166.67
707.554	45988.82
707.899	46093.68
708.243	45863.62
708.588	45811.2
708.932	45614.82
709.277	45542.96
709.621	45506.8
709.966	45288.05
710.31	45402.39
710.654	44956.08
710.998	44994.27
711.342	45066.58
711.687	44778.46
712.031	44727.61
712.375	44592.47
712.719	44656.2
713.063	44529.42
713.407	44695.75
713.75	44381.4
714.094	44253.05
714.438	44233.16
714.782	44147.51
715.125	44055.54
715.469	44100.51
715.812	43773.96
716.156	43733.96
716.499	43591.82
716.843	43759.5
717.186	43479.28
717.53	43598.83
717.873	43512.95
718.216	43467.08
718.559	43236.8
718.902	42920.43
719.246	43008.56
719.589	42964.27
719.932	42860.77
720.275	42688.79
720.617	42716.81
720.96	42692.41
721.303	42649.25
721.646	42653.09
721.989	42261.23
722.331	42605.63
722.674	42123.16
723.016	42263.04
723.359	42242.7
723.701	42306.88
724.044	41981.92
724.386	41789.61
724.729	42023.5
725.071	41842.26
725.413	41825.54
725.755	41811.75
726.097	41558.65
726.439	41419.45
726.782	41506.9
727.124	41621.93
727.465	41376.06
727.807	41226.23
728.149	41186.01
728.491	40965.45
728.833	41182.84
729.175	40949.86
729.516	40854.49
729.858	40943.3
730.199	40850.65
730.541	40710.31
730.882	40815.62
731.224	40724.1
731.565	40515.06
731.906	40569.53
732.248	40579.7
732.589	40300.83
732.93	40272.59
733.271	40188.07
733.612	40240.5
733.953	40236.88
734.294	40036.21
734.635	39988.98
734.976	39997.11
735.317	39806.38
735.658	39737.01
735.999	39654.3
736.339	39473.74
736.68	39621.3
737.021	39600.51
737.361	39457.47
737.702	39618.59
738.042	39333.63
738.383	39311.71
738.723	39292.5
739.063	39284.81
739.404	39196
739.744	39162.56
740.084	39013.64
740.424	39054.31
740.764	38860.64
741.104	38888.21
741.444	38749.24
741.784	38620.88
742.124	38740.42
742.464	38747.65
742.804	38542.91
743.143	38471.5
743.483	38465.63
743.823	38245.29
744.162	38211.85
744.502	38253.88
744.841	38046.43
745.181	38195.58
745.52	38130.27
745.86	38042.59
746.199	38028.12
746.538	37875.13
746.877	37981.8
747.216	37891.18
747.556	37774.8
747.895	37755.59
748.234	37398.76
748.573	37465.88
748.911	37549.27
749.25	37444.64
749.589	37305.66
749.928	37269.27
750.267	37337.52
750.605	37018.66
750.944	37038.55
751.283	36824.54
751.621	36973.24
751.96	36702.96
752.298	36744.32
752.636	36688.27
752.975	36515.4
753.313	36468.84
753.651	36564.21
753.989	36303.42
754.327	36225.23
754.666	35967.84
755.004	36088.97
755.342	35995.64
755.679	35869.99
756.017	35836.09
756.355	35900.72
756.693	35685.14
757.031	35662.08
757.368	35449.21
757.706	35441.75
758.044	35300.74
758.381	35305.48
758.719	35045.83
759.056	35080.41
759.394	35000.86
759.731	34722
760.068	34581.89
760.405	34578.5
760.743	34426.41
761.08	34407.88
761.417	34347.54
761.754	34155.46
762.091	34143.03
762.428	34097.83
762.765	33924.96
763.102	34060.32
763.438	33716.37
763.775	33518.19
764.112	33630.27
764.449	33561.58
764.785	33544.85
765.122	33257.18
765.458	33044.75
765.795	33002.95
766.131	32831.2
766.467	32783.52
766.804	32670.3
767.14	32502.85
767.476	32580.81
767.812	32346.47
768.148	32320.48
768.485	32146.92
768.821	32075.06
769.157	31896.31
769.492	31899.25
769.828	31847.04
770.164	31481.18
770.5	31499.26
770.836	31455.87
771.171	31323.44
771.507	31189.89
771.842	31056.1
772.178	30983.11
772.513	30860.4
772.849	30822.89
773.184	30493.18
773.519	30648.88
773.855	30382
774.19	30357.59
774.525	30212.74
774.86	30222.23
775.195	30027.43
775.53	30033.76
775.865	29756.03
776.2	29535.24
776.535	29420.44
776.87	29525.52
777.205	29239.65
777.539	29192.65
777.874	29226.77
778.209	29058.42
778.543	28997.63
778.878	28721.25
779.212	28658.88
779.547	28503.63
779.881	28633.8
780.215	28390.64
780.55	28481.48
780.884	28326.46
781.218	28067.26
781.552	28100.48
781.886	28043.53
782.22	27677.66
782.554	27792.91
782.888	27533.26
783.222	27424.11
783.556	27367.84
783.889	27178.92
784.223	26997.23
784.557	27009.88
784.89	27015.31
785.224	26869.77
785.557	26781.64
785.891	26661.19
786.224	26574.41
786.558	26637.92
786.891	26452.61
787.224	26250.35
787.557	26221.43
787.891	26208.1
788.224	26085.61
788.557	26093.97
788.89	25899.86
789.223	25980.31
789.556	25665.74
789.888	25572.41
790.221	25566.31
790.554	25311.4
790.887	25310.72
791.219	25236.82
791.552	25049.48
791.884	25083.15
792.217	24996.38
792.549	24921.8
792.882	24644.3
793.214	24567.24
793.546	24690.62
793.879	24517.29
794.211	24391.42
794.543	24412.44
794.875	24337.64
795.207	24295.83
795.539	24130.64
795.871	24112.33
796.203	23946.46
796.535	23766.13
796.867	23893.81
797.198	23687.71
797.53	23750.31
797.862	23567.71
798.193	23534.27
798.525	23387.38
798.856	23489.75
799.188	23167.5
799.519	23102.64
799.85	23008.41
800.182	23154.62
800.513	22932.02
800.844	22790.56
801.175	22879.37
801.506	22854.06
801.837	22617
802.168	22713.27
802.499	22575.88
802.83	22434.41
803.161	22350.8
803.491	22446.39
803.822	22309.67
804.153	22265.38
804.483	22088.2
804.814	22028.77
805.145	21923.69
805.475	21986.51
805.805	21947.87
806.136	21933.18
806.466	21840.08
806.796	21762.56
807.126	21613.41
807.457	21590.14
807.787	21635.34
808.117	21490.48
808.447	21351.27
808.777	21478.96
809.107	21256.81
809.436	21276.47
809.766	21226.31
810.096	21147.89
810.426	21033.09
810.755	20984.96
811.085	21031.74
811.414	20889.37
811.744	20716.04
812.073	20757.62
812.403	20751.52
812.732	20619.54
813.061	20531.41
813.39	20385.42
813.719	20356.95
814.049	20474.91
814.378	20346.78
814.707	20264.3
815.036	20244.64
815.365	20179.33
815.693	19972.55
816.022	20097.97
816.351	19924.42
816.68	19834.7
817.008	19989.95
817.337	19721.94
817.665	19762.39
817.994	19737.31
818.322	19689.4
818.651	19622.05
818.979	19539.34
819.307	19571.21
819.636	19667.7
819.964	19422.96
820.292	19494.37
820.62	19361.27
820.948	19274.49
821.276	19470.65
821.604	19375.96
821.932	19472
822.259	19358.33
822.587	19452.79
822.915	19333.02
823.243	19385
823.57	19349.07
823.898	19339.58
824.225	19260.48
824.553	19264.1
824.88	19316.07
825.207	19220.26
825.535	19187.72
825.862	19306.81
826.189	19154.27
826.516	19202.86
826.843	19303.42
827.17	19366.47
827.497	19309.29
827.824	19225.68
828.151	19201.05
828.478	19206.02
828.805	19323.53
829.131	19096.87
829.458	19150.43
829.785	19095.97
830.111	19090.77
830.438	19185.46
830.764	19146.36
831.09	19203.31
831.417	19141.39
831.743	19171.45
832.069	19178.68
832.395	19007.83
832.722	19147.04
833.048	19130.09
833.374	19085.12
833.7	18982.3
834.026	18915.41
834.351	18919.02
834.677	19022.07
835.003	19033.6
835.329	19056.65
835.654	18903.2
835.98	18857.56
836.306	18844
836.631	18696.43
836.956	18885.58
837.282	18815.97
837.607	18732.81
837.932	18632.48
838.258	18763.77
838.583	18655.07
838.908	18517.68
839.233	18546.6
839.558	18520.39
839.883	18487.62
840.208	18442.2
840.533	18414.4
840.858	18329.66
841.182	18488.53
841.507	18339.6
841.832	18256.67
842.156	18267.74
842.481	18234.29
842.805	18088.08
843.13	18105.03
843.454	18078.82
843.778	18053.06
844.103	18015.77
844.427	17906.39
844.751	17888.54
845.075	17916.79
845.399	17785.94
845.723	17710.69
846.047	17682.22
846.371	17591.15
846.695	17643.8
847.019	17424.82
847.343	17451.72
847.666	17288.78
847.99	17178.5
848.313	17175.34
848.637	17069.58
848.96	17046.08
849.284	17023.48
849.607	16860.55
849.931	16790.94
850.254	16666.2
850.577	16615.58
850.9	16543.49
851.223	16416.94
851.546	16463.04
851.869	16286.1
852.192	16394.57
852.515	16303.05
852.838	16247.45
853.161	16150.51
853.483	16130.62
853.806	16002.26
854.129	15941.93
854.451	15979.44
854.774	15866
855.096	15849.5
855.419	15737.64
855.741	15709.39
856.063	15657.41
856.385	15591.88
856.708	15574.93
857.03	15464.2
857.352	15467.81
857.674	15414.26
857.996	15471.43
858.318	15300.59
858.64	15255.39
858.961	15304.65
859.283	15153.25
859.605	15133.13
859.926	15147.82
860.248	15101.95
860.57	14995.96
860.891	15079.58
861.212	14982.4
861.534	14861.28
861.855	14925.46
862.176	14872.12
862.498	14839.36
862.819	14839.58
863.14	14833.48
863.461	14773.59
863.782	14703.99
864.103	14683.2
864.424	14639.81
864.745	14689.98
865.065	14657.67
865.386	14530.66
865.707	14533.15
866.027	14519.82
866.348	14521.62
866.668	14449.08
866.989	14454.73
867.309	14349.65
867.63	14423.32
867.95	14363.89
868.27	14342.42
868.59	14366.6
868.91	14273.95
869.23	14293.38
869.55	14127.28
869.87	14279.37
870.19	14141.29
870.51	14144.91
870.83	14179.03
871.15	14022.43
871.469	14093.61
871.789	14086.38
872.109	14114.18
872.428	13992.15
872.748	13964.8
873.067	13974.75
873.386	14000.51
873.706	13958.47
874.025	13927.29
874.344	13826.73
874.663	13907.85
874.982	13948.53
875.301	13831.47
875.62	13775.65
875.939	13684.13
876.258	13769.33
876.577	13704.7
876.896	13679.61
877.214	13608.88
877.533	13594.64
877.852	13600.97
878.17	13566.17
878.489	13606.62
878.807	13618.14
879.125	13586.06
879.444	13499.05
879.762	13506.51
880.08	13461.54
880.398	13410.92
880.716	13413.86
881.034	13420.64
881.352	13363.01
881.67	13269.23
881.988	13233.97
882.306	13294.76
882.624	13214.77
882.941	13163.92
883.259	13170.47
883.577	13125.5
883.894	13079.85
884.212	13090.25
884.529	13052.06
884.846	13060.42
885.164	13011.83
885.481	12974.77
885.798	12989.46
886.115	12789.69
886.432	12841.67
886.75	12820.88
887.067	12840.54
887.383	12769.81
887.7	12750.82
888.017	12670.6
888.334	12696.14
888.651	12629.24
888.967	12584.95
889.284	12587.21
889.6	12597.83
889.917	12520.77
890.233	12479.64
890.55	12357.84
890.866	12420.89
891.182	12315.81
891.498	12293.21
891.815	12275.36
892.131	12196.04
892.447	12222.48
892.763	12131.18
893.079	12160.78
893.395	12027.9
893.71	12061.58
894.026	12052.31
894.342	11944.06
894.657	11912.43
894.973	11895.7
895.289	11886.66
895.604	11805.76
895.92	11906.78
896.235	11629.5
896.55	11798.76
896.865	11669.27
897.181	11594.24
897.496	11649.83
897.811	11532.32
898.126	11525.32
898.441	11485.77
898.756	11422.5
899.071	11411.2
899.386	11470.63
899.7	11341.59
900.015	11232.67
900.33	11187.25
900.644	11169.85
900.959	11225.89
901.273	11095.05
901.588	11030.19
901.902	11017.76
902.216	10987.25
902.531	10977.31
902.845	10831.55
903.159	10898.22
903.473	10828.84
903.787	10813.02
904.101	10594.95
904.415	10689.63
904.729	10629.3
905.042	10607.83
905.356	10615.29
905.67	10499.58
905.984	10495.74
906.297	10443.31
906.611	10395.18
906.924	10299.36
907.237	10291.68
907.551	10315.18
907.864	10238.8
908.177	10210.32
908.491	10172.36
908.804	10106.6
909.117	10088.07
909.43	10067.96
909.743	10005.13
910.056	9950.9
910.368	9889.66
910.681	9874.06
910.994	9866.38
911.307	9847.4
911.619	9698.93
911.932	9737.79
912.244	9683.11
912.557	9658.47
912.869	9574.41
913.181	9572.38
913.494	9462.32
913.806	9488.76
914.118	9447.63
914.43	9370.12
914.742	9370.12
915.054	9335.77
915.366	9235.89
915.678	9211.25
915.99	9197.7
916.302	9126.96
916.613	9092.39
916.925	9093.74
917.236	9061.65
917.548	9008.1
917.859	8972.39
918.171	8947.76
918.482	8870.02
918.794	8870.02
919.105	8837.03
919.416	8770.59
919.727	8750.7
920.038	8695.34
920.349	8673.64
920.66	8635
920.971	8595.9
921.282	8575.57
921.593	8529.24
921.903	8422.58
922.214	8405.17
922.525	8370.6
922.835	8380.54
923.146	8392.52
923.456	8317.95
923.767	8226.65
924.077	8234.56
924.387	8251.28
924.697	8156.82
925.008	8164.73
925.318	8125.63
925.628	8112.98
925.938	8069.36
926.248	7958.63
926.558	7927.45
926.867	7934.45
927.177	7874.34
927.487	7849.26
927.796	7785.08
928.106	7778.75
928.416	7704.63
928.725	7697.62
929.034	7655.36
929.344	7609.26
929.653	7619.66
929.962	7562.26
930.271	7483.84
930.581	7479.32
930.89	7412.43
931.199	7394.35
931.508	7416.95
931.817	7366.78
932.125	7374.69
932.434	7265.32
932.743	7239.1
933.051	7185.55
933.36	7167.01
933.669	7111.88
933.977	7085.21
934.286	7083.63
934.594	7092.44
934.902	7001.6
935.21	7031.65
935.519	6992.1
935.827	6951.2
936.135	6920.47
936.443	6843.86
936.751	6869.4
937.059	6795.05
937.367	6762.05
937.674	6747.14
937.982	6707.14
938.29	6682.28
938.597	6734.26
938.905	6570.87
939.213	6597.54
939.52	6615.62
939.827	6621.04
940.135	6540.14
940.442	6514.83
940.749	6464.89
941.056	6464.66
941.363	6396.19
941.67	6398.45
941.977	6362.74
942.284	6298.11
942.591	6316.87
942.898	6241.16
943.205	6237.1
943.511	6188.74
943.818	6216.53
944.125	6172.46
944.431	6134.73
944.738	6095.86
945.044	6091.34
945.35	6053.82
945.657	6039.81
945.963	5936.76
946.269	5933.15
946.575	5956.88
946.881	5898.57
947.187	5876.88
947.493	5873.04
947.799	5812.25
948.105	5788.52
948.41	5817.67
948.716	5783.55
949.022	5693.83
949.327	5716.66
949.633	5626.49
949.938	5695.64
950.244	5660.61
950.549	5602.76
950.854	5563.67
951.16	5543.55
951.465	5522.99
951.77	5464.46
952.075	5484.12
952.38	5510.34
952.685	5471.47
952.99	5409.55
953.294	5391.69
953.599	5330.23
953.904	5333.84
954.209	5271.02
954.513	5329.55
954.818	5254.3
955.122	5240.74
955.426	5194.64
955.731	5196.9
956.035	5164.36
956.339	5154.41
956.643	5184.47
956.948	5084.58
957.252	5058.14
957.556	5051.59
957.86	5071.48
958.163	5000.29
958.467	4993.96
958.771	4952.84
959.075	4964.36
959.378	4936.11
959.682	4907.87
959.985	4904.02
960.289	4831.71
960.592	4872.39
960.896	4829.68
961.199	4781.09
961.502	4789.9
961.805	4767.3
962.108	4749.45
962.411	4730.69
962.714	4673.3
963.017	4639.4
963.32	4685.27
963.623	4589
963.926	4588.78
964.228	4583.35
964.531	4559.85
964.833	4570.7
965.136	4502.68
965.438	4468.33
965.741	4509.91
966.043	4486.18
966.345	4413.64
966.648	4428.56
966.95	4407.54
967.252	4386.98
967.554	4368.44
967.856	4348.33
968.158	4280.76
968.46	4306.3
968.761	4286.86
969.063	4251.16
969.365	4268.79
969.666	4234.21
969.968	4175.46
970.269	4189.01
970.571	4139.07
970.872	4126.64
971.174	4064.72
971.475	4037.38
971.776	4080.99
972.077	4072.86
972.378	4037.61
972.679	3986.08
972.98	4058.17
973.281	3965.52
973.582	4029.7
973.883	3974.56
974.183	3986.76
974.484	3896.82
974.785	3869.25
975.085	3891.17
975.386	3888.68
975.686	3865.86
975.986	3822.24
976.287	3848.23
976.587	3758.74
976.887	3780.44
977.187	3804.39
977.487	3812.75
977.787	3758.07
978.087	3694.34
978.387	3695.24
978.687	3706.99
978.987	3690.04
979.286	3666.77
979.586	3656.6
979.885	3598.3
980.185	3627.67
980.484	3581.8
980.784	3582.25
981.083	3573.21
981.382	3515.81
981.682	3530.05
981.981	3509.03
982.28	3524.17
982.579	3436.94
982.878	3453.21
983.177	3454.8
983.475	3443.72
983.774	3424.06
984.073	3372.31
984.372	3369.6
984.67	3330.73
984.969	3363.5
985.267	3349.49
985.566	3291.41
985.864	3301.13
986.162	3310.85
986.461	3296.61
986.759	3256.16
987.057	3246.21
987.355	3188.81
987.653	3224.07
987.951	3194.46
988.249	3182.94
988.547	3180.91
988.844	3154.92
989.142	3142.49
989.44	3143.17
989.737	3089.83
990.035	3124.86
990.332	3085.77
990.63	3087.57
990.927	3043.96
991.224	3033.34
991.521	3039.21
991.819	3002.15
992.116	2993.79
992.413	3006.45
992.71	2950.18
993.006	2933
993.303	2926.67
993.6	2930.06
993.897	2939.33
994.193	2892.1
994.49	2900.01
994.787	2875.38
995.083	2841.7
995.379	2801.93
995.676	2788.37
995.972	2798.77
996.268	2824.76
996.565	2795.83
996.861	2798.54
997.157	2779.11
997.453	2693.69
997.749	2722.16
998.044	2686.91
998.34	2669.96
998.636	2712.44
998.932	2649.62
999.227	2616.4
999.523	2637.42
999.818	2616.63
1000.114	2570.53
1000.409	2580.69
1000.704	2542.05
1001	2570.98
1001.295	2534.37
1001.59	2535.27
1001.885	2488.95
1002.18	2517.19
1002.475	2505.22
1002.77	2456.63
1003.065	2482.84
1003.359	2441.72
1003.654	2441.94
1003.949	2441.49
1004.243	2397.65
1004.538	2416.18
1004.832	2387.93
1005.127	2374.37
1005.421	2338.22
1005.715	2326.46
1006.009	2327.14
1006.304	2318.1
1006.598	2315.17
1006.892	2280.82
1007.186	2272.91
1007.48	2229.97
1007.773	2230.65
1008.067	2225
1008.361	2211.67
1008.655	2214.6
1008.948	2183.19
1009.242	2170.54
1009.535	2145.9
1009.829	2159.69
1010.122	2106.81
1010.415	2121.27
1010.708	2098.22
1011.001	2094.38
1011.295	2072.01
1011.588	2090.09
1011.881	2027.72
1012.173	2050.54
1012.466	2063.42
1012.759	2014.16
1013.052	2013.93
1013.344	1998.34
1013.637	1982.29
1013.93	1972.12
1014.222	1951.56
1014.514	1941.62
1014.807	1924.21
1015.099	1913.82
1015.391	1935.51
1015.683	1874.27
1015.976	1906.81
1016.268	1876.98
1016.56	1872.46
1016.851	1870.88
1017.143	1827.72
1017.435	1825.23
1017.727	1809.64
1018.018	1793.37
1018.31	1808.96
1018.602	1794.05
1018.893	1775.29
1019.185	1780.26
1019.476	1752.69
1019.767	1736.42
1020.058	1715.86
1020.35	1724.9
1020.641	1700.94
1020.932	1693.94
1021.223	1667.72
1021.514	1684.67
1021.804	1629.08
1022.095	1651.68
1022.386	1639.48
1022.677	1633.15
1022.967	1598.12
1023.258	1572.13
1023.548	1587.73
1023.839	1613.26
1024.129	1596.54
1024.419	1561.96
1024.709	1554.28
1025	1516.99
1025.29	1542.98
1025.58	1485.36
1025.87	1488.07
1026.16	1485.13
1026.449	1493.04
1026.739	1481.29
1027.029	1483.1
1027.319	1432.02
1027.608	1444.23
1027.898	1428.18
1028.187	1440.16
1028.477	1413.04
1028.766	1421.4
1029.055	1378.92
1029.344	1375.53
1029.634	1344.12
1029.923	1364.68
1030.212	1324.46
1030.501	1341.41
1030.79	1344.57
1031.078	1320.39
1031.367	1323.33
1031.656	1318.81
1031.945	1283.33
1032.233	1278.13
1032.522	1304.8
1032.81	1262.76
1033.099	1243.33
1033.387	1280.62
1033.675	1259.15
1033.963	1254.18
1034.251	1227.28
1034.54	1217.57
1034.828	1236.55
1035.116	1218.47
1035.403	1216.44
1035.691	1199.04
1035.979	1210.79
1036.267	1176.21
1036.554	1168.3
1036.842	1159.72
1037.129	1161.75
1037.417	1115.87
1037.704	1147.06
1037.992	1112.71
1038.279	1144.8
1038.566	1110.45
1038.853	1110.45
1039.14	1110.45
