Data from White_paper_FLMS001491_057.txt Node
Date: Tue Feb 07 10:35:17 GMT 2017
User: dcchb
Spectrometer: FLMS00149
Trigger mode: 0
Integration Time (sec): 2.000000E-2
Scans to average: 10
Electric dark correction enabled: true
Nonlinearity correction enabled: false
Boxcar width: 0
XAxis mode: Wavelengths
Number of Pixels in Spectrum: 2048
>>>>>Begin Spectral Data<<<<<
341.393	-5.93
341.776	-5.93
342.16	-5.93
342.543	-59.26
342.927	-62.65
343.31	-71.47
343.693	-80.28
344.077	-67.63
344.46	-33.05
344.843	-50.9
345.226	-42.99
345.61	-39.83
345.993	-26.04
346.376	-14.97
346.759	9.43
347.142	22.32
347.525	50.79
347.908	59.15
348.291	86.95
348.674	78.81
349.057	119.71
349.44	100.96
349.823	151.8
350.206	175.98
350.588	230.45
350.971	233.61
351.354	260.95
351.737	258.47
352.119	304.34
352.502	309.09
352.884	289.65
353.267	312.25
353.65	329.65
354.032	318.58
354.414	325.81
354.797	357
355.179	342.99
355.562	353.38
355.944	347.28
356.326	368.75
356.709	374.17
357.091	379.59
357.473	365.58
357.855	371.91
358.238	382.08
358.62	389.76
359.002	369.43
359.384	381.85
359.766	356.54
360.148	363.32
360.53	385.7
360.912	367.17
361.294	368.75
361.676	370.78
362.057	373.04
362.439	374.62
362.821	351.57
363.203	373.94
363.584	378.69
363.966	355.64
364.348	370.33
364.729	372.82
365.111	373.27
365.493	381.18
365.874	380.05
366.256	371.91
366.637	366.26
367.019	359.48
367.4	343.66
367.781	351.8
368.163	364.45
368.544	370.33
368.925	366.71
369.306	343.66
369.688	363.78
370.069	363.78
370.45	366.94
370.831	357.45
371.212	357.22
371.593	346.15
371.974	363.78
372.355	376.88
372.736	358.35
373.117	366.04
373.498	365.13
373.879	362.42
374.26	353.38
374.641	357
375.021	364.68
375.402	386.15
375.783	383.44
376.163	398.58
376.544	422.08
376.925	397.22
377.305	366.94
377.686	370.56
378.066	399.26
378.447	399.71
378.827	396.09
379.208	407.62
379.588	417.79
379.968	389.54
380.349	392.7
380.729	429.08
381.109	413.94
381.489	421.63
381.87	415.3
382.25	424.34
382.63	432.93
383.01	416.66
383.39	436.09
383.77	429.08
384.15	439.93
384.53	439.25
384.91	444.45
385.29	453.49
385.67	450.55
386.049	448.75
386.429	477.9
386.809	480.61
387.189	460.27
387.568	462.08
387.948	471.8
388.328	482.42
388.707	487.61
389.087	477.22
389.466	483.09
389.846	479.03
390.225	500.95
390.605	496.65
390.984	515.64
391.363	502.08
391.743	505.24
392.122	524
392.501	519.93
392.881	526.03
393.26	550.44
393.639	549.53
394.018	531
394.397	547.05
394.776	566.71
395.155	567.39
395.534	578.23
395.913	573.04
396.292	578.23
396.671	602.87
397.05	584.56
397.429	593.83
397.808	604.9
398.186	621.85
398.565	635.18
398.944	595.18
399.323	630.44
399.701	635.18
400.08	652.13
400.458	676.76
400.837	651.45
401.215	691
401.594	673.15
401.972	699.36
402.351	682.41
402.729	697.1
403.107	723.09
403.486	714.28
403.864	716.76
404.242	728.51
404.62	764.22
404.999	760.83
405.377	803.76
405.755	813.26
406.133	819.13
406.511	826.81
406.889	835.85
407.267	850.32
407.645	848.73
408.023	904.78
408.401	921.5
408.779	948.85
409.156	957.21
409.534	974.83
409.912	1016.41
410.29	1040.82
410.667	1067.03
411.045	1079.69
411.422	1115.17
411.8	1134.15
412.178	1157.2
412.555	1196.3
412.933	1229.06
413.31	1260.7
413.687	1303.19
414.065	1296.41
414.442	1327.82
414.819	1372.11
415.197	1371.66
415.574	1392.9
415.951	1433.8
416.328	1473.58
416.705	1466.8
417.082	1521.49
417.46	1559.22
417.837	1590.86
418.214	1583.86
418.591	1628.83
418.967	1681.26
419.344	1680.35
419.721	1721.71
420.098	1752.44
420.475	1775.49
420.852	1788.15
421.228	1839.44
421.605	1797.41
421.982	1833.79
422.358	1906.33
422.735	1962.15
423.111	1912.89
423.488	1993.79
423.864	1981.36
424.241	2021.81
424.617	2019.1
424.994	2075.6
425.37	2075.82
425.746	2112.66
426.123	2138.42
426.499	2158.53
426.875	2191.98
427.251	2232.2
427.627	2265.42
428.003	2326.44
428.379	2373.89
428.756	2384.29
429.132	2435.13
429.507	2461.12
429.883	2463.83
430.259	2547.22
430.635	2559.42
431.011	2601.23
431.387	2654.79
431.763	2704.28
432.138	2736.82
432.514	2753.77
432.89	2808.46
433.265	2860.21
433.641	2893.65
434.016	2871.28
434.392	3008.23
434.767	3070.6
435.143	3026.08
435.518	3062.69
435.894	3149.01
436.269	3227.2
436.644	3199.18
437.02	3272.63
437.395	3234.43
437.77	3285.28
438.145	3344.04
438.52	3393.75
438.895	3414.77
439.271	3438.5
439.646	3494.09
440.021	3514.65
440.395	3532.05
440.77	3504.03
441.145	3576.57
441.52	3647.76
441.895	3638.49
442.27	3661.77
442.645	3662.9
443.019	3748.32
443.394	3766.4
443.769	3794.42
444.143	3785.38
444.518	3829.9
444.892	3830.8
445.267	3852.27
445.641	3934.76
446.016	3891.14
446.39	3964.59
446.764	3973.85
447.139	3968.43
447.513	4031.48
447.887	4044.13
448.262	4106.5
448.636	4049.55
449.01	4072.15
449.384	4163
449.758	4196.44
450.132	4267.18
450.506	4281.64
450.88	4260.4
451.254	4337.46
451.628	4418.13
452.002	4416.1
452.376	4497
452.75	4471.92
453.123	4501.75
453.497	4611.35
453.871	4628.07
454.244	4731.8
454.618	4776.54
454.992	4825.35
455.365	4823.77
455.739	4958.01
456.112	4996.65
456.486	4989.87
456.859	5095.85
457.232	5188.51
457.606	5141.96
457.979	5220.6
458.352	5367.26
458.725	5395.28
459.099	5421.5
459.472	5559.8
459.845	5569.06
460.218	5665.56
460.591	5737.65
460.964	5781.03
461.337	5893.8
461.71	5945.55
462.083	6034.36
462.456	6019.67
462.829	6054.25
463.201	6230.97
463.574	6214.7
463.947	6325.88
464.32	6450.4
464.692	6461.47
465.065	6518.64
465.438	6654.01
465.81	6762.48
466.183	6785.75
466.555	6956.82
466.928	7005.18
467.3	7025.52
467.672	7094.9
468.045	7330.15
468.417	7315.91
468.789	7334.67
469.161	7533.76
469.534	7638.16
469.906	7803.58
470.278	7799.74
470.65	7897.36
471.022	8046.06
471.394	8220.29
471.766	8317.69
472.138	8364.92
472.51	8558.14
472.882	8721.07
473.253	8813.5
473.625	8902.99
473.997	9104.79
474.369	9087.16
474.74	9309.08
475.112	9472.24
475.484	9588.17
475.855	9772.57
476.227	9871.32
476.598	10181.6
476.97	10225.44
477.341	10436.96
477.713	10618.87
478.084	10659.32
478.455	10953.55
478.827	11037.17
479.198	11379.76
479.569	11403.26
479.94	11640.32
480.311	11801.89
480.682	12004.37
481.053	12361.43
481.424	12519.16
481.795	12602.55
482.166	12783.34
482.537	13035.31
482.908	13284.34
483.279	13272.81
483.65	13607.5
484.021	13827.15
484.391	14046.13
484.762	14105.79
485.133	14232.79
485.503	14486.57
485.874	14743.74
486.244	14822.6
486.615	15181.92
486.985	15437.96
487.356	15610.83
487.726	15779.87
488.097	16059.86
488.467	16091.72
488.837	16435.22
489.207	16672.73
489.578	16874.08
489.948	16973.28
490.318	17238.59
490.688	17272.26
491.058	17580.72
491.428	17758.12
491.798	17986.36
492.168	18405.34
492.538	18401.27
492.908	18553.35
493.278	18857.98
493.648	18860.24
494.017	19077.63
494.387	19311.53
494.757	19400.34
495.126	19579.54
495.496	19656.38
495.866	19748.12
496.235	20081.68
496.605	20237.6
496.974	20300.88
497.344	20546.75
497.713	20704.48
498.082	20755.78
498.452	21039.84
498.821	21035.32
499.19	21209.78
499.559	21450.9
499.928	21544.69
500.298	21602.77
500.667	21887.28
501.036	21794.85
501.405	22018.57
501.774	22047.95
502.143	22357.77
502.512	22405
502.88	22693.13
503.249	22711.89
503.618	22833.24
503.987	22916.63
504.356	23145.1
504.724	23279.33
505.093	23381.48
505.462	23437.52
505.83	23710.05
506.199	23855.36
506.567	24157.95
506.936	24055.81
507.304	24398.62
507.672	24519.75
508.041	24693.53
508.409	24794.55
508.777	24969
509.145	25217.13
509.514	25212.39
509.882	25269.56
510.25	25486.05
510.618	25724.46
510.986	25758.59
511.354	26055.98
511.722	26244.9
512.09	26516.08
512.458	26431.11
512.826	26646.93
513.193	26794.49
513.561	26928.95
513.929	27107.48
514.297	27420.47
514.664	27573.46
515.032	27592.89
515.4	27967.57
515.767	27977.74
516.135	28169.6
516.502	28090.96
516.869	28429.93
517.237	28610.49
517.604	28588.34
517.972	28933.87
518.339	29133.19
518.706	29254.32
519.073	29315.33
519.44	29677.81
519.808	29899.04
520.175	29951.7
520.542	30239.6
520.909	30537.22
521.276	30344.46
521.643	30729.31
522.009	30992.57
522.376	31225.79
522.743	31411.09
523.11	31616.74
523.477	32008.37
523.843	32042.26
524.21	32475.02
524.577	32583.04
524.943	32830.04
525.31	33021.67
525.676	33263.93
526.043	33392.06
526.409	33634.09
526.776	33860.97
527.142	33974.64
527.508	34263.9
527.874	34475.2
528.241	34592.93
528.607	34697.34
528.973	35186.36
529.339	35090.55
529.705	35467.71
530.071	35691.89
530.437	35920.81
530.803	36055.27
531.169	36309.5
531.535	36276.73
531.901	36481.02
532.267	36504.75
532.632	36847.56
532.998	37008.24
533.364	37156.71
533.73	37337.49
534.095	37604.6
534.461	37782
534.826	37903.13
535.192	38021.54
535.557	38427.18
535.923	38350.57
536.288	38476.67
536.653	38628.08
537.019	38574.07
537.384	38962.53
537.749	38904.46
538.114	39129.08
538.479	39103.55
538.845	39482.75
539.21	39358.68
539.575	39528.62
539.94	39726.36
540.305	40020.59
540.67	39959.12
541.034	40043.86
541.399	40276.62
541.764	40331.99
542.129	40507.58
542.494	40705.99
542.858	40962.71
543.223	40874.57
543.587	41168.8
543.952	41057.4
544.316	41362.47
544.681	41315.69
545.045	41613.09
545.41	41682.46
545.774	41955.22
546.138	41891.27
546.503	42078.84
546.867	42083.13
547.231	42451.71
547.595	42509.79
547.959	42678.6
548.324	42767.86
548.688	42818.03
549.052	42917.91
549.416	42977.57
549.779	43113.39
550.143	43366.49
550.507	43655.29
550.871	43511.34
551.235	43730.77
551.599	44003.31
551.962	44070.42
552.326	44251.66
552.689	44355.84
553.053	44337.08
553.417	44423.18
553.78	45054.13
554.143	44748.37
554.507	44916.73
554.87	45080.34
555.234	45494.34
555.597	45283.5
555.96	45503.61
556.323	45552.42
556.686	45660.66
557.05	46109.69
557.413	46017.72
557.776	46212.29
558.139	46490.7
558.502	46569.34
558.865	46572.05
559.228	46899.05
559.59	47093.39
559.953	47071.25
560.316	47534.74
560.679	47622.19
561.041	47703.1
561.404	47906.71
561.767	48211.11
562.129	47971.11
562.492	48448.39
562.854	48426.69
563.217	48487.48
563.579	48714.37
563.941	48838.66
564.304	48981.03
564.666	49254.02
565.028	49311.19
565.39	49362.94
565.753	49555.02
566.115	49694.46
566.477	49888.58
566.839	50060.55
567.201	50209.02
567.563	50295.8
567.925	50420.99
568.287	50511.38
568.648	50644.04
569.01	50784.14
569.372	51053.06
569.734	50820.3
570.095	51220.29
570.457	51274.3
570.819	51447.63
571.18	51437.91
571.542	51655.31
571.903	51647.63
572.265	51843.55
572.626	51930.78
572.987	51978.92
573.349	52159.93
573.71	52268.4
574.071	52338.91
574.432	52341.17
574.794	52526.7
575.155	52604.89
575.516	52648.95
575.877	52749.52
576.238	52786.8
576.599	52895.5
576.96	52876.97
577.32	53008.49
577.681	53156.51
578.042	53193.57
578.403	53274.25
578.763	53241.03
579.124	53349.28
579.485	53524.86
579.845	53486.67
580.206	53544.07
580.566	53571.19
580.927	53634.69
581.287	53683.05
581.648	53547.46
582.008	53798.08
582.368	53659.55
582.728	53780.9
583.089	53756.95
583.449	53750.39
583.809	53855.7
584.169	53984.29
584.529	53777.74
584.889	54196.48
585.249	53933.67
585.609	53896.61
585.969	54055.7
586.329	53978.19
586.688	54051.4
587.048	54020.9
587.408	54034.91
587.768	54098.63
588.127	54032.42
588.487	54060.67
588.846	54299.76
589.206	54058.86
589.565	54094.57
589.925	54236.03
590.284	54238.97
590.643	54239.2
591.003	54359.64
591.362	54389.47
591.721	54375.24
592.08	54395.35
592.44	54393.32
592.799	54415.24
593.158	54396.25
593.517	54446.42
593.876	54547.89
594.235	54406.87
594.593	54495.46
594.952	54479.41
595.311	54537.94
595.67	54565.97
596.029	54733.19
596.387	54651.61
596.746	54796.69
597.104	54612.07
597.463	54616.81
597.822	54722.57
598.18	54686.19
598.538	54582.01
598.897	54831.72
599.255	54660.2
599.613	55006.41
599.972	54852.74
600.33	54893.19
600.688	54812.74
601.046	54887.99
601.404	55030.59
601.762	54984.94
602.12	55051.38
602.478	55153.07
602.836	55128.21
603.194	54918.27
603.552	55056.57
603.91	54990.36
604.268	55069.91
604.625	55043.24
604.983	55230.13
605.341	55047.99
605.698	55240.52
606.056	55254.08
606.413	55254.54
606.771	55296.79
607.128	55338.38
607.485	55223.35
607.843	55282.78
608.2	55441.88
608.557	55476.22
608.914	55361.2
609.272	55530.69
609.629	55489.11
609.986	55600.06
610.343	55465.15
610.7	55724.58
611.057	55603.68
611.414	55646.16
611.771	55657.24
612.127	55750.57
612.484	55688.2
612.841	55789.89
613.198	55734.75
613.554	55699.04
613.911	55909.43
614.267	55852.03
614.624	55851.81
614.98	55776.78
615.337	55992.6
615.693	55923.44
616.05	55911.24
616.406	56061.07
616.762	55920.96
617.118	55973.84
617.475	55964.35
617.831	56071.92
618.187	56090.22
618.543	56162.53
618.899	56227.17
619.255	56157.34
619.611	56115.98
619.967	56200.5
620.323	56343.32
620.678	56257.22
621.034	56164.34
621.39	56148.98
621.746	56118.92
622.101	56369.76
622.457	56155.3
622.812	56243.66
623.168	56325.24
623.523	56287.96
623.879	56343.55
624.234	56199.37
624.589	56331.8
624.945	56346.71
625.3	56386.26
625.655	56297.67
626.01	56325.02
626.365	56331.8
626.72	56268.97
627.075	56314.62
627.43	56246.15
627.785	56189.2
628.14	56297.45
628.495	56302.42
628.85	56231.69
629.205	56167.05
629.559	56330.67
629.914	56285.24
630.269	56214.06
630.623	56180.16
630.978	56158.24
631.332	56344.9
631.687	56379.03
632.041	56240.95
632.396	56183.78
632.75	56155.76
633.104	56200.27
633.459	56055.19
633.813	56073.95
634.167	56117.56
634.521	56073.27
634.875	56139.48
635.229	56060.16
635.583	55923.22
635.937	56029.66
636.291	56002.31
636.645	56050.45
636.999	55953.05
637.352	55985.59
637.706	55840.06
638.06	55952.37
638.413	55852.03
638.767	55828.53
639.121	55882.99
639.474	55766.61
639.828	55735.88
640.181	55812.94
640.534	55808.65
640.888	55748.99
641.241	55619.05
641.594	55751.7
641.947	55770.23
642.301	55692.04
642.654	55732.72
643.007	55769.78
643.36	55673.06
643.713	55638.71
644.066	55751.25
644.419	55522.33
644.771	55365.49
645.124	55078.72
645.477	55106.52
645.83	54991.72
646.182	54852.96
646.535	54751.72
646.888	54857.94
647.24	54712.63
647.593	54907.88
647.945	54860.87
648.298	54761.89
648.65	54695.45
649.002	54545.4
649.355	54711.27
649.707	54630.37
650.059	54788.79
650.411	55076.46
650.763	55143.8
651.115	55379.28
651.467	55336.34
651.819	55324.59
652.171	55299.05
652.523	55227.19
652.875	55159.62
653.227	55064.26
653.578	55272.61
653.93	55171.15
654.282	55066.52
654.633	55039.85
654.985	55071.26
655.337	55136.8
655.688	55180.19
656.039	55171.37
656.391	54939.06
656.742	54945.39
657.094	54945.84
657.445	55081.43
657.796	55059.06
658.147	55000.53
658.498	54930.48
658.849	55024.71
659.2	55046.63
659.551	54905.62
659.902	54972.74
660.253	54841.67
660.604	54986.07
660.955	54814.1
661.306	55035.56
661.656	54890.93
662.007	54848.67
662.358	54830.59
662.708	54841.89
663.059	54805.06
663.409	54665.4
663.76	54908.1
664.11	54831.72
664.461	54885.51
664.811	54829.69
665.161	54781.78
665.511	54767.99
665.862	54760.99
666.212	54752.4
666.562	54748.33
666.912	54730.71
667.262	54706.3
667.612	54660.65
667.962	54639.64
668.312	54619.07
668.662	54770.48
669.011	54581.56
669.361	54576.36
669.711	54617.94
670.06	54577.72
670.41	54519.87
670.76	54453.43
671.109	54651.39
671.459	54502.24
671.808	54492.52
672.157	54475.8
672.507	54334.56
672.856	54310.15
673.205	54404.84
673.554	54397.16
673.904	54247.56
674.253	54452.07
674.602	54403.48
674.951	53924.4
675.3	53722.37
675.649	54267.67
675.998	54136.83
676.346	54195.58
676.695	54225.18
677.044	54046.66
677.393	54165.07
677.741	54148.35
678.09	54059.54
678.438	53946.1
678.787	53956.04
679.135	54068.58
679.484	53784.07
679.832	53862.26
680.181	53678.08
680.529	53807.12
680.877	53638.76
681.225	53556.28
681.573	53773.67
681.922	53550.4
682.27	53515.82
682.618	53484.64
682.966	53450.97
683.314	53481.7
683.661	53357.18
684.009	53199
684.357	53228.37
684.705	53096.17
685.053	53095.27
685.4	53042.62
685.748	52912.22
686.095	52908.16
686.443	52816.86
686.79	52739.35
687.138	52802.4
687.485	52712.46
687.832	52694.6
688.18	52654.83
688.527	52457.55
688.874	52452.12
689.221	52367.83
689.568	52190.44
689.915	52141.62
690.262	52175.07
690.609	52071.79
690.956	52001.06
691.303	51942.98
691.65	51767.85
691.997	51821.63
692.344	51521.07
692.69	51512.49
693.037	51484.24
693.383	51250.57
693.73	51413.73
694.077	51140.52
694.423	51218.71
694.769	51026.85
695.116	50901.66
695.462	50867.31
695.808	50789.34
696.155	50890.81
696.501	50566.07
696.847	50608.78
697.193	50401.33
697.539	50484.94
697.885	50353.2
698.231	50115.91
698.577	50117.5
698.923	50116.37
699.269	49861.91
699.614	49582.82
699.96	49706.43
700.306	49679.09
700.651	49565.87
700.997	49438.42
701.342	49237.74
701.688	49353.45
702.033	49185.32
702.379	49066.68
702.724	49040.69
703.069	49038.43
703.415	48623.07
703.76	48655.39
704.105	48637.99
704.45	48464.43
704.795	48343.53
705.14	48243.42
705.485	48308.5
705.83	48151.67
706.175	48110.77
706.52	48031.67
706.865	47876.2
707.209	47793.04
707.554	47686.37
707.899	47833.49
708.243	47532.48
708.588	47525.47
708.932	47284.35
709.277	47249.77
709.621	47228.53
709.966	47039.84
710.31	47031.93
710.654	46899.5
710.998	46883.91
711.342	46822.89
711.687	46701.54
712.031	46492.73
712.375	46357.14
712.719	46439.85
713.063	46255.45
713.407	46458.61
713.75	46143.14
714.094	46158.5
714.438	46014.33
714.782	46059.75
715.125	45813.43
715.469	45977.27
715.812	45678.06
716.156	45379.09
716.499	45483.04
716.843	45521.23
717.186	45304.51
717.53	45428.81
717.873	45374.57
718.216	45296.38
718.559	45191.07
718.902	44930.97
719.246	44933.45
719.589	44872.21
719.932	44723.06
720.275	44830.86
720.617	44640.13
720.96	44657.07
721.303	44586.57
721.646	44544.99
721.989	44358.1
722.331	44423.41
722.674	44174.38
723.016	44294.82
723.359	44257.08
723.701	44235.16
724.044	43900.48
724.386	43687.38
724.729	43843.31
725.071	43691.45
725.413	43860.71
725.755	43732.58
726.097	43554.5
726.439	43429.99
726.782	43456.43
727.124	43638.8
727.465	43206.94
727.807	43244
728.149	43156.55
728.491	43078.13
728.833	43192.25
729.175	42911.13
729.516	42972.6
729.858	42827.74
730.199	42804.69
730.541	42834.07
730.882	42704.36
731.224	42794.98
731.565	42492.16
731.906	42510.69
732.248	42670.46
732.589	42407.64
732.93	42270.24
733.271	42303.01
733.612	42338.72
733.953	42401.09
734.294	42227.08
734.635	42201.55
734.976	42197.03
735.317	41888.11
735.658	41870.03
735.999	41975.34
736.339	41836.81
736.68	42009.69
737.021	41792.06
737.361	41801.56
737.702	41741.44
738.042	41612.18
738.383	41484.5
738.723	41647.89
739.063	41434.11
739.404	41554.78
739.744	41467.1
740.084	41233.21
740.424	41419.42
740.764	41171.74
741.104	41313.43
741.444	41117.73
741.784	41040.67
742.124	41073.44
742.464	40985.31
742.804	40860.79
743.143	40814.01
743.483	40803.16
743.823	40603.4
744.162	40603.62
744.502	40793.22
744.841	40489.73
745.181	40586.22
745.52	40402.5
745.86	40474.59
746.199	40290.86
746.538	40330.63
746.877	40381.93
747.216	40287.25
747.556	40211.54
747.895	40240.92
748.234	40012.22
748.573	39988.27
748.911	39942.62
749.25	39855.17
749.589	39659.92
749.928	39847.94
750.267	39845.22
750.605	39670.31
750.944	39552.8
751.283	39425.57
751.621	39501.96
751.96	39251.34
752.298	39217.22
752.636	39241.62
752.975	39024.23
753.313	38884.12
753.651	39146.71
753.989	38857.68
754.327	38644.35
754.666	38621.3
755.004	38737.68
755.342	38830.56
755.679	38607.06
756.017	38298.15
756.355	38622.66
756.693	38299.28
757.031	38362.1
757.368	38028.1
757.706	38088.89
758.044	37829.46
758.381	37887.76
758.719	37912.84
759.056	37722.57
759.394	37662.23
759.731	37489.13
760.068	37403.25
760.405	37175.69
760.743	37011.4
761.08	37130.27
761.417	36963.72
761.754	36825.87
762.091	36750.84
762.428	36692.54
762.765	36350.63
763.102	36527.12
763.438	36439.89
763.775	36265.2
764.112	36193.79
764.449	36168.26
764.785	36187.69
765.122	35943.63
765.458	35728.95
765.795	35816.18
766.131	35644.88
766.467	35592
766.804	35380.26
767.14	35220.49
767.476	35155.4
767.812	35072.69
768.148	35061.17
768.485	34823.43
768.821	34611.91
769.157	34600.39
769.492	34538.47
769.828	34380.96
770.164	34116.33
770.5	34269.78
770.836	34155.88
771.171	33891.48
771.507	33883.57
771.842	33633.86
772.178	33634.09
772.513	33635.44
772.849	33330.59
773.184	33298.95
773.519	33239.75
773.855	33064.38
774.19	32979.19
774.525	32707.78
774.86	32826.65
775.195	32701.23
775.53	32587.79
775.865	32524.96
776.2	32117.29
776.535	31927.47
776.87	31819.45
777.205	31930.86
777.539	31648.38
777.874	31781.48
778.209	31463.52
778.543	31449.74
778.878	31353.02
779.212	31280.93
779.547	31143.76
779.881	31186.92
780.215	30867.38
780.55	31002.29
780.884	30674.62
781.218	30585.81
781.552	30679.59
781.886	30406.38
782.22	30350.78
782.554	30297
782.888	29853.85
783.222	29823.57
783.556	29658.82
783.889	29629.9
784.223	29441.88
784.557	29378.83
784.89	29452.05
785.224	29277.37
785.557	28986.75
785.891	29052.96
786.224	28854.33
786.558	28977.71
786.891	28700.21
787.224	28577.95
787.557	28467.44
787.891	28571.4
788.224	28391.74
788.557	28434.45
788.89	28202.14
789.223	28281.91
789.556	27968.93
789.888	28020.68
790.221	27717.41
790.554	27749.5
790.887	27643.51
791.219	27480.12
791.552	27443.06
791.884	27303.41
792.217	27164.65
792.549	27157.2
792.882	26829.29
793.214	26914.04
793.546	26891.89
793.879	26788.84
794.211	26604.67
794.543	26624.1
794.875	26657.32
795.207	26618.45
795.539	26351.34
795.871	26390.21
796.203	26175.98
796.535	26058.92
796.867	26062.54
797.198	25958.36
797.53	25837
797.862	25757.23
798.193	25713.39
798.525	25497.13
798.856	25651.25
799.188	25281.31
799.519	25311.82
799.85	25124.48
800.182	25145.95
800.513	25086.97
800.844	24872.96
801.175	25099.17
801.506	24957.25
801.837	24808.56
802.168	24726.52
802.499	24715
802.83	24496.25
803.161	24492.41
803.491	24432.3
803.822	24380.32
804.153	24326.08
804.483	24153.66
804.814	24119.99
805.145	24020.78
805.475	24030.5
805.805	24023.27
806.136	24031.63
806.466	23833.44
806.796	23859.2
807.126	23668.25
807.457	23535.82
807.787	23603.62
808.117	23488.37
808.447	23420.57
808.777	23382.83
809.107	23270.07
809.436	23221.25
809.766	23207.92
810.096	23211.99
810.426	23065.1
810.755	23053.57
811.085	22833.47
811.414	22948.04
811.744	22708.27
812.073	22640.7
812.403	22661.72
812.732	22567.26
813.061	22555.28
813.39	22393.03
813.719	22322.52
814.049	22527.71
814.378	22322.07
814.707	22182.19
815.036	22168.17
815.365	22087.95
815.693	21979.48
816.022	21953.49
816.351	21852.93
816.68	21742.2
817.008	21929.76
817.337	21644.8
817.665	21655.19
817.994	21679.6
818.322	21702.2
818.651	21482.77
818.979	21468.31
819.307	21530.9
819.636	21395.77
819.964	21282.1
820.292	21324.58
820.62	21362.32
820.948	21163.45
821.276	21338.14
821.604	21257.69
821.932	21331.59
822.259	21252.04
822.587	21241.42
822.915	21117.81
823.243	21160.52
823.57	21136.11
823.898	21227.41
824.225	21185.6
824.553	21071.71
824.88	21114.19
825.207	21325.26
825.535	21125.26
825.862	21189.67
826.189	20977.25
826.516	21207.52
826.843	21241.19
827.17	21153.29
827.497	21216.79
827.824	21199.84
828.151	21243.45
828.478	21132.95
828.805	21304.92
829.131	21032.61
829.458	21158.94
829.785	21060.18
830.111	21071.93
830.438	21057.69
830.764	21140.18
831.09	21126.85
831.417	20996.23
831.743	21126.39
832.069	20975.89
832.395	20958.04
832.722	20995.32
833.048	20862.67
833.374	20961.65
833.7	20892.95
834.026	20953.06
834.351	20942.44
834.677	20852.05
835.003	20898.15
835.329	20790.58
835.654	20797.36
835.98	20826.29
836.306	20767.99
836.631	20725.5
836.956	20743.13
837.282	20553.53
837.607	20606.86
837.932	20549.01
838.258	20539.29
838.583	20593.3
838.908	20482.79
839.233	20437.37
839.558	20362.12
839.883	20261.11
840.208	20334.55
840.533	20181.11
840.858	20325.96
841.182	20239.86
841.507	20243.25
841.832	20108.57
842.156	20025.86
842.481	20142.24
842.805	20040.55
843.13	19856.14
843.454	19915.35
843.778	19845.3
844.103	19772.98
844.427	19798.97
844.751	19756.49
845.075	19654.34
845.399	19656.6
845.723	19438.08
846.047	19564.4
846.371	19371.41
846.695	19328.02
847.019	19139.1
847.343	19097.07
847.666	19008.03
847.99	18924.42
848.313	18896.4
848.637	18853.91
848.96	18801.71
849.284	18744.99
849.607	18602.62
849.931	18489.17
850.254	18448.5
850.577	18248.96
850.9	18212.8
851.223	18214.61
851.546	18166.02
851.869	17959.47
852.192	18081.95
852.515	17901.85
852.838	17783.66
853.161	17852.13
853.483	17795.18
853.806	17576.2
854.129	17609.88
854.451	17547.05
854.774	17448.07
855.096	17351.8
855.419	17476.09
855.741	17384.8
856.063	17189.32
856.385	17265.03
856.708	17137.12
857.03	17044.69
857.352	17116.78
857.674	17013.96
857.996	16933.51
858.318	16830.91
858.64	16979.16
858.961	16891.93
859.283	16804.7
859.605	16627.98
859.926	16642.67
860.248	16636.12
860.57	16519.74
860.891	16625.95
861.212	16491.71
861.534	16431.6
861.855	16375.78
862.176	16515.22
862.498	16389.57
862.819	16503.01
863.14	16265.5
863.461	16256.24
863.782	16171.72
864.103	16131.04
864.424	16187.99
864.745	16138.95
865.065	16149.58
865.386	15959.98
865.707	16059.18
866.027	16050.14
866.348	15990.03
866.668	15900.99
866.989	15958.17
867.309	15844.05
867.63	15829.81
867.95	15750.94
868.27	15704.16
868.59	15702.13
868.91	15768.79
869.23	15635.24
869.55	15598.18
869.87	15702.36
870.19	15628.69
870.51	15706.2
870.83	15614.9
871.15	15524.73
871.469	15500.1
871.789	15525.64
872.109	15541.68
872.428	15380.1
872.748	15427.11
873.067	15429.14
873.386	15495.81
873.706	15360.9
874.025	15303.72
874.344	15186.89
874.663	15296.49
874.982	15222.82
875.301	15252.2
875.62	15261.24
875.939	15169.94
876.258	15172.2
876.577	15036.84
876.896	15124.97
877.214	15056.95
877.533	15018.31
877.852	14962.94
878.17	15077.51
878.489	14970.85
878.807	14981.92
879.125	14976.5
879.444	14872.09
879.762	14809.05
880.08	14759.33
880.398	14736.73
880.716	14788.93
881.034	14717.07
881.352	14691.31
881.67	14637.07
881.988	14638.2
882.306	14602.27
882.624	14592.55
882.941	14550.97
883.259	14530.18
883.577	14455.83
883.894	14423.29
884.212	14351.66
884.529	14379.68
884.846	14265.11
885.164	14252.45
885.481	14260.36
885.798	14343.52
886.115	14089.74
886.432	14209.06
886.75	14106.47
887.067	14103.3
887.383	14029.18
887.7	14127.26
888.017	13945.57
888.334	14012.91
888.651	13859.01
888.967	13893.14
889.284	13925.45
889.6	13777.89
889.917	13721.16
890.233	13693.37
890.55	13599.36
890.866	13668.06
891.182	13642.52
891.498	13534.73
891.815	13492.92
892.131	13452.47
892.447	13506.03
892.763	13348.07
893.079	13297.67
893.395	13281.63
893.71	13319.59
894.026	13233.49
894.342	13198.69
894.657	13097
894.973	13101.97
895.289	13027.4
895.604	13104.01
895.92	13029.21
896.235	12950.79
896.55	12911.02
896.865	12860.85
897.181	12819.27
897.496	12833.05
897.811	12656.56
898.126	12679.61
898.441	12654.07
898.756	12623.11
899.071	12530.46
899.386	12524.59
899.7	12368.66
900.015	12353.74
900.33	12349.22
900.644	12252.28
900.959	12308.77
901.273	12270.58
901.588	12198.27
901.902	12090.47
902.216	12041.66
902.531	12039.63
902.845	11943.13
903.159	11899.97
903.473	11937.26
903.787	11781.1
904.101	11792.63
904.415	11843.93
904.729	11774.1
905.042	11676.02
905.356	11641.67
905.67	11611.39
905.984	11549.02
906.297	11503.14
906.611	11409.36
906.924	11495.69
907.237	11398.06
907.551	11348.57
907.864	11311.96
908.177	11248.01
908.491	11191.74
908.804	11129.14
909.117	11076.94
909.43	10984.06
909.743	10988.13
910.056	10964.4
910.368	10848.25
910.681	10860
910.994	10811.18
911.307	10768.25
911.619	10679.66
911.932	10706.1
912.244	10620
912.557	10613.9
912.869	10550.17
913.181	10525.99
913.494	10457.52
913.806	10406.45
914.118	10354.25
914.43	10370.52
914.742	10302.72
915.054	10194.03
915.366	10196.74
915.678	10206.45
915.99	10131.88
916.302	10063.18
916.613	9977.08
916.925	10018.66
917.236	9978.66
917.548	9905.45
917.859	9877.2
918.171	9797.2
918.482	9759.69
918.794	9718.33
919.105	9761.95
919.416	9623.42
919.727	9653.93
920.038	9614.15
920.349	9506.59
920.66	9494.38
920.971	9433.82
921.282	9434.95
921.593	9331
921.903	9286.7
922.214	9257.33
922.525	9301.85
922.835	9220.72
923.146	9142.98
923.456	9055.3
923.767	9047.16
924.077	9078.12
924.387	9004.23
924.697	8931.23
925.008	8968.07
925.318	8960.39
925.628	8906.15
925.938	8848.98
926.248	8726.72
926.558	8709.55
926.867	8667.74
927.177	8626.38
927.487	8623.45
927.796	8513.17
928.106	8526.95
928.416	8453.28
928.725	8486.27
929.034	8456.22
929.344	8418.93
929.653	8397.46
929.962	8258.71
930.271	8233.63
930.581	8243.79
930.89	8175.77
931.199	8149.79
931.508	8133.74
931.817	8103.46
932.125	8034.08
932.434	8009
932.743	7894.65
933.051	7933.29
933.36	7858.27
933.669	7886.74
933.977	7862.79
934.286	7800.64
934.594	7811.72
934.902	7758.38
935.21	7698.05
935.519	7684.04
935.827	7623.47
936.135	7657.14
936.443	7523.14
936.751	7504.38
937.059	7502.57
937.367	7432.06
937.674	7479.75
937.982	7439.52
938.29	7364.5
938.597	7390.94
938.905	7299.19
939.213	7223.26
939.52	7195.23
939.827	7224.61
940.135	7173.31
940.442	7141.22
940.749	7102.13
941.056	7121.79
941.363	6992.3
941.67	7044.73
941.977	6952.53
942.284	6897.16
942.591	6922.02
942.898	6868.69
943.205	6885.19
943.511	6844.74
943.818	6828.24
944.125	6695.59
944.431	6671.18
944.738	6750.27
945.044	6695.59
945.35	6624.63
945.657	6555.03
945.963	6556.38
946.269	6507.79
946.575	6602.26
946.881	6467.8
947.187	6449.72
947.493	6407.01
947.799	6364.52
948.105	6315.03
948.41	6303.05
948.716	6303.28
949.022	6270.29
949.327	6263.96
949.633	6193
949.938	6201.59
950.244	6174.24
950.549	6160.46
950.854	6101.7
951.16	6102.38
951.465	6070.97
951.77	6037.75
952.075	5992.1
952.38	6003.4
952.685	5956.4
952.99	5885.21
953.294	5858.09
953.599	5878.21
953.904	5865.78
954.209	5773.35
954.513	5780.36
954.818	5754.82
955.122	5767.93
955.426	5712.56
955.731	5672.56
956.035	5640.7
956.339	5631.89
956.643	5640.47
956.948	5592.79
957.252	5503.53
957.556	5532.91
957.86	5509.86
958.163	5475.96
958.467	5419.24
958.771	5452
959.075	5382.63
959.378	5395.51
959.682	5384.89
959.985	5376.3
960.289	5333.59
960.592	5312.8
960.896	5284.55
961.199	5234.38
961.502	5239.81
961.805	5191.22
962.108	5133.37
962.411	5150.09
962.714	5113.71
963.017	5068.06
963.32	5089.53
963.623	5037.55
963.926	5051.56
964.228	5001.39
964.531	4987.16
964.833	4959.81
965.136	4935.63
965.438	4899.7
965.741	4916.2
966.043	4849.76
966.345	4841.62
966.648	4771.34
966.95	4803.88
967.252	4769.76
967.554	4743.77
967.856	4772.47
968.158	4692.48
968.46	4677.11
968.761	4684.79
969.063	4716.43
969.365	4630.1
969.666	4635.53
969.968	4537.23
970.269	4590.78
970.571	4512.59
970.872	4519.15
971.174	4481.41
971.475	4440.5
971.776	4446.15
972.077	4455.65
972.378	4457.45
972.679	4406.61
972.98	4367.51
973.281	4341.3
973.582	4350.79
973.883	4324.8
974.183	4299.04
974.484	4287.97
974.785	4285.93
975.085	4289.77
975.386	4215.43
975.686	4184.24
975.986	4166.61
976.287	4172.49
976.587	4143.79
976.887	4104.69
977.187	4104.24
977.487	4083.45
977.787	4076.22
978.087	4092.27
978.387	4019.95
978.687	4042.78
978.987	4021.76
979.286	3996.9
979.586	3998.93
979.885	3965.04
980.185	3889.78
980.484	3905.6
980.784	3882.1
981.083	3885.49
981.382	3864.7
981.682	3829.67
981.981	3801.65
982.28	3786.06
982.579	3773.18
982.878	3764.36
983.177	3743.8
983.475	3722.78
983.774	3691.15
984.073	3700.41
984.372	3641.43
984.67	3641.2
984.969	3646.18
985.267	3631.49
985.566	3633.29
985.864	3600.75
986.162	3575.44
986.461	3545.84
986.759	3555.1
987.057	3528.66
987.355	3535.9
987.653	3484.37
987.951	3477.14
988.249	3442.11
988.547	3442.34
988.844	3433.07
989.142	3432.62
989.44	3360.99
989.737	3396.24
990.035	3357.37
990.332	3351.72
990.63	3339.97
990.927	3337.71
991.224	3278.73
991.521	3263.59
991.819	3265.39
992.116	3234.89
992.413	3219.07
992.71	3213.87
993.006	3159.41
993.303	3188.11
993.6	3172.52
993.897	3164.61
994.193	3132.29
994.49	3115.79
994.787	3101.56
995.083	3073.31
995.379	3004.84
995.676	3076.92
995.972	3047.55
996.268	2998.51
996.565	3011.62
996.861	2975.91
997.157	2961.45
997.453	2953.31
997.749	2946.98
998.044	2959.87
998.34	2885.74
998.636	2930.49
998.932	2872.41
999.227	2847.33
999.523	2821.11
999.818	2809.14
1000.114	2805.07
1000.409	2803.26
1000.704	2752.19
1001	2782.92
1001.295	2744.05
1001.59	2740.44
1001.885	2696.6
1002.18	2693.43
1002.475	2666.54
1002.77	2686.43
1003.065	2679.42
1003.359	2652.76
1003.654	2665.18
1003.949	2642.13
1004.243	2582.02
1004.538	2587.22
1004.832	2569.14
1005.127	2584.51
1005.421	2513.55
1005.715	2553.1
1006.009	2511.52
1006.304	2496.6
1006.598	2473.78
1006.892	2459.31
1007.186	2444.17
1007.48	2434.23
1007.773	2437.85
1008.067	2401.69
1008.361	2387.68
1008.655	2393.1
1008.948	2352.2
1009.242	2340.45
1009.535	2350.62
1009.829	2306.1
1010.122	2327.11
1010.415	2278.08
1010.708	2282.14
1011.001	2239.66
1011.295	2250.96
1011.588	2253.67
1011.881	2229.94
1012.173	2212.99
1012.466	2195.82
1012.759	2184.07
1013.052	2206.21
1013.344	2156.95
1013.637	2162.15
1013.93	2142.03
1014.222	2112.2
1014.514	2092.09
1014.807	2110.17
1015.099	2099.78
1015.391	2052.09
1015.683	2085.54
1015.976	2032.43
1016.268	2044.18
1016.56	2041.7
1016.851	2000.12
1017.143	1996.73
1017.435	1968.93
1017.727	1977.74
1018.018	1985.88
1018.31	1947.24
1018.602	1913.11
1018.893	1877.86
1019.185	1899.33
1019.476	1828.14
1019.767	1890.52
1020.058	1855.94
1020.35	1844.87
1020.641	1830.4
1020.932	1824.08
1021.223	1785.89
1021.514	1772.33
1021.804	1805.77
1022.095	1756.51
1022.386	1771.65
1022.677	1764.19
1022.967	1750.86
1023.258	1749.28
1023.548	1717.86
1023.839	1732.33
1024.129	1670.63
1024.419	1720.12
1024.709	1676.28
1025	1636.51
1025.29	1651.43
1025.58	1650.97
1025.87	1643.29
1026.16	1619.79
1026.449	1584.08
1026.739	1629.73
1027.029	1571.43
1027.319	1558.55
1027.608	1553.57
1027.898	1561.71
1028.187	1521.03
1028.477	1529.39
1028.766	1516.97
1029.055	1459.79
1029.344	1483.07
1029.634	1469.51
1029.923	1470.41
1030.212	1474.26
1030.501	1444.43
1030.79	1439.91
1031.078	1420.47
1031.367	1432
1031.656	1427.25
1031.945	1380.7
1032.233	1396.52
1032.522	1397.87
1032.81	1370.75
1033.099	1349.06
1033.387	1328.27
1033.675	1336.63
1033.963	1346.57
1034.251	1346.12
1034.54	1303.86
1034.828	1333.02
1035.116	1289.85
1035.403	1288.27
1035.691	1263.87
1035.979	1279.01
1036.267	1265.67
1036.554	1257.99
1036.842	1218.67
1037.129	1215.05
1037.417	1210.31
1037.704	1246.69
1037.992	1194.94
1038.279	1184.55
1038.566	1191.55
1038.853	1191.55
1039.14	1191.55
