Data from white_steel_sheet_FLMS001491_096.txt Node
Date: Tue Feb 07 10:58:50 GMT 2017
User: dcchb
Spectrometer: FLMS00149
Trigger mode: 0
Integration Time (sec): 2.000000E-2
Scans to average: 10
Electric dark correction enabled: true
Nonlinearity correction enabled: false
Boxcar width: 0
XAxis mode: Wavelengths
Number of Pixels in Spectrum: 2048
>>>>>Begin Spectral Data<<<<<
341.393	-1.07
341.776	-1.07
342.16	-1.07
342.543	-62.54
342.927	-62.77
343.31	-74.74
343.693	-57.8
344.077	-74.07
344.46	-59.38
344.843	-46.27
345.226	-45.14
345.61	-35.65
345.993	-25.25
346.376	-0.85
346.759	-8.53
347.142	31.47
347.525	50.45
347.908	54.29
348.291	87.51
348.674	96.33
349.057	107.62
349.44	123.22
349.823	126.83
350.206	143.1
350.588	238.02
350.971	208.64
351.354	239.15
351.737	244.12
352.119	281.18
352.502	290.44
352.884	264.68
353.267	293.83
353.65	292.25
354.032	311.91
354.414	304.68
354.797	321.63
355.179	319.37
355.562	349.43
355.944	318.69
356.326	329.31
356.709	334.74
357.091	344.45
357.473	337.9
357.855	346.94
358.238	343.1
358.62	348.07
359.002	331.12
359.384	332.03
359.766	344
360.148	336.77
360.53	350.33
360.912	329.09
361.294	351.69
361.676	322.08
362.057	355.08
362.439	362.08
362.821	337.9
363.203	327.96
363.584	322.31
363.966	339.71
364.348	346.26
364.729	325.25
365.111	319.14
365.493	339.71
365.874	323.44
366.256	326.15
366.637	329.31
367.019	319.6
367.4	344.23
367.781	345.36
368.163	330.67
368.544	316.43
368.925	329.54
369.306	349.2
369.688	340.61
370.069	319.14
370.45	333.61
370.831	337
371.212	329.77
371.593	316.66
371.974	328.41
372.355	321.63
372.736	352.59
373.117	317.34
373.498	350.33
373.879	340.84
374.26	328.41
374.641	344.45
375.021	337.45
375.402	326.83
375.783	359.14
376.163	348.07
376.544	353.95
376.925	363.44
377.305	333.83
377.686	349.2
378.066	341.29
378.447	356.43
378.827	342.65
379.208	363.21
379.588	357.56
379.968	361.18
380.349	349.2
380.729	355.53
381.109	358.47
381.489	368.41
381.87	374.74
382.25	371.8
382.63	350.33
383.01	369.09
383.39	365.24
383.77	370.22
384.15	367.96
384.53	376.54
384.91	353.27
385.29	375.19
385.67	367.5
386.049	375.19
386.429	371.8
386.809	393.49
387.189	395.07
387.568	392.81
387.948	394.62
388.328	405.24
388.707	412.02
389.087	426.26
389.466	412.93
389.846	424.9
390.225	394.62
390.605	419.48
390.984	425.58
391.363	426.26
391.743	423.1
392.122	413.83
392.501	434.4
392.881	430.55
393.26	457.45
393.639	440.04
394.018	453.15
394.397	484.11
394.776	480.5
395.155	475.07
395.534	473.04
395.913	480.04
396.292	487.28
396.671	456.09
397.05	482.3
397.429	511.46
397.808	499.7
398.186	502.64
398.565	495.64
398.944	511.23
399.323	529.76
399.701	536.77
400.08	530.89
400.458	570.66
400.837	542.64
401.215	587.61
401.594	583.54
401.972	575.41
402.351	589.65
402.729	587.84
403.107	578.12
403.486	589.42
403.864	603.88
404.242	597.33
404.62	620.83
404.999	626.03
405.377	652.47
405.755	648.18
406.133	664.45
406.511	646.59
406.889	651.56
407.267	706.93
407.645	679.59
408.023	697.67
408.401	716.42
408.779	719.13
409.156	704.9
409.534	727.72
409.912	758.91
410.29	753.03
410.667	762.97
411.045	772.47
411.422	777.21
411.8	791.9
412.178	814.95
412.555	849.75
412.933	850.2
413.31	868.06
413.687	859.02
414.065	888.62
414.442	890.2
414.819	881.62
415.197	907.15
415.574	927.26
415.951	941.27
416.328	919.13
416.705	929.07
417.082	967.26
417.46	987.83
417.837	989.63
418.214	986.02
418.591	966.36
418.967	1015.4
419.344	1023.08
419.721	1029.18
420.098	1040.71
420.475	1052.46
420.852	1067.15
421.228	1080.03
421.605	1082.97
421.982	1086.13
422.358	1109.86
422.735	1122.96
423.111	1124.32
423.488	1119.35
423.864	1127.94
424.241	1149.63
424.617	1164.32
424.994	1185.79
425.37	1201.83
425.746	1196.18
426.123	1211.55
426.499	1237.54
426.875	1251.1
427.251	1265.79
427.627	1287.93
428.003	1310.08
428.379	1292.9
428.756	1336.74
429.132	1345.33
429.507	1371.55
429.883	1372.22
430.259	1404.99
430.635	1399.12
431.011	1433.24
431.387	1427.36
431.763	1477.31
432.138	1487.7
432.514	1456.06
432.89	1494.71
433.265	1530.64
433.641	1551.2
434.016	1570.64
434.392	1599.79
434.767	1634.59
435.143	1623.06
435.518	1645.44
435.894	1668.71
436.269	1664.19
436.644	1713.23
437.02	1717.3
437.395	1753.46
437.77	1744.87
438.145	1805.66
438.52	1835.71
438.895	1820.35
439.271	1827.58
439.646	1845.43
440.021	1893.11
440.395	1891.98
440.77	1869.84
441.145	1897.86
441.52	1913
441.895	1948.93
442.27	1965.43
442.645	1958.2
443.019	1965.65
443.394	1998.87
443.769	2041.81
444.143	2036.16
444.518	2085.65
444.892	2054.47
445.267	2070.51
445.641	2109.38
446.016	2113.22
446.39	2127.91
446.764	2182.37
447.139	2147.57
447.513	2165.42
447.887	2203.39
448.262	2209.94
448.636	2227.79
449.01	2243.39
449.384	2258.08
449.758	2263.95
450.132	2298.98
450.506	2288.81
450.88	2325.19
451.254	2333.78
451.628	2398.41
452.002	2416.49
452.376	2418.3
452.75	2443.16
453.123	2484.28
453.497	2510.95
453.871	2508.47
454.244	2597.28
454.618	2621.68
454.992	2641.79
455.365	2634.34
455.739	2710.72
456.112	2695.13
456.486	2755.01
456.859	2751.85
457.232	2806.31
457.606	2800.43
457.979	2821.45
458.352	2933.09
458.725	2919.08
459.099	2942.35
459.472	3042.01
459.845	3039.07
460.218	3054.67
460.591	3087.21
460.964	3111.61
461.337	3207.88
461.71	3221.89
462.083	3282.68
462.456	3295.56
462.829	3302.79
463.201	3352.51
463.574	3344.83
463.947	3414.88
464.32	3464.15
464.692	3531.94
465.065	3554.54
465.438	3563.58
465.81	3664.14
466.183	3654.88
466.555	3737.81
466.928	3774.42
467.3	3717.02
467.672	3832.05
468.045	3951.14
468.417	3945.26
468.789	4008.76
469.161	4000.4
469.534	4079.72
469.906	4169.21
470.278	4232.71
470.65	4206.27
471.022	4303.45
471.394	4427.96
471.766	4452.59
472.138	4475.65
472.51	4584.57
472.882	4666.37
473.253	4687.62
473.625	4792.92
473.997	4851.45
474.369	4876.99
474.74	4957.21
475.112	5009.42
475.484	5133.48
475.855	5120.37
476.227	5214.61
476.598	5412.12
476.97	5413.02
477.341	5537.31
477.713	5641.49
478.084	5682.39
478.455	5803.07
478.827	5853.24
479.198	6049.39
479.569	6042.16
479.94	6189.5
480.311	6232.43
480.682	6412.54
481.053	6552.43
481.424	6655.47
481.795	6695.7
482.166	6827
482.537	6956.94
482.908	7068.8
483.279	7130.72
483.65	7195.35
484.021	7376.81
484.391	7510.59
484.762	7540.2
485.133	7605.28
485.503	7741.55
485.874	7944.71
486.244	7948.55
486.615	8157.81
486.985	8212.72
487.356	8363.45
487.726	8452.04
488.097	8633.28
488.467	8690.68
488.837	8816.1
489.207	8946.04
489.578	9109.2
489.948	9173.15
490.318	9231.45
490.688	9357.78
491.058	9467.38
491.428	9579.24
491.798	9680.71
492.168	9795.96
492.538	9935.16
492.908	9986.46
493.278	10176.51
493.648	10194.82
494.017	10316.85
494.387	10434.13
494.757	10548.25
495.126	10659.44
495.496	10635.48
495.866	10786.44
496.235	10835.03
496.605	11017.85
496.974	11013.1
497.344	11162.47
497.713	11227.11
498.082	11344.16
498.452	11417.61
498.821	11494.67
499.19	11657.83
499.559	11654.44
499.928	11741.22
500.298	11862.12
500.667	12012.85
501.036	11935.11
501.405	12078.16
501.774	12141.66
502.143	12261.2
502.512	12336.23
502.88	12414.87
503.249	12517.02
503.618	12566.96
503.987	12678.37
504.356	12787.52
504.724	12816.22
505.093	12907.29
505.462	12987.29
505.83	13062.99
506.199	13215.98
506.567	13361.97
506.936	13381.63
507.304	13551.11
507.672	13505.46
508.041	13666.14
508.409	13846.7
508.777	13878.79
509.145	13985.9
509.514	14109.74
509.882	14141.83
510.25	14274.94
510.618	14383.18
510.986	14413.69
511.354	14558.54
511.722	14632.89
512.09	14857.29
512.458	14765.77
512.826	14937.52
513.193	15092.09
513.561	15109.04
513.929	15250.05
514.297	15495.92
514.664	15488.24
515.032	15525.3
515.4	15737.04
515.767	15855.91
516.135	15884.38
516.502	15922.58
516.869	16161.67
517.237	16203.92
517.604	16250.7
517.972	16412.05
518.339	16613.4
518.706	16626.29
519.073	16707.41
519.44	16943.34
519.808	17039.16
520.175	17113.73
520.542	17285.03
520.909	17428.07
521.276	17528.64
521.643	17646.6
522.009	17829.19
522.376	17944.9
522.743	18079.36
523.11	18202.74
523.477	18470.98
523.843	18518.89
524.21	18803.63
524.577	18871.42
524.943	19145.77
525.31	19028.03
525.676	19311.41
526.043	19405.42
526.409	19483.61
526.776	19825.75
527.142	19765.86
527.508	19914.79
527.874	20059.64
528.241	20161.11
528.607	20232.97
528.973	20430.71
529.339	20468.9
529.705	20700.76
530.071	20922.44
530.437	20952.5
530.803	21083.8
531.169	21209.44
531.535	21222.32
531.901	21350.46
532.267	21513.62
532.632	21586.16
532.998	21741.18
533.364	21915.41
533.73	21974.17
534.095	22136.88
534.461	22103.66
534.826	22376.64
535.192	22355.17
535.557	22660.48
535.923	22511.55
536.288	22752
536.653	22760.36
537.019	22706.58
537.384	22978.66
537.749	23057.3
538.114	23042.39
538.479	23180.69
538.845	23227.02
539.21	23183.4
539.575	23430.17
539.94	23471.3
540.305	23677.85
540.67	23532.32
541.034	23753.1
541.399	23971.18
541.764	23951.07
542.129	24008.46
542.494	24184.73
542.858	24212.75
543.223	24142.92
543.587	24448.91
543.952	24472.18
544.316	24483.71
544.681	24561.9
545.045	24556.25
545.41	24889.35
545.774	24785.17
546.138	24888.67
546.503	25036.91
546.867	25009.12
547.231	25263.35
547.595	25196.91
547.959	25287.53
548.324	25380.86
548.688	25491.14
549.052	25620.17
549.416	25738.36
549.779	25640.51
550.143	25854.07
550.507	25945.14
550.871	26123.44
551.235	25954.63
551.599	26151.69
551.962	26234.17
552.326	26414.96
552.689	26488.17
553.053	26532.47
553.417	26563.88
553.78	26946.47
554.143	26866.69
554.507	26967.03
554.87	27060.14
555.234	27404.76
555.597	27218.1
555.96	27326.12
556.323	27452.67
556.686	27363.18
557.05	27642.95
557.413	27796.16
557.776	27976.72
558.139	28046.78
558.502	28035.93
558.865	28247
559.228	28399.76
559.59	28505.3
559.953	28478.18
560.316	28860.77
560.679	28711.17
561.041	28910.71
561.404	29094.88
561.767	29251.49
562.129	29272.96
562.492	29579.17
562.854	29555.44
563.217	29524.25
563.579	29742.55
563.941	29886.73
564.304	29864.36
564.666	30143.22
565.028	30229.54
565.39	30350.67
565.753	30530.33
566.115	30552.02
566.477	30764.45
566.839	30874.5
567.201	31035.4
567.563	31148.62
567.925	31184.77
568.287	31338.67
568.648	31315.39
569.01	31466.57
569.372	31723.29
569.734	31604.65
570.095	31872.21
570.457	31873.12
570.819	31989.27
571.18	31991.76
571.542	32189.94
571.903	32209.61
572.265	32397.4
572.626	32503.16
572.987	32466.1
573.349	32671.06
573.71	32584.51
574.071	32753.09
574.432	32900.89
574.794	33106.08
575.155	33099.75
575.516	33052.07
575.877	33265.17
576.238	33305.62
576.599	33393.3
576.96	33365.96
577.32	33342.23
577.681	33461.1
578.042	33553.98
578.403	33585.61
578.763	33636.46
579.124	33563.02
579.485	33826.29
579.845	33878.04
580.206	33806.17
580.566	33780.19
580.927	33869.45
581.287	34067.41
581.648	33833.07
582.008	33980.86
582.368	33942.21
582.728	34034.19
583.089	33953.29
583.449	34031.25
583.809	33989.9
584.169	34146.5
584.529	34047.75
584.889	34288.19
585.249	33926.62
585.609	33839.84
585.969	34220.4
586.329	34001.87
586.688	34021.08
587.048	33982.67
587.408	34028.54
587.768	33987.41
588.127	34039.16
588.487	33906.28
588.846	34311.7
589.206	34099.72
589.565	34042.33
589.925	34275.77
590.284	34129.1
590.643	34229.89
591.003	34264.69
591.362	34159.84
591.721	34184.69
592.08	34182.21
592.44	34254.98
592.799	34141.31
593.158	34137.01
593.517	34153.51
593.876	34208.65
594.235	34112.15
594.593	34332.49
594.952	34308.08
595.311	34212.72
595.67	34165.03
596.029	34488.42
596.387	34447.06
596.746	34442.54
597.104	34242.55
597.463	34200.97
597.822	34491.35
598.18	34154.86
598.538	34146.28
598.897	34362.54
599.255	34253.85
599.613	34688.18
599.972	34350.79
600.33	34428.98
600.688	34359.61
601.046	34450
601.404	34574.06
601.762	34420.17
602.12	34736.09
602.478	34650.67
602.836	34544.01
603.194	34400.96
603.552	34606.6
603.91	34460.39
604.268	34608.86
604.625	34483.9
604.983	34583.33
605.341	34406.38
605.698	34624.91
606.056	34652.03
606.413	34668.3
606.771	34882.53
607.128	34781.74
607.485	34545.36
607.843	34571.12
608.2	34803.21
608.557	34929.08
608.914	34779.26
609.272	35057.44
609.629	35007.72
609.986	35151.9
610.343	34872.81
610.7	35289.75
611.057	35131.34
611.414	35061.28
611.771	35102.64
612.127	35292.46
612.484	35232.12
612.841	35328.62
613.198	35098.57
613.554	35364.78
613.911	35387.83
614.267	35366.81
614.624	35433.02
614.98	35503.53
615.337	35633.7
615.693	35545.11
616.05	35624.43
616.406	35805.89
616.762	35633.92
617.118	35658.78
617.475	35609.29
617.831	35784.43
618.187	35684.99
618.543	35871.43
618.899	35907.36
619.255	35897.64
619.611	35957.3
619.967	35878.44
620.323	36003.86
620.678	35906.68
621.034	35953.24
621.39	36017.64
621.746	35971.31
622.101	36203.4
622.457	36044.98
622.812	36049.5
623.168	36149.61
623.523	35996.17
623.879	36258.09
624.234	35904.42
624.589	36092.67
624.945	36023.29
625.3	36190.52
625.655	36078.88
626.01	36029.17
626.365	36025.55
626.72	36057.19
627.075	35998.66
627.43	36091.08
627.785	36070.75
628.14	36024.19
628.495	36036.4
628.85	35985.1
629.205	35898.32
629.559	36033.23
629.914	35982.84
630.269	35968.83
630.623	35849.74
630.978	35859.68
631.332	35844.31
631.687	35976.96
632.041	35714.82
632.396	35874.82
632.75	35686.35
633.104	35499.91
633.459	35580.14
633.813	35541.04
634.167	35554.6
634.521	35460.14
634.875	35563.87
635.229	35424.89
635.583	35298.34
635.937	35442.29
636.291	35281.61
636.645	35247.49
636.999	35262.41
637.352	35250.88
637.706	34998.23
638.06	35232.35
638.413	35119.81
638.767	34941.51
639.121	35012.47
639.474	34704.23
639.828	34840.72
640.181	34934.73
640.534	34771.8
640.888	34726.38
641.241	34480.28
641.594	34653.61
641.947	34694.96
642.301	34565.93
642.654	34496.78
643.007	34496.55
643.36	34485.25
643.713	34444.12
644.066	34510.56
644.419	34258.59
644.771	33987.19
645.124	33827.19
645.477	33734.31
645.83	33471.27
646.182	33316.92
646.535	33119.19
646.888	33330.71
647.24	33265.17
647.593	33374.32
647.945	33182.69
648.298	33021.11
648.65	33085.97
649.002	32948.79
649.355	33066.31
649.707	32833.09
650.059	33023.37
650.411	33438.5
650.763	33545.16
651.115	33780.41
651.467	33636.69
651.819	33605.27
652.171	33684.14
652.523	33539.29
652.875	33515.79
653.227	33399.63
653.578	33592.39
653.93	33505.84
654.282	33342.68
654.633	33299.29
654.985	33300.42
655.337	33362.8
655.688	33354.21
656.039	33504.94
656.391	33057.04
656.742	33194.21
657.094	33078.28
657.445	33315.34
657.796	33273.08
658.147	33109.24
658.498	33114.67
658.849	33066.98
659.2	33004.84
659.551	32807.56
659.902	33024.05
660.253	33032.86
660.604	33051.62
660.955	32606.66
661.306	32994.44
661.656	32719.87
662.007	32798.97
662.358	32693.89
662.708	32620.22
663.059	32544.29
663.409	32359.43
663.76	32572.76
664.11	32527.56
664.461	32642.59
664.811	32484.85
665.161	32462.03
665.511	32285.76
665.862	32443.5
666.212	32313.11
666.562	32235.37
666.912	32075.82
667.262	32033.56
667.612	32022.04
667.962	31882.83
668.312	31884.19
668.662	31843.29
669.011	31848.48
669.361	31647.36
669.711	31580.24
670.06	31529.4
670.41	31411.21
670.76	31325.79
671.109	31517.19
671.459	31302.06
671.808	31127.15
672.157	31197.88
672.507	31001.28
672.856	31011.9
673.205	30961.05
673.554	30983.2
673.904	30919.02
674.253	31083.98
674.602	30843.99
674.951	30353.61
675.3	30273.84
675.649	30663.88
675.998	30525.81
676.346	30742.75
676.695	30831.11
677.044	30530.1
677.393	30535.98
677.741	30612.81
678.09	30562.87
678.438	30357.9
678.787	30530.1
679.135	30467.5
679.484	30248.3
679.832	30404.23
680.181	30351.35
680.529	30311.8
680.877	30222.76
681.225	30342.54
681.573	30485.13
681.922	30248.98
682.27	30220.5
682.618	30251.69
682.966	30270
683.314	30396.09
683.661	30396.32
684.009	30220.28
684.357	30147.29
684.705	30129.43
685.053	30171.92
685.4	30220.96
685.748	30112.71
686.095	29978.25
686.443	30024.8
686.79	30016.67
687.138	30085.14
687.485	30239.71
687.832	30050.11
688.18	30078.81
688.527	29994.3
688.874	30002.88
689.221	29950.46
689.568	30016.67
689.915	29917.69
690.262	29890.34
690.609	29822.1
690.956	29841.53
691.303	29854.41
691.65	29814.64
691.997	29732.16
692.344	29631.37
692.69	29617.13
693.037	29612.61
693.383	29229.34
693.73	29635.89
694.077	29346.86
694.423	29528.77
694.769	29380.07
695.116	29250.36
695.462	29285.39
695.808	29245.16
696.155	29378.49
696.501	29041.1
696.847	29041.33
697.193	28914.1
697.539	29015.79
697.885	28726.76
698.231	28734.67
698.577	28662.35
698.923	28646.53
699.269	28467.1
699.614	28476.82
699.96	28345.53
700.306	28356.6
700.651	28253.78
700.997	28151.18
701.342	28015.14
701.688	28126.1
702.033	28011.52
702.379	27995.03
702.724	27787.35
703.069	27913.45
703.415	27560.91
703.76	27586.68
704.105	27696.05
704.45	27579.22
704.795	27369.28
705.14	27327.02
705.485	27198.66
705.83	27313.46
706.175	27283.63
706.52	27279.34
706.865	27076.18
707.209	27061.49
707.554	27038.67
707.899	27023.98
708.243	26886.13
708.588	26732.69
708.932	26596.42
709.277	26646.59
709.621	26715.06
709.966	26486.14
710.31	26558
710.654	26213.83
710.998	26350.55
711.342	26291.57
711.687	26234.17
712.031	26148.52
712.375	26140.61
712.719	26140.84
713.063	26144.68
713.407	26115.08
713.75	25994.18
714.094	25855.2
714.438	25899.71
714.782	25847.06
715.125	25679.83
715.469	25764.8
715.812	25558.93
716.156	25507.41
716.499	25470.8
716.843	25463.57
717.186	25336.11
717.53	25348.32
717.873	25484.36
718.216	25369.11
718.559	25239.84
718.902	25174.99
719.246	25139.06
719.589	25106.97
719.932	24927.54
720.275	24948.1
720.617	25020.42
720.96	25045.27
721.303	24792.62
721.646	24807.54
721.989	24607.32
722.331	24851.38
722.674	24771.61
723.016	24787.2
723.359	24595.12
723.701	24660.65
724.044	24571.16
724.386	24457.94
724.729	24571.84
725.071	24469.24
725.413	24400.54
725.755	24438.06
726.097	24262.24
726.439	24183.38
726.782	24128.91
727.124	24261.79
727.465	24187.44
727.807	24158.97
728.149	24077.16
728.491	23951.07
728.833	24037.16
729.175	23899.77
729.516	23952.65
729.858	23813.89
730.199	23922.59
730.541	23862.25
730.882	23739.77
731.224	23808.24
731.565	23644.41
731.906	23655.48
732.248	23617.97
732.589	23603.5
732.93	23416.62
733.271	23456.39
733.612	23433.34
733.953	23342.72
734.294	23419.33
734.635	23324.87
734.976	23363.74
735.317	23151.09
735.658	23154.25
735.999	23231.31
736.339	23138.88
736.68	23214.36
737.021	23030.86
737.361	23074.03
737.702	23125.32
738.042	22951.54
738.383	22934.37
738.723	22946.57
739.063	22903.64
739.404	22949.06
739.744	22880.13
740.084	22673.36
740.424	22863.18
740.764	22689.63
741.104	22687.37
741.444	22592.46
741.784	22449.86
742.124	22485.11
742.464	22507.94
742.804	22378.68
743.143	22384.1
743.483	22466.58
743.823	22300.26
744.162	22304.33
744.502	22380.94
744.841	22305.01
745.181	22154.73
745.52	22155.41
745.86	22185.91
746.199	22095.75
746.538	22031.34
746.877	22066.82
747.216	22015.52
747.556	21966.94
747.895	21932.81
748.234	21834.96
748.573	21847.39
748.911	21924.68
749.25	21862.53
749.589	21772.14
749.928	21631.35
750.267	21731.46
750.605	21596.78
750.944	21656.44
751.283	21493.73
751.621	21559.26
751.96	21384.8
752.298	21455.31
752.636	21404.92
752.975	21288.31
753.313	21164.25
753.651	21284.47
753.989	21205.37
754.327	21122.66
754.666	21032.72
755.004	21069.33
755.342	20947.75
755.679	20995.66
756.017	20849.23
756.355	21034.76
756.693	20798.38
757.031	20745.27
757.368	20655.56
757.706	20670.02
758.044	20573.3
758.381	20576.24
758.719	20442.68
759.056	20529.01
759.394	20407.88
759.731	20265.96
760.068	20252.63
760.405	20115.69
760.743	20076.14
761.08	20126.98
761.417	19985.07
761.754	19917.95
762.091	19922.02
762.428	19851.51
762.765	19764.28
763.102	19771.51
763.438	19692.87
763.775	19656.94
764.112	19577.39
764.449	19609.26
764.785	19514.35
765.122	19298.31
765.458	19221.25
765.795	19268.7
766.131	19193
766.467	19057.41
766.804	19076.62
767.14	18975.6
767.476	19068.03
767.812	18839.34
768.148	18911.42
768.485	18706.68
768.821	18621.71
769.157	18716.17
769.492	18543.75
769.828	18593.47
770.164	18412
770.5	18351.89
770.836	18428.72
771.171	18189.41
771.507	18299.24
771.842	18074.38
772.178	18134.27
772.513	18100.37
772.849	17989.64
773.184	17892.02
773.519	17825.35
773.855	17681.85
774.19	17681.63
774.525	17616.99
774.86	17652.93
775.195	17524.34
775.53	17449.32
775.865	17401.63
776.2	17296.32
776.535	17081.42
776.87	17210
777.205	16998.48
777.539	17033.51
777.874	16940.63
778.209	16807.75
778.543	16847.52
778.878	16773.4
779.212	16699.96
779.547	16596.46
779.881	16669.67
780.215	16465.61
780.55	16485.72
780.884	16433.52
781.218	16319.4
781.552	16358.95
781.886	16299.97
782.22	16137.26
782.554	16177.48
782.888	15982.24
783.222	15938.85
783.556	15882.58
783.889	15893.65
784.223	15665.86
784.557	15644.16
784.89	15711.06
785.224	15679.42
785.557	15583.15
785.891	15498.86
786.224	15387.45
786.558	15415.7
786.891	15337.96
787.224	15250.28
787.557	15276.49
787.891	15151.97
788.224	15154.91
788.557	15078.98
788.89	15099.77
789.223	15089.38
789.556	14973.45
789.888	14933
790.221	14898.42
790.554	14714.02
790.887	14806.9
791.219	14747.47
791.552	14646.23
791.884	14516.28
792.217	14506.12
792.549	14485.78
792.882	14312.22
793.214	14424.54
793.546	14362.39
793.879	14225.67
794.211	14198.33
794.543	14211.66
794.875	14111.1
795.207	14278.55
795.539	14040.14
795.871	14116.07
796.203	13926.92
796.535	13870.2
796.867	13864.1
797.198	13866.58
797.53	13802.18
797.862	13737.77
798.193	13674.5
798.525	13615.29
798.856	13648.29
799.188	13514.05
799.519	13476.09
799.85	13388.86
800.182	13422.98
800.513	13370.55
800.844	13315.19
801.175	13392.7
801.506	13266.15
801.837	13156.32
802.168	13266.15
802.499	13070.9
802.83	13120.16
803.161	13074.74
803.491	13030.9
803.822	13005.59
804.153	12947.06
804.483	12933.95
804.814	12755.43
805.145	12858.02
805.475	12700.06
805.805	12782.09
806.136	12716.78
806.466	12633.17
806.796	12577.58
807.126	12494.87
807.457	12481.08
807.787	12479.73
808.117	12470.01
808.447	12421.2
808.777	12430.69
809.107	12326.51
809.436	12353.4
809.766	12328.55
810.096	12256.68
810.426	12223.92
810.755	12236.12
811.085	12143.01
811.414	12143.92
811.744	12012.85
812.073	12057.59
812.403	12029.34
812.732	12042.23
813.061	11965.62
813.39	11884.49
813.719	11876.58
814.049	11929.23
814.378	11857.15
814.707	11877.26
815.036	11804.49
815.365	11760.88
815.693	11717.71
816.022	11642.69
816.351	11601.56
816.68	11556.59
817.008	11579.19
817.337	11518.4
817.665	11481.79
817.994	11475.01
818.322	11465.07
818.651	11418.74
818.979	11378.06
819.307	11388.46
819.636	11352.98
819.964	11281.79
820.292	11369.25
820.62	11327.22
820.948	11222.36
821.276	11327.22
821.604	11269.36
821.932	11238.63
822.259	11223.94
822.587	11233.89
822.915	11222.13
823.243	11260.55
823.57	11221.91
823.898	11198.86
824.225	11209.71
824.553	11219.87
824.88	11221.46
825.207	11270.27
825.535	11211.74
825.862	11227.33
826.189	11143.27
826.516	11178.07
826.843	11225.98
827.17	11242.02
827.497	11289.25
827.824	11189.14
828.151	11232.3
828.478	11167.45
828.805	11247.44
829.131	11121.8
829.458	11181.68
829.785	11083.61
830.111	11131.97
830.438	11231.17
830.764	11076.38
831.09	11155.47
831.417	11092.65
831.743	11128.35
832.069	11030.5
832.395	11067.56
832.722	11145.75
833.048	11081.12
833.374	11059.43
833.7	10995.93
834.026	10960.9
834.351	11099.43
834.677	11057.62
835.003	11050.61
835.329	10958.41
835.654	11011.74
835.98	11007
836.306	11043.83
836.631	10947.11
836.956	10950.73
837.282	10957.06
837.607	10872.09
837.932	10829.83
838.258	10826.21
838.583	10856.27
838.908	10772.88
839.233	10776.27
839.558	10811.07
839.883	10722.94
840.208	10693.33
840.533	10651.3
840.858	10749.6
841.182	10680.68
841.507	10676.84
841.832	10585.54
842.156	10538.54
842.481	10608.82
842.805	10547.58
843.13	10548.93
843.454	10539.67
843.778	10483.62
844.103	10500.57
844.427	10363.4
844.751	10387.35
845.075	10346.9
845.399	10318.88
845.723	10327.24
846.047	10282.95
846.371	10278.2
846.695	10199.79
847.019	10194.59
847.343	10129.96
847.666	10021.04
847.99	9982.84
848.313	10028.95
848.637	9951.89
848.96	9908.72
849.284	9897.65
849.607	9812.23
849.931	9780.36
850.254	9782.62
850.577	9715.28
850.9	9721.38
851.223	9637.09
851.546	9561.16
851.869	9509.64
852.192	9543.08
852.515	9501.28
852.838	9432.35
853.161	9412.69
853.483	9395.29
853.806	9333.37
854.129	9368.85
854.451	9284.11
854.774	9257.67
855.096	9203.88
855.419	9240.94
855.741	9188.74
856.063	9160.27
856.385	9144.22
856.708	9039.14
857.03	8981.29
857.352	9024.45
857.674	8998.24
857.996	9029.88
858.318	8900.39
858.64	8923.44
858.961	8906.04
859.283	8871.91
859.605	8832.82
859.926	8845.25
860.248	8823.78
860.57	8751.46
860.891	8779.71
861.212	8798.7
861.534	8704.69
861.855	8695.42
862.176	8719.15
862.498	8680.05
862.819	8679.15
863.14	8645.7
863.461	8631.92
863.782	8656.33
864.103	8609.32
864.424	8534.75
864.745	8610
865.065	8515.54
865.386	8474.86
865.707	8474.41
866.027	8488.19
866.348	8490.91
866.668	8537.23
866.989	8417.01
867.309	8399.84
867.63	8413.62
867.95	8378.37
868.27	8321.19
868.59	8372.72
868.91	8335.66
869.23	8307.86
869.55	8230.8
869.87	8285.26
870.19	8236.22
870.51	8320.29
870.83	8257.47
871.15	8217.24
871.469	8195.77
871.789	8267.41
872.109	8215.43
872.428	8225.38
872.748	8131.14
873.067	8101.09
873.386	8152.16
873.706	8146.51
874.025	8045.49
874.344	8087.08
874.663	8086.17
874.982	8082.56
875.301	8104.02
875.62	7995.33
875.939	8018.83
876.258	7975.89
876.577	7996.91
876.896	7944.25
877.214	7946.51
877.533	7983.8
877.852	7973.18
878.17	7988.77
878.489	7980.41
878.807	7945.84
879.125	7927.76
879.444	7893.63
879.762	7907.19
880.08	7913.29
880.398	7827.42
880.716	7834.2
881.034	7852.28
881.352	7860.87
881.67	7828.1
881.988	7791.26
882.306	7755.33
882.624	7756.91
882.941	7740.64
883.259	7669.01
883.577	7650.48
883.894	7632.17
884.212	7624.49
884.529	7623.13
884.846	7625.39
885.164	7591.72
885.481	7544.72
885.798	7562.8
886.115	7455.91
886.432	7528.22
886.75	7466.07
887.067	7413.87
887.383	7386.98
887.7	7476.02
888.017	7398.05
888.334	7378.17
888.651	7383.82
888.967	7333.42
889.284	7325.06
889.6	7313.76
889.917	7265.63
890.233	7303.14
890.55	7260.88
890.866	7268.79
891.182	7222.92
891.498	7184.05
891.815	7192.41
892.131	7090.49
892.447	7012.3
892.763	7097.27
893.079	7094.56
893.395	7003.71
893.71	7040.55
894.026	6981.79
894.342	6984.28
894.657	6934.34
894.973	6923.94
895.289	6933.21
895.604	6875.13
895.92	6841.23
896.235	6848.24
896.55	6807.79
896.865	6862.47
897.181	6822.48
897.496	6862.47
897.811	6737.28
898.126	6779.09
898.441	6706.55
898.756	6611.18
899.071	6627.9
899.386	6709.71
899.7	6629.49
900.015	6614.35
900.33	6573.22
900.644	6508.81
900.959	6538.64
901.273	6452.09
901.588	6469.72
901.902	6460.68
902.216	6454.8
902.531	6411.87
902.845	6417.74
903.159	6359.44
903.473	6321.92
903.787	6311.53
904.101	6275.37
904.415	6222.04
904.729	6261.81
905.042	6179.56
905.356	6217.07
905.67	6208.93
905.984	6189.27
906.297	6164.19
906.611	6101.59
906.924	6074.7
907.237	6086.45
907.551	6014.14
907.864	6003.06
908.177	5983.4
908.491	6013.91
908.804	5971.88
909.117	5917.42
909.43	5865.44
909.743	5850.98
910.056	5859.56
910.368	5813.46
910.681	5758.78
910.994	5756.97
911.307	5780.02
911.619	5693.24
911.932	5750.19
912.244	5700.92
912.557	5635.84
912.869	5628.84
913.181	5627.71
913.494	5620.25
913.806	5568.27
914.118	5572.11
914.43	5553.36
914.742	5533.92
915.054	5465.9
915.366	5488.73
915.678	5450.53
915.99	5460.03
916.302	5386.13
916.613	5394.26
916.925	5359.24
917.236	5316.75
917.548	5307.71
917.859	5334.38
918.171	5284.66
918.482	5249.86
918.794	5237.66
919.105	5181.16
919.416	5221.84
919.727	5187.26
920.038	5156.31
920.349	5113.14
920.66	5083.09
920.971	5074.95
921.282	5056.87
921.593	5056.42
921.903	4983.65
922.214	4992.69
922.525	4951.34
922.835	4966.03
923.146	4926.71
923.456	4906.59
923.767	4888.74
924.077	4889.87
924.387	4890.32
924.697	4800.61
925.008	4798.8
925.318	4842.19
925.628	4792.92
925.938	4784.79
926.248	4715.19
926.558	4741.17
926.867	4691.68
927.177	4645.36
927.487	4587.51
927.796	4596.77
928.106	4606.94
928.416	4577.34
928.725	4590.44
929.034	4511.8
929.344	4560.84
929.653	4515.87
929.962	4459.83
930.271	4492.37
930.581	4428.64
930.89	4404.46
931.199	4344.58
931.508	4401.52
931.817	4441.52
932.125	4361.52
932.434	4307.97
932.743	4311.58
933.051	4251.02
933.36	4269.32
933.669	4250.11
933.977	4204.24
934.286	4253.28
934.594	4199.95
934.902	4227.06
935.21	4163.11
935.519	4188.65
935.827	4135.09
936.135	4107.97
936.443	4103.68
936.751	4087.41
937.059	4088.99
937.367	4102.32
937.674	4023.91
937.982	4006.5
938.29	4040.4
938.597	4012.38
938.905	3961.99
939.213	3925.15
939.52	3950.24
939.827	3911.37
940.135	3928.09
940.442	3905.26
940.749	3899.16
941.056	3872.95
941.363	3815.78
941.67	3833.63
941.977	3808.77
942.284	3787.75
942.591	3816.45
942.898	3757.02
943.205	3753.4
943.511	3752.73
943.818	3709.56
944.125	3725.38
944.431	3671.37
944.738	3666.4
945.044	3681.54
945.35	3649.23
945.657	3570.13
945.963	3634.99
946.269	3566.06
946.575	3584.82
946.881	3584.6
947.187	3543.92
947.493	3545.05
947.799	3509.34
948.105	3477.71
948.41	3472.28
948.716	3516.12
949.022	3446.52
949.327	3467.31
949.633	3421.44
949.938	3450.59
950.244	3413.07
950.549	3378.27
950.854	3377.37
951.16	3405.84
951.465	3339.18
951.77	3346.64
952.075	3324.94
952.38	3304.6
952.685	3298.27
952.99	3235
953.294	3287.2
953.599	3230.71
953.904	3216.47
954.209	3201.55
954.513	3185.51
954.818	3224.83
955.122	3192.97
955.426	3137.83
955.731	3145.96
956.035	3142.8
956.339	3098.73
956.643	3140.99
956.948	3089.01
957.252	3111.39
957.556	3027.1
957.86	3034.78
958.163	3059.86
958.467	3015.8
958.771	3007.66
959.075	2970.37
959.378	3020.32
959.682	2958.4
959.985	2980.77
960.289	2932.86
960.592	2913.2
960.896	2922.92
961.199	2902.35
961.502	2878.17
961.805	2915.46
962.108	2848.34
962.411	2903.48
962.714	2839.53
963.017	2844.73
963.32	2813.32
963.623	2844.05
963.926	2797.5
964.228	2776.71
964.531	2794.33
964.833	2771.74
965.136	2726.09
965.438	2732.41
965.741	2724.28
966.043	2701.68
966.345	2713.43
966.648	2701.23
966.95	2719.53
967.252	2660.1
967.554	2658.74
967.856	2665.3
968.158	2639.99
968.46	2613.77
968.761	2617.84
969.063	2611.74
969.365	2605.86
969.666	2592.76
969.968	2582.14
970.269	2548.92
970.571	2581.68
970.872	2558.86
971.174	2508.69
971.475	2503.27
971.776	2517.28
972.077	2495.58
972.378	2488.8
972.679	2454
972.98	2463.49
973.281	2480.67
973.582	2449.26
973.883	2458.07
974.183	2431.86
974.484	2417.39
974.785	2396.38
975.085	2416.26
975.386	2402.03
975.686	2354.8
975.986	2379.2
976.287	2351.63
976.587	2345.31
976.887	2309.37
977.187	2317.28
977.487	2297.85
977.787	2329.71
978.087	2303.72
978.387	2285.87
978.687	2270.96
978.987	2250.17
979.286	2268.7
979.586	2245.2
979.885	2241.13
980.185	2237.29
980.484	2225.76
980.784	2232.99
981.083	2211.07
981.382	2224.63
981.682	2190.28
981.981	2177.4
982.28	2132.2
982.579	2133.11
982.878	2147.34
983.177	2110.96
983.475	2082.71
983.774	2117.29
984.073	2115.48
984.372	2075.71
984.67	2087.46
984.969	2063.28
985.267	2050.85
985.566	2071.87
985.864	2044.97
986.162	2002.49
986.461	2043.17
986.759	2029.38
987.057	1969.5
987.355	1991.19
987.653	2003.39
987.951	1982.38
988.249	1973.34
988.547	1975.6
988.844	1939.89
989.142	1942.6
989.44	1936.73
989.737	1935.6
990.035	1945.32
990.332	1937.63
990.63	1911.19
990.927	1903.28
991.224	1915.71
991.521	1884.3
991.819	1879.56
992.116	1929.05
992.413	1837.75
992.71	1884.53
993.006	1855.37
993.303	1860.35
993.6	1850.63
993.897	1795.04
994.193	1832.32
994.49	1788.94
994.787	1788.48
995.083	1785.32
995.379	1799.11
995.676	1756.17
995.972	1761.14
996.268	1752.78
996.565	1724.08
996.861	1756.17
997.157	1718.66
997.453	1725.43
997.749	1705.77
998.044	1716.62
998.34	1721.14
998.636	1675.94
998.932	1675.27
999.227	1674.81
999.523	1686.57
999.818	1649.5
1000.114	1653.57
1000.409	1647.02
1000.704	1644.08
1001	1639.34
1001.295	1603.18
1001.59	1605.21
1001.885	1607.7
1002.18	1628.04
1002.475	1567.92
1002.77	1565.67
1003.065	1570.86
1003.359	1570.41
1003.654	1554.82
1003.949	1549.17
1004.243	1543.97
1004.538	1572.9
1004.832	1507.81
1005.127	1527.93
1005.421	1514.14
1005.715	1521.82
1006.009	1507.81
1006.304	1485.44
1006.598	1468.72
1006.892	1469.4
1007.186	1450.64
1007.48	1460.81
1007.773	1446.57
1008.067	1441.6
1008.361	1425.78
1008.655	1402.73
1008.948	1407.93
1009.242	1395.5
1009.535	1397.99
1009.829	1387.59
1010.122	1391.43
1010.415	1391.43
1010.708	1378.55
1011.001	1370.64
1011.295	1351.89
1011.588	1346.46
1011.881	1339.46
1012.173	1319.57
1012.466	1333.81
1012.759	1322.51
1013.052	1313.92
1013.344	1319.12
1013.637	1308.27
1013.93	1305.78
1014.222	1297.65
1014.514	1267.14
1014.807	1275.05
1015.099	1250.42
1015.391	1247.93
1015.683	1234.6
1015.976	1251.1
1016.268	1239.57
1016.56	1224.21
1016.851	1217.2
1017.143	1181.27
1017.435	1198.9
1017.727	1203.19
1018.018	1201.61
1018.31	1190.31
1018.602	1191.44
1018.893	1180.36
1019.185	1175.62
1019.476	1157.99
1019.767	1136.75
1020.058	1160.25
1020.35	1132
1020.641	1123.64
1020.932	1096.75
1021.223	1117.99
1021.514	1119.58
1021.804	1080.71
1022.095	1083.87
1022.386	1065.34
1022.677	1082.97
1022.967	1059.69
1023.258	1070.08
1023.548	1051.1
1023.839	1047.94
1024.129	1052.46
1024.419	1042.06
1024.709	1062.85
1025	1053.81
1025.29	1014.95
1025.58	1014.27
1025.87	992.35
1026.16	1026.92
1026.449	994.15
1026.739	1006.58
1027.029	990.99
1027.319	997.54
1027.608	990.99
1027.898	970.65
1028.187	973.14
1028.477	964.1
1028.766	962.52
1029.055	951.22
1029.344	939.69
1029.634	946.47
1029.923	928.39
1030.212	913.7
1030.501	916.42
1030.79	910.09
1031.078	909.19
1031.367	907.83
1031.656	889.75
1031.945	894.5
1032.233	904.67
1032.522	867.38
1032.81	863.31
1033.099	850.2
1033.387	868.73
1033.675	842.97
1033.963	851.56
1034.251	877.55
1034.54	839.58
1034.828	844.33
1035.116	837.32
1035.403	802.75
1035.691	829.19
1035.979	823.09
1036.267	832.58
1036.554	797.32
1036.842	820.37
1037.129	800.49
1037.417	766.36
1037.704	788.51
1037.992	808.4
1038.279	782.41
1038.566	779.92
1038.853	779.92
1039.14	779.92
