Data from white_poster_card_FLMS001491_00036.txt Node
Date: Wed Feb 08 11:51:26 GMT 2017
User: dcchb
Spectrometer: FLMS00149
Trigger mode: 0
Integration Time (sec): 2.000000E-2
Scans to average: 10
Electric dark correction enabled: true
Nonlinearity correction enabled: false
Boxcar width: 0
XAxis mode: Wavelengths
Number of Pixels in Spectrum: 2048
>>>>>Begin Spectral Data<<<<<
341.393	7.39
341.776	7.39
342.16	7.39
342.543	-76.23
342.927	-59.5
343.31	-56.11
343.693	-73.52
344.077	-85.94
344.46	-65.83
344.843	-56.11
345.226	-43.46
345.61	-30.8
345.993	-6.4
346.376	3.09
346.759	5.8
347.142	25.92
347.525	46.48
347.908	46.93
348.291	79.7
348.674	91.68
349.057	118.57
349.44	144.56
349.823	137.78
350.206	174.84
350.588	192.69
350.971	194.05
351.354	217.32
351.737	259.13
352.119	245.12
352.502	262.52
352.884	277.89
353.267	284.22
353.65	305.23
354.032	296.42
354.414	310.66
354.797	316.98
355.179	319.69
355.562	310.88
355.944	325.57
356.326	337.32
356.709	345.46
357.091	341.84
357.473	349.3
357.855	354.27
358.238	343.65
358.62	332.12
359.002	338.9
359.384	325.8
359.766	335.06
360.148	328.73
360.53	335.06
360.912	362.18
361.294	328.96
361.676	349.75
362.057	335.29
362.439	328.73
362.821	335.29
363.203	323.76
363.584	347.04
363.966	302.29
364.348	330.99
364.729	316.08
365.111	320.37
365.493	298.45
365.874	310.88
366.256	327.15
366.637	308.85
367.019	330.54
367.4	314.27
367.781	318.11
368.163	319.47
368.544	318.11
368.925	325.34
369.306	318.79
369.688	315.4
370.069	309.98
370.45	327.6
370.831	320.37
371.212	321.05
371.593	323.08
371.974	328.96
372.355	312.92
372.736	313.37
373.117	321.73
373.498	330.54
373.879	318.79
374.26	311.33
374.641	304.78
375.021	337.32
375.402	336.64
375.783	325.8
376.163	341.62
376.544	327.15
376.925	329.86
377.305	345.91
377.686	320.37
378.066	331.9
378.447	335.06
378.827	351.56
379.208	329.19
379.588	331.22
379.968	352.24
380.349	316.53
380.729	366.7
381.109	342.97
381.489	335.97
381.87	366.25
382.25	352.69
382.63	354.04
383.01	367.6
383.39	343.65
383.77	345.91
384.15	351.56
384.53	366.02
384.91	365.8
385.29	368.96
385.67	346.13
386.049	361.73
386.429	378.22
386.809	388.39
387.189	366.25
387.568	356.76
387.948	365.12
388.328	389.07
388.707	396.08
389.087	394.5
389.466	359.24
389.846	390.65
390.225	362.18
390.605	379.58
390.984	381.61
391.363	382.07
391.743	385.23
392.122	398.34
392.501	410.77
392.881	407.15
393.26	401.5
393.639	407.6
394.018	398.79
394.397	409.64
394.776	405.34
395.155	430.2
395.534	404.66
395.913	416.19
396.292	419.81
396.671	441.95
397.05	433.14
397.429	450.31
397.808	437.21
398.186	424.55
398.565	428.39
398.944	424.1
399.323	437.21
399.701	439.47
400.08	456.87
400.458	448.96
400.837	441.95
401.215	446.92
401.594	448.51
401.972	467.04
402.351	460.93
402.729	451.67
403.107	464.32
403.486	459.58
403.864	483.76
404.242	476.98
404.62	486.02
404.999	486.24
405.377	498.9
405.755	478.56
406.133	494.38
406.511	511.78
406.889	517.43
407.267	527.6
407.645	528.05
408.023	536.41
408.401	549.97
408.779	542.97
409.156	554.94
409.534	571.89
409.912	578.67
410.29	581.61
410.667	613.92
411.045	629.29
411.422	615.28
411.8	632.46
412.178	618.9
412.555	652.79
412.933	632.68
413.31	672
413.687	689.63
414.065	682.4
414.442	711.1
414.819	725.79
415.197	712.9
415.574	755.16
415.951	779.8
416.328	792.45
416.705	820.25
417.082	803.75
417.46	801.94
417.837	830.64
418.214	854.37
418.591	851.21
418.967	856.63
419.344	885.1
419.721	882.62
420.098	913.58
420.475	934.37
420.852	933.46
421.228	930.98
421.605	971.66
421.982	990.64
422.358	988.15
422.735	1024.54
423.111	992.22
423.488	1049.39
423.864	1053.01
424.241	1043.52
424.617	1083.06
424.994	1055.95
425.37	1092.1
425.746	1114.7
426.123	1117.87
426.499	1138.2
426.875	1162.16
427.251	1180.01
427.627	1196.06
428.003	1190.86
428.379	1249.84
428.756	1248.03
429.132	1265.88
429.507	1286.22
429.883	1314.25
430.259	1311.08
430.635	1354.02
431.011	1344.3
431.387	1358.09
431.763	1429.95
432.138	1410.74
432.514	1437.63
432.89	1465.2
433.265	1471.08
433.641	1501.81
434.016	1506.1
434.392	1542.71
434.767	1571.19
435.143	1576.16
435.518	1594.01
435.894	1601.47
436.269	1652.77
436.644	1641.47
437.02	1645.76
437.395	1671.52
437.77	1693.9
438.145	1697.06
438.52	1737.51
438.895	1736.15
439.271	1748.58
439.646	1794.01
440.021	1824.29
440.395	1796.27
440.77	1826.1
441.145	1841.91
441.52	1871.07
441.895	1874
442.27	1886.89
442.645	1867.9
443.019	1914
443.394	1880.33
443.769	1911.74
444.143	1892.08
444.518	1940.22
444.892	1938.64
445.267	1979.76
445.641	1978.63
446.016	2000.1
446.39	2025.19
446.764	2062.93
447.139	2024.73
447.513	2075.58
447.887	2025.86
448.262	2072.87
448.636	2080.78
449.01	2103.15
449.384	2152.87
449.758	2113.77
450.132	2146.09
450.506	2159.42
450.88	2189.02
451.254	2179.31
451.628	2204.62
452.002	2217.95
452.376	2290.49
452.75	2287.78
453.123	2283.26
453.497	2325.52
453.871	2359.42
454.244	2395.57
454.618	2371.84
454.992	2439.19
455.365	2441.9
455.739	2498.39
456.112	2528.9
456.486	2544.95
456.859	2557.6
457.232	2586.3
457.606	2559.64
457.979	2611.16
458.352	2677.15
458.725	2690.93
459.099	2718.5
459.472	2741.1
459.845	2774.77
460.218	2850.7
460.591	2860.19
460.964	2878.72
461.337	2905.62
461.71	2944.94
462.083	3001.88
462.456	2999.17
462.829	3028.55
463.201	3093.18
463.574	3094.54
463.947	3151.71
464.32	3170.47
464.692	3210.01
465.065	3227.64
465.438	3247.08
465.81	3323.68
466.183	3351.71
466.555	3428.31
466.928	3457.47
467.3	3456.11
467.672	3523
468.045	3572.26
468.417	3598.03
468.789	3635.09
469.161	3646.16
469.534	3703.33
469.906	3799.15
470.278	3802.77
470.65	3885.7
471.022	3906.95
471.394	3978.36
471.766	4054.74
472.138	4026.94
472.51	4169.99
472.882	4211.8
473.253	4236.43
473.625	4225.81
473.997	4463.09
474.369	4420.6
474.74	4502.18
475.112	4577.66
475.484	4636.42
475.855	4667.38
476.227	4728.62
476.598	4909.86
476.97	4876.41
477.341	4997.76
477.713	5045.9
478.084	5077.08
478.455	5239.57
478.827	5315.95
479.198	5442.05
479.569	5455.15
479.94	5554.81
480.311	5647.24
480.682	5778.99
481.053	5856.95
481.424	5927.91
481.795	5973.11
482.166	6129.71
482.537	6201.35
482.908	6264.17
483.279	6377.61
483.65	6456.26
484.021	6599.98
484.391	6728.57
484.762	6683.37
485.133	6828.68
485.503	6914.1
485.874	7043.13
486.244	7137.59
486.615	7219.85
486.985	7331.71
487.356	7485.83
487.726	7536.23
488.097	7653.51
488.467	7701.2
488.837	7896.22
489.207	7965.82
489.578	8112.94
489.948	8133.05
490.318	8222.54
490.688	8276.55
491.058	8419.82
491.428	8549.76
491.798	8594.28
492.168	8763.31
492.538	8825.91
492.908	8881.5
493.278	9048.51
493.648	9035.62
494.017	9168.28
494.387	9215.51
494.757	9280.14
495.126	9505.22
495.496	9552.22
495.866	9577.3
496.235	9646
496.605	9762.84
496.974	9856.85
497.344	9904.08
497.713	10015.71
498.082	10072.66
498.452	10162.6
498.821	10233.11
499.19	10234.69
499.559	10400.79
499.928	10426.55
500.298	10560.33
500.667	10621.8
501.036	10609.37
501.405	10797.61
501.774	10742.47
502.143	10899.98
502.512	10938.85
502.88	11071.95
503.249	11095.23
503.618	11190.82
503.987	11160.31
504.356	11281.44
504.724	11337.71
505.093	11393.98
505.462	11461.1
505.83	11634.43
506.199	11741.09
506.567	11819.96
506.936	11804.59
507.304	11908.77
507.672	12027.86
508.041	12086.17
508.409	12188.08
508.777	12299.94
509.145	12348.53
509.514	12387.17
509.882	12531.8
510.25	12525.02
510.618	12657.22
510.986	12724.34
511.354	12837.78
511.722	12988.97
512.09	13103.77
512.458	13053.82
512.826	13282.52
513.193	13310.99
513.561	13379.92
513.929	13465.34
514.297	13612
514.664	13758.89
515.032	13835.5
515.4	13919.79
515.767	13924.76
516.135	14052.67
516.502	14002.95
516.869	14233.91
517.237	14321.36
517.604	14273.45
517.972	14450.85
518.339	14605.2
518.706	14690.16
519.073	14780.33
519.44	14888.8
519.808	14990.95
520.175	15085.18
520.542	15258.51
520.909	15292.63
521.276	15329.7
521.643	15458.05
522.009	15684.49
522.376	15747.09
522.743	15806.52
523.11	15993.41
523.477	16152.95
523.843	16242.44
524.21	16473.17
524.577	16489.67
524.943	16706.16
525.31	16729.43
525.676	16898.92
526.043	17060.05
526.409	17102.98
526.776	17301.85
527.142	17366.48
527.508	17555.63
527.874	17627.94
528.241	17742.29
528.607	17771.89
528.973	17956.97
529.339	17952.23
529.705	18187.47
530.071	18242.84
530.437	18463.62
530.803	18491.42
531.169	18646.67
531.535	18633.34
531.901	18769.61
532.267	18846.44
532.632	18965.08
532.998	19008.47
533.364	19149.48
533.73	19255.02
534.095	19453.66
534.461	19502.24
534.826	19567.32
535.192	19707.21
535.557	19768.9
535.923	19819.52
536.288	19869.24
536.653	19949.24
537.019	19942.68
537.384	20227.65
537.749	20285.5
538.114	20279.62
538.479	20230.81
538.845	20421.99
539.21	20475.32
539.575	20476.68
539.94	20599.16
540.305	20847.52
540.67	20795.54
541.034	20805.26
541.399	20941.75
541.764	20988.3
542.129	21154.4
542.494	21105.82
542.858	21161.63
543.223	21259.26
543.587	21490.21
543.952	21407.5
544.316	21560.04
544.681	21550.32
545.045	21669.42
545.41	21777.21
545.774	21755.52
546.138	21824.89
546.503	21943.08
546.867	22011.33
547.231	22204.32
547.595	22281.15
547.959	22303.75
548.324	22283.64
548.688	22403.41
549.052	22446.57
549.416	22507.36
549.779	22465.33
550.143	22615.83
550.507	22861.02
550.871	22949.38
551.235	22842.04
551.599	23080
551.962	23142.15
552.326	23216.04
552.689	23382.59
553.053	23268.92
553.417	23354.34
553.78	23696.26
554.143	23590.95
554.507	23770.38
554.87	23719.31
555.234	24040.88
555.597	23979.64
555.96	24080.88
556.323	24195.9
556.686	24280.87
557.05	24399.51
557.413	24416.69
557.776	24606.06
558.139	24735.1
558.502	24702.56
558.865	24895.32
559.228	25055.54
559.59	25051.47
559.953	25103.9
560.316	25516.09
560.679	25413.5
561.041	25595.64
561.404	25623.44
561.767	25895.07
562.129	25808.97
562.492	26079.24
562.854	26108.85
563.217	26105.46
563.579	26316.75
563.941	26403.98
564.304	26488.5
564.666	26676.29
565.028	26760.13
565.39	26925.32
565.753	27074.92
566.115	27087.13
566.477	27215.03
566.839	27276.27
567.201	27477.4
567.563	27495.03
567.925	27719.43
568.287	27733.66
568.648	27742.7
569.01	27884.17
569.372	28122.58
569.734	28125.74
570.095	28248.45
570.457	28336.81
570.819	28476.69
571.18	28470.37
571.542	28596.69
571.903	28618.61
572.265	28813.64
572.626	28916.68
572.987	28913.29
573.349	29019.73
573.71	29122.55
574.071	29288.65
574.432	29334.98
574.794	29440.06
575.155	29496.1
575.516	29504.24
575.877	29584.24
576.238	29627.85
576.599	29784.23
576.96	29799.82
577.32	29813.38
577.681	29945.81
578.042	30107.84
578.403	30040.04
578.763	30038.01
579.124	30059.93
579.485	30241.62
579.845	30305.8
580.206	30245.91
580.566	30183.77
580.927	30142.19
581.287	30366.36
581.648	30172.7
582.008	30498.11
582.368	30512.57
582.728	30431.67
583.089	30380.83
583.449	30310.09
583.809	30535.4
584.169	30616.07
584.529	30470.54
584.889	30580.59
585.249	30571.78
585.609	30348.06
585.969	30562.29
586.329	30416.3
586.688	30598.67
587.048	30620.37
587.408	30661.5
587.768	30598.45
588.127	30468.73
588.487	30553.48
588.846	30803.87
589.206	30489.52
589.565	30514.83
589.925	30720.93
590.284	30596.64
590.643	30658.78
591.003	30700.14
591.362	30774.49
591.721	30782.85
592.08	30616.07
592.44	30849.51
592.799	30745.56
593.158	30724.32
593.517	30750.99
593.876	30821.72
594.235	30717.54
594.593	30735.84
594.952	30896.74
595.311	30775.62
595.67	30884.09
596.029	30922.96
596.387	31100.81
596.746	31118.21
597.104	30885.67
597.463	30932
597.822	31193.69
598.18	31061.94
598.538	31014.26
598.897	31108.04
599.255	30814.03
599.613	31352.78
599.972	31104.87
600.33	31196.62
600.688	31044.54
601.046	31133.57
601.404	31390.06
601.762	31340.12
602.12	31479.1
602.478	31350.52
602.836	31462.38
603.194	31277.75
603.552	31383.28
603.91	31279.33
604.268	31347.81
604.625	31243.18
604.983	31596.84
605.341	31351.87
605.698	31461.48
606.056	31599.78
606.413	31711.41
606.771	31744.63
607.128	31734.24
607.485	31581.25
607.843	31738.08
608.2	31752.77
608.557	31777.4
608.914	31758.19
609.272	31930.16
609.629	32034.57
609.986	32093.55
610.343	31905.08
610.7	32122.02
611.057	32063.27
611.414	32029.37
611.771	32120.89
612.127	32130.84
612.484	32142.59
612.841	32277.95
613.198	32175.13
613.554	32015.58
613.911	32400.89
614.267	32326.76
614.624	32252.64
614.98	32243.6
615.337	32519.07
615.693	32381
616.05	32286.31
616.406	32500.54
616.762	32489.92
617.118	32359.76
617.475	32413.31
617.831	32592.29
618.187	32650.37
618.543	32623.25
618.899	32678.17
619.255	32722.91
619.611	32644.49
619.967	32854.21
620.323	32843.36
620.678	32658.05
621.034	32625.29
621.39	32590.94
621.746	32643.82
622.101	32945.05
622.457	32699.63
622.812	32794.32
623.168	32868.67
623.523	32819.18
623.879	32972.62
624.234	32769.01
624.589	32862.57
624.945	32789.12
625.3	32738.28
625.655	32850.14
626.01	32873.87
626.365	32797.26
626.72	32805.17
627.075	32819.41
627.43	32752.29
627.785	32712.74
628.14	32803.13
628.495	32788.9
628.85	32675.68
629.205	32650.82
629.559	32790.93
629.914	32534.67
630.269	32774.21
630.623	32629.35
630.978	32518.62
631.332	32621.44
631.687	32761.55
632.041	32537.38
632.396	32638.39
632.75	32504.61
633.104	32517.72
633.459	32381.9
633.813	32296.03
634.167	32362.92
634.521	32387.78
634.875	32296.03
635.229	32237.27
635.583	32149.14
635.937	32181.46
636.291	32219.87
636.645	32085.64
636.999	32069.82
637.352	32043.83
637.706	31742.15
638.06	31980.33
638.413	31981.01
638.767	31820.11
639.121	31811.3
639.474	31567.46
639.828	31568.82
640.181	31732.88
640.534	31609.95
640.888	31483.85
641.241	31337.41
641.594	31641.13
641.947	31604.07
642.301	31434.81
642.654	31459.67
643.007	31397.3
643.36	31314.59
643.713	31225.32
644.066	31383.96
644.419	31206.34
644.771	30976.97
645.124	30754.83
645.477	30830.08
645.83	30508.28
646.182	30359.13
646.535	30203.88
646.888	30300.83
647.24	29992.59
647.593	30292.24
647.945	30270.77
648.298	30078.46
648.65	30038.69
649.002	29903.55
649.355	30038.69
649.707	30120.49
650.059	30165.01
650.411	30460.15
650.763	30511.22
651.115	30744.21
651.467	30567.71
651.819	30671.67
652.171	30584.89
652.523	30379.24
652.875	30462.18
653.227	30324.56
653.578	30641.61
653.93	30499.47
654.282	30358.91
654.633	30275.52
654.985	30357.78
655.337	30315.06
655.688	30285.69
656.039	30326.59
656.391	30125.46
656.742	30164.56
657.094	30065.81
657.445	30273.71
657.796	30216.08
658.147	30024.45
658.498	30041.63
658.849	30026.26
659.2	30045.92
659.551	29944.23
659.902	30051.57
660.253	30054.96
660.604	29919.14
660.955	29865.58
661.306	29951.23
661.656	29827.85
662.007	29844.34
662.358	29932.02
662.708	29792.14
663.059	29783.78
663.409	29651.13
663.76	29920.72
664.11	29841.4
664.461	29745.81
664.811	29663.56
665.161	29645.48
665.511	29687.96
665.862	29594.18
666.212	29795.3
666.562	29693.39
666.912	29690
667.262	29591.92
667.612	29631.92
667.962	29585.82
668.312	29534.07
668.662	29670.11
669.011	29526.84
669.361	29598.47
669.711	29486.84
670.06	29521.87
670.41	29502.2
670.76	29447.97
671.109	29544.46
671.459	29504.24
671.808	29429.21
672.157	29518.7
672.507	29216.11
672.856	29361.87
673.205	29401.42
673.554	29273.74
673.904	29242.55
674.253	29436.67
674.602	29236.45
674.951	28784.94
675.3	28658.38
675.649	29130.46
675.998	29007.3
676.346	29058.15
676.695	29155.77
677.044	28956
677.393	28993.97
677.741	29227.41
678.09	28957.13
678.438	28972.5
678.787	28908.32
679.135	28940.19
679.484	28702.45
679.832	28915.1
680.181	28597.14
680.529	28763.24
680.877	28765.73
681.225	28532.96
681.573	28747.42
681.922	28503.81
682.27	28528.44
682.618	28474.21
682.966	28493.87
683.314	28387.88
683.661	28357.83
684.009	28256.81
684.357	28193.76
684.705	28068.34
685.053	28169.36
685.4	28173.65
685.748	27961.68
686.095	27989.7
686.443	27787.45
686.79	27862.25
687.138	27946.31
687.485	27759.43
687.832	27719.2
688.18	27767.33
688.527	27456.83
688.874	27610.28
689.221	27536.15
689.568	27391.75
689.915	27341.36
690.262	27351.07
690.609	27209.84
690.956	27172.32
691.303	27101.14
691.65	27006.68
691.997	27033.34
692.344	26832.67
692.69	26802.39
693.037	26860.24
693.383	26513.36
693.73	26827.25
694.077	26534.37
694.423	26644.88
694.769	26380.03
695.116	26482.17
695.462	26426.81
695.808	26272.01
696.155	26406.01
696.501	26091.22
696.847	26076.08
697.193	25961.51
697.539	25974.16
697.885	25805.35
698.231	25753.83
698.577	25769.87
698.923	25673.6
699.269	25625.02
699.614	25351.13
699.96	25401.07
700.306	25498.69
700.651	25312.94
700.997	25221.41
701.342	25254.63
701.688	25125.82
702.033	25162.88
702.379	25107.52
702.724	24984.58
703.069	24992.72
703.415	24734.42
703.76	24772.16
704.105	24712.5
704.45	24650.58
704.795	24523.13
705.14	24437.03
705.485	24465.05
705.83	24348.22
706.175	24385.95
706.52	24304.38
706.865	24136.47
707.209	24137.6
707.554	24021.22
707.899	24063.93
708.243	23925.63
708.588	23906.65
708.932	23769.47
709.277	23755.46
709.621	23699.19
709.966	23562.25
710.31	23635.01
710.654	23412.2
710.998	23555.02
711.342	23491.97
711.687	23513.21
712.031	23264.4
712.375	23203.16
712.719	23188.47
713.063	23154.12
713.407	23381.69
713.75	23040.45
714.094	23048.81
714.438	22991.87
714.782	22973.34
715.125	22831.87
715.469	22955.71
715.812	22741.7
716.156	22759.56
716.499	22675.49
716.843	22657.41
717.186	22591.2
717.53	22736.51
717.873	22678.2
718.216	22573.12
718.559	22415.84
718.902	22299.46
719.246	22317.53
719.589	22245.9
719.932	22125.22
720.275	22215.84
720.617	22140.14
720.96	22053.81
721.303	22102.85
721.646	22052.91
721.989	22023.76
722.331	21967.26
722.674	21949.86
723.016	21918.68
723.359	21839.36
723.701	21880.71
724.044	21720.71
724.386	21522.98
724.729	21827.15
725.071	21675.52
725.413	21592.36
725.755	21639.81
726.097	21621.96
726.439	21421.06
726.782	21514.39
727.124	21497.9
727.465	21422.19
727.807	21327.05
728.149	21313.49
728.491	21266.04
728.833	21324.79
729.175	21181.52
729.516	21191.69
729.858	21057.68
730.199	21136.77
730.541	21059.71
730.882	21035.99
731.224	21058.13
731.565	20965.03
731.906	20924.8
732.248	20998.7
732.589	20824.92
732.93	20803.9
733.271	20751.93
733.612	20856.78
733.953	20746.28
734.294	20634.42
734.635	20648.43
734.976	20619.05
735.317	20522.78
735.658	20520.29
735.999	20587.86
736.339	20513.06
736.68	20555.55
737.021	20356
737.361	20366.63
737.702	20457.02
738.042	20315.1
738.383	20310.58
738.723	20389.22
739.063	20259.28
739.404	20320.98
739.744	20229.91
740.084	20158.27
740.424	20194.65
740.764	20132.51
741.104	20176.57
741.444	19995.34
741.784	20005.05
742.124	20058.39
742.464	20022
742.804	19954.43
743.143	19893.64
743.483	19852.29
743.823	19731.39
744.162	19708.56
744.502	19780.43
744.841	19718.51
745.181	19736.13
745.52	19611.62
745.86	19622.24
746.199	19653.42
746.538	19693.87
746.877	19609.13
747.216	19542.92
747.556	19574.1
747.895	19620.2
748.234	19372.98
748.573	19356.71
748.911	19422.02
749.25	19439.19
749.589	19214.79
749.928	19298.18
750.267	19235.81
750.605	19153.78
750.944	19127.11
751.283	19064.74
751.621	19081.01
751.96	18967.34
752.298	18933.22
752.636	18942.48
752.975	18905.65
753.313	18817.29
753.651	18830.39
753.989	18711.98
754.327	18656.39
754.666	18599.21
755.004	18702.49
755.342	18615.49
755.679	18619.33
756.017	18451.2
756.355	18627.69
756.693	18427.47
757.031	18453.46
757.368	18303.4
757.706	18270.86
758.044	18108.61
758.381	18229.96
758.719	18114.26
759.056	18104.09
759.394	18114.26
759.731	17921.49
760.068	17952
760.405	17947.93
760.743	17857.54
761.08	17923.3
761.417	17709.75
761.754	17770.54
762.091	17766.24
762.428	17594.72
762.765	17432.69
763.102	17585.91
763.438	17451.9
763.775	17376.87
764.112	17360.83
764.449	17274.28
764.785	17183.66
765.122	17120.38
765.458	17113.38
765.795	17034.96
766.131	17052.59
766.467	16971.91
766.804	16933.95
767.14	16859.15
767.476	16874.97
767.812	16759.49
768.148	16769.66
768.485	16650.34
768.821	16594.97
769.157	16545.03
769.492	16546.39
769.828	16436.11
770.164	16281.54
770.5	16210.8
770.836	16301.2
771.171	16176.23
771.507	16123.12
771.842	15975.33
772.178	15953.86
772.513	15868.21
772.849	16008.32
773.184	15897.14
773.519	15850.59
773.855	15686.52
774.19	15585.96
774.525	15644.04
774.86	15570.14
775.195	15541.44
775.53	15503.48
775.865	15407.66
776.2	15352.52
776.535	15231.85
776.87	15286.99
777.205	15127.67
777.539	15041.12
777.874	15120.44
778.209	15022.36
778.543	14998.63
778.878	14885.64
779.212	14843.15
779.547	14782.14
779.881	14884.28
780.215	14682.71
780.55	14636.83
780.884	14659.2
781.218	14585.08
781.552	14563.16
781.886	14486.1
782.22	14362.04
782.554	14319.55
782.888	14243.4
783.222	14108.48
783.556	14101.48
783.889	14000.69
784.223	14016.06
784.557	14049.28
784.89	14025.1
785.224	13899.22
785.557	13843.41
785.891	13756.18
786.224	13783.97
786.558	13802.96
786.891	13611.1
787.224	13586.69
787.557	13548.73
787.891	13576.97
788.224	13451.55
788.557	13366.58
788.89	13396.41
789.223	13373.36
789.556	13235.74
789.888	13222.41
790.221	13186.7
790.554	13085.46
790.887	13108.74
791.219	13029.42
791.552	13011.56
791.884	12969.53
792.217	12914.62
792.549	12783.77
792.882	12822.19
793.214	12693.61
793.546	12716.66
793.879	12679.82
794.211	12585.14
794.543	12601.18
794.875	12560.96
795.207	12653.61
795.539	12455.42
795.871	12489.32
796.203	12376.1
796.535	12336.1
796.867	12358.93
797.198	12318.93
797.53	12281.41
797.862	12139.72
798.193	12198.93
798.525	12096.11
798.856	12121.64
799.188	12009.78
799.519	11988.09
799.85	11939.73
800.182	11928.43
800.513	11882.33
800.844	11859.05
801.175	11885.49
801.506	11846.17
801.837	11740.19
802.168	11761.2
802.499	11688.66
802.83	11642.11
803.161	11636.23
803.491	11677.59
803.822	11594.88
804.153	11498.84
804.483	11441.89
804.814	11449.35
805.145	11393.3
805.475	11312.63
805.805	11340.42
806.136	11340.87
806.466	11318.95
806.796	11236.92
807.126	11224.04
807.457	11168.22
807.787	11192.18
808.117	11073.54
808.447	11088.68
808.777	11081.9
809.107	10972.97
809.436	10980.66
809.766	10988.57
810.096	10931.85
810.426	10896.37
810.755	10854.79
811.085	10826.31
811.414	10853.2
811.744	10760.78
812.073	10713.55
812.403	10758.06
812.732	10652.98
813.061	10674.22
813.39	10581.57
813.719	10552.19
814.049	10587.9
814.378	10574.57
814.707	10470.16
815.036	10511.52
815.365	10475.36
815.693	10320.34
816.022	10356.04
816.351	10375.7
816.68	10301.35
817.008	10338.19
817.337	10220
817.665	10216.16
817.994	10215.93
818.322	10181.36
818.651	10172.32
818.979	10133.67
819.307	10257.29
819.636	10160.57
819.964	10158.76
820.292	10127.8
820.62	10150.17
820.948	10143.17
821.276	10114.24
821.604	10004.64
821.932	10086.9
822.259	10091.19
822.587	10043.06
822.915	10008.25
823.243	10013
823.57	9994.24
823.898	10083.96
824.225	9933.68
824.553	10049.83
824.88	10029.04
825.207	10020.46
825.535	10023.62
825.862	10036.05
826.189	9931.65
826.516	10017.52
826.843	10019.78
827.17	10029.95
827.497	10010.97
827.824	10054.58
828.151	10013.23
828.478	9970.51
828.805	10015.71
829.131	10005.99
829.458	9947.92
829.785	9917.18
830.111	9970.51
830.438	9995.37
830.764	9988.14
831.09	10017.75
831.417	9937.75
831.743	9946.11
832.069	9939.1
832.395	9913.57
832.722	9983.17
833.048	9855.94
833.374	9963.96
833.7	9894.81
834.026	9878.31
834.351	9868.6
834.677	9855.04
835.003	9908.6
835.329	9793.34
835.654	9872.21
835.98	9787.92
836.306	9841.7
836.631	9823.63
836.956	9801.03
837.282	9850.07
837.607	9812.33
837.932	9794.25
838.258	9718.09
838.583	9765.55
838.908	9664.53
839.233	9693.01
839.558	9654.36
839.883	9580.02
840.208	9580.92
840.533	9531.43
840.858	9612.33
841.182	9554.48
841.507	9636.96
841.832	9496.4
842.156	9524.88
842.481	9496.18
842.805	9429.96
843.13	9490.08
843.454	9457.53
843.778	9427.48
844.103	9371.21
844.427	9309.97
844.751	9332.34
845.075	9313.36
845.399	9291.21
845.723	9302.28
846.047	9260.48
846.371	9177.09
846.695	9166.47
847.019	9057.54
847.343	9069.75
847.666	9060.71
847.99	8971.9
848.313	8977.32
848.637	8917.66
848.96	8973.7
849.284	8900.94
849.607	8825.46
849.931	8791.79
850.254	8754.28
850.577	8732.36
850.9	8596.77
851.223	8629.53
851.546	8577.33
851.869	8504.11
852.192	8559.93
852.515	8462.08
852.838	8512.7
853.161	8480.38
853.483	8413.27
853.806	8407.84
854.129	8379.14
854.451	8304.8
854.774	8350.22
855.096	8301.63
855.419	8303.89
855.741	8227.51
856.063	8226.38
856.385	8190.22
856.708	8159.94
857.03	8062.99
857.352	8090.56
857.674	8056.44
857.996	8094.18
858.318	7961.08
858.64	7978.7
858.961	7998.59
859.283	7932.15
859.605	7953.84
859.926	7969.21
860.248	7857.12
860.57	7872.94
860.891	7911.36
861.212	7843.56
861.534	7824.13
861.855	7818.03
862.176	7854.64
862.498	7765.83
862.819	7748.88
863.14	7777.35
863.461	7733.06
863.782	7715.88
864.103	7729.9
864.424	7620.97
864.745	7670.01
865.065	7624.81
865.386	7582.1
865.707	7585.04
866.027	7644.02
866.348	7634.76
866.668	7584.59
866.989	7625.27
867.309	7560.18
867.63	7547.53
867.95	7552.95
868.27	7480.18
868.59	7503.23
868.91	7465.04
869.23	7490.35
869.55	7436.8
869.87	7467.98
870.19	7453.07
870.51	7420.3
870.83	7363.13
871.15	7362.22
871.469	7440.41
871.789	7389.57
872.109	7418.94
872.428	7307.99
872.748	7391.6
873.067	7337.14
873.386	7334.43
873.706	7303.01
874.025	7239.97
874.344	7239.29
874.663	7233.41
874.982	7256.01
875.301	7283.13
875.62	7224.37
875.939	7158.61
876.258	7174.88
876.577	7167.88
876.896	7145.96
877.214	7157.71
877.533	7150.93
877.852	7102.79
878.17	7161.1
878.489	7190.25
878.807	7090.82
879.125	7084.49
879.444	7085.62
879.762	7042.91
880.08	7070.7
880.398	6973.31
880.716	7055.34
881.034	7043.13
881.352	7018.05
881.67	6963.59
881.988	6954.77
882.306	6992.51
882.624	6937.83
882.941	6888.79
883.259	6900.99
883.577	6908.45
883.894	6860.99
884.212	6878.62
884.529	6830.03
884.846	6815.12
885.164	6843.59
885.481	6791.84
885.798	6821.44
886.115	6708
886.432	6783.48
886.75	6673.88
887.067	6740.54
887.383	6705.74
887.7	6728.79
888.017	6634.56
888.334	6632.75
888.651	6614.67
888.967	6627.55
889.284	6541.68
889.6	6613.77
889.917	6579.87
890.233	6552.53
890.55	6513.88
890.866	6583.26
891.182	6469.36
891.498	6471.17
891.815	6446.77
892.131	6426.43
892.447	6437.27
892.763	6344.85
893.079	6426.65
893.395	6385.3
893.71	6317.05
894.026	6310.95
894.342	6306.88
894.657	6291.29
894.973	6248.8
895.289	6239.31
895.604	6219.43
895.92	6149.82
896.235	6213.55
896.55	6211.07
896.865	6129.49
897.181	6101.69
897.496	6089.94
897.811	6040
898.126	6048.36
898.441	6087.9
898.756	6059.66
899.071	5981.47
899.386	5968.81
899.7	5974.01
900.015	5926.55
900.33	5891.98
900.644	5884.52
900.959	5888.36
901.273	5844.75
901.588	5807.46
901.902	5807.69
902.216	5804.97
902.531	5833.22
902.845	5717.97
903.159	5746.9
903.473	5712.77
903.787	5707.58
904.101	5611.08
904.415	5637.07
904.729	5611.76
905.042	5557.07
905.356	5597.52
905.67	5565.88
905.984	5583.74
906.297	5561.82
906.611	5540.57
906.924	5509.84
907.237	5489.73
907.551	5435.04
907.864	5442.5
908.177	5421.26
908.491	5400.92
908.804	5365.66
909.117	5338.77
909.43	5260.13
909.743	5302.39
910.056	5296.51
910.368	5242.28
910.681	5190.98
910.994	5263.52
911.307	5158.21
911.619	5134.03
911.932	5162.28
912.244	5122.05
912.557	5107.59
912.869	5095.61
913.181	5052.68
913.494	5056.29
913.806	5091.77
914.118	5006.8
914.43	4975.62
914.742	4944.21
915.054	4958.9
915.366	4945.79
915.678	4898.11
915.99	4905.56
916.302	4871.21
916.613	4896.3
916.925	4860.82
917.236	4861.72
917.548	4826.02
917.859	4795.06
918.171	4788.73
918.482	4767.49
918.794	4718.22
919.105	4768.84
919.416	4689.52
919.727	4667.38
920.038	4720.26
920.349	4655.17
920.66	4620.82
920.971	4636.19
921.282	4589.64
921.593	4577.44
921.903	4536.53
922.214	4550.54
922.525	4538.34
922.835	4504.44
923.146	4434.84
923.456	4451.56
923.767	4425.35
924.077	4441.17
924.387	4403.43
924.697	4373.15
925.008	4371.34
925.318	4350.55
925.628	4341.74
925.938	4353.94
926.248	4301.74
926.558	4309.42
926.867	4233.49
927.177	4230.1
927.487	4210.67
927.796	4183.1
928.106	4166.37
928.416	4141.52
928.725	4190.1
929.034	4137.67
929.344	4133.61
929.653	4122.98
929.962	4123.89
930.271	4082.31
930.581	4037.56
930.89	4017.22
931.199	4021.97
931.508	4001.63
931.817	3975.87
932.125	3958.02
932.434	3960.5
932.743	3951.01
933.051	3900.17
933.36	3904.91
933.669	3870.11
933.977	3883.22
934.286	3861.52
934.594	3868.3
934.902	3823.33
935.21	3833.27
935.519	3786.95
935.827	3798.7
936.135	3758.47
936.443	3761.19
936.751	3742.66
937.059	3708.76
937.367	3715.31
937.674	3702.2
937.982	3677.12
938.29	3686.61
938.597	3690.23
938.905	3617.01
939.213	3624.47
939.52	3626.73
939.827	3619.04
940.135	3586.5
940.442	3562.1
940.749	3578.14
941.056	3553.06
941.363	3486.62
941.67	3488.2
941.977	3443
942.284	3466.73
942.591	3455.21
942.898	3460.63
943.205	3408.43
943.511	3406.17
943.818	3406.62
944.125	3409.56
944.431	3367.98
944.738	3369.56
945.044	3367.07
945.35	3344.93
945.657	3305.83
945.963	3299.28
946.269	3287.98
946.575	3302.89
946.881	3242.1
947.187	3229
947.493	3246.85
947.799	3226.29
948.105	3218.15
948.41	3199.62
948.716	3187.19
949.022	3181.99
949.327	3153.97
949.633	3080.3
949.938	3147.64
950.244	3121.66
950.549	3082.33
950.854	3084.59
951.16	3064.26
951.465	3050.02
951.77	3037.36
952.075	3008.89
952.38	3048.66
952.685	3014.77
952.99	2984.94
953.294	3004.14
953.599	2930.47
953.904	2937.25
954.209	2932.96
954.513	2939.74
954.818	2927.08
955.122	2904.71
955.426	2891.6
955.731	2883.7
956.035	2889.57
956.339	2887.99
956.643	2901.32
956.948	2821.55
957.252	2811.61
957.556	2828.33
957.86	2797.82
958.163	2818.84
958.467	2766.86
958.771	2785.39
959.075	2777.48
959.378	2736.35
959.682	2736.35
959.985	2711.27
960.289	2730.25
960.592	2756.02
960.896	2692.74
961.199	2655.68
961.502	2680.08
961.805	2674.66
962.108	2641.67
962.411	2642.8
962.714	2629.46
963.017	2606.19
963.32	2595.79
963.623	2574.78
963.926	2591.73
964.228	2559.86
964.531	2576.58
964.833	2559.18
965.136	2563.25
965.438	2520.99
965.741	2515.12
966.043	2544.04
966.345	2499.3
966.648	2497.04
966.95	2484.84
967.252	2456.36
967.554	2443.03
967.856	2437.61
968.158	2416.36
968.46	2434.89
968.761	2399.64
969.063	2400.32
969.365	2393.31
969.666	2402.13
969.968	2360.77
970.269	2368
970.571	2379.75
970.872	2361
971.174	2379.75
971.475	2329.13
971.776	2333.43
972.077	2314.22
972.378	2333.43
972.679	2278.29
972.98	2241
973.281	2266.76
973.582	2262.24
973.883	2258.18
974.183	2234.45
974.484	2249.81
974.785	2238.06
975.085	2212.07
975.386	2203.49
975.686	2203.71
975.986	2200.78
976.287	2199.19
976.587	2166.65
976.887	2187.67
977.187	2156.71
977.487	2120.55
977.787	2143.83
978.087	2122.59
978.387	2109.48
978.687	2135.69
978.987	2127.33
979.286	2104.51
979.586	2097.73
979.885	2092.53
980.185	2063.15
980.484	2057.95
980.784	2078.52
981.083	2042.81
981.382	2036.94
981.682	2056.82
981.981	2031.51
982.28	2015.47
982.579	1980.67
982.878	2007.11
983.177	1964.4
983.475	2001.46
983.774	1970.27
984.073	1976.6
984.372	1947.22
984.67	1947
984.969	1912.2
985.267	1939.09
985.566	1915.81
985.864	1909.26
986.162	1903.83
986.461	1899.31
986.759	1895.92
987.057	1870.84
987.355	1871.29
987.653	1901.57
987.951	1882.37
988.249	1858.64
988.547	1833.78
988.844	1836.27
989.142	1848.92
989.44	1794.46
989.737	1789.03
990.035	1800.33
990.332	1799.66
990.63	1797.62
990.927	1782.71
991.224	1782.93
991.521	1755.36
991.819	1789.49
992.116	1790.39
992.413	1764.4
992.71	1751.97
993.006	1749.94
993.303	1751.3
993.6	1712.2
993.897	1692.77
994.193	1711.07
994.49	1697.96
994.787	1689.15
995.083	1686.89
995.379	1675.14
995.676	1646.44
995.972	1646.21
996.268	1636.5
996.565	1635.14
996.861	1632.88
997.157	1606.89
997.453	1611.41
997.749	1622.26
998.044	1592.66
998.34	1578.87
998.636	1589.04
998.932	1564.41
999.227	1570.74
999.523	1553.33
999.818	1547.23
1000.114	1554.01
1000.409	1508.14
1000.704	1535.48
1001	1499.1
1001.295	1527.35
1001.59	1524.41
1001.885	1487.8
1002.18	1514.01
1002.475	1489.38
1002.77	1497.74
1003.065	1486.22
1003.359	1445.32
1003.654	1452.09
1003.949	1453
1004.243	1410.06
1004.538	1461.59
1004.832	1428.82
1005.127	1410.06
1005.421	1418.65
1005.715	1405.77
1006.009	1426.11
1006.304	1380.46
1006.598	1392.21
1006.892	1361.48
1007.186	1391.31
1007.48	1397.41
1007.773	1357.63
1008.067	1355.37
1008.361	1356.5
1008.655	1333.23
1008.948	1337.75
1009.242	1327.13
1009.535	1326.45
1009.829	1315.15
1010.122	1327.58
1010.415	1308.37
1010.708	1277.86
1011.001	1286.45
1011.295	1278.99
1011.588	1276.96
1011.881	1275.6
1012.173	1265.21
1012.466	1267.24
1012.759	1256.39
1013.052	1233.57
1013.344	1242.61
1013.637	1221.82
1013.93	1222.95
1014.222	1230.63
1014.514	1220.69
1014.807	1206.68
1015.099	1212.33
1015.391	1233.57
1015.683	1190.18
1015.976	1173.01
1016.268	1165.77
1016.56	1149.5
1016.851	1159.9
1017.143	1140.24
1017.435	1120.58
1017.727	1107.92
1018.018	1120.13
1018.31	1132.33
1018.602	1109.96
1018.893	1116.74
1019.185	1109.5
1019.476	1107.92
1019.767	1086.45
1020.058	1095.04
1020.35	1082.39
1020.641	1059.79
1020.932	1077.87
1021.223	1055.95
1021.514	1085.1
1021.804	1048.94
1022.095	1016.85
1022.386	1032.9
1022.677	1043.74
1022.967	1030.18
1023.258	1006.68
1023.548	1007.36
1023.839	992.67
1024.129	993.12
1024.419	989.73
1024.709	996.29
1025	1003.29
1025.29	1000.13
1025.58	976.17
1025.87	971.2
1026.16	966.46
1026.449	943.41
1026.739	931.43
1027.029	959.23
1027.319	926.68
1027.608	938.66
1027.898	905.44
1028.187	923.97
1028.477	923.75
1028.766	922.84
1029.055	898.89
1029.344	884.88
1029.634	912.67
1029.923	898.44
1030.212	917.19
1030.501	870.19
1030.79	874.71
1031.078	881.04
1031.367	875.84
1031.656	857.53
1031.945	860.02
1032.233	857.99
1032.522	846.46
1032.81	843.3
1033.099	837.65
1033.387	838.1
1033.675	841.72
1033.963	825.9
1034.251	837.2
1034.54	811.43
1034.828	818.21
1035.116	810.3
1035.403	788.16
1035.691	787.93
1035.979	787.25
1036.267	773.47
1036.554	788.16
1036.842	790.19
1037.129	754.26
1037.417	770.76
1037.704	783.19
1037.992	768.95
1038.279	771.89
1038.566	744.77
1038.853	744.77
1039.14	744.77
