Data from white_wall_FLMS001491_001.txt Node
Date: Tue Feb 07 11:03:11 GMT 2017
User: dcchb
Spectrometer: FLMS00149
Trigger mode: 0
Integration Time (sec): 2.000000E-2
Scans to average: 10
Electric dark correction enabled: true
Nonlinearity correction enabled: false
Boxcar width: 0
XAxis mode: Wavelengths
Number of Pixels in Spectrum: 2048
>>>>>Begin Spectral Data<<<<<
341.393	-11.5
341.776	-11.5
342.16	-11.5
342.543	-56.47
342.927	-77.03
343.31	-80.87
343.693	-75
344.077	-52.63
344.46	-79.52
344.843	-51.27
345.226	-43.36
345.61	-30.48
345.993	-17.82
346.376	10.88
346.759	8.84
347.142	26.92
347.525	42.74
347.908	43.87
348.291	81.38
348.674	103.3
349.057	113.02
349.44	138.33
349.823	143.98
350.206	160.48
350.588	227.14
350.971	238.44
351.354	260.81
351.737	261.26
352.119	263.52
352.502	282.05
352.884	296.97
353.267	302.17
353.65	330.19
354.032	327.93
354.414	310.98
354.797	343.07
355.179	342.17
355.562	352.11
355.944	344.65
356.326	362.28
356.709	341.49
357.091	348.04
357.473	351.66
357.855	357.98
358.238	352.56
358.62	358.89
359.002	365.44
359.384	353.47
359.766	350.75
360.148	359.11
360.53	365.89
360.912	342.62
361.294	355.27
361.676	352.34
362.057	373.58
362.439	356.86
362.821	350.98
363.203	348.27
363.584	356.86
363.966	349.4
364.348	337.87
364.729	339.68
365.111	339.23
365.493	356.4
365.874	336.52
366.256	356.4
366.637	344.88
367.019	346.69
367.4	329.29
367.781	343.52
368.163	350.75
368.544	361.6
368.925	343.3
369.306	359.79
369.688	343.75
370.069	347.59
370.45	337.87
370.831	336.52
371.212	347.59
371.593	333.13
371.974	350.3
372.355	346.91
372.736	343.97
373.117	340.36
373.498	335.16
373.879	332.67
374.26	356.63
374.641	355.73
375.021	346.46
375.402	361.37
375.783	359.34
376.163	346.69
376.544	354.82
376.925	354.14
377.305	358.66
377.686	376.06
378.066	363.63
378.447	368.61
378.827	374.03
379.208	360.7
379.588	381.04
379.968	365.89
380.349	381.71
380.729	381.71
381.109	377.87
381.489	386.01
381.87	392.79
382.25	393.24
382.63	398.66
383.01	367.25
383.39	391.2
383.77	413.8
384.15	399.57
384.53	409.28
384.91	395.72
385.29	402.96
385.67	397.98
386.049	421.26
386.429	419.45
386.809	399.57
387.189	424.65
387.568	419.68
387.948	436.4
388.328	429.85
388.707	429.62
389.087	454.03
389.466	435.5
389.846	444.99
390.225	454.03
390.605	464.65
390.984	477.76
391.363	472.56
391.743	494.25
392.122	500.13
392.501	479.34
392.881	517.08
393.26	518.88
393.639	506.91
394.018	518.43
394.397	542.61
394.776	527.7
395.155	562.95
395.534	556.17
395.913	557.98
396.292	560.69
396.671	566.57
397.05	592.56
397.429	581.26
397.808	615.83
398.186	602.5
398.565	645.44
398.944	621.71
399.323	645.21
399.701	630.07
400.08	658.32
400.458	680.46
400.837	690.63
401.215	702.16
401.594	697.64
401.972	724.98
402.351	743.96
402.729	727.92
403.107	745.32
403.486	754.58
403.864	759.78
404.242	805.43
404.62	806.79
404.999	809.95
405.377	831.87
405.755	845.88
406.133	875.03
406.511	882.72
406.889	894.02
407.267	927.01
407.645	928.59
408.023	903.51
408.401	967.23
408.779	990.74
409.156	1023.28
409.534	1007.91
409.912	1015.59
410.29	1051.75
410.667	1055.14
411.045	1083.39
411.422	1129.49
411.8	1101.69
412.178	1163.16
412.555	1134.46
412.933	1184.86
413.31	1192.77
413.687	1217.85
414.065	1235.93
414.442	1244.74
414.819	1262.14
415.197	1272.09
415.574	1308.02
415.951	1315.93
416.328	1341.01
416.705	1326.1
417.082	1342.59
417.46	1374
417.837	1387.11
418.214	1426.43
418.591	1404.74
418.967	1437.5
419.344	1429.6
419.721	1458.52
420.098	1483.38
420.475	1490.38
420.852	1495.58
421.228	1549.37
421.605	1536.03
421.982	1559.08
422.358	1566.09
422.735	1618.52
423.111	1602.25
423.488	1633.88
423.864	1667.33
424.241	1684.5
424.617	1715.46
424.994	1706.65
425.37	1736.48
425.746	1737.38
426.123	1770.38
426.499	1776.03
426.875	1795.24
427.251	1837.49
427.627	1884.72
428.003	1876.14
428.379	1902.58
428.756	1893.54
429.132	1959.75
429.507	1992.74
429.883	2013.99
430.259	2089.24
430.635	2046.53
431.011	2083.82
431.387	2142.57
431.763	2169.91
432.138	2183.93
432.514	2243.13
432.89	2210.82
433.265	2263.47
433.641	2330.36
434.016	2330.59
434.392	2348.44
434.767	2391.6
435.143	2429.79
435.518	2421.89
435.894	2452.17
436.269	2489
436.644	2569.45
437.02	2551.15
437.395	2589.79
437.77	2617.13
438.145	2627.08
438.52	2683.12
438.895	2706.85
439.271	2709.79
439.646	2802.67
440.021	2799.95
440.395	2792.95
440.77	2802.44
441.145	2847.64
441.52	2878.6
441.895	2919.27
442.27	2935.09
442.645	2983.45
443.019	3014.86
443.394	2995.88
443.769	3039.72
444.143	2994.75
444.518	3098.7
444.892	3052.38
445.267	3114.07
445.641	3139.83
446.016	3167.18
446.39	3191.81
446.764	3222.32
447.139	3218.7
447.513	3238.81
447.887	3235.42
448.262	3310.22
448.636	3287.17
449.01	3350.22
449.384	3361.07
449.758	3420.28
450.132	3474.06
450.506	3490.33
450.88	3513.61
451.254	3529.2
451.628	3593.83
452.002	3592.02
452.376	3652.14
452.75	3691.91
453.123	3714.28
453.497	3781.17
453.871	3773.04
454.244	3902.75
454.618	3888.74
454.992	3964.9
455.365	3973.71
455.739	4071.79
456.112	4088.96
456.486	4161.95
456.859	4194.27
457.232	4309.07
457.606	4264.1
457.979	4355.85
458.352	4450.98
458.725	4459.12
459.099	4523.07
459.472	4667.48
459.845	4642.17
460.218	4702.96
460.591	4776.4
460.964	4743.86
461.337	4883.29
461.71	4969.16
462.083	4978.2
462.456	5078.76
462.829	5087.8
463.201	5153.57
463.574	5215.26
463.947	5279.44
464.32	5374.58
464.692	5438.76
465.065	5480.56
465.438	5566.44
465.81	5669.03
466.183	5719.43
466.555	5814.11
466.928	5910.61
467.3	5904.51
467.672	6022.02
468.045	6168
468.417	6128.23
468.789	6209.58
469.161	6328
469.534	6452.74
469.906	6569.57
470.278	6598.5
470.65	6699.29
471.022	6846.63
471.394	6967.08
471.766	7018.15
472.138	7183.12
472.51	7265.83
472.882	7411.58
473.253	7474.63
473.625	7641.64
473.997	7809.31
474.369	7814.74
474.74	7925.24
475.112	8047.05
475.484	8189.87
475.855	8340.15
476.227	8384.21
476.598	8695.39
476.97	8824.2
477.341	9016.29
477.713	9025.33
478.084	9183.74
478.455	9455.37
478.827	9540.79
479.198	9750.28
479.569	9798.87
479.94	10158.18
480.311	10256.71
480.682	10512.29
481.053	10614.66
481.424	10834.09
481.795	10972.62
482.166	11109.34
482.537	11265.49
482.908	11450.35
483.279	11641.76
483.65	11830.23
484.021	12175.98
484.391	12251.46
484.762	12379.59
485.133	12555.18
485.503	12746.13
485.874	13032
486.244	13074.71
486.615	13445.78
486.985	13547.92
487.356	13738.65
487.726	13917.85
488.097	14184.06
488.467	14351.06
488.837	14628.12
489.207	14746.76
489.578	14987.88
489.948	15062.91
490.318	15372.51
490.688	15429
491.058	15751.93
491.428	15895.2
491.798	16026.05
492.168	16451.8
492.538	16536.09
492.908	16620.38
493.278	16871.45
493.648	16920.49
494.017	17157.77
494.387	17354.37
494.757	17462.17
495.126	17701.94
495.496	17794.36
495.866	18028.71
496.235	18090.17
496.605	18275.71
496.974	18461.69
497.344	18712.76
497.713	18714.11
498.082	18866.88
498.452	19104.84
498.821	19265.51
499.19	19336.69
499.559	19531.94
499.928	19645.61
500.298	19762.9
500.667	20014.87
501.036	19990.92
501.405	20302.55
501.774	20310.23
502.143	20551.35
502.512	20581.41
502.88	20843.1
503.249	20915.64
503.618	21087.16
503.987	21209.64
504.356	21379.81
504.724	21487.37
505.093	21584.55
505.462	21722.62
505.83	21966.46
506.199	22095.04
506.567	22444.86
506.936	22445.99
507.304	22805.98
507.672	22775.93
508.041	22931.4
508.409	23201.23
508.777	23296.82
509.145	23440.32
509.514	23503.59
509.882	23732.96
510.25	23862.9
510.618	24059.51
510.986	24188.77
511.354	24496.56
511.722	24691.36
512.09	24923.67
512.458	24837.34
512.826	25210.44
513.193	25261.96
513.561	25304.9
513.929	25661.73
514.297	25829.18
514.664	26049.06
515.032	26233.91
515.4	26415.15
515.767	26482.27
516.135	26671.87
516.502	26661.7
516.869	27023.27
517.237	27263.94
517.604	27234.11
517.972	27498.06
518.339	27720.43
518.706	27849.69
519.073	28122
519.44	28293.97
519.808	28547.53
520.175	28552.05
520.542	29011.69
520.909	29107.29
521.276	29167.85
521.643	29489.65
522.009	29731
522.376	29898
522.743	30128.28
523.11	30486.91
523.477	30623.63
523.843	30838.31
524.21	31176.61
524.577	31396.04
524.943	31373.67
525.31	31656.6
525.676	31983.59
526.043	32193.76
526.409	32399.63
526.776	32750.81
527.142	32827.87
527.508	32785.15
527.874	33368.19
528.241	33464.69
528.607	33526.38
528.973	33907.16
529.339	33979.47
529.705	34179.24
530.071	34457.43
530.437	34633.92
530.803	34759.34
531.169	35109.84
531.535	35167.24
531.901	35201.81
532.267	35544.86
532.632	35702.59
532.998	35898.52
533.364	36093.54
533.73	36168.57
534.095	36414.66
534.461	36607.88
534.826	36609.46
535.192	36841.09
535.557	37166.51
535.923	37152.95
536.288	37315.66
536.653	37423.23
537.019	37378.25
537.384	37784.8
537.749	37860.05
538.114	38014.62
538.479	38007.62
538.845	38246.93
539.21	38351.79
539.575	38473.14
539.94	38598.34
540.305	38971.43
540.67	38810.99
541.034	39041.94
541.399	39161.03
541.764	39266.79
542.129	39626.1
542.494	39553.34
542.858	39806.67
543.223	39789.94
543.587	40227.67
543.952	40197.16
544.316	40339.31
544.681	40313.54
545.045	40603.03
545.41	40772.29
545.774	40833.53
546.138	40948.1
546.503	41174.54
546.867	41145.61
547.231	41543.34
547.595	41638.71
547.959	41808.42
548.324	41925.25
548.688	42014.52
549.052	42229.65
549.416	42335.86
549.779	42384.68
550.143	42625.12
550.507	42952.12
550.871	43038.67
551.235	43016.98
551.599	43321.83
551.962	43484.53
552.326	43537.19
552.689	43812.66
553.053	43699.22
553.417	43894.02
553.78	44509.37
554.143	44246.32
554.507	44537.16
554.87	44719.98
555.234	45249.01
555.597	44977.83
555.96	45304.83
556.323	45455.56
556.686	45470.7
557.05	45882.66
557.413	45978.71
557.776	46032.26
558.139	46293.05
558.502	46439.71
558.865	46523.55
559.228	46846.71
559.59	47029.3
559.953	47086.02
560.316	47500.25
560.679	47611.43
561.041	47822.5
561.404	47987.24
561.767	48319.89
562.129	48114.24
562.492	48649.14
562.854	48580.9
563.217	48630.84
563.579	48782.02
563.941	49050.04
564.304	49187.44
564.666	49454.32
565.028	49523.02
565.39	49636.46
565.753	49861.09
566.115	49996.45
566.477	50171.82
566.839	50261.76
567.201	50422.21
567.563	50423.34
567.925	50612.71
568.287	50701.52
568.648	50830.33
569.01	51014.96
569.372	51195.29
569.734	51277.55
570.095	51379.24
570.457	51591.21
570.819	51566.36
571.18	51568.39
571.542	51784.43
571.903	51834.15
572.265	51841.15
572.626	52082.95
572.987	52174.25
573.349	52228.49
573.71	52379.22
574.071	52396.62
574.432	52498.31
574.794	52703.05
575.155	52751.18
575.516	52667.34
575.877	52852.65
576.238	52911.18
576.599	53023.04
576.96	52977.62
577.32	52970.16
577.681	53107.56
578.042	53279.98
578.403	53194.11
578.763	53257.84
579.124	53273.43
579.485	53451.5
579.845	53486.31
580.206	53449.7
580.566	53446.08
580.927	53467.32
581.287	53532.63
581.648	53526.53
582.008	53595.46
582.368	53532.18
582.728	53640.43
583.089	53606.53
583.449	53621.67
583.809	53661.89
584.169	53739.18
584.529	53679.97
584.889	53877.71
585.249	53669.8
585.609	53580.54
585.969	53852.17
586.329	53742.57
586.688	53778.73
587.048	53814.43
587.408	53684.72
587.768	53738.05
588.127	53849.01
588.487	53724.27
588.846	53900.53
589.206	53825.28
589.565	53792.96
589.925	53891.72
590.284	53793.87
590.643	53937.59
591.003	54014.65
591.362	54023.92
591.721	53962.23
592.08	54058.04
592.44	54040.64
592.799	54031.83
593.158	53899.85
593.517	53961.1
593.876	54023.24
594.235	53839.52
594.593	54034.99
594.952	54076.12
595.311	53976.91
595.67	54063.69
596.029	54237.92
596.387	54079.74
596.746	54211.71
597.104	54058.04
597.463	54050.58
597.822	54237.47
598.18	54161.09
598.538	54085.39
598.897	54291.48
599.255	54001.32
599.613	54432.27
599.972	54265.27
600.33	54292.84
600.688	54248.09
601.046	54376
601.404	54434.3
601.762	54397.24
602.12	54489.22
602.478	54486.96
602.836	54450.12
603.194	54340.29
603.552	54441.76
603.91	54443.79
604.268	54507.3
604.625	54490.12
604.983	54576.67
605.341	54543.45
605.698	54559.5
606.056	54592.49
606.413	54612.38
606.771	54670.91
607.128	54768.08
607.485	54661.87
607.843	54758.81
608.2	54825.25
608.557	54914.97
608.914	54764.24
609.272	55007.85
609.629	55002.42
609.986	55087.17
610.343	54953.84
610.7	55176.88
611.057	55034.74
611.414	55085.59
611.771	55041.29
612.127	55255.75
612.484	55229.76
612.841	55204.9
613.198	55181.85
613.554	55212.36
613.911	55382.53
614.267	55276.54
614.624	55309.99
614.98	55425.24
615.337	55563.54
615.693	55457.78
616.05	55541.39
616.406	55630.66
616.762	55555.18
617.118	55558.34
617.475	55614.16
617.831	55653.48
618.187	55669.75
618.543	55714.27
618.899	55778.9
619.255	55789.52
619.611	55710.2
619.967	55897.32
620.323	55898.67
620.678	55731.9
621.034	55749.75
621.39	55770.54
621.746	55739.13
622.101	56014.15
622.457	55758.11
622.812	55812.12
623.168	55936.64
623.523	55929.41
623.879	55933.92
624.234	55883.53
624.589	55842.85
624.945	55950.87
625.3	56031.32
625.655	55932.34
626.01	56036.75
626.365	55949.52
626.72	55885.79
627.075	55941.16
627.43	55880.59
627.785	55870.65
628.14	55899.35
628.495	55896.41
628.85	55895.73
629.205	55712.24
629.559	55932.12
629.914	55756.3
630.269	55809.86
630.623	55754.27
630.978	55644.44
631.332	55797.88
631.687	55808.05
632.041	55668.4
632.396	55702.74
632.75	55606.02
633.104	55716.98
633.459	55533.94
633.813	55594.95
634.167	55476.54
634.521	55553.37
634.875	55599.24
635.229	55527.83
635.583	55435.18
635.937	55353.38
636.291	55388.4
636.645	55396.76
636.999	55327.84
637.352	55430.44
637.706	55218.24
638.06	55295.75
638.413	55154.96
638.767	55128.75
639.121	55149.54
639.474	55064.34
639.828	55029.09
640.181	55044.68
640.534	55089.2
640.888	54975.08
641.241	54862.99
641.594	54934.4
641.947	55048.07
642.301	54839.26
642.654	54896.89
643.007	54862.54
643.36	54882.88
643.713	54767.4
644.066	54873.39
644.419	54632.26
644.771	54454.87
645.124	54199.28
645.477	54155.44
645.83	53955.22
646.182	53850.14
646.535	53807.43
646.888	53845.17
647.24	53601.1
647.593	53823.47
647.945	53741.89
648.298	53596.36
648.65	53577.15
649.002	53417.38
649.355	53559.98
649.707	53558.62
650.059	53595.23
650.411	53909.57
650.763	54077.48
651.115	54394.3
651.467	54207.19
651.819	54128.77
652.171	54161.99
652.523	54023.69
652.875	54161.99
653.227	53991.83
653.578	54237.02
653.93	54050.36
654.282	54017.14
654.633	53846.52
654.985	53962.9
655.337	53829.35
655.688	53855.11
656.039	53993.41
656.391	53694.89
656.742	53791.61
657.094	53800.87
657.445	53883.36
657.796	53732.63
658.147	53656.24
658.498	53712.97
658.849	53739.18
659.2	53720.88
659.551	53617.83
659.902	53784.83
660.253	53614.89
660.604	53751.61
660.955	53570.37
661.306	53686.75
661.656	53613.08
662.007	53596.36
662.358	53524.04
662.708	53581.22
663.059	53537.83
663.409	53350.94
663.76	53563.14
664.11	53547.32
664.461	53504.84
664.811	53507.32
665.161	53441.33
665.511	53337.61
665.862	53477.49
666.212	53418.28
666.562	53433.43
666.912	53408.79
667.262	53347.55
667.612	53345.52
667.962	53365.63
668.312	53238.4
668.662	53448.34
669.011	53324.73
669.361	53245.41
669.711	53250.83
670.06	53198.18
670.41	53142.81
670.76	53079.08
671.109	53243.83
671.459	53151.17
671.808	53096.49
672.157	53155.92
672.507	53046.54
672.856	53000.44
673.205	53011.52
673.554	53120.44
673.904	52985.3
674.253	52915.7
674.602	52879.99
674.951	52480.23
675.3	52301.25
675.649	52752.77
675.998	52607.68
676.346	52704.86
676.695	52827.34
677.044	52540.34
677.393	52668.47
677.741	52661.24
678.09	52617.85
678.438	52583.96
678.787	52536.5
679.135	52548.48
679.484	52317.97
679.832	52392.55
680.181	52215.83
680.529	52398.88
680.877	52420.12
681.225	52258.32
681.573	52371.31
681.922	52029.39
682.27	52012.67
682.618	52086.12
682.966	51990.75
683.314	51965.44
683.661	51856.29
684.009	51767.71
684.357	51788.95
684.705	51736.97
685.053	51688.39
685.4	51598.9
685.748	51514.38
686.095	51445.91
686.443	51229.42
686.79	51265.35
687.138	51251.34
687.485	51265.8
687.832	51120.94
688.18	51131.79
688.527	50965.92
688.874	50901.74
689.221	50866.49
689.568	50735.19
689.915	50593.73
690.262	50742.2
690.609	50484.35
690.956	50454.97
691.303	50410.23
691.65	50122.33
691.997	50159.39
692.344	49945.38
692.69	49961.43
693.037	49942.44
693.383	49674.43
693.73	49755.33
694.077	49539.74
694.423	49509.69
694.769	49293.42
695.116	49367.09
695.462	49238.73
695.808	49169.58
696.155	49235.57
696.501	48809.59
696.847	48787.45
697.193	48629.48
697.539	48817.95
697.885	48557.4
698.231	48376.16
698.577	48335.48
698.923	48460
699.269	48205.77
699.614	47932.78
699.96	47945.66
700.306	47935.94
700.651	47777.76
700.997	47744.08
701.342	47571.21
701.688	47473.13
702.033	47297.09
702.379	47390.87
702.724	47341.16
703.069	47303.87
703.415	46858.01
703.76	46872.02
704.105	46872.24
704.45	46747.5
704.795	46645.58
705.14	46342.09
705.485	46349.54
705.83	46167.18
706.175	46244.46
706.52	45944.36
706.865	45870.01
707.209	45921.53
707.554	45702.33
707.899	45847.41
708.243	45624.59
708.588	45609.68
708.932	45343.92
709.277	45290.14
709.621	45340.76
709.966	45094.89
710.31	45285.17
710.654	44952.97
710.998	44979.64
711.342	44939.41
711.687	44956.13
712.031	44657.61
712.375	44505.98
712.719	44591.85
713.063	44557.27
713.407	44551.4
713.75	44305.76
714.094	44285.19
714.438	44092.65
714.782	44286.55
715.125	44042.49
715.469	44019.21
715.812	43947.8
716.156	43660.35
716.499	43696.05
716.843	43785.09
717.186	43559.56
717.53	43520.69
717.873	43661.25
718.216	43439.79
718.559	43277.08
718.902	42929.97
719.246	43110.76
719.589	42991.67
719.932	42717.1
720.275	42967.94
720.617	42873.48
720.96	42712.35
721.303	42860.37
721.646	42771.78
721.989	42414.28
722.331	42655.86
722.674	42481.17
723.016	42560.49
723.359	42327.28
723.701	42602.07
724.044	42118.24
724.386	41950.11
724.729	42068.98
725.071	41902.2
725.413	41950.56
725.755	41839.83
726.097	41684.36
726.439	41513.96
726.782	41588.09
727.124	41663.79
727.465	41410.92
727.807	41429.45
728.149	41316.68
728.491	41275.55
728.833	41326.85
729.175	41231.94
729.516	41205.05
729.858	40918.5
730.199	41049.8
730.541	40911.27
730.882	40776.36
731.224	40930.25
731.565	40679.86
731.906	40671.73
732.248	40794.66
732.589	40560.32
732.93	40537.27
733.271	40534.56
733.612	40674.66
733.953	40402.58
734.294	40304.05
734.635	40070.61
734.976	40323.04
735.317	40095.7
735.658	40129.59
735.999	40147
736.339	40039.2
736.68	40009.6
737.021	39859.32
737.361	39722.6
737.702	39902.26
738.042	39822.71
738.383	39631.3
738.723	39794.01
739.063	39550.17
739.404	39521.47
739.744	39323.29
740.084	39230.86
740.424	39271.54
740.764	39253.91
741.104	39373.46
741.444	39084.65
741.784	38927.82
742.124	39016.18
742.464	39029.96
742.804	38864.54
743.143	38862.06
743.483	38864.32
743.823	38570.31
744.162	38580.93
744.502	38695.73
744.841	38363.99
745.181	38555.17
745.52	38340.26
745.86	38412.13
746.199	38333.71
746.538	38275.63
746.877	38258.46
747.216	38253.71
747.556	38041.29
747.895	38018.46
748.234	37869.09
748.573	37741.18
748.911	37789.09
749.25	37787.74
749.589	37643.11
749.928	37682.2
750.267	37598.59
750.605	37357.69
750.944	37331.25
751.283	37250.12
751.621	37367.63
751.96	37247.41
752.298	37186.17
752.636	37139.39
752.975	36862.11
753.313	36787.08
753.651	36888.55
753.989	36648.56
754.327	36570.82
754.666	36448.34
755.004	36543.47
755.342	36612.4
755.679	36398.17
756.017	36231.39
756.355	36235.69
756.693	36170.83
757.031	36082.24
757.368	35938.29
757.706	35729.48
758.044	35775.58
758.381	35792.76
758.719	35599.09
759.056	35647.9
759.394	35590.28
759.731	35249.95
760.068	35352.77
760.405	35171.31
760.743	34925.66
761.08	35070.74
761.417	34786.68
761.754	34735.61
762.091	34692
762.428	34570.64
762.765	34345.79
763.102	34389.18
763.438	34275.96
763.775	34036.42
764.112	34189.86
764.449	34280.26
764.785	34079.58
765.122	33562.76
765.458	33682.08
765.795	33573.38
766.131	33503.55
766.467	33350.79
766.804	33218.14
767.14	33061.98
767.476	33008.88
767.812	32989.44
768.148	32916
768.485	32819.96
768.821	32635.1
769.157	32532.28
769.492	32492.28
769.828	32367.54
770.164	32135.45
770.5	31969.81
770.836	32042.12
771.171	31844.39
771.507	31822.47
771.842	31440.33
772.178	31567.33
772.513	31526.2
772.849	31333.22
773.184	31156.72
773.519	31111.98
773.855	31001.7
774.19	30894.58
774.525	30843.51
774.86	30846.45
775.195	30722.84
775.53	30555.61
775.865	30318.33
776.2	30200.36
776.535	29916.53
776.87	29949.98
777.205	29850.09
777.539	29664.78
777.874	29796.31
778.209	29557.22
778.543	29364.68
778.878	29314.96
779.212	29331.01
779.547	29177.11
779.881	29117.68
780.215	29003.56
780.55	28996.55
780.884	28732.15
781.218	28689.67
781.552	28697.13
781.886	28508.21
782.22	28378.27
782.554	28305.27
782.888	28001.55
783.222	28012.17
783.556	27767.89
783.889	27846.98
784.223	27639.98
784.557	27610.15
784.89	27715.01
785.224	27510.27
785.557	27376.94
785.891	27304.17
786.224	27146.89
786.558	27139.88
786.891	26895.14
787.224	26780.57
787.557	26758.87
787.891	26740.34
788.224	26633.45
788.557	26588.48
788.89	26472.78
789.223	26408.6
789.556	26284.53
789.888	26235.72
790.221	26055.84
790.554	25834.38
790.887	25949.18
791.219	25678
791.552	25672.8
791.884	25438.46
792.217	25556.87
792.549	25397.78
792.882	25281.17
793.214	25129.76
793.546	25207.05
793.879	25146.71
794.211	24883.44
794.543	25017.45
794.875	24976.55
795.207	24894.97
795.539	24748.53
795.871	24772.71
796.203	24452.72
796.535	24354.87
796.867	24294.76
797.198	24259.5
797.53	24293.85
797.862	24132.73
798.193	24087.08
798.525	23953.3
798.856	24012.28
799.188	23704.72
799.519	23695.68
799.85	23522.35
800.182	23571.84
800.513	23542.01
800.844	23415.01
801.175	23427.89
801.506	23344.05
801.837	23207.78
802.168	23127.78
802.499	23118.74
802.83	22956.26
803.161	22873.55
803.491	22822.25
803.822	22917.39
804.153	22784.74
804.483	22493.67
804.814	22502.49
805.145	22475.6
805.475	22437.63
805.805	22309.72
806.136	22388.82
806.466	22328.48
806.796	22239.44
807.126	22085.78
807.457	22102.5
807.787	22014.36
808.117	21931.43
808.447	21822.05
808.777	21906.34
809.107	21768.72
809.436	21726.91
809.766	21707.71
810.096	21692.79
810.426	21576.64
810.755	21603.98
811.085	21503.19
811.414	21420.26
811.744	21321.95
812.073	21211.67
812.403	21246.02
812.732	21088.29
813.061	21065.92
813.39	20906.6
813.719	20886.94
814.049	21059.14
814.378	20866.15
814.707	20794.06
815.036	20767.84
815.365	20723.33
815.693	20522.2
816.022	20563.56
816.351	20482.2
816.68	20339.15
817.008	20476.55
817.337	20145.04
817.665	20258.25
817.994	20212.6
818.322	20162.89
818.651	20131.93
818.979	20078.14
819.307	20096.22
819.636	20036.34
819.964	19915.89
820.292	19975.77
820.62	19983.23
820.948	19828.89
821.276	19960.63
821.604	19824.82
821.932	19891.71
822.259	19912.95
822.587	19786.17
822.915	19836.12
823.243	19758.15
823.57	19768.77
823.898	19773.07
824.225	19683.35
824.553	19702.56
824.88	19818.72
825.207	19805.61
825.535	19702.34
825.862	19718.61
826.189	19655.78
826.516	19823.46
826.843	19862.33
827.17	19753.63
827.497	19835.21
827.824	19779.62
828.151	19865.95
828.478	19717.7
828.805	19896.23
829.131	19627.99
829.458	19724.48
829.785	19649
830.111	19628.89
830.438	19769.68
830.764	19840.64
831.09	19766.51
831.417	19599.29
831.743	19638.16
832.069	19636.12
832.395	19529.23
832.722	19655.78
833.048	19531.94
833.374	19606.97
833.7	19491.04
834.026	19543.02
834.351	19592.06
834.677	19468.89
835.003	19558.84
835.329	19588.89
835.654	19518.61
835.98	19316.13
836.306	19398.61
836.631	19225.29
836.956	19383.02
837.282	19374.89
837.607	19302.57
837.932	19284.04
838.258	19197.49
838.583	19143.93
838.908	19064.39
839.233	19088.11
839.558	19070.71
839.883	19090.15
840.208	18997.27
840.533	18973.99
840.858	19027.1
841.182	18902.81
841.507	18861.91
841.832	18855.13
842.156	18784.62
842.481	18776.03
842.805	18791.85
843.13	18647.67
843.454	18685.19
843.778	18636.37
844.103	18545.53
844.427	18402.48
844.751	18504.85
845.075	18435.25
845.399	18390.73
845.723	18192.54
846.047	18407.68
846.371	18019.44
846.695	18103.06
847.019	18010.4
847.343	17871.2
847.666	17755.04
847.99	17750.3
848.313	17669.62
848.637	17587.81
848.96	17584.42
849.284	17492.22
849.607	17321.15
849.931	17397.54
850.254	17157.09
850.577	17159.8
850.9	17130.88
851.223	16973.14
851.546	16999.58
851.869	16781.51
852.192	16874.61
852.515	16803.2
852.838	16732.24
853.161	16749.87
853.483	16687.27
853.806	16526.15
854.129	16549.65
854.451	16454.74
854.774	16351.24
855.096	16337
855.419	16291.13
855.741	16146.5
856.063	16084.13
856.385	15984.01
856.708	16102.66
857.03	15962.77
857.352	15998.93
857.674	15947.63
857.996	15826.05
858.318	15773.62
858.64	15810.01
858.961	15763.68
859.283	15682.33
859.605	15542.44
859.926	15605.04
860.248	15502.45
860.57	15515.33
860.891	15449.57
861.212	15424.71
861.534	15399.17
861.855	15322.56
862.176	15319.17
862.498	15304.94
862.819	15338.38
863.14	15258.16
863.461	15184.49
863.782	15145.84
864.103	15137.94
864.424	15114.66
864.745	15103.36
865.065	14955.34
865.386	14936.36
865.707	14944.95
866.027	14957.83
866.348	14966.41
866.668	14984.04
866.989	14923.03
867.309	14692.07
867.63	14792.41
867.95	14791.5
868.27	14659.08
868.59	14737.27
868.91	14695.24
869.23	14680.09
869.55	14664.73
869.87	14561
870.19	14564.62
870.51	14593.77
870.83	14574.56
871.15	14410.95
871.469	14447.78
871.789	14520.78
872.109	14370.72
872.428	14382.25
872.748	14414.34
873.067	14337.5
873.386	14324.4
873.706	14226.32
874.025	14173.21
874.344	14189.94
874.663	14231.52
874.982	14183.16
875.301	14184.51
875.62	14129.37
875.939	14129.83
876.258	14094.35
876.577	14009.83
876.896	14036.72
877.214	13981.81
877.533	14062.48
877.852	14019.55
878.17	14056.16
878.489	13963.95
878.807	14030.85
879.125	13940.45
879.444	13862.71
879.762	13843.05
880.08	13860.68
880.398	13780
880.716	13829.27
881.034	13820.46
881.352	13815.03
881.67	13725.54
881.988	13709.95
882.306	13627.24
882.624	13584.76
882.941	13591.54
883.259	13510.41
883.577	13515.38
883.894	13491.2
884.212	13433.8
884.529	13450.75
884.846	13375.04
885.164	13299.34
885.481	13325.78
885.798	13335.27
886.115	13329.4
886.432	13218.66
886.75	13172.34
887.067	13255.95
887.383	13114.26
887.7	13085.56
888.017	13142.28
888.334	13079.68
888.651	13086.01
888.967	13054.37
889.284	12953.59
889.6	12890.31
889.917	12761.73
890.233	12857.32
890.55	12771.44
890.866	12778.45
891.182	12685.57
891.498	12653.25
891.815	12608.06
892.131	12550.43
892.447	12554.05
892.763	12491
893.079	12518.34
893.395	12447.61
893.71	12475.86
894.026	12389.08
894.342	12302.98
894.657	12205.36
894.973	12224.57
895.289	12229.99
895.604	12259.14
895.92	12128.75
896.235	12036.77
896.55	12049.43
896.865	12046.94
897.181	11886.72
897.496	11906.16
897.811	11917.46
898.126	11912.03
898.441	11766.72
898.756	11738.02
899.071	11729.89
899.386	11783.45
899.7	11645.82
900.015	11608.76
900.33	11472.95
900.644	11497.35
900.959	11458.26
901.273	11393.63
901.588	11449.44
901.902	11360.18
902.216	11321.54
902.531	11250.35
902.845	11217.36
903.159	11096.01
903.473	11099.85
903.787	11026.18
904.101	11051.94
904.415	11063.69
904.729	10983.47
905.042	10867.99
905.356	10856.47
905.67	10848.1
905.984	10827.77
906.297	10757.71
906.611	10649.24
906.924	10669.13
907.237	10692.63
907.551	10630.48
907.864	10665.51
908.177	10604.27
908.491	10515.91
908.804	10450.83
909.117	10426.19
909.43	10366.99
909.743	10301.68
910.056	10256.93
910.368	10172.87
910.681	10197.73
910.994	10151.85
911.307	10123.15
911.619	10044.74
911.932	10050.39
912.244	9982.82
912.557	9974.23
912.869	9851.97
913.181	9902.82
913.494	9875.02
913.806	9805.42
914.118	9741.24
914.43	9667.34
914.742	9714.12
915.054	9571.98
915.366	9623.5
915.678	9443.85
915.99	9510.29
916.302	9415.6
916.613	9367.47
916.925	9383.06
917.236	9373.12
917.548	9352.55
917.859	9404.75
918.171	9216.51
918.482	9167.92
918.794	9107.36
919.105	9077.53
919.416	9020.36
919.727	9023.97
920.038	8976.06
920.349	8917.53
920.66	8887.93
920.971	8876.41
921.282	8809.51
921.593	8764.09
921.903	8749.85
922.214	8745.56
922.525	8636.19
922.835	8657.65
923.146	8569.29
923.456	8491.56
923.767	8532.01
924.077	8514.15
924.387	8444.1
924.697	8433.25
925.008	8365.68
925.318	8384.67
925.628	8275.06
925.938	8249.08
926.248	8212.02
926.558	8203.88
926.867	8113.49
927.177	8162.75
927.487	8074.39
927.796	8075.07
928.106	8064.9
928.416	8007.05
928.725	7986.26
929.034	7901.52
929.344	7944.68
929.653	7895.41
929.962	7766.15
930.271	7838.92
930.581	7772.93
930.89	7697.45
931.199	7671.69
931.508	7636.21
931.817	7569.32
932.125	7580.17
932.434	7556.44
932.743	7485.03
933.051	7454.75
933.36	7409.32
933.669	7358.48
933.977	7322.32
934.286	7410.23
934.594	7395.99
934.902	7266.96
935.21	7233.74
935.519	7286.84
935.827	7163.91
936.135	7153.29
936.443	7133.4
936.751	7006.17
937.059	7052.05
937.367	7025.38
937.674	7003.69
937.982	6994.65
938.29	6940.64
938.597	6867.87
938.905	6904.03
939.213	6827.19
939.52	6772.96
939.827	6822.67
940.135	6772.96
940.442	6742
940.749	6687.31
941.056	6743.81
941.363	6601.89
941.67	6595.34
941.977	6572.28
942.284	6476.02
942.591	6516.02
942.898	6437.37
943.205	6497.26
943.511	6402.57
943.818	6403.93
944.125	6307.66
944.431	6337.71
944.738	6291.84
945.044	6288
945.35	6286.64
945.657	6228.34
945.963	6213.2
946.269	6224.95
946.575	6184.72
946.881	6078.96
947.187	6068.34
947.493	6005.07
947.799	6038.97
948.105	6017.5
948.41	5916.48
948.716	5955.35
949.022	5864.05
949.327	5872.19
949.633	5846.88
949.938	5834.9
950.244	5828.12
950.549	5758.07
950.854	5759.65
951.16	5727.11
951.465	5694.79
951.77	5679.2
952.075	5680.33
952.38	5610.95
952.685	5596.94
952.99	5544.06
953.294	5527.34
953.599	5521.24
953.904	5546.32
954.209	5474.91
954.513	5471.3
954.818	5436.04
955.122	5419.55
955.426	5374.8
955.731	5361.47
956.035	5346.78
956.339	5321.92
956.643	5358.31
956.948	5283.73
957.252	5218.2
957.556	5286.89
957.86	5245.31
958.163	5198.99
958.467	5158.31
958.771	5160.8
959.075	5102.04
959.378	5099.56
959.682	5069.05
959.985	5084.19
960.289	5055.49
960.592	4972.1
960.896	4954.93
961.199	4976.85
961.502	4936.4
961.805	4952.44
962.108	4861.14
962.411	4898.88
962.714	4836.51
963.017	4789.96
963.32	4807.13
963.623	4809.17
963.926	4782.5
964.228	4782.73
964.531	4683.75
964.833	4768.04
965.136	4719.23
965.438	4627.25
965.741	4617.99
966.043	4682.39
966.345	4610.98
966.648	4555.16
966.95	4550.64
967.252	4533.02
967.554	4549.51
967.856	4454.15
968.158	4455.96
968.46	4447.59
968.761	4434.71
969.063	4463.64
969.365	4419.12
969.666	4402.85
969.968	4361.5
970.269	4325.11
970.571	4347.26
970.872	4274.72
971.174	4227.49
971.475	4226.81
971.776	4232.46
972.077	4209.18
972.378	4204.66
972.679	4181.39
972.98	4162.18
973.281	4134.16
973.582	4133.93
973.883	4180.94
974.183	4086.02
974.484	4081.95
974.785	4043.09
975.085	4089.64
975.386	4026.59
975.686	4021.62
975.986	3981.84
976.287	3989.3
976.587	3961.96
976.887	3959.25
977.187	3916.76
977.487	3942.52
977.787	3875.63
978.087	3866.37
978.387	3806.71
978.687	3840.61
978.987	3812.36
979.286	3754.51
979.586	3780.72
979.885	3764.9
980.185	3712.92
980.484	3738.01
980.784	3647.62
981.083	3693.04
981.382	3675.41
981.682	3667.73
981.981	3651.23
982.28	3639.48
982.579	3609.2
982.878	3604.23
983.177	3565.58
983.475	3570.56
983.774	3555.87
984.073	3510.9
984.372	3523.1
984.67	3516.09
984.969	3488.98
985.267	3502.08
985.566	3429.77
985.864	3398.13
986.162	3391.35
986.461	3390.22
986.759	3357.23
987.057	3361.07
987.355	3338.02
987.653	3335.53
987.951	3292.82
988.249	3285.59
988.547	3262.09
988.844	3209.66
989.142	3244.91
989.44	3246.95
989.737	3220.06
990.035	3195.2
990.332	3218.02
990.63	3182.32
990.927	3162.88
991.224	3179.61
991.521	3125.14
991.819	3112.49
992.116	3086.05
992.413	3137.57
992.71	3069.33
993.006	3066.39
993.303	3033.39
993.6	3022.32
993.897	3027.07
994.193	3036.33
994.49	2969.89
994.787	2951.36
995.083	2951.59
995.379	2949.56
995.676	2904.81
995.972	2909.56
996.268	2879.5
996.565	2844.25
996.861	2846.51
997.157	2834.53
997.453	2780.75
997.749	2785.94
998.044	2762.22
998.34	2782.1
998.636	2766.51
998.932	2741.88
999.227	2735.1
999.523	2688.55
999.818	2721.99
1000.114	2693.29
1000.409	2689.22
1000.704	2644.25
1001	2642.22
1001.295	2679.96
1001.59	2630.69
1001.885	2588.89
1002.18	2616
1002.475	2579.85
1002.77	2566.74
1003.065	2537.81
1003.359	2519.51
1003.654	2503.24
1003.949	2496.46
1004.243	2456.46
1004.538	2494.43
1004.832	2453.3
1005.127	2453.3
1005.421	2458.27
1005.715	2409.91
1006.009	2416.01
1006.304	2399.51
1006.598	2354.99
1006.892	2387.54
1007.186	2340.76
1007.48	2357.93
1007.773	2373.98
1008.067	2329.46
1008.361	2288.33
1008.655	2335.56
1008.948	2275
1009.242	2275.67
1009.535	2275.22
1009.829	2220.76
1010.122	2216.24
1010.415	2243.81
1010.708	2214.89
1011.001	2187.77
1011.295	2189.58
1011.588	2159.97
1011.881	2132.4
1012.173	2130.14
1012.466	2093.31
1012.759	2100.76
1013.052	2106.41
1013.344	2109.8
1013.637	2056.47
1013.93	2051.27
1014.222	2035.23
1014.514	2032.07
1014.807	2033.87
1015.099	2018.51
1015.391	1975.8
1015.683	1982.35
1015.976	1994.33
1016.268	1939.86
1016.56	1969.47
1016.851	1931.05
1017.143	1924.95
1017.435	1938.06
1017.727	1897.38
1018.018	1861.45
1018.31	1887.21
1018.602	1866.87
1018.893	1828.45
1019.185	1825.97
1019.476	1806.76
1019.767	1778.29
1020.058	1779.87
1020.35	1816.93
1020.641	1756.82
1020.932	1748.23
1021.223	1776.03
1021.514	1736.93
1021.804	1718.63
1022.095	1692.64
1022.386	1713.66
1022.677	1644.96
1022.967	1664.39
1023.258	1654.67
1023.548	1638.86
1023.839	1626.88
1024.129	1627.33
1024.419	1657.16
1024.709	1612.42
1025	1585.3
1025.29	1579.2
1025.58	1598.86
1025.87	1552.53
1026.16	1555.24
1026.449	1546.65
1026.739	1517.95
1027.029	1509.82
1027.319	1512.76
1027.608	1508.92
1027.898	1491.97
1028.187	1468.24
1028.477	1471.85
1028.766	1466.88
1029.055	1444.96
1029.344	1434.34
1029.634	1448.8
1029.923	1428.47
1030.212	1392.08
1030.501	1391.86
1030.79	1388.69
1031.078	1381.69
1031.367	1367.68
1031.656	1355.25
1031.945	1336.49
1032.233	1366.09
1032.522	1349.15
1032.81	1312.76
1033.099	1308.24
1033.387	1267.57
1033.675	1260.11
1033.963	1283.61
1034.251	1272.54
1034.54	1254.91
1034.828	1237.51
1035.116	1261.69
1035.403	1258.07
1035.691	1205.42
1035.979	1230.28
1036.267	1216.95
1036.554	1193.9
1036.842	1208.13
1037.129	1182.37
1037.417	1167.91
1037.704	1158.64
1037.992	1197.28
1038.279	1160.68
1038.566	1119.32
1038.853	1119.32
1039.14	1119.32
