Data from White_reflection_standard_FLMS001491_030.txt Node
Date: Tue Feb 07 10:32:01 GMT 2017
User: dcchb
Spectrometer: FLMS00149
Trigger mode: 0
Integration Time (sec): 2.000000E-2
Scans to average: 10
Electric dark correction enabled: true
Nonlinearity correction enabled: false
Boxcar width: 0
XAxis mode: Wavelengths
Number of Pixels in Spectrum: 2048
>>>>>Begin Spectral Data<<<<<
341.393	-14.48
341.776	-14.48
342.16	-14.48
342.543	-52.22
342.927	-81.14
343.31	-72.1
343.693	-77.07
344.077	-51.99
344.46	-47.7
344.843	-56.06
345.226	-28.94
345.61	-29.84
345.993	-25.78
346.376	11.29
346.759	1.12
347.142	29.14
347.525	37.5
347.908	38.4
348.291	73.2
348.674	85.86
349.057	112.98
349.44	115.01
349.823	130.15
350.206	159.08
350.588	222.35
350.971	241.79
351.354	268
351.737	271.62
352.119	293.09
352.502	288.34
352.884	329.69
353.267	314.1
353.65	301.67
354.032	341.67
354.414	349.13
354.797	363.59
355.179	379.18
355.562	390.48
355.944	374.44
356.326	397.26
356.709	384.16
357.091	382.12
357.473	367.66
357.855	383.25
358.238	395.23
358.62	410.6
359.002	374.21
359.384	400.2
359.766	369.02
360.148	409.24
360.53	413.99
360.912	425.51
361.294	425.74
361.676	410.37
362.057	418.05
362.439	387.77
362.821	410.37
363.203	405.17
363.584	420.09
363.966	392.29
364.348	392.97
364.729	424.16
365.111	414.66
365.493	413.31
365.874	422.12
366.256	401.56
366.637	413.76
367.019	416.02
367.4	413.76
367.781	416.47
368.163	423.7
368.544	418.96
368.925	437.94
369.306	417.38
369.688	423.48
370.069	426.87
370.45	448.34
370.831	425.96
371.212	445.85
371.593	444.27
371.974	450.14
372.355	443.59
372.736	470.71
373.117	447.21
373.498	447.88
373.879	450.37
374.26	457.83
374.641	444.95
375.021	455.34
375.402	456.92
375.783	467.54
376.163	505.96
376.544	521.33
376.925	494.44
377.305	481.33
377.686	493.31
378.066	494.66
378.447	514.77
378.827	530.14
379.208	508
379.588	496.47
379.968	502.8
380.349	508
380.729	522.68
381.109	519.75
381.489	527.88
381.87	540.54
382.25	550.25
382.63	553.64
383.01	539.18
383.39	551.16
383.77	556.13
384.15	563.81
384.53	576.47
384.91	584.83
385.29	587.09
385.67	596.58
386.049	597.71
386.429	609.69
386.809	620.31
387.189	607.88
387.568	642.68
387.948	669.35
388.328	658.5
388.707	660.99
389.087	679.97
389.466	680.19
389.846	676.8
390.225	694.2
390.605	690.59
390.984	719.74
391.363	720.64
391.743	716.13
392.122	717.71
392.501	760.64
392.881	747.31
393.26	757.03
393.639	754.32
394.018	731.27
394.397	804.03
394.776	774.88
395.155	811.72
395.534	807.2
395.913	792.96
396.292	792.73
396.671	824.14
397.05	841.09
397.429	841.55
397.808	841.77
398.186	847.65
398.565	831.6
398.944	868.89
399.323	876.12
399.701	893.07
400.08	890.36
400.458	899.85
400.837	919.28
401.215	920.41
401.594	962.9
401.972	937.14
402.351	948.66
402.729	947.53
403.107	956.8
403.486	976.46
403.864	968.32
404.242	1004.03
404.62	1021.65
404.999	1034.99
405.377	1052.61
405.755	1028.43
406.133	1063.69
406.511	1094.19
406.889	1081.77
407.267	1126.96
407.645	1150.46
408.023	1138.26
408.401	1152.95
408.779	1166.51
409.156	1222.78
409.534	1203.12
409.912	1218.48
410.29	1215.32
410.667	1281.31
411.045	1274.75
411.422	1305.26
411.8	1307.97
412.178	1320.4
412.555	1366.28
412.933	1367.41
413.31	1385.26
413.687	1384.36
414.065	1402.66
414.442	1424.13
414.819	1476.78
415.197	1470.46
415.574	1485.37
415.951	1480.17
416.328	1531.47
416.705	1525.82
417.082	1516.33
417.46	1572.6
417.837	1589.77
418.214	1560.85
418.591	1611.24
418.967	1623.22
419.344	1631.13
419.721	1638.59
420.098	1653.95
420.475	1692.37
420.852	1704.12
421.228	1718.36
421.605	1747.28
421.982	1770.56
422.358	1798.58
422.735	1838.81
423.111	1782.99
423.488	1826.15
423.864	1867.51
424.241	1913.16
424.617	1906.15
424.994	1904.12
425.37	1951.8
425.746	1972.14
426.123	1972.82
426.499	2015.75
426.875	2027.5
427.251	2056.65
427.627	2154.51
428.003	2093.49
428.379	2115.86
428.756	2164.9
429.132	2209.42
429.507	2240.83
429.883	2259.81
430.259	2334.61
430.635	2336.2
431.011	2384.56
431.387	2410.77
431.763	2456.19
432.138	2459.13
432.514	2516.76
432.89	2528.05
433.265	2575.06
433.641	2608.28
434.016	2633.36
434.392	2697.54
434.767	2701.38
435.143	2731.21
435.518	2752.91
435.894	2767.14
436.269	2824.09
436.644	2848.95
437.02	2902.73
437.395	2909.74
437.77	2919.68
438.145	3022.96
438.52	3003.07
438.895	3053.24
439.271	3084.88
439.646	3151.54
440.021	3150.64
440.395	3201.03
440.77	3142.5
441.145	3194.25
441.52	3295.72
441.895	3240.13
442.27	3300.46
442.645	3336.62
443.019	3366.9
443.394	3360.8
443.769	3420.01
444.143	3362.16
444.518	3433.57
444.892	3469.73
445.267	3495.71
445.641	3523.06
446.016	3567.8
446.39	3583.85
446.764	3633.79
447.139	3638.31
447.513	3677.4
447.887	3687.57
448.262	3678.99
448.636	3700
449.01	3771.86
449.384	3812.32
449.758	3812.32
450.132	3936.38
450.506	3931.86
450.88	3924.85
451.254	4001.69
451.628	4024.74
452.002	4068.13
452.376	4115.13
452.75	4125.75
453.123	4178.18
453.497	4227.67
453.871	4272.19
454.244	4360.78
454.618	4424.05
454.992	4439.87
455.365	4505.4
455.739	4597.61
456.112	4599.41
456.486	4684.83
456.859	4707.43
457.232	4847.32
457.606	4839.41
457.979	4897.48
458.352	4975.45
458.725	5066.52
459.099	5099.29
459.472	5170.02
459.845	5208.44
460.218	5309.9
460.591	5365.95
460.964	5389.22
461.337	5497.69
461.71	5577.47
462.083	5645.71
462.456	5674.19
462.829	5765.71
463.201	5796.67
463.574	5828.31
463.947	5941.3
464.32	6085.93
464.692	6116.21
465.065	6130.67
465.438	6260.16
465.81	6320.5
466.183	6411.57
466.555	6520.49
466.928	6528.63
467.3	6554.84
467.672	6661.05
468.045	6930.65
468.417	6885.45
468.789	6908.28
469.161	7075.73
469.534	7145.56
469.906	7321.15
470.278	7428.94
470.65	7480.92
471.022	7608.37
471.394	7776.28
471.766	7849.5
472.138	7981.7
472.51	8075.93
472.882	8246.32
473.253	8304.63
473.625	8414.23
473.997	8607.9
474.369	8641.57
474.74	8740.32
475.112	8946.64
475.484	9133.08
475.855	9236.13
476.227	9357.93
476.598	9566.29
476.97	9716.11
477.341	9904.13
477.713	10073.85
478.084	10120.85
478.455	10354.97
478.827	10506.15
479.198	10798.35
479.569	10808.74
479.94	11133.25
480.311	11280.37
480.682	11460.7
481.053	11748.6
481.424	11880.35
481.795	12045.77
482.166	12277.86
482.537	12385.2
482.908	12735.02
483.279	12822.7
483.65	13042.81
484.021	13271.28
484.391	13421.78
484.762	13530.03
485.133	13707.42
485.503	13890.24
485.874	14292.27
486.244	14304.69
486.615	14552.82
486.985	14873.72
487.356	14961.17
487.726	15141.06
488.097	15582.4
488.467	15557.54
488.837	15891.55
489.207	16037.08
489.578	16305.09
489.948	16561.36
490.318	16809.71
490.688	16807.45
491.058	17035.24
491.428	17287.21
491.798	17470.94
492.168	17796.58
492.538	17819.63
492.908	18066.18
493.278	18391.14
493.648	18349.33
494.017	18625.94
494.387	18739.83
494.757	18918.13
495.126	19136.66
495.496	19140.27
495.866	19488.29
496.235	19485.35
496.605	19732.8
496.974	19926.24
497.344	20161.94
497.713	20150.64
498.082	20350.41
498.452	20533.68
498.821	20737.52
499.19	20681.48
499.559	21014.12
499.928	21074.01
500.298	21219.31
500.667	21447.33
501.036	21538.18
501.405	21669.92
501.774	21836.02
502.143	21890.94
502.512	22059.07
502.88	22335.67
503.249	22391.49
503.618	22487.76
503.987	22626.74
504.356	22879.38
504.724	22871.02
505.093	23111.92
505.462	23182.43
505.83	23438.92
506.199	23537.45
506.567	23985.8
506.936	23840.26
507.304	24251.55
507.672	24349.4
508.041	24383.07
508.409	24610.64
508.777	24838.2
509.145	25008.37
509.514	25080.23
509.882	25353.22
510.25	25348.92
510.618	25595.02
510.986	25613.78
511.354	25944.16
511.722	26094.22
512.09	26375.11
512.458	26378.5
512.826	26776.91
513.193	26758.6
513.561	26905.95
513.929	27153.62
514.297	27518.36
514.664	27569.43
515.032	27649.65
515.4	28071.79
515.767	27984.79
516.135	28327.15
516.502	28160.6
516.869	28698.89
517.237	28807.82
517.604	28849.17
517.972	29076.74
518.339	29388.59
518.706	29339.55
519.073	29665.65
519.44	29976.37
519.808	30301.56
520.175	30232.41
520.542	30704.49
520.909	30783.81
521.276	30847.08
521.643	31297.92
522.009	31523.22
522.376	31690.23
522.743	31777.46
523.11	32244.11
523.477	32503.54
523.843	32703.53
524.21	33084.09
524.577	33169.28
524.943	33386
525.31	33625.77
525.676	33950.73
526.043	34302.59
526.409	34187.34
526.776	34765.4
527.142	34855.34
527.508	35056.24
527.874	35341.88
528.241	35460.52
528.607	35572.61
528.973	35972.6
529.339	35936.89
529.705	36335.53
530.071	36742.3
530.437	36773.71
530.803	37185.22
531.169	37210.98
531.535	37171.44
531.901	37480.36
532.267	37588.15
532.632	37770.07
532.998	37912.89
533.364	38248.92
533.73	38475.58
534.095	38496.83
534.461	38789.93
534.826	38982.46
535.192	39081.22
535.557	39438.5
535.923	39460.19
536.288	39541.32
536.653	39735.44
537.019	39763.01
537.384	39913.74
537.749	40171.36
538.114	40317.8
538.479	40382.65
538.845	40480.5
539.21	40623.78
539.575	40816.31
539.94	40889.08
540.305	41155.97
540.67	40962.98
541.034	41412.91
541.399	41387.6
541.764	41582.85
542.129	41718.89
542.494	41846.8
542.858	41942.39
543.223	42068.26
543.587	42272.09
543.952	42223.28
544.316	42502.6
544.681	42508.92
545.045	42684.74
545.41	42955.92
545.774	42958.86
546.138	43065.07
546.503	43264.39
546.867	43316.59
547.231	43763.13
547.595	43921.54
547.959	43947.08
548.324	43879.96
548.688	44016.46
549.052	44176.68
549.416	44367.63
549.779	44407.86
550.143	44532.37
550.507	44844.68
550.871	44887.85
551.235	44936.43
551.599	45373.03
551.962	45281.06
552.326	45424.1
552.689	45671.33
553.053	45547.04
553.417	45763.53
553.78	46311.99
554.143	46151.09
554.507	46362.61
554.87	46409.61
555.234	46798.3
555.597	46713.56
555.96	46847.79
556.323	47226.31
556.686	47175.47
557.05	47476.03
557.413	47613.42
557.776	47683.03
558.139	48130.92
558.502	48016.35
558.865	48136.35
559.228	48353.74
559.59	48583.34
559.953	48634.87
560.316	49004.57
560.679	49085.02
561.041	49164.79
561.404	49394.62
561.767	49670.09
562.129	49619.02
562.492	49970.2
562.854	49891.78
563.217	50065.34
563.579	50219.68
563.941	50447.47
564.304	50472.11
564.666	50802.94
565.028	50735.15
565.39	50977.18
565.753	51159.09
566.115	51209.26
566.477	51332.42
566.839	51455.13
567.201	51594.34
567.563	51726.08
567.925	51944.16
568.287	51979.41
568.648	52045.4
569.01	52281.1
569.372	52442.67
569.734	52396.8
570.095	52556.12
570.457	52677.02
570.819	52760.18
571.18	52815.32
571.542	52985.03
571.903	53034.98
572.265	53128.76
572.626	53235.65
572.987	53330.11
573.349	53444.46
573.71	53550.44
574.071	53578.01
574.432	53702.3
574.794	53808.06
575.155	53852.36
575.516	53768.29
575.877	53861.85
576.238	53996.08
576.599	54133.25
576.96	54104.33
577.32	54148.84
577.681	54313.13
578.042	54319.91
578.403	54342.51
578.763	54246.47
579.124	54315.85
579.485	54527.37
579.845	54573.24
580.206	54505.22
580.566	54537.31
580.927	54564.65
581.287	54675.61
581.648	54595.61
582.008	54744.31
582.368	54624.99
582.728	54664.09
583.089	54694.82
583.449	54703.41
583.809	54791.99
584.169	54837.64
584.529	54699.56
584.889	54947.24
585.249	54846.23
585.609	54692.11
585.969	54925.32
586.329	54801.71
586.688	54897.98
587.048	54864.31
587.408	54814.59
587.768	54713.8
588.127	54815.04
588.487	54733.24
588.846	54945.66
589.206	54729.17
589.565	54815.04
589.925	54928.71
590.284	54769.85
590.643	54902.05
591.003	54968.03
591.362	55011.87
591.721	54905.89
592.08	54980.91
592.44	54963.51
592.799	55001.48
593.158	54901.37
593.517	55020.46
593.876	54949.5
594.235	54963.96
594.593	54978.43
594.952	55028.82
595.311	54954.47
595.67	55034.47
596.029	55190.17
596.387	55125.09
596.746	55204.64
597.104	55112.44
597.463	55088.03
597.822	55194.01
598.18	55116.05
598.538	55097.29
598.897	55277.4
599.255	55012.78
599.613	55472.88
599.972	55213
600.33	55358.3
600.688	55259.1
601.046	55351.07
601.404	55396.27
601.762	55367.8
602.12	55546.55
602.478	55498.87
602.836	55543.38
603.194	55442.82
603.552	55450.05
603.91	55319.89
604.268	55468.36
604.625	55404.63
604.983	55577.51
605.341	55561.24
605.698	55589.03
606.056	55651.63
606.413	55591.29
606.771	55697.5
607.128	55779.31
607.485	55630.84
607.843	55677.62
608.2	55866.99
608.557	55917.39
608.914	55804.17
609.272	55968.46
609.629	55951.96
609.986	55982.24
610.343	55916.93
610.7	56152.18
611.057	56085.29
611.414	55992.86
611.771	56129.13
612.127	56221.33
612.484	56125.97
612.841	56146.53
613.198	56126.87
613.554	56119.41
613.911	56331.84
614.267	56321.22
614.624	56217.49
614.98	56284.61
615.337	56432.4
615.693	56270.82
616.05	56287.09
616.406	56513.53
616.762	56393.76
617.118	56363.25
617.475	56360.99
617.831	56504.04
618.187	56461.55
618.543	56479.63
618.899	56666.74
619.255	56582.68
619.611	56490.48
619.967	56647.76
620.323	56666.97
620.678	56600.53
621.034	56548.33
621.39	56479.4
621.746	56477.37
622.101	56739.06
622.457	56510.36
622.812	56625.84
623.168	56581.77
623.523	56615.67
623.879	56713.97
624.234	56533.64
624.589	56546.52
624.945	56651.15
625.3	56664.26
625.655	56651.38
626.01	56638.95
626.365	56609.57
626.72	56617.03
627.075	56672.62
627.43	56570.48
627.785	56541.1
628.14	56610.47
628.495	56597.82
628.85	56512.62
629.205	56495.9
629.559	56622.23
629.914	56440.76
630.269	56526.86
630.623	56364.15
630.978	56330.48
631.332	56470.59
631.687	56448.45
632.041	56368.67
632.396	56382.01
632.75	56286.19
633.104	56297.94
633.459	56202.58
633.813	56201.67
634.167	56167.32
634.521	56110.83
634.875	56226.76
635.229	56106.99
635.583	55892.08
635.937	55990.83
636.291	55975.92
636.645	55921.45
636.999	55928.01
637.352	55939.98
637.706	55811.17
638.06	55935.69
638.413	55784.96
638.767	55765.53
639.121	55796.03
639.474	55542.48
639.828	55641.46
640.181	55655.7
640.534	55656.15
640.888	55542.93
641.241	55465.87
641.594	55455.48
641.947	55598.75
642.301	55413.44
642.654	55451.18
643.007	55458.87
643.36	55414.8
643.713	55308.59
644.066	55414.35
644.419	55182.49
644.771	55040.12
645.124	54719.9
645.477	54689.85
645.83	54551.09
646.182	54363.98
646.535	54334.6
646.888	54383.41
647.24	54203.31
647.593	54317.2
647.945	54359.69
648.298	54157.66
648.65	54086.02
649.002	53955.4
649.355	54203.08
649.707	53987.72
650.059	54119.47
650.411	54528.72
650.763	54468.16
651.115	54763.52
651.467	54619.57
651.819	54629.96
652.171	54556.97
652.523	54517.2
652.875	54464.09
653.227	54391.1
653.578	54600.36
653.93	54403.08
654.282	54327.37
654.633	54208.05
654.985	54230.88
655.337	54217.77
655.688	54292.8
656.039	54352.68
656.391	54143.65
656.742	54126.92
657.094	54124.66
657.445	54194.72
657.796	54133.48
658.147	54107.04
658.498	54014.61
658.849	54209.41
659.2	54120.37
659.551	53933.71
659.902	54084.67
660.253	54008.51
660.604	54005.12
660.955	53869.53
661.306	53931.9
661.656	53932.35
662.007	53884.9
662.358	53969.87
662.708	53929.19
663.059	53835.41
663.409	53699.36
663.76	53872.92
664.11	53807.16
664.461	53833.37
664.811	53784.33
665.161	53741.62
665.511	53587.28
665.862	53620.04
666.212	53791.11
666.562	53763.77
666.912	53653.72
667.262	53614.62
667.612	53623.66
667.962	53704.34
668.312	53576.2
668.662	53729.42
669.011	53539.82
669.361	53422.99
669.711	53446.04
670.06	53433.38
670.41	53451.46
670.76	53450.33
671.109	53523.1
671.459	53411.46
671.808	53289.88
672.157	53397.45
672.507	53149.55
672.856	53222.32
673.205	53265.03
673.554	53294.4
673.904	53157.46
674.253	53257.79
674.602	53232.03
674.951	52693.29
675.3	52628.88
675.649	53143.22
675.998	52971.93
676.346	53016.22
676.695	53173.95
677.044	52906.84
677.393	52979.61
677.741	52975.77
678.09	52927.18
678.438	52832.04
678.787	52932.83
679.135	52934.19
679.484	52604.93
679.832	52754.53
680.181	52578.04
680.529	52707.3
680.877	52576
681.225	52587.53
681.573	52745.72
681.922	52423.24
682.27	52300.31
682.618	52369.91
682.966	52291.04
683.314	52377.37
683.661	52239.97
684.009	52026.41
684.357	51978.51
684.705	51955.46
685.053	52034.55
685.4	51953.87
685.748	51829.81
686.095	51736.03
686.443	51574.45
686.79	51564.73
687.138	51586.43
687.485	51576.03
687.832	51369.26
688.18	51333.33
688.527	51269.37
688.874	51272.54
689.221	51199.77
689.568	51066.44
689.915	50941.02
690.262	50923.84
690.609	50827.58
690.956	50678.88
691.303	50650.86
691.65	50473.24
691.997	50420.36
692.344	50264.43
692.69	50213.58
693.037	50215.61
693.383	49875.06
693.73	50219.23
694.077	49893.36
694.423	49851.78
694.769	49760.26
695.116	49606.37
695.462	49634.39
695.808	49484.56
696.155	49464.45
696.501	49225.58
696.847	49225.81
697.193	48946.72
697.539	49117.79
697.885	48855.2
698.231	48671.7
698.577	48677.35
698.923	48585.15
699.269	48385.83
699.614	48257.47
699.96	48258.83
700.306	48200.75
700.651	48009.8
700.997	47963.02
701.342	47772.74
701.688	47801.44
702.033	47646.64
702.379	47674.21
702.724	47482.35
703.069	47528.45
703.415	47111.29
703.76	47204.39
704.105	47074.45
704.45	46984.51
704.795	46703.39
705.14	46683.96
705.485	46692.77
705.83	46361.25
706.175	46594.47
706.52	46246
706.865	46205.78
707.209	46107.02
707.554	45935.28
707.899	45936.41
708.243	45811.89
708.588	45850.53
708.932	45562.4
709.277	45598.11
709.621	45517.66
709.966	45281.73
710.31	45281.73
710.654	44981.85
710.998	44963.78
711.342	45038.12
711.687	44924.45
712.031	44791.58
712.375	44570.11
712.719	44608.76
713.063	44534.86
713.407	44617.8
713.75	44439.72
714.094	44472.04
714.438	44296
714.782	44085.61
715.125	43936.91
715.469	44156.34
715.812	43843.58
716.156	43696.46
716.499	43660.76
716.843	43618.5
717.186	43447.43
717.53	43516.36
717.873	43542.57
718.216	43350.71
718.559	43298.28
718.902	43023.71
719.246	43148.91
719.589	42936.94
719.932	42928.57
720.275	42802.48
720.617	42671.63
720.96	42669.6
721.303	42670.73
721.646	42548.7
721.989	42327.23
722.331	42542.14
722.674	42299.21
723.016	42428.93
723.359	42246.11
723.701	42210.18
724.044	41952.33
724.386	41945.78
724.729	41956.62
725.071	41798.66
725.413	41841.37
725.755	41816.97
726.097	41578.1
726.439	41358.22
726.782	41445.68
727.124	41497.65
727.465	41186.7
727.807	41314.15
728.149	41184.21
728.491	41039.13
728.833	41232.35
729.175	40997.1
729.516	40875.75
729.858	40884.79
730.199	40778.8
730.541	40661.74
730.882	40719.14
731.224	40692.02
731.565	40574.74
731.906	40492.48
732.248	40597.11
732.589	40168.2
732.93	40212.49
733.271	40119.83
733.612	40226.5
733.953	40257.23
734.294	39976.79
734.635	39930.01
734.976	39962.32
735.317	39788.54
735.658	39766.17
735.999	39787.41
736.339	39630.81
736.68	39715.33
737.021	39544.71
737.361	39420.19
737.702	39532.73
738.042	39431.72
738.383	39302.46
738.723	39363.7
739.063	39095
739.404	39158.28
739.744	39192.4
740.084	38948.11
740.424	39072.4
740.764	38822.24
741.104	38904.05
741.444	38759.87
741.784	38615.92
742.124	38740.44
742.464	38603.72
742.804	38529.59
743.143	38483.04
743.483	38434
743.823	38152.88
744.162	38245.31
744.502	38336.38
744.841	38004.18
745.181	38188.59
745.52	38001.92
745.86	38112.88
746.199	37903.4
746.538	37786.34
746.877	37841.93
747.216	37796.73
747.556	37605.55
747.895	37672.89
748.234	37444.65
748.573	37443.07
748.911	37428.61
749.25	37410.08
749.589	37250.76
749.928	37082.4
750.267	37282.85
750.605	37246.46
750.944	37011.89
751.283	36859.58
751.621	36983.65
751.96	36614.84
752.298	36662.75
752.636	36665.69
752.975	36533.94
753.313	36442.42
753.651	36535.75
753.989	36194.51
754.327	36286.94
754.666	35970.79
755.004	36062.99
755.342	36088.3
755.679	35886.73
756.017	35794.75
756.355	35829.55
756.693	35636.11
757.031	35694.87
757.368	35479.05
757.706	35291.71
758.044	35254.2
758.381	35260.3
758.719	34975.79
759.056	35163.36
759.394	35048.1
759.731	34701.9
760.068	34694.67
760.405	34551.62
760.743	34389.14
761.08	34527.89
761.417	34231.18
761.754	34321.12
762.091	34203.15
762.428	34110.05
762.765	33844.52
763.102	33853.33
763.438	33725.65
763.775	33670.06
764.112	33474.81
764.449	33492.66
764.785	33292.67
765.122	33087.25
765.458	33145.56
765.795	33069.62
766.131	32965.67
766.467	32947.59
766.804	32609.3
767.14	32463.54
767.476	32546.7
767.812	32339.47
768.148	32376.76
768.485	32137.22
768.821	31962.31
769.157	31995.08
769.492	31843.67
769.828	31833.95
770.164	31544.47
770.5	31521.19
770.836	31400.74
771.171	31215.66
771.507	31108.32
771.842	31029.23
772.178	30966.63
772.513	30834.88
772.849	30728.44
773.184	30547.43
773.519	30637.6
773.855	30386.76
774.19	30332.75
774.525	30285.52
774.86	30236.25
775.195	30097.5
775.53	29912.65
775.865	29855.7
776.2	29537.74
776.535	29470.85
776.87	29454.13
777.205	29388.82
777.539	29182.72
777.874	29325.77
778.209	29016.62
778.543	28934.37
778.878	28706.58
779.212	28716.74
779.547	28551.78
779.881	28605.56
780.215	28423.19
780.55	28343.65
780.884	28317.43
781.218	28178
781.552	28102.52
781.886	28009.87
782.22	27795.64
782.554	27688.75
782.888	27474.74
783.222	27420.96
783.556	27233.17
783.889	27239.04
784.223	27140.97
784.557	26994.53
784.89	27025.72
785.224	26918.83
785.557	26676.8
785.891	26660.08
786.224	26573.98
786.558	26553.41
786.891	26285.4
787.224	26073.88
787.557	26126.3
787.891	26152.52
788.224	26086.98
788.557	26016.02
788.89	26000.66
789.223	25903.94
789.556	25725.19
789.888	25611.06
790.221	25448.58
790.554	25330.17
790.887	25273.22
791.219	25170.85
791.552	25150.51
791.884	24996.62
792.217	24916.62
792.549	24830.07
792.882	24687.92
793.214	24666.23
793.546	24700.13
793.879	24519.79
794.211	24381.04
794.543	24402.96
794.875	24268.05
795.207	24383.3
795.539	24111.22
795.871	23989.19
796.203	23919.58
796.535	23779.93
796.867	23752.13
797.198	23657.89
797.53	23713.26
797.862	23622.19
798.193	23574.06
798.525	23406.83
798.856	23459.71
799.188	23158.92
799.519	23116.21
799.85	22998.93
800.182	23046.39
800.513	23006.16
800.844	22718.03
801.175	22826.28
801.506	22869.22
801.837	22616.34
802.168	22636
802.499	22526.17
802.83	22486.17
803.161	22385.61
803.491	22450.69
803.822	22406.4
804.153	22238.05
804.483	22212.06
804.814	22040.99
805.145	22001.67
805.475	21981.78
805.805	21865.4
806.136	21814.55
806.466	21822.24
806.796	21668.79
807.126	21634.67
807.457	21458.18
807.787	21567.33
808.117	21434
808.447	21326.66
808.777	21433.77
809.107	21193.33
809.436	21174.34
809.766	21169.37
810.096	21153.55
810.426	21029.26
810.755	21008.47
811.085	20942.71
811.414	20858.65
811.744	20664.98
812.073	20663.85
812.403	20645.54
812.732	20500.24
813.061	20542.27
813.39	20405.55
813.719	20379.79
814.049	20462.95
814.378	20445.32
814.707	20292.79
815.036	20094.82
815.365	20083.3
815.693	19912.91
816.022	20029.74
816.351	19956.52
816.68	19770.09
817.008	19950.42
817.337	19774.61
817.665	19651.67
817.994	19705.46
818.322	19697.1
818.651	19594.95
818.979	19631.79
819.307	19666.14
819.636	19531.22
819.964	19395.18
820.292	19413.49
820.62	19428.85
820.948	19373.49
821.276	19437.21
821.604	19382.75
821.932	19356.77
822.259	19389.76
822.587	19322.64
822.915	19209.42
823.243	19442.86
823.57	19282.19
823.898	19391.34
824.225	19271.8
824.553	19227.95
824.88	19328.07
825.207	19295.07
825.535	19202.64
825.862	19331.91
826.189	19214.17
826.516	19261.85
826.843	19356.99
827.17	19347.27
827.497	19309.53
827.824	19209.88
828.151	19383.21
828.478	19312.92
828.805	19383.66
829.131	19224.11
829.458	19240.84
829.785	19167.17
830.111	19077.22
830.438	19347.27
830.764	19152.48
831.09	19091.46
831.417	19011.46
831.743	19149.99
832.069	19229.99
832.395	19072.03
832.722	19150.89
833.048	19089.2
833.374	19066.38
833.7	19016.66
834.026	19016.44
834.351	19028.19
834.677	18879.04
835.003	19008.3
835.329	19013.27
835.654	18925.59
835.98	18902.54
836.306	18832.71
836.631	18744.35
836.956	18837.68
837.282	18767.18
837.607	18798.14
837.932	18655.77
838.258	18633.62
838.583	18612.6
838.908	18485.83
839.233	18587.97
839.558	18524.47
839.883	18487.41
840.208	18407.19
840.533	18357.92
840.858	18396.11
841.182	18360.41
841.507	18358.83
841.832	18285.61
842.156	18235.66
842.481	18165.16
842.805	18205.38
843.13	18088.32
843.454	18074.54
843.778	17931.94
844.103	17980.53
844.427	17989.34
844.751	17851.49
845.075	17817.37
845.399	17950.7
845.723	17730.59
846.047	17813.08
846.371	17597.49
846.695	17592.52
847.019	17459.87
847.343	17350.26
847.666	17237.95
847.99	17159.53
848.313	17157.95
848.637	17085.41
848.96	17036.37
849.284	16960.67
849.607	16844.29
849.931	16934.23
850.254	16712.09
850.577	16517.07
850.9	16462.15
851.223	16523.39
851.546	16429.38
851.869	16309.39
852.192	16401.59
852.515	16250.86
852.838	16154.59
853.161	16159.56
853.483	16211.99
853.806	15982.84
854.129	15977.87
854.451	15874.14
854.774	15924.09
855.096	15779.91
855.419	15776.75
855.741	15639.8
856.063	15648.39
856.385	15603.19
856.708	15604.55
857.03	15489.52
857.352	15562.29
857.674	15489.07
857.996	15370.88
858.318	15250.21
858.64	15303.31
858.961	15237.33
859.283	15224.9
859.605	15152.36
859.926	15230.77
860.248	15068.97
860.57	15007.27
860.891	15065.13
861.212	14974.73
861.534	14881.4
861.855	14962.98
862.176	14940.84
862.498	14916.66
862.819	14859.03
863.14	14808.41
863.461	14646.61
863.782	14696.77
864.103	14672.14
864.424	14685.7
864.745	14637.79
865.065	14649.54
865.386	14515.31
865.707	14543.56
866.027	14574.52
866.348	14466.72
866.668	14475.31
866.989	14483.22
867.309	14353.28
867.63	14357.35
867.95	14303.79
868.27	14242.32
868.59	14372.49
868.91	14266.5
869.23	14187.41
869.55	14148.09
869.87	14204.13
870.19	14239.39
870.51	14116.68
870.83	14152.61
871.15	14099.95
871.469	14038.03
871.789	14102.67
872.109	14078.49
872.428	13895.89
872.748	14085.49
873.067	13989.45
873.386	13975.21
873.706	13964.59
874.025	13893.63
874.344	13847.98
874.663	13883.69
874.982	13838.94
875.301	13862.22
875.62	13803.01
875.939	13751.94
876.258	13821.54
876.577	13705.84
876.896	13642.34
877.214	13614.32
877.533	13662.45
877.852	13632.4
878.17	13654.77
878.489	13560.99
878.807	13587.43
879.125	13567.09
879.444	13478.95
879.762	13480.99
880.08	13459.29
880.398	13383.59
880.716	13409.35
881.034	13420.42
881.352	13403.93
881.67	13345.4
881.988	13387.43
882.306	13231.28
882.624	13162.13
882.941	13154.89
883.259	13172.75
883.577	13119.41
883.894	13135.01
884.212	13048.68
884.529	13025.41
884.846	12973.88
885.164	13000.32
885.481	12913.54
885.798	13042.35
886.115	12856.82
886.432	12810.95
886.75	12827.67
887.067	12884.62
887.383	12707.67
887.7	12748.58
888.017	12698.18
888.334	12674.23
888.651	12589.03
888.967	12586.1
889.284	12579.32
889.6	12504.52
889.917	12407.8
890.233	12473.33
890.55	12375.71
890.866	12430.62
891.182	12340
891.498	12250.74
891.815	12318.76
892.131	12213.22
892.447	12231.53
892.763	12173.23
893.079	12138.88
893.395	12033.79
893.71	12120.57
894.026	12048.93
894.342	12024.53
894.657	11856.17
894.973	11944.08
895.289	11884.65
895.604	11813.23
895.92	11743.63
896.235	11730.07
896.55	11732.78
896.865	11682.39
897.181	11620.92
897.496	11584.09
897.811	11556.29
898.126	11457.54
898.441	11393.13
898.756	11381.83
899.071	11391.32
899.386	11383.19
899.7	11334.6
900.015	11291.44
900.33	11159.47
900.644	11198.34
900.959	11135.74
901.273	11095.74
901.588	11086.47
901.902	10905.24
902.216	10956.08
902.531	10921.51
902.845	10881.51
903.159	10827.95
903.473	10827.05
903.787	10715.18
904.101	10646.49
904.415	10718.57
904.729	10658.01
905.042	10573.72
905.356	10561.97
905.67	10530.56
905.984	10497.34
906.297	10459.6
906.611	10401.97
906.924	10338.02
907.237	10358.81
907.551	10331.47
907.864	10284.01
908.177	10201.53
908.491	10164.69
908.804	10064.58
909.117	9998.59
909.43	10031.13
909.743	9979.84
910.056	9979.38
910.368	9891.48
910.681	9890.12
910.994	9831.59
911.307	9750.46
911.619	9696.91
911.932	9704.36
912.244	9663.91
912.557	9662.78
912.869	9533.52
913.181	9578.49
913.494	9578.04
913.806	9452.84
914.118	9445.39
914.43	9322.9
914.742	9344.37
915.054	9319.74
915.366	9224.83
915.678	9208.33
915.99	9239.74
916.302	9079.97
916.613	9131.5
916.925	9084.49
917.236	9065.28
917.548	8953.42
917.859	8999.3
918.171	8899.41
918.482	8849.02
918.794	8877.04
919.105	8792.52
919.416	8778.51
919.727	8775.57
920.038	8683.37
920.349	8637.5
920.66	8582.36
920.971	8615.35
921.282	8519.99
921.593	8511.63
921.903	8482.25
922.214	8417.17
922.525	8408.58
922.835	8372.42
923.146	8350.05
923.456	8273.89
923.767	8220.79
924.077	8266.89
924.387	8192.99
924.697	8108.25
925.008	8104.86
925.318	8083.16
925.628	8057.18
925.938	8058.53
926.248	7876.16
926.558	7883.62
926.867	7921.59
927.177	7924.98
927.487	7841.59
927.796	7734.92
928.106	7784.87
928.416	7728.14
928.725	7671.65
929.034	7719.1
929.344	7635.27
929.653	7649.28
929.962	7491.77
930.271	7517.3
930.581	7469.17
930.89	7418.77
931.199	7403.86
931.508	7301.26
931.817	7427.14
932.125	7375.39
932.434	7270.53
932.743	7226.91
933.051	7214.49
933.36	7228.04
933.669	7139.46
933.977	7130.87
934.286	7062.63
934.594	7058.11
934.902	7077.09
935.21	7021.5
935.519	6965.9
935.827	6918.22
936.135	6907.37
936.443	6849.52
936.751	6819.92
937.059	6801.39
937.367	6760.94
937.674	6750.09
937.982	6703.31
938.29	6717.1
938.597	6658.34
938.905	6610.21
939.213	6593.48
939.52	6594.39
939.827	6616.08
940.135	6516.2
940.442	6459.03
940.749	6500.83
941.056	6423.55
941.363	6418.57
941.67	6352.14
941.977	6369.31
942.284	6254.96
942.591	6280.05
942.898	6191.01
943.205	6250.67
943.511	6197.34
943.818	6148.98
944.125	6133.84
944.431	6125.93
944.738	6129.32
945.044	6031.69
945.35	6021.3
945.657	6066.49
945.963	5993.5
946.269	5987.63
946.575	5944.01
946.881	5883.45
947.187	5887.29
947.493	5853.17
947.799	5815.2
948.105	5794.64
948.41	5737.91
948.716	5748.76
949.022	5694.98
949.327	5707.41
949.633	5639.16
949.938	5688.42
950.244	5625.83
950.549	5587.86
950.854	5598.93
951.16	5561.65
951.465	5491.37
951.77	5512.84
952.075	5465.15
952.38	5399.39
952.685	5425.83
952.99	5372.05
953.294	5367.3
953.599	5304.25
953.904	5268.32
954.209	5318.49
954.513	5321.65
954.818	5285.04
955.122	5233.07
955.426	5241.2
955.731	5171.38
956.035	5128.89
956.339	5208.44
956.643	5140.64
956.948	5062.45
957.252	5075.56
957.556	5072.62
957.86	5003.92
958.163	5037.59
958.467	4978.84
958.771	4972.51
959.075	4916.92
959.378	4896.13
959.682	4887.31
959.985	4898.16
960.289	4865.62
960.592	4798.96
960.896	4830.82
961.199	4834.66
961.502	4774.78
961.805	4778.84
962.108	4699.3
962.411	4689.13
962.714	4671.05
963.017	4649.81
963.32	4666.3
963.623	4604.84
963.926	4633.76
964.228	4512.41
964.531	4580.2
964.833	4537.49
965.136	4518.74
965.438	4486.2
965.741	4485.07
966.043	4483.71
966.345	4418.85
966.648	4439.64
966.95	4393.99
967.252	4395.8
967.554	4340.44
967.856	4358.29
968.158	4290.49
968.46	4331.85
968.761	4328.46
969.063	4246.2
969.365	4233.55
969.666	4239.42
969.968	4209.14
970.269	4179.31
970.571	4163.94
970.872	4165.75
971.174	4092.53
971.475	4158.29
971.776	4032.65
972.077	4064.74
972.378	4076.94
972.679	4054.12
972.98	3978.41
973.281	4002.14
973.582	3990.39
973.883	3996.04
974.183	3929.83
974.484	3913.78
974.785	3901.58
975.085	3890.28
975.386	3865.42
975.686	3868.58
975.986	3815.48
976.287	3829.26
976.587	3788.59
976.887	3745.2
977.187	3761.47
977.487	3717.18
977.787	3735.25
978.087	3681.7
978.387	3723.73
978.687	3711.07
978.987	3651.64
979.286	3660.45
979.586	3655.26
979.885	3598.08
980.185	3597.86
980.484	3610.96
980.784	3568.03
981.083	3551.53
981.382	3549.05
981.682	3545.66
981.981	3507.01
982.28	3445.54
982.579	3459.78
982.878	3439.67
983.177	3451.87
983.475	3406.45
983.774	3377.75
984.073	3408.48
984.372	3377.75
984.67	3323.74
984.969	3337.3
985.267	3311.09
985.566	3302.95
985.864	3281.93
986.162	3269.5
986.461	3266.79
986.759	3273.12
987.057	3268.83
987.355	3218.88
987.653	3225.66
987.951	3189.73
988.249	3208.04
988.547	3162.84
988.844	3150.41
989.142	3143.18
989.44	3119.68
989.737	3068.15
990.035	3097.98
990.332	3093.01
990.63	3077.19
990.927	3041.26
991.224	3027.25
991.521	3016.4
991.819	3005.1
992.116	2959.68
992.413	2985.22
992.71	2925.78
993.006	2927.14
993.303	2935.95
993.6	2932.79
993.897	2909.51
994.193	2878.78
994.49	2862.06
994.787	2880.59
995.083	2847.59
995.379	2818.22
995.676	2824.77
995.972	2802.62
996.268	2773.47
996.565	2764.88
996.861	2755.39
997.157	2736.41
997.453	2718.56
997.749	2718.56
998.044	2657.54
998.34	2674.94
998.636	2703.64
998.932	2634.27
999.227	2623.19
999.523	2625.23
999.818	2598.11
1000.114	2605.57
1000.409	2584.1
1000.704	2564.89
1001	2535.51
1001.295	2535.29
1001.59	2503.65
1001.885	2514.95
1002.18	2488.51
1002.475	2502.97
1002.77	2467.94
1003.065	2488.96
1003.359	2442.86
1003.654	2449.41
1003.949	2461.39
1004.243	2398.57
1004.538	2372.8
1004.832	2369.19
1005.127	2343.65
1005.421	2339.81
1005.715	2309.98
1006.009	2344.33
1006.304	2315.63
1006.598	2257.78
1006.892	2287.61
1007.186	2226.82
1007.48	2273.6
1007.773	2231.11
1008.067	2221.4
1008.361	2178.91
1008.655	2208.29
1008.948	2190.66
1009.242	2147.95
1009.535	2147.95
1009.829	2119.03
1010.122	2113.15
1010.415	2095.07
1010.708	2141.17
1011.001	2085.35
1011.295	2048.52
1011.588	2100.27
1011.881	2052.59
1012.173	2056.2
1012.466	2003.1
1012.759	2041.06
1013.052	2027.5
1013.344	2019.37
1013.637	1989.54
1013.93	1968.97
1014.222	1936.43
1014.514	1956.32
1014.807	1952.48
1015.099	1934.85
1015.391	1909.31
1015.683	1931.69
1015.976	1880.16
1016.268	1878.35
1016.56	1824.34
1016.851	1808.98
1017.143	1845.59
1017.435	1824.57
1017.727	1832.93
1018.018	1803.33
1018.31	1818.7
1018.602	1776.44
1018.893	1768.75
1019.185	1735.08
1019.476	1753.61
1019.767	1742.09
1020.058	1718.58
1020.35	1700.73
1020.641	1714.74
1020.932	1697.12
1021.223	1693.5
1021.514	1670.9
1021.804	1642.2
1022.095	1666.61
1022.386	1642.65
1022.677	1637.46
1022.967	1582.77
1023.258	1612.6
1023.548	1587.29
1023.839	1589.1
1024.129	1585.71
1024.419	1599.49
1024.709	1541.41
1025	1554.07
1025.29	1528.08
1025.58	1484.47
1025.87	1510.45
1026.16	1490.34
1026.449	1484.24
1026.739	1465.94
1027.029	1442.21
1027.319	1440.85
1027.608	1438.37
1027.898	1462.32
1028.187	1434.52
1028.477	1416.9
1028.766	1397.01
1029.055	1380.29
1029.344	1382.1
1029.634	1371.25
1029.923	1358.37
1030.212	1348.42
1030.501	1331.93
1030.79	1337.58
1031.078	1317.47
1031.367	1280.63
1031.656	1313.62
1031.945	1279.73
1032.233	1288.54
1032.522	1288.99
1032.81	1275.43
1033.099	1257.35
1033.387	1261.87
1033.675	1243.12
1033.963	1238.6
1034.251	1213.97
1034.54	1197.02
1034.828	1230.69
1035.116	1199.95
1035.403	1195.21
1035.691	1167.19
1035.979	1192.95
1036.267	1173.74
1036.554	1146.62
1036.842	1159.96
1037.129	1154.53
1037.417	1144.36
1037.704	1155.21
1037.992	1127.87
1038.279	1133.97
1038.566	1075.66
1038.853	1075.66
1039.14	1075.66
