Data from White_paper_FLMS001491_097.txt Node
Date: Tue Feb 07 10:35:50 GMT 2017
User: dcchb
Spectrometer: FLMS00149
Trigger mode: 0
Integration Time (sec): 2.000000E-2
Scans to average: 10
Electric dark correction enabled: true
Nonlinearity correction enabled: false
Boxcar width: 0
XAxis mode: Wavelengths
Number of Pixels in Spectrum: 2048
>>>>>Begin Spectral Data<<<<<
341.393	-0.79
341.776	-0.79
342.16	-0.79
342.543	-62.94
342.927	-47.12
343.31	-66.1
343.693	-61.58
344.077	-71.07
344.46	-46.44
344.843	-65.42
345.226	-45.54
345.61	-42.82
345.993	-15.03
346.376	-1.02
346.759	20.68
347.142	20.23
347.525	44.63
347.908	53.9
348.291	65.87
348.674	104.07
349.057	105.65
349.44	131.18
349.823	151.97
350.206	176.38
350.588	213.67
350.971	236.26
351.354	269.48
351.737	271.29
352.119	278.98
352.502	274
352.884	297.73
353.267	307.22
353.65	325.75
354.032	324.17
354.414	350.16
354.797	346.54
355.179	337.51
355.562	371.63
355.944	364.85
356.326	371.4
356.709	368.92
357.091	347.45
357.473	358.3
357.855	361.46
358.238	393.32
358.62	364.62
359.002	363.72
359.384	354.68
359.766	375.7
360.148	377.73
360.53	396.26
360.912	380.22
361.294	371.85
361.676	374.11
362.057	376.37
362.439	367.79
362.821	363.95
363.203	362.59
363.584	379.09
363.966	356.49
364.348	372.76
364.729	361.23
365.111	377.05
365.493	359.65
365.874	355.36
366.256	340.67
366.637	366.88
367.019	362.59
367.4	366.21
367.781	362.82
368.163	348.35
368.544	351.29
368.925	358.07
369.306	364.4
369.688	364.4
370.069	365.75
370.45	355.13
370.831	371.63
371.212	353.78
371.593	358.3
371.974	357.62
372.355	363.72
372.736	360.1
373.117	356.94
373.498	364.17
373.879	380.67
374.26	358.52
374.641	364.62
375.021	378.86
375.402	356.26
375.783	366.88
376.163	391.06
376.544	394
376.925	381.57
377.305	393.55
377.686	377.28
378.066	389.71
378.447	384.28
378.827	389.48
379.208	383.38
379.588	406.2
379.968	394.68
380.349	421.8
380.729	398.75
381.109	408.24
381.489	391.29
381.87	382.93
382.25	385.87
382.63	436.03
383.01	410.05
383.39	414.11
383.77	434.45
384.15	426.32
384.53	437.62
384.91	418.41
385.29	429.25
385.67	422.93
386.049	445.3
386.429	466.09
386.809	457.28
387.189	472.42
387.568	471.51
387.948	452.3
388.328	462.7
388.707	470.16
389.087	471.74
389.466	493.66
389.846	459.99
390.225	481.91
390.605	481.68
390.984	515.81
391.363	514
391.743	479.87
392.122	512.42
392.501	543.38
392.881	523.49
393.26	526.43
393.639	506.09
394.018	541.34
394.397	521
394.776	525.07
395.155	524.84
395.534	536.6
395.913	557.84
396.292	570.95
396.671	563.94
397.05	547.44
397.429	575.92
397.808	576.6
398.186	582.02
398.565	585.63
398.944	587.44
399.323	591.51
399.701	596.71
400.08	588.12
400.458	604.16
400.837	641.45
401.215	641.68
401.594	656.37
401.972	633.09
402.351	664.28
402.729	671.73
403.107	697.5
403.486	662.47
403.864	698.17
404.242	691.39
404.62	699.76
404.999	737.95
405.377	729.59
405.755	756.7
406.133	789.7
406.511	803.48
406.889	788.57
407.267	833.09
407.645	817.27
408.023	858.62
408.401	872.63
408.779	887.32
409.156	946.98
409.534	950.37
409.912	950.37
410.29	998.28
410.667	1006.64
411.045	1003.93
411.422	1027.2
411.8	1085.73
412.178	1089.12
412.555	1113.98
412.933	1150.59
413.31	1189.23
413.687	1213.87
414.065	1225.39
414.442	1267.2
414.819	1283.47
415.197	1308.78
415.574	1353.75
415.951	1343.58
416.328	1394.43
416.705	1420.41
417.082	1411.6
417.46	1452.96
417.837	1468.55
418.214	1523.46
418.591	1551.48
418.967	1542.45
419.344	1590.81
419.721	1611.37
420.098	1601.43
420.475	1658.15
420.852	1687.75
421.228	1713.29
421.605	1717.81
421.982	1754.19
422.358	1761.2
422.735	1833.06
423.111	1803.46
423.488	1866.96
423.864	1876
424.241	1879.84
424.617	1937.92
424.994	1904.02
425.37	1979.5
425.746	1974.98
426.123	1998.03
426.499	2026.5
426.875	2083.22
427.251	2105.59
427.627	2155.99
428.003	2199.15
428.379	2182.43
428.756	2243.67
429.132	2263.56
429.507	2288.64
429.883	2357.11
430.259	2371.12
430.635	2368.86
431.011	2444.34
431.387	2514.4
431.763	2562.31
432.138	2525.24
432.514	2569.08
432.89	2583.1
433.265	2659.48
433.641	2713.94
434.016	2730.89
434.392	2756.65
434.767	2841.62
435.143	2802.98
435.518	2872.81
435.894	2892.47
436.269	2971.56
436.644	2982.18
437.02	2986.25
437.395	3059.24
437.77	3087.49
438.145	3128.17
438.52	3169.75
438.895	3218.79
439.271	3261.95
439.646	3285.9
440.021	3319.8
440.395	3316.18
440.77	3281.83
441.145	3345.11
441.52	3437.31
441.895	3405.9
442.27	3476.18
442.645	3430.98
443.019	3444.77
443.394	3506.69
443.769	3562.96
444.143	3507.14
444.518	3589.62
444.892	3580.58
445.267	3612
445.641	3681.82
446.016	3666.01
446.39	3727.92
446.764	3744.87
447.139	3718.66
447.513	3813.8
447.887	3810.63
448.262	3805.44
448.636	3840.01
449.01	3897.41
449.384	3906
449.758	3911.42
450.132	3972.66
450.506	3974.25
450.88	4062.83
451.254	4046.11
451.628	4086.56
452.002	4123.39
452.376	4174.47
452.75	4262.37
453.123	4235.48
453.497	4324.97
453.871	4353.9
454.244	4443.39
454.618	4435.48
454.992	4519.09
455.365	4543.5
455.739	4619.2
456.112	4701.68
456.486	4680.67
456.859	4743.49
457.232	4820.78
457.606	4863.94
457.979	4922.47
458.352	4964.73
458.725	5085.18
459.099	5103.26
459.472	5166.3
459.845	5270.71
460.218	5264.61
460.591	5289.92
460.964	5402
461.337	5462.12
461.71	5567.88
462.083	5630.47
462.456	5667.31
462.829	5666.63
463.201	5778.72
463.574	5780.07
463.947	5901.2
464.32	5974.65
464.692	6058.94
465.065	6097.58
465.438	6262.32
465.81	6287.63
466.183	6325.37
466.555	6499.6
466.928	6552.03
467.3	6516.1
467.672	6691.91
468.045	6793.83
468.417	6843.77
468.789	6934.39
469.161	7026.59
469.534	7142.52
469.906	7250.09
470.278	7298.68
470.65	7379.81
471.022	7541.38
471.394	7672.23
471.766	7727.14
472.138	7853.92
472.51	8018.66
472.882	8126
473.253	8198.09
473.625	8355.37
473.997	8536.39
474.369	8550.85
474.74	8648.47
475.112	8870.39
475.484	9021.34
475.855	9122.81
476.227	9168.23
476.598	9438.06
476.97	9514.67
477.341	9736.81
477.713	9873.75
478.084	9967.99
478.455	10218.15
478.827	10292.27
479.198	10545.15
479.569	10617.46
479.94	10872.37
480.311	10953.27
480.682	11186.03
481.053	11492.47
481.424	11590.99
481.795	11727.71
482.166	11987.14
482.537	12126.12
482.908	12367.47
483.279	12421.03
483.65	12667.8
484.021	12908.47
484.391	13065.98
484.762	13212.87
485.133	13336.26
485.503	13555.46
485.874	13779.19
486.244	13852.4
486.615	14140.31
486.985	14318.83
487.356	14496.91
487.726	14638.6
488.097	15012.37
488.467	15013.05
488.837	15299.6
489.207	15607.39
489.578	15801.28
489.948	15872.46
490.318	16064.1
490.688	16112.23
491.058	16427.03
491.428	16589.96
491.798	16803.51
492.168	17016.16
492.538	17134.13
492.908	17385.87
493.278	17645.07
493.648	17523.27
494.017	17821.11
494.387	17962.13
494.757	18091.39
495.126	18172.29
495.496	18313.76
495.866	18509.23
496.235	18675.1
496.605	18775.21
496.974	18870.8
497.344	19130.23
497.713	19181.53
498.082	19428.53
498.452	19590.78
498.821	19700.39
499.19	19750.55
499.559	19915.75
499.928	19981.28
500.298	20201.84
500.667	20435.73
501.036	20324.78
501.405	20578.78
501.774	20579.91
502.143	20849.28
502.512	20988.71
502.88	21066.23
503.249	21082.5
503.618	21375.37
503.987	21367.01
504.356	21522.03
504.724	21741.91
505.093	21781.24
505.462	21886.54
505.83	22071.4
506.199	22284.27
506.567	22502.57
506.936	22551.84
507.304	22834.54
507.672	22801.77
508.041	22983.69
508.409	23160.86
508.777	23261.65
509.145	23522.21
509.514	23436.33
509.882	23631.58
510.25	23759.26
510.618	23978.69
510.986	24002.19
511.354	24338.46
511.722	24424.1
512.09	24777.54
512.458	24615.28
512.826	24954.94
513.193	25077.19
513.561	25132.79
513.929	25424.53
514.297	25669.04
514.664	25655.48
515.032	25868.36
515.4	26050.73
515.767	26088.47
516.135	26236.94
516.502	26083.95
516.869	26711.95
517.237	26664.5
517.604	26627.89
517.972	27111.94
518.339	27213.18
518.706	27298.83
519.073	27527.98
519.44	27577.47
519.808	27839.61
520.175	27876.22
520.542	28251.8
520.909	28384.68
521.276	28446.37
521.643	28718
522.009	28857.66
522.376	29188.27
522.743	29360.47
523.11	29502.16
523.477	29872.55
523.843	29999.32
524.21	30229.15
524.577	30561.34
524.943	30581.23
525.31	30764.5
525.676	31158.84
526.043	31223.25
526.409	31329.46
526.776	31759.96
527.142	31758.6
527.508	32009.21
527.874	32238.59
528.241	32434.74
528.607	32453.5
528.973	32870.21
529.339	32959.02
529.705	33229.75
530.071	33336.41
530.437	33465.22
530.803	33726.91
531.169	33978.43
531.535	34008.71
531.901	34093.91
532.267	34337.97
532.632	34491.41
532.998	34677.39
533.364	34937.27
533.73	34996.71
534.095	35209.81
534.461	35314.89
534.826	35520.08
535.192	35593.53
535.557	35861.77
535.923	35944.03
536.288	36133.4
536.653	36259.5
537.019	36155.32
537.384	36373.85
537.749	36653.39
538.114	36616.78
538.479	36680.28
538.845	36927.05
539.21	36978.35
539.575	37139.7
539.94	37275.52
540.305	37434.38
540.67	37444.55
541.034	37576.98
541.399	37724.77
541.764	37751.89
542.129	38056.97
542.494	38075.72
542.858	38338.09
543.223	38281.14
543.587	38659.44
543.952	38570.85
544.316	38770.39
544.681	38697.4
545.045	39067.33
545.41	39247.44
545.774	39179.87
546.138	39438.62
546.503	39511.84
546.867	39503.48
547.231	39802.91
547.595	39964.49
547.959	40086.29
548.324	40086.74
548.688	40289
549.052	40430.24
549.416	40491.03
549.779	40565.83
550.143	40550.91
550.507	40962.43
550.871	41114.06
551.235	41040.84
551.599	41302.3
551.962	41392.92
552.326	41489.42
552.689	41731.45
553.053	41617.78
553.417	41763.76
553.78	42227.93
554.143	42214.37
554.507	42319.45
554.87	42421.6
555.234	42798.54
555.597	42555.15
555.96	42743.62
556.323	42981.13
556.686	43103.61
557.05	43310.61
557.413	43525.07
557.776	43560.32
558.139	43862.01
558.502	43959.18
558.865	44012.06
559.228	44244.83
559.59	44358.72
559.953	44417.48
560.316	44985.37
560.679	44830.8
561.041	45196.89
561.404	45288.87
561.767	45426.49
562.129	45396.89
562.492	45936.76
562.854	45775.41
563.217	45768.63
563.579	45978.79
563.941	46272.12
564.304	46442.73
564.666	46782.84
565.028	46734.48
565.39	46781.48
565.753	47183.28
566.115	47169.04
566.477	47493.33
566.839	47479.77
567.201	47810.83
567.563	47828.91
567.925	48139.41
568.287	47987.78
568.648	48035.23
569.01	48472.28
569.372	48630.92
569.734	48551.6
570.095	48757.02
570.457	48977.58
570.819	49041.99
571.18	49039.05
571.542	49291.47
571.903	49401.75
572.265	49545.7
572.626	49586.61
572.987	49707.73
573.349	49850.78
573.71	50009.65
574.071	50029.76
574.432	50255.97
574.794	50447.15
575.155	50327.38
575.516	50320.82
575.877	50472.68
576.238	50521.5
576.599	50735.73
576.96	50779.12
577.32	50826.8
577.681	50902.5
578.042	51049.62
578.403	51063.63
578.763	51017.08
579.124	51267.92
579.485	51333.23
579.845	51466.78
580.206	51317.63
580.566	51392.66
580.927	51431.08
581.287	51610.96
581.648	51495.26
582.008	51643.73
582.368	51556.5
582.728	51736.61
583.089	51717.85
583.449	51777.06
583.809	51800.56
584.169	51862.48
584.529	51842.37
584.889	52018.63
585.249	51868.35
585.609	51817.51
585.969	52069.03
586.329	51875.81
586.688	52034.23
587.048	52004.62
587.408	51970.5
587.768	51905.19
588.127	52139.31
588.487	52027.45
588.846	52246.87
589.206	51982.02
589.565	52052.53
589.925	52243.03
590.284	52192.86
590.643	52200.32
591.003	52292.98
591.362	52403.71
591.721	52251.17
592.08	52330.94
592.44	52343.82
592.799	52323.48
593.158	52365.29
593.517	52387.89
593.876	52400.32
594.235	52425.18
594.593	52456.81
594.952	52517.38
595.311	52420.2
595.67	52514.66
596.029	52613.42
596.387	52636.47
596.746	52824.94
597.104	52598.05
597.463	52606.41
597.822	52775
598.18	52652.06
598.538	52658.16
598.897	52838.27
599.255	52615.9
599.613	53031.26
599.972	52719.18
600.33	52883.02
600.688	52839.85
601.046	52936.57
601.404	53013.18
601.762	53016.57
602.12	53196.68
602.478	53142.9
602.836	53059.51
603.194	52870.59
603.552	53069.45
603.91	52942.68
604.268	53168.66
604.625	53041.66
604.983	53160.3
605.341	53113.52
605.698	53240.52
606.056	53226.96
606.413	53207.53
606.771	53342.89
607.128	53348.77
607.485	53226.06
607.843	53229.67
608.2	53435.09
608.557	53480.97
608.914	53359.16
609.272	53529.55
609.629	53651.58
609.986	53678.93
610.343	53567.07
610.7	53750.56
611.057	53696.55
611.414	53652.71
611.771	53784.69
612.127	53913.5
612.484	53797.79
612.841	53904.91
613.198	53741.07
613.554	53766.83
613.911	54032.82
614.267	53959.82
614.624	53918.47
614.98	53991.24
615.337	54094.06
615.693	53987.62
616.05	54011.35
616.406	54209.76
616.762	54049.09
617.118	54061.97
617.475	54056.77
617.831	54174.73
618.187	54075.98
618.543	54196.65
618.899	54313.26
619.255	54318.46
619.611	54236.2
619.967	54361.17
620.323	54406.37
620.678	54336.31
621.034	54263.32
621.39	54301.28
621.746	54178.58
622.101	54580.82
622.457	54294.96
622.812	54358.91
623.168	54405.91
623.523	54380.6
623.879	54475.29
624.234	54312.81
624.589	54366.59
624.945	54368.4
625.3	54403.43
625.655	54388.29
626.01	54508.51
626.365	54417.44
626.72	54400.26
627.075	54403.88
627.43	54401.17
627.785	54277.56
628.14	54420.6
628.495	54432.35
628.85	54359.14
629.205	54306.71
629.559	54488.62
629.914	54445.01
630.269	54432.58
630.623	54281.62
630.978	54322.3
631.332	54450.88
631.687	54440.49
632.041	54336.76
632.396	54402.3
632.75	54235.75
633.104	54359.14
633.459	54191.68
633.813	54274.39
634.167	54174.96
634.521	54218.12
634.875	54240.27
635.229	54109.88
635.583	54038.69
635.937	54067.39
636.291	54048.86
636.645	54054.06
636.999	54000.5
637.352	54214.96
637.706	53901.07
638.06	54110.55
638.413	54014.96
638.767	53941.07
639.121	54030.1
639.474	53875.08
639.828	53889.77
640.181	53845.7
640.534	53887.06
640.888	53882.31
641.241	53763.22
641.594	53715.08
641.947	53855.65
642.301	53745.82
642.654	53767.51
643.007	53745.14
643.36	53783.11
643.713	53675.76
644.066	53689.1
644.419	53548.08
644.771	53323.91
645.124	53152.84
645.477	53096.8
645.83	52901.09
646.182	52806.63
646.535	52721.21
646.888	52826.75
647.24	52609.13
647.593	52688.22
647.945	52739.52
648.298	52675.11
648.65	52502.91
649.002	52467.66
649.355	52630.82
649.707	52593.08
650.059	52673.76
650.411	53114.65
650.763	53230.13
651.115	53477.35
651.467	53308.54
651.819	53308.99
652.171	53263.35
652.523	53225.61
652.875	53297.47
653.227	53083.69
653.578	53389.67
653.93	53145.38
654.282	53086.63
654.633	53040.3
654.985	53128.66
655.337	53182.9
655.688	53070.81
656.039	53164.36
656.391	52933.86
656.742	52972.05
657.094	52891.83
657.445	53080.98
657.796	53042.33
658.147	52958.95
658.498	52965.27
658.849	53040.98
659.2	52951.49
659.551	52841.89
659.902	53057.93
660.253	52947.2
660.604	52953.97
660.955	52849.12
661.306	52944.26
661.656	52845.05
662.007	52856.35
662.358	52768.44
662.708	52836.24
663.059	52798.72
663.409	52656.58
663.76	52796.92
664.11	52767.54
664.461	52782.23
664.811	52876.01
665.161	52760.99
665.511	52668.78
665.862	52704.94
666.212	52791.49
666.562	52778.84
666.912	52682.8
667.262	52599.86
667.612	52677.82
667.962	52676.92
668.312	52569.58
668.662	52720.99
669.011	52636.7
669.361	52558.73
669.711	52518.96
670.06	52542.91
670.41	52391.28
670.76	52331.62
671.109	52572.06
671.459	52448.45
671.808	52392.86
672.157	52445.29
672.507	52186.76
672.856	52245.29
673.205	52256.82
673.554	52375.91
673.904	52198.29
674.253	52425.63
674.602	52231.06
674.951	51829.26
675.3	51627.91
675.649	52115.8
675.998	51960.78
676.346	52124.62
676.695	52137.05
677.044	51836.04
677.393	52022.25
677.741	51953.78
678.09	51952.42
678.438	51804.17
678.787	51850.28
679.135	51849.37
679.484	51615.25
679.832	51740.45
680.181	51583.84
680.529	51596.27
680.877	51516.05
681.225	51446.67
681.573	51699.09
681.922	51355.82
682.27	51257.75
682.618	51339.1
682.966	51275.15
683.314	51321.7
683.661	51102.95
684.009	50952.9
684.357	50873.8
684.705	50853.92
685.053	50787.7
685.4	50846.91
685.748	50716.29
686.095	50609.63
686.443	50497.77
686.79	50433.14
687.138	50420.03
687.485	50457.09
687.832	50297.32
688.18	50349.52
688.527	50150.43
688.874	50136.42
689.221	49948.86
689.568	49862.98
689.915	49774.17
690.262	49802.42
690.609	49544.8
690.956	49512.71
691.303	49543.9
691.65	49361.53
691.997	49256.22
692.344	49086.28
692.69	49025.94
693.037	49120.86
693.383	48756.12
693.73	48962.89
694.077	48581.21
694.423	48579.4
694.769	48546.86
695.116	48465.28
695.462	48450.59
695.808	48239.75
696.155	48357.94
696.501	48037.72
696.847	47990.04
697.193	47704.17
697.539	47932.64
697.885	47616.04
698.231	47396.83
698.577	47544.4
698.923	47372.43
699.269	47165.2
699.614	46909.84
699.96	47020.57
700.306	46962.27
700.651	46836.17
700.997	46809.96
701.342	46688.83
701.688	46652.9
702.033	46495.61
702.379	46407.25
702.724	46397.76
703.069	46426.91
703.415	45890.21
703.76	45889.75
704.105	45838.23
704.45	45755.97
704.795	45548.07
705.14	45501.52
705.485	45478.01
705.83	45300.16
706.175	45487.73
706.52	45225.59
706.865	45107.4
707.209	45025.37
707.554	44919.38
707.899	44972.04
708.243	44646.62
708.588	44741.54
708.932	44421.54
709.277	44377.93
709.621	44440.75
709.966	44169.35
710.31	44285.28
710.654	43941.56
710.998	44133.19
711.342	44121.89
711.687	43818.4
712.031	43663.15
712.375	43572.3
712.719	43587.67
713.063	43434.9
713.407	43676.48
713.75	43506.99
714.094	43428.8
714.438	43187
714.782	43244.17
715.125	43090.73
715.469	43148.13
715.812	42832.89
716.156	42793.34
716.499	42788.14
716.843	42734.58
717.186	42560.58
717.53	42719.44
717.873	42570.29
718.216	42518.09
718.559	42431.54
718.902	42033.58
719.246	42090.08
719.589	42055.05
719.932	41865.68
720.275	41973.92
720.617	41966.47
720.96	41855.06
721.303	41787.26
721.646	41805.34
721.989	41453.03
722.331	41644.89
722.674	41587.72
723.016	41541.62
723.359	41375.3
723.701	41471.11
724.044	41158.13
724.386	40968.75
724.729	41317.9
725.071	41170.1
725.413	41059.15
725.755	41051.24
726.097	40818.47
726.439	40665.48
726.782	40703.68
727.124	40864.58
727.465	40655.54
727.807	40635.88
728.149	40671.13
728.491	40448.54
728.833	40561.76
729.175	40229.79
729.516	40140.3
729.858	40188.43
730.199	40261.43
730.541	40169
730.882	40120.87
731.224	40136.46
731.565	39991.6
731.906	40001.55
732.248	39926.29
732.589	39710.48
732.93	39676.36
733.271	39554.33
733.612	39795.68
733.953	39703.48
734.294	39546.19
734.635	39393.43
734.976	39492.41
735.317	39228.91
735.658	39385.29
735.999	39312.07
736.339	39141.68
736.68	39287.89
737.021	39162.93
737.361	38976.72
737.702	39176.94
738.042	38924.97
738.383	38818.75
738.723	38990.95
739.063	38826.89
739.404	38848.36
739.744	38707.34
740.084	38506.22
740.424	38582.83
740.764	38587.12
741.104	38495.15
741.444	38427.58
741.784	38290.18
742.124	38356.17
742.464	38308.26
742.804	38232.33
743.143	38165.44
743.483	38207.47
743.823	38010.86
744.162	37988.49
744.502	38080.92
744.841	37843.64
745.181	38127.25
745.52	37879.12
745.86	37914.82
746.199	37757.54
746.538	37718.44
746.877	37796.41
747.216	37733.58
747.556	37553.7
747.895	37513.48
748.234	37482.07
748.573	37469.18
748.911	37338.57
749.25	37313.03
749.589	37061.96
749.928	37002.08
750.267	37137.22
750.605	36987.62
750.944	36951.46
751.283	36776.55
751.621	36845.02
751.96	36635.08
752.298	36736.77
752.636	36629.21
752.975	36486.16
753.313	36527.74
753.651	36571.35
753.989	36219.5
754.327	36241.42
754.666	36044.81
755.004	36110.12
755.342	36077.81
755.679	36063.12
756.017	35770.92
756.355	36013.18
756.693	35731.15
757.031	35678.27
757.368	35709.23
757.706	35498.84
758.044	35386.53
758.381	35413.42
758.719	35279.64
759.056	35305.63
759.394	35203.26
759.731	34935.24
760.068	34861.8
760.405	34663.83
760.743	34601.01
761.08	34797.84
761.417	34462.48
761.754	34452.77
762.091	34194.92
762.428	34234.69
762.765	33994.7
763.102	34123.74
763.438	33965.1
763.775	33836.06
764.112	33852.1
764.449	33875.83
764.785	33636.52
765.122	33329.86
765.458	33363.08
765.795	33293.93
766.131	33234.49
766.467	33116.98
766.804	32859.81
767.14	32810.55
767.476	32831.79
767.812	32672.02
768.148	32695.98
768.485	32448.75
768.821	32269.77
769.157	32240.62
769.492	32132.15
769.828	32259.15
770.164	31811.48
770.5	31810.12
770.836	31822.33
771.171	31629.56
771.507	31529.68
771.842	31355.9
772.178	31295.34
772.513	31170.14
772.849	31142.12
773.184	30943.48
773.519	31077.71
773.855	30848.79
774.19	30681.11
774.525	30567.9
774.86	30617.61
775.195	30527.9
775.53	30296.94
775.865	30155.93
776.2	30068.47
776.535	29817.41
776.87	29882.49
777.205	29668.26
777.539	29623.51
777.874	29663.74
778.209	29313.92
778.543	29231.21
778.878	29159.35
779.212	29144.21
779.547	28899.01
779.881	29007.94
780.215	28788.06
780.55	28751.22
780.884	28559.59
781.218	28659.25
781.552	28546.93
781.886	28339.71
782.22	28320.95
782.554	28119.15
782.888	27914.18
783.222	27823.34
783.556	27677.8
783.889	27687.97
784.223	27472.38
784.557	27431.48
784.89	27508.99
785.224	27317.81
785.557	27218.38
785.891	27181.77
786.224	26994.66
786.558	27077.59
786.891	26729.35
787.224	26664.72
787.557	26592.41
787.891	26614.1
788.224	26454.56
788.557	26587.44
788.89	26464.95
789.223	26308.35
789.556	26071.52
789.888	26128.92
790.221	25985.64
790.554	25844.86
790.887	25788.14
791.219	25755.14
791.552	25614.13
791.884	25535.71
792.217	25499.1
792.549	25213.01
792.882	25157.64
793.214	25089.17
793.546	25222.95
793.879	24902.28
794.211	24837.43
794.543	24998.33
794.875	24759.01
795.207	24817.99
795.539	24699.12
795.871	24596.08
796.203	24394.5
796.535	24295.29
796.867	24296.65
797.198	24255.07
797.53	24137.78
797.862	23889.43
798.193	24091.23
798.525	23794.74
798.856	23967.62
799.188	23653.95
799.519	23660.28
799.85	23387.75
800.182	23441.08
800.513	23559.27
800.844	23283.57
801.175	23390.68
801.506	23337.8
801.837	23291.25
802.168	23138.04
802.499	23100.52
802.83	22868.66
803.161	22808.33
803.491	22898.04
803.822	22831.83
804.153	22693.53
804.483	22484.72
804.814	22445.85
805.145	22403.59
805.475	22295.35
805.805	22358.85
806.136	22303.71
806.466	22341.9
806.796	22235.23
807.126	21990.04
807.457	22060.1
807.787	21997.05
808.117	21933.77
808.447	21826.66
808.777	21858.52
809.107	21813.32
809.436	21788.47
809.766	21708.47
810.096	21463.05
810.426	21480.45
810.755	21465.31
811.085	21411.3
811.414	21344.18
811.744	21261.25
812.073	21112.33
812.403	21260.8
812.732	21030.52
813.061	20979.67
813.39	20931.54
813.719	20943.74
814.049	20954.36
814.378	20880.47
814.707	20757.76
815.036	20710.53
815.365	20643.41
815.693	20453.13
816.022	20476.64
816.351	20455.39
816.68	20265.57
817.008	20481.38
817.337	20127.95
817.665	20176.53
817.994	20221.5
818.322	20142.63
818.651	20100.15
818.979	20050.89
819.307	20095.18
819.636	19995.75
819.964	19829.87
820.292	19970.44
820.62	19904.45
820.948	19857.22
821.276	19929.53
821.604	19855.41
821.932	19883.21
822.259	19968.18
822.587	19815.41
822.915	19706.71
823.243	19904.9
823.57	19801.17
823.898	19667.39
824.225	19703.32
824.553	19765.24
824.88	19709.43
825.207	19820.61
825.535	19654.06
825.862	19757.79
826.189	19791.01
826.516	19748.75
826.843	19814.28
827.17	19817.9
827.497	19708.97
827.824	19799.82
828.151	19762.98
828.478	19787.39
828.805	19753.04
829.131	19672.59
829.458	19706.04
829.785	19554.63
830.111	19463.78
830.438	19769.08
830.764	19631.91
831.09	19670.56
831.417	19573.84
831.743	19630.11
832.069	19677.34
832.395	19536.1
832.722	19567.96
833.048	19503.78
833.374	19522.09
833.7	19443.44
834.026	19525.48
834.351	19488.64
834.677	19487.51
835.003	19502.43
835.329	19484.57
835.654	19381.98
835.98	19321.41
836.306	19344.69
836.631	19238.93
836.956	19296.33
837.282	19331.58
837.607	19231.47
837.932	19080.74
838.258	19106.73
838.583	19213.62
838.908	18974.08
839.233	19093.85
839.558	18930.01
839.883	18894.31
840.208	18931.59
840.533	18852.95
840.858	18917.36
841.182	18857.92
841.507	18857.02
841.832	18756
842.156	18802.78
842.481	18753.07
842.805	18726.63
843.13	18571.6
843.454	18684.59
843.778	18514.2
844.103	18412.51
844.427	18513.52
844.751	18404.37
845.075	18438.05
845.399	18395.79
845.723	18185.17
846.047	18231.95
846.371	18108.34
846.695	17967.78
847.019	17882.35
847.343	17832.86
847.666	17791.51
847.99	17645.75
848.313	17671.51
848.637	17596.03
848.96	17417.96
849.284	17461.35
849.607	17297.29
849.931	17321.24
850.254	17249.15
850.577	17123.96
850.9	16977.75
851.223	16937.52
851.546	16814.81
851.869	16787.02
852.192	16877.64
852.515	16710.86
852.838	16708.37
853.161	16678.54
853.483	16584.99
853.806	16454.37
854.129	16439.68
854.451	16441.04
854.774	16385.67
855.096	16225.9
855.419	16301.15
855.741	16192.91
856.063	16211.66
856.385	16086.92
856.708	16028.17
857.03	15911.11
857.352	15985.46
857.674	15798.79
857.996	15777.33
858.318	15691.23
858.64	15771
858.961	15687.84
859.283	15627.95
859.605	15629.08
859.926	15575.75
860.248	15566.48
860.57	15559.25
860.891	15466.37
861.212	15354.06
861.534	15346.38
861.855	15279.71
862.176	15366.49
862.498	15265.47
862.819	15319.71
863.14	15238.81
863.461	15070
863.782	15153.39
864.103	15092.6
864.424	15104.57
864.745	15072.94
865.065	14979.61
865.386	14914.07
865.707	14974.86
866.027	15021.64
866.348	14881.53
866.668	14962.43
866.989	14812.38
867.309	14760.85
867.63	14734.87
867.95	14825.94
868.27	14675.89
868.59	14703.91
868.91	14616.23
869.23	14644.47
869.55	14600.86
869.87	14665.26
870.19	14616.45
870.51	14621.88
870.83	14573.74
871.15	14386.4
871.469	14489
871.789	14493.74
872.109	14500.07
872.428	14378.27
872.748	14384.82
873.067	14435.89
873.386	14399.28
873.706	14354.76
874.025	14316.57
874.344	14271.38
874.663	14276.12
874.982	14279.06
875.301	14245.16
875.62	14132.4
875.939	14079.29
876.258	14136.01
876.577	14068.44
876.896	14014.43
877.214	14003.81
877.533	14034.77
877.852	14029.8
878.17	13987.99
878.489	14003.36
878.807	13947.77
879.125	13872.06
879.444	13906.19
879.762	13780.09
880.08	13837.04
880.398	13765.85
880.716	13860.31
881.034	13749.36
881.352	13740.77
881.67	13674.78
881.988	13649.02
882.306	13619.64
882.624	13671.17
882.941	13571.73
883.259	13490.15
883.577	13422.36
883.894	13453.09
884.212	13354.56
884.529	13453.09
884.846	13396.82
885.164	13369.7
885.481	13287.22
885.798	13301.23
886.115	13168.35
886.432	13298.29
886.75	13168.13
887.067	13159.77
887.383	13082.93
887.7	13141.69
888.017	13010.84
888.334	12959.55
888.651	12988.92
888.967	12936.72
889.284	12934.91
889.6	12821.92
889.917	12811.53
890.233	12832.09
890.55	12748.03
890.866	12732.21
891.182	12647.92
891.498	12654.7
891.815	12553.23
892.131	12565.43
892.447	12485.21
892.763	12533.34
893.079	12415.38
893.395	12447.02
893.71	12329.51
894.026	12325.66
894.342	12255.38
894.657	12191.2
894.973	12253.58
895.289	12209.06
895.604	12124.09
895.92	12141.26
896.235	12020.36
896.55	12094.94
896.865	12024.66
897.181	11953.92
897.496	11931.32
897.811	11862.17
898.126	11868.5
898.441	11829.63
898.756	11761.16
899.071	11708.05
899.386	11704.21
899.7	11575.4
900.015	11582.63
900.33	11459.92
900.644	11475.97
900.959	11515.06
901.273	11362.98
901.588	11371.57
901.902	11345.13
902.216	11253.83
902.531	11206.82
902.845	11224.9
903.159	11105.13
903.473	11091.12
903.787	11021.74
904.101	10991.91
904.415	10908.3
904.729	10918.92
905.042	10928.19
905.356	10744.24
905.67	10805.03
905.984	10812.48
906.297	10771.13
906.611	10637.12
906.924	10699.27
907.237	10574.52
907.551	10588.31
907.864	10560.97
908.177	10502.21
908.491	10467.18
908.804	10400.74
909.117	10341.76
909.43	10282.1
909.743	10248.43
910.056	10260.63
910.368	10134.08
910.681	10115.33
910.994	10103.12
911.307	9983.81
911.619	9946.29
911.932	10012.51
912.244	9839.4
912.557	9964.14
912.869	9818.61
913.181	9833.3
913.494	9758.27
913.806	9696.36
914.118	9687.09
914.43	9641.89
914.742	9608.9
915.054	9577.71
915.366	9574.1
915.678	9500.65
915.99	9462.46
916.302	9431.5
916.613	9431.73
916.925	9324.84
917.236	9329.81
917.548	9290.94
917.859	9250.27
918.171	9211.85
918.482	9085.98
918.794	9004.4
919.105	9065.41
919.416	9011.18
919.727	8981.12
920.038	8998.97
920.349	8890.5
920.66	8847.11
920.971	8859.32
921.282	8838.07
921.593	8723.73
921.903	8671.52
922.214	8623.16
922.525	8632.88
922.835	8609.15
923.146	8541.58
923.456	8523.96
923.767	8429.04
924.077	8445.54
924.387	8439.89
924.697	8356.96
925.008	8358.76
925.318	8323.28
925.628	8304.08
925.938	8251.2
926.248	8195.83
926.558	8142.05
926.867	8105.66
927.177	8093.91
927.487	8021.82
927.796	7937.08
928.106	7901.83
928.416	7880.58
928.725	7934.14
929.034	7884.43
929.344	7858.89
929.653	7824.54
929.962	7766.01
930.271	7705.22
930.581	7741.15
930.89	7679.23
931.199	7581.38
931.508	7561.27
931.817	7607.14
932.125	7533.93
932.434	7527.15
932.743	7398.34
933.051	7455.28
933.36	7398.56
933.669	7332.35
933.977	7319.92
934.286	7322.86
934.594	7327.83
934.902	7250.54
935.21	7190.66
935.519	7242.63
935.827	7166.7
936.135	7113.6
936.443	7052.81
936.751	6997.9
937.059	6993.38
937.367	7007.16
937.674	6933.26
937.982	6960.83
938.29	6885.36
938.597	6893.72
938.905	6783.21
939.213	6755.87
939.52	6778.69
939.827	6738.01
940.135	6720.16
940.442	6672.93
940.749	6654.18
941.056	6679.94
941.363	6588.87
941.67	6523.56
941.977	6533.05
942.284	6482.88
942.591	6472.94
942.898	6417.8
943.205	6417.12
943.511	6396.1
943.818	6345.71
944.125	6314.98
944.431	6251.25
944.738	6263
945.044	6231.59
945.35	6223
945.657	6183.91
945.963	6127.18
946.269	6182.32
946.575	6116.11
946.881	6080.86
947.187	6041.99
947.493	6011.48
947.799	6025.27
948.105	5919.96
948.41	5863.46
948.716	5883.35
949.022	5875.44
949.327	5875.21
949.633	5832.73
949.938	5782.33
950.244	5809.68
950.549	5736.69
950.854	5772.62
951.16	5700.08
951.465	5671.83
951.77	5685.16
952.075	5661.21
952.38	5579.63
952.685	5529.46
952.99	5546.63
953.294	5550.7
953.599	5469.12
953.904	5489.01
954.209	5461.89
954.513	5486.97
954.818	5437.71
955.122	5373.31
955.426	5334.21
955.731	5323.59
956.035	5334.21
956.339	5298.5
956.643	5255.12
956.948	5245.62
957.252	5220.09
957.556	5221.44
957.86	5223.25
958.163	5152.29
958.467	5122.92
958.771	5126.31
959.075	5113.65
959.378	5091.73
959.682	5055.57
959.985	5016.93
960.289	4946.65
960.592	4941.68
960.896	4934.9
961.199	4933.99
961.502	4904.62
961.805	4838.86
962.108	4837.05
962.411	4830.49
962.714	4805.18
963.017	4818.52
963.32	4792.08
963.623	4759.31
963.926	4720.67
964.228	4745.52
964.531	4674.11
964.833	4679.76
965.136	4619.2
965.438	4583.72
965.741	4610.39
966.043	4510.73
966.345	4521.35
966.648	4527.9
966.95	4568.13
967.252	4446.1
967.554	4488.81
967.856	4480.9
968.158	4409.94
968.46	4377.63
968.761	4406.1
969.063	4376.95
969.365	4325.2
969.666	4360.22
969.968	4258.08
970.269	4242.04
970.571	4283.62
970.872	4225.09
971.174	4247.01
971.475	4198.19
971.776	4189.16
972.077	4175.37
972.378	4154.35
972.679	4162.72
972.98	4156.84
973.281	4115.94
973.582	4098.08
973.883	4044.53
974.183	4056.28
974.484	4058.76
974.785	4038.42
975.085	3986
975.386	3951.42
975.686	3948.03
975.986	3961.14
976.287	3932.89
976.587	3905.1
976.887	3900.12
977.187	3863.74
977.487	3868.03
977.787	3852.67
978.087	3794.36
978.387	3815.83
978.687	3807.24
978.987	3785.32
979.286	3757.08
979.586	3716.63
979.885	3722.05
980.185	3673.69
980.484	3668.04
980.784	3675.04
981.083	3651.54
981.382	3621.03
981.682	3604.76
981.981	3597.08
982.28	3580.13
982.579	3549.4
982.878	3559.79
983.177	3552.56
983.475	3490.19
983.774	3490.64
984.073	3472.56
984.372	3444.99
984.67	3442.96
984.969	3425.79
985.267	3412.23
985.566	3408.84
985.864	3433.24
986.162	3396.86
986.461	3333.81
986.759	3334.49
987.057	3282.96
987.355	3303.08
987.653	3328.39
987.951	3272.34
988.249	3268.05
988.547	3249.52
988.844	3243.64
989.142	3218.33
989.44	3186.24
989.737	3177.43
990.035	3152.12
990.332	3103.31
990.63	3147.6
990.927	3072.57
991.224	3127.49
991.521	3131.56
991.819	3109.86
992.116	3033.48
992.413	3044.78
992.71	3014.27
993.006	3013.37
993.303	2985.12
993.6	2959.58
993.897	2979.92
994.193	2974.27
994.49	2919.13
994.787	2925.91
995.083	2902.86
995.379	2868.51
995.676	2871.9
995.972	2902.64
996.268	2883.43
996.565	2851.79
996.861	2837.33
997.157	2827.61
997.453	2766.14
997.749	2766.82
998.044	2755.07
998.34	2746.03
998.636	2723.21
998.932	2723.21
999.227	2710.78
999.523	2683.66
999.818	2668.07
1000.114	2682.08
1000.409	2661.29
1000.704	2647.28
1001	2614.06
1001.295	2587.84
1001.59	2593.49
1001.885	2578.12
1002.18	2553.94
1002.475	2551.23
1002.77	2543.32
1003.065	2494.28
1003.359	2550.78
1003.654	2497.9
1003.949	2468.52
1004.243	2455.19
1004.538	2459.03
1004.832	2444.12
1005.127	2421.07
1005.421	2402.54
1005.715	2386.49
1006.009	2378.58
1006.304	2363.89
1006.598	2314.4
1006.892	2310.79
1007.186	2309.2
1007.48	2298.58
1007.773	2296.78
1008.067	2268.08
1008.361	2256.1
1008.655	2246.38
1008.948	2253.84
1009.242	2259.04
1009.535	2219.72
1009.829	2207.96
1010.122	2170.23
1010.415	2193.05
1010.708	2184.69
1011.001	2160.96
1011.295	2141.07
1011.588	2084.8
1011.881	2112.6
1012.173	2087.52
1012.466	2071.47
1012.759	2079.83
1013.052	2059.04
1013.344	2027.63
1013.637	2015.88
1013.93	2011.36
1014.222	2005.94
1014.514	2008.2
1014.807	1988.76
1015.099	1980.4
1015.391	1962.32
1015.683	1932.94
1015.976	1919.61
1016.268	1938.82
1016.56	1894.53
1016.851	1872.15
1017.143	1873.28
1017.435	1857.01
1017.727	1878.93
1018.018	1854.53
1018.31	1844.58
1018.602	1827.64
1018.893	1800.07
1019.185	1814.08
1019.476	1794.42
1019.767	1760.52
1020.058	1778.82
1020.35	1744.47
1020.641	1737.02
1020.932	1701.31
1021.223	1696.34
1021.514	1704.25
1021.804	1702.44
1022.095	1665.83
1022.386	1647.3
1022.677	1641.65
1022.967	1647.08
1023.258	1608.66
1023.548	1619.96
1023.839	1608.66
1024.129	1577.92
1024.419	1605.72
1024.709	1554.2
1025	1591.71
1025.29	1551.48
1025.58	1538.38
1025.87	1501.77
1026.16	1500.41
1026.449	1511.94
1026.739	1508.55
1027.029	1482.11
1027.319	1470.58
1027.608	1462.9
1027.898	1438.95
1028.187	1440.3
1028.477	1468.77
1028.766	1420.19
1029.055	1428.55
1029.344	1401.88
1029.634	1396.01
1029.923	1429.23
1030.212	1405.73
1030.501	1378.61
1030.79	1363.02
1031.078	1371.15
1031.367	1344.03
1031.656	1350.13
1031.945	1354.65
1032.233	1315.78
1032.522	1283.7
1032.81	1316.01
1033.099	1287.76
1033.387	1290.7
1033.675	1285.73
1033.963	1272.85
1034.251	1264.03
1034.54	1257.93
1034.828	1229.46
1035.116	1231.49
1035.403	1244.83
1035.691	1228.56
1035.979	1193.08
1036.267	1168.67
1036.554	1186.3
1036.842	1184.49
1037.129	1165.05
1037.417	1175.9
1037.704	1199.4
1037.992	1149.69
1038.279	1150.14
1038.566	1135.22
1038.853	1135.22
1039.14	1135.22
