Data from White_paper_FLMS001491_075.txt Node
Date: Tue Feb 07 10:35:32 GMT 2017
User: dcchb
Spectrometer: FLMS00149
Trigger mode: 0
Integration Time (sec): 2.000000E-2
Scans to average: 10
Electric dark correction enabled: true
Nonlinearity correction enabled: false
Boxcar width: 0
XAxis mode: Wavelengths
Number of Pixels in Spectrum: 2048
>>>>>Begin Spectral Data<<<<<
341.393	-0.61
341.776	-0.61
342.16	-0.61
342.543	-74.28
342.927	-65.01
343.31	-86.03
343.693	-75.41
344.077	-57.78
344.46	-59.36
344.843	-68.63
345.226	-40.61
345.61	-50.32
345.993	-11.68
346.376	2.1
346.759	16.34
347.142	40.52
347.525	51.37
347.908	74.42
348.291	72.84
348.674	82.78
349.057	109.45
349.44	131.14
349.823	136.56
350.206	159.84
350.588	195.77
350.971	236.45
351.354	257.46
351.737	263.57
352.119	285.03
352.502	280.74
352.884	304.24
353.267	309.22
353.65	315.99
354.032	322.32
354.414	327.75
354.797	341.53
355.179	338.82
355.562	347.86
355.944	355.77
356.326	350.12
356.709	354.64
357.091	368.2
357.473	382.66
357.855	357.58
358.238	378.37
358.62	366.39
359.002	363.9
359.384	361.64
359.766	355.32
360.148	381.08
360.53	354.19
360.912	379.95
361.294	390.57
361.676	377.24
362.057	363.9
362.439	354.41
362.821	370.68
363.203	363.68
363.584	359.16
363.966	370.46
364.348	367.74
364.729	364.35
365.111	386.5
365.493	375.43
365.874	366.61
366.256	365.94
366.637	357.35
367.019	344.92
367.4	342.66
367.781	355.32
368.163	354.19
368.544	346.73
368.925	355.99
369.306	352.38
369.688	363
370.069	360.74
370.45	354.64
370.831	373.39
371.212	353.73
371.593	344.24
371.974	386.73
372.355	381.3
372.736	373.85
373.117	378.59
373.498	368.65
373.879	368.42
374.26	349.89
374.641	360.06
375.021	369.78
375.402	400.06
375.783	371.36
376.163	396.67
376.544	401.19
376.925	402.77
377.305	365.48
377.686	402.77
378.066	382.89
378.447	399.83
378.827	388.31
379.208	411.81
379.588	385.82
379.968	413.62
380.349	424.69
380.729	410.91
381.109	421.53
381.489	427.18
381.87	421.3
382.25	418.59
382.63	418.36
383.01	423.56
383.39	460.62
383.77	415.43
384.15	418.59
384.53	423.34
384.91	454.97
385.29	460.4
385.67	453.39
386.049	447.74
386.429	452.49
386.809	450.68
387.189	469.66
387.568	472.83
387.948	473.28
388.328	480.96
388.707	472.6
389.087	477.57
389.466	464.01
389.846	498.81
390.225	502.2
390.605	492.04
390.984	521.86
391.363	516.67
391.743	533.39
392.122	492.04
392.501	545.14
392.881	533.62
393.26	535.88
393.639	528.64
394.018	550.34
394.397	555.54
394.776	557.12
395.155	559.15
395.534	576.55
395.913	572.26
396.292	566.38
396.671	597.12
397.05	591.92
397.429	583.78
397.808	599.6
398.186	607.51
398.565	606.38
398.944	642.77
399.323	619.72
399.701	607.06
400.08	626.27
400.458	635.08
400.837	647.29
401.215	654.29
401.594	658.58
401.972	680.05
402.351	680.73
402.729	688.19
403.107	698.36
403.486	751.01
403.864	725.7
404.242	756.89
404.62	716.89
404.999	756.89
405.377	789.43
405.755	799.37
406.133	837.34
406.511	812.03
406.889	844.79
407.267	850.9
407.645	872.36
408.023	887.96
408.401	915.53
408.779	942.87
409.156	947.39
409.534	964.57
409.912	1027.84
410.29	1023.55
410.667	1087.73
411.045	1077.33
411.422	1129.76
411.8	1100.83
412.178	1175.18
412.555	1194.39
412.933	1216.54
413.31	1265.12
413.687	1243.88
414.065	1279.36
414.442	1306.7
414.819	1340.6
415.197	1376.08
415.574	1393.48
415.951	1439.35
416.328	1467.38
416.705	1478
417.082	1491.1
417.46	1538.34
417.837	1589.86
418.214	1579.69
418.591	1606.58
418.967	1672.12
419.344	1672.12
419.721	1695.85
420.098	1710.31
420.475	1749.86
420.852	1771.32
421.228	1810.19
421.605	1835.95
421.982	1848.84
422.358	1854.03
422.735	1892
423.111	1896.97
423.488	1977.42
423.864	1979.68
424.241	1992.11
424.617	2007.25
424.994	2065.1
425.37	2077.98
425.746	2074.14
426.123	2107.36
426.499	2122.05
426.875	2187.13
427.251	2222.39
427.627	2251.99
428.003	2293.12
428.379	2326.56
428.756	2351.2
429.132	2406.34
429.507	2481.81
429.883	2470.74
430.259	2539.89
430.635	2499.89
431.011	2569.04
431.387	2623.05
431.763	2697.4
432.138	2702.82
432.514	2738.76
432.89	2743.5
433.265	2831.63
433.641	2860.56
434.016	2869.6
434.392	2940.78
434.767	2991.86
435.143	3022.82
435.518	3041.12
435.894	3099.88
436.269	3137.39
436.644	3189.37
437.02	3225.07
437.395	3185.3
437.77	3304.16
438.145	3348.01
438.52	3356.14
438.895	3366.76
439.271	3416.25
439.646	3506.87
440.021	3519.98
440.395	3545.74
440.77	3552.52
441.145	3520.43
441.52	3599.52
441.895	3626.87
442.27	3631.16
442.645	3620.99
443.019	3706.87
443.394	3708
443.769	3787.09
444.143	3709.8
444.518	3786.41
444.892	3808.33
445.267	3823.7
445.641	3880.19
446.016	3919.06
446.39	3926.3
446.764	3939.4
447.139	3983.92
447.513	4000.87
447.887	4011.94
448.262	4019.85
448.636	4010.13
449.01	4150.92
449.384	4117.48
449.758	4120.64
450.132	4192.28
450.506	4236.34
450.88	4281.77
451.254	4282.44
451.628	4324.48
452.002	4412.38
452.376	4407.86
452.75	4446.73
453.123	4505.71
453.497	4536.9
453.871	4572.83
454.244	4711.36
454.618	4692.83
454.992	4804.01
455.365	4806.5
455.739	4888.08
456.112	4931.24
456.486	4955.65
456.859	5027.51
457.232	5157.22
457.606	5128.98
457.979	5209.2
458.352	5302.3
458.725	5425.01
459.099	5397.22
459.472	5460.94
459.845	5547.95
460.218	5627.95
460.591	5649.87
460.964	5674.72
461.337	5835.62
461.71	5903.87
462.083	5998.1
462.456	6017.99
462.829	6043.75
463.201	6157.87
463.574	6143.86
463.947	6236.74
464.32	6459.79
464.692	6426.12
465.065	6465.21
465.438	6525.1
465.81	6661.36
466.183	6712.66
466.555	6878.53
466.928	6921.02
467.3	6913.34
467.672	7029.49
468.045	7179.09
468.417	7190.62
468.789	7328.69
469.161	7394.45
469.534	7539.53
469.906	7712.41
470.278	7757.83
470.65	7848.68
471.022	8012.74
471.394	8113.08
471.766	8262.23
472.138	8376.35
472.51	8487.98
472.882	8564.14
473.253	8711.93
473.625	8811.36
473.997	9014.75
474.369	9082.09
474.74	9218.36
475.112	9353.72
475.484	9520.72
475.855	9692.92
476.227	9729.08
476.598	10042.07
476.97	10096.08
477.341	10285.68
477.713	10464.43
478.084	10517.31
478.455	10854.47
478.827	10928.6
479.198	11194.13
479.569	11277.06
479.94	11542.82
480.311	11653.32
480.682	11888.8
481.053	12193.2
481.424	12303.7
481.795	12459.18
482.166	12687.65
482.537	12857.13
482.908	13101.42
483.279	13212.38
483.65	13410.57
484.021	13738.01
484.391	13942.98
484.762	13966.03
485.133	14152.47
485.503	14349.75
485.874	14626.8
486.244	14712
486.615	14940.47
486.985	15210.07
487.356	15564.63
487.726	15514.24
488.097	15905.19
488.467	15925.08
488.837	16253.43
489.207	16490.48
489.578	16717.82
489.948	16825.84
490.318	17053.63
490.688	17113.07
491.058	17391.7
491.428	17679.61
491.798	17819.49
492.168	18054.06
492.538	18245.69
492.908	18382.86
493.278	18545.57
493.648	18722.74
494.017	18941.04
494.387	19164.31
494.757	19227.59
495.126	19414.93
495.496	19551.87
495.866	19641.81
496.235	19840
496.605	20046.32
496.974	20157.05
497.344	20317.73
497.713	20480.44
498.082	20593.65
498.452	20795.46
498.821	20881.1
499.19	20997.48
499.559	21150.25
499.928	21342.33
500.298	21504.36
500.667	21641.76
501.036	21617.81
501.405	21870.91
501.774	21896.22
502.143	22084.91
502.512	22236.32
502.88	22477.22
503.249	22426.37
503.618	22619.36
503.987	22688.06
504.356	22860.71
504.724	23039.01
505.093	23128.5
505.462	23108.16
505.83	23422.05
506.199	23651.88
506.567	23880.57
506.936	23864.98
507.304	24222.48
507.672	24307.23
508.041	24354.46
508.409	24578.63
508.777	24685.75
509.145	24875.12
509.514	24879.42
509.882	25083.7
510.25	25211.84
510.618	25358.73
510.986	25448.67
511.354	25628.1
511.722	25888.88
512.09	26172.26
512.458	26125.03
512.826	26518.92
513.193	26484.12
513.561	26557.79
513.929	26846.6
514.297	27008.17
514.664	27245.46
515.032	27356.19
515.4	27671.43
515.767	27659
516.135	27885.89
516.502	27715.05
516.869	28354.81
517.237	28318.42
517.604	28296.95
517.972	28663.95
518.339	28875.24
518.706	28969.93
519.073	29013.32
519.44	29221.45
519.808	29541.44
520.175	29594.32
520.542	29977.36
520.909	30084.25
521.276	30141.2
521.643	30417.58
522.009	30574.18
522.376	30839.26
522.743	31060.27
523.11	31408.74
523.477	31573.25
523.843	31772.34
524.21	32087.36
524.577	32385.89
524.943	32502.49
525.31	32704.3
525.676	32947.23
526.043	33158.52
526.409	33235.81
526.776	33530.49
527.142	33669.24
527.508	33862.23
527.874	34148.1
528.241	34253.41
528.607	34450.01
528.973	34806.39
529.339	34808.19
529.705	35187.39
530.071	35393.94
530.437	35607.5
530.803	35770.43
531.169	35848.85
531.535	35909.18
531.901	36151.66
532.267	36382.62
532.632	36541.48
532.998	36592.33
533.364	36889.95
533.73	36898.08
534.095	37197.96
534.461	37328.35
534.826	37635.01
535.192	37677.72
535.557	37962.46
535.923	38023.7
536.288	38171.04
536.653	38424.6
537.019	38351.38
537.384	38450.81
537.749	38684.48
538.114	38724.93
538.479	38879.27
538.845	39034.98
539.21	39155.88
539.575	39274.74
539.94	39367.4
540.305	39694.39
540.67	39541.63
541.034	39799.25
541.399	40032.69
541.764	39955.18
542.129	40213.7
542.494	40373.7
542.858	40544.32
543.223	40673.58
543.587	40822.5
543.952	40728.49
544.316	41013
544.681	41095.71
545.045	41373.9
545.41	41408.25
545.774	41559.66
546.138	41553.55
546.503	41772.08
546.867	41804.4
547.231	42155.57
547.595	42167.1
547.959	42362.57
548.324	42402.35
548.688	42432.63
549.052	42635.11
549.416	42673.07
549.779	42754.2
550.143	42988.77
550.507	43294.98
550.871	43462.66
551.235	43304.47
551.599	43580.85
551.962	43751.46
552.326	43871.91
552.689	44174.95
553.053	44058.57
553.417	44166.37
553.78	44503.99
554.143	44395.06
554.507	44678.67
554.87	44760.7
555.234	45243.63
555.597	44905.1
555.96	45150.07
556.323	45377.41
556.686	45377.18
557.05	45753.44
557.413	45941.46
557.776	45976.94
558.139	46077.73
558.502	46157.5
558.865	46232.75
559.228	46697.83
559.59	46652.63
559.953	46875.22
560.316	47337.36
560.679	47211.71
561.041	47438.15
561.404	47616.67
561.767	47804.92
562.129	47718.36
562.492	48253.94
562.854	48161.52
563.217	48236.32
563.579	48472.02
563.941	48527.38
564.304	48718.34
564.666	48879.92
565.028	49039.23
565.39	49193.81
565.753	49371.43
566.115	49570.07
566.477	49691.42
566.839	49737.07
567.201	50060.68
567.563	50021.13
567.925	50251.63
568.287	50387.45
568.648	50259.54
569.01	50629.47
569.372	50626.08
569.734	50606.42
570.095	50917.15
570.457	51022.01
570.819	51153.53
571.18	51153.53
571.542	51391.04
571.903	51419.96
572.265	51571.37
572.626	51674.42
572.987	51779.73
573.349	51895.2
573.71	51973.62
574.071	51991.25
574.432	52216.55
574.794	52416.77
575.155	52290
575.516	52322.08
575.877	52549.88
576.238	52555.98
576.599	52670.55
576.96	52672.58
577.32	52654.96
577.681	52859.92
578.042	52963.42
578.403	52930.2
578.763	53012.69
579.124	53045
579.485	53237.77
579.845	53218.78
580.206	53235.51
580.566	53305.34
580.927	53360.48
581.287	53406.8
581.648	53402.06
582.008	53504.65
582.368	53509.17
582.728	53578.1
583.089	53545.33
583.449	53552.33
583.809	53693.35
584.169	53635.5
584.529	53613.58
584.889	53856.96
585.249	53642.95
585.609	53599.11
585.969	53773.35
586.329	53767.24
586.688	53821.03
587.048	53825.77
587.408	53772.89
587.768	53888.82
588.127	53839.33
588.487	53786.45
588.846	54080.68
589.206	53860.8
589.565	53896.05
589.925	54020.35
590.284	53951.87
590.643	54016.96
591.003	54127.46
591.362	54150.74
591.721	54117.07
592.08	54135.37
592.44	54284.52
592.799	54242.26
593.158	54158.42
593.517	54231.41
593.876	54314.12
594.235	54217.85
594.593	54260.34
594.952	54290.62
595.311	54211.3
595.67	54396.38
596.029	54460.11
596.387	54466.44
596.746	54400.67
597.104	54451.29
597.463	54348.7
597.822	54553.44
598.18	54504.63
598.538	54460.33
598.897	54638.63
599.255	54365.19
599.613	54722.93
599.972	54568.35
600.33	54688.8
600.688	54553.66
601.046	54724.06
601.404	54788.46
601.762	54700.55
602.12	54795.69
602.478	54844.73
602.836	54804.51
603.194	54704.85
603.552	54841.57
603.91	54726.32
604.268	54862.58
604.625	54839.08
604.983	54930.83
605.341	54730.16
605.698	54980.32
606.056	54982.13
606.413	54927.89
606.771	55074.1
607.128	55094.44
607.485	54941.9
607.843	55038.85
608.2	55133.99
608.557	55265.74
608.914	55092.18
609.272	55335.79
609.629	55253.31
609.986	55326.75
610.343	55269.8
610.7	55442.68
611.057	55383.47
611.414	55340.08
611.771	55468.44
612.127	55522.23
612.484	55460.99
612.841	55545.5
613.198	55516.35
613.554	55450.14
613.911	55647.65
614.267	55585.28
614.624	55584.82
614.98	55585.28
615.337	55746.85
615.693	55712.05
616.05	55618.72
616.406	55880.41
616.762	55743.69
617.118	55793.63
617.475	55713.63
617.831	55816.91
618.187	55791.15
618.543	55845.38
618.899	55963.12
619.255	55898.49
619.611	55889.67
619.967	55946.17
620.323	56020.97
620.678	55893.06
621.034	55916.34
621.39	55858.04
621.746	55850.35
622.101	56240.17
622.457	55905.49
622.812	56016.22
623.168	56016
623.523	56025.04
623.879	56109.33
624.234	55902.1
624.589	56003.12
624.945	56120.18
625.3	56083.57
625.655	56074.53
626.01	56106.39
626.365	56037.69
626.72	56068.43
627.075	56050.35
627.43	55986.85
627.785	56021.42
628.14	56094.87
628.495	56132.15
628.85	56121.53
629.205	55974.87
629.559	56169.67
629.914	55950.46
630.269	56057.81
630.623	56018.48
630.978	55949.33
631.332	56052.16
631.687	56121.98
632.041	55973.29
632.396	56073.85
632.75	55930.35
633.104	55932.39
633.459	55900.97
633.813	55846.96
634.167	55871.82
634.521	55885.83
634.875	55830.02
635.229	55780.07
635.583	55778.49
635.937	55746.18
636.291	55730.36
636.645	55708.66
636.999	55576.24
637.352	55740.98
637.706	55481.78
638.06	55740.3
638.413	55672.05
638.767	55570.81
639.121	55624.6
639.474	55504.15
639.828	55515.45
640.181	55554.32
640.534	55608.55
640.888	55502.57
641.241	55338.5
641.594	55404.49
641.947	55508.67
642.301	55414.43
642.654	55448.78
643.007	55453.53
643.36	55412.62
643.713	55372.4
644.066	55511.83
644.419	55241.78
644.771	55065.74
645.124	54796.6
645.477	54861
645.83	54610.16
646.182	54532.65
646.535	54491.29
646.888	54552.31
647.24	54371.3
647.593	54537.17
647.945	54527.68
648.298	54397.28
648.65	54392.54
649.002	54265.99
649.355	54416.94
649.707	54324.29
650.059	54472.31
650.411	54792.75
650.763	54853.77
651.115	55139.86
651.467	55000.66
651.819	55002.47
652.171	54904.84
652.523	54879.76
652.875	54971.51
653.227	54767.22
653.578	54963.6
653.93	54909.81
654.282	54871.4
654.633	54719.08
654.985	54777.84
655.337	54823.71
655.688	54784.84
656.039	54841.34
656.391	54553.21
656.742	54698.29
657.094	54672.31
657.445	54795.01
657.796	54751.4
658.147	54678.18
658.498	54612.65
658.849	54627.79
659.2	54692.87
659.551	54525.19
659.902	54709.59
660.253	54595.47
660.604	54607.67
660.955	54482.03
661.306	54596.38
661.656	54438.64
662.007	54458.98
662.358	54551.4
662.708	54529.71
663.059	54549.37
663.409	54358.19
663.76	54552.08
664.11	54488.81
664.461	54524.06
664.811	54543.72
665.161	54503.04
665.511	54449.03
665.862	54416.72
666.212	54503.72
666.562	54471.63
666.912	54406.55
667.262	54334.24
667.612	54401.35
667.962	54425.53
668.312	54289.49
668.662	54425.98
669.011	54410.39
669.361	54230.06
669.711	54301.02
670.06	54212.66
670.41	54125.43
670.76	54097.63
671.109	54190.96
671.459	54128.14
671.808	54131.98
672.157	54131.08
672.507	53969.95
672.856	53880.91
673.205	54056.5
673.554	54043.4
673.904	54058.54
674.253	54112.09
674.602	54028.25
674.951	53511.88
675.3	53454.26
675.649	53953.45
675.998	53808.83
676.346	53864.19
676.695	53939.22
677.044	53717.75
677.393	53818.99
677.741	53834.81
678.09	53612.45
678.438	53634.82
678.787	53649.28
679.135	53630.75
679.484	53426.01
679.832	53484.09
680.181	53431.89
680.529	53442.51
680.877	53289.52
681.225	53350.76
681.573	53424.65
681.922	53249.29
682.27	53041.61
682.618	53181.72
682.966	53103.99
683.314	53174.94
683.661	52998.45
684.009	52825.8
684.357	52757.78
684.705	52801.17
685.053	52718.68
685.4	52640.95
685.748	52628.29
686.095	52485.7
686.443	52441.86
686.79	52331.12
687.138	52455.19
687.485	52315.76
687.832	52245.93
688.18	52227.17
688.527	52057.23
688.874	52082.09
689.221	51988.08
689.568	51891.14
689.915	51824.7
690.262	51789.22
690.609	51677.13
690.956	51585.61
691.303	51505.83
691.65	51411.83
691.997	51419.74
692.344	51159.18
692.69	51094.77
693.037	51142.91
693.383	50863.14
693.73	51004.15
694.077	50827.89
694.423	50765.06
694.769	50668.34
695.116	50536.59
695.462	50544.5
695.808	50460.44
696.155	50405.52
696.501	50192.88
696.847	50155.14
697.193	49910.4
697.539	50083.95
697.885	49697.29
698.231	49670.4
698.577	49705.88
698.923	49561.25
699.269	49447.36
699.614	49368.72
699.96	49203.3
700.306	49183.18
700.651	49034.04
700.997	48897.77
701.342	48833.81
701.688	48802.4
702.033	48702.97
702.379	48697.1
702.724	48458.23
703.069	48523.54
703.415	48175.08
703.76	48148.86
704.105	48142.53
704.45	48041.07
704.795	47957
705.14	47817.57
705.485	47817.12
705.83	47600.17
706.175	47555.2
706.52	47516.56
706.865	47399.28
707.209	47305.95
707.554	47149.57
707.899	47304.82
708.243	47046.29
708.588	47044.26
708.932	46732.85
709.277	46816.69
709.621	46708.45
709.966	46453.76
710.31	46589.81
710.654	46189.14
710.998	46296.71
711.342	46313.2
711.687	46157.5
712.031	46057.84
712.375	45895.59
712.719	45858.75
713.063	45931.29
713.407	45898.75
713.75	45817.4
714.094	45684.29
714.438	45575.14
714.782	45539.89
715.125	45344.42
715.469	45351.65
715.812	45189.62
716.156	45025.78
716.499	45097.42
716.843	45098.55
717.186	44863.52
717.53	44910.3
717.873	44907.36
718.216	44816.97
718.559	44635.96
718.902	44360.94
719.246	44468.96
719.589	44373.82
719.932	44186.48
720.275	44292.69
720.617	44123.2
720.96	44085.24
721.303	44071.45
721.646	44088.63
721.989	43661.3
722.331	43926.6
722.674	43641.86
723.016	43746.04
723.359	43606.16
723.701	43695.19
724.044	43423.34
724.386	43243
724.729	43487.29
725.071	43203
725.413	43240.52
725.755	43297.01
726.097	43135.66
726.439	42960.75
726.782	42973.86
727.124	42935.89
727.465	42893.41
727.807	42785.84
728.149	42753.52
728.491	42524.6
728.833	42750.36
729.175	42542
729.516	42495.68
729.858	42271.73
730.199	42403.7
730.541	42226.98
730.882	42060.43
731.224	42216.36
731.565	42037.84
731.906	42046.2
732.248	42185.18
732.589	41827.9
732.93	41683.27
733.271	41811.4
733.612	41913.54
733.953	41926.2
734.294	41653.66
734.635	41465.2
734.976	41617.06
735.317	41358.53
735.658	41397.63
735.999	41334.58
736.339	41239.44
736.68	41412.77
737.021	41119.89
737.361	41049.39
737.702	41163.73
738.042	41092.55
738.383	40945.21
738.723	41017.07
739.063	40844.42
739.404	40981.37
739.744	40812.56
740.084	40646.91
740.424	40761.03
740.764	40507.48
741.104	40648.27
741.444	40480.14
741.784	40330.76
742.124	40456.86
742.464	40322.63
742.804	40408.05
743.143	40135.29
743.483	40280.59
743.823	40106.81
744.162	40017.32
744.502	40182.97
744.841	39822.98
745.181	40101.62
745.52	39779.59
745.86	39904.78
746.199	39706.82
746.538	39771.68
746.877	39918.12
747.216	39671.12
747.556	39478.35
747.895	39554.96
748.234	39431.35
748.573	39400.62
748.911	39266.61
749.25	39237.01
749.589	39222.77
749.928	39118.82
750.267	39190.45
750.605	38973.28
750.944	38896.22
751.283	38822.33
751.621	38972.61
751.96	38603.35
752.298	38760.63
752.636	38634.31
752.975	38537.59
753.313	38291.04
753.651	38518.61
753.989	38131.72
754.327	38256.92
754.666	38036.58
755.004	38216.92
755.342	38229.35
755.679	37886.31
756.017	37834.56
756.355	37884.72
756.693	37768.57
757.031	37730.83
757.368	37582.81
757.706	37498.75
758.044	37343.72
758.381	37294.23
758.719	37211.52
759.056	37257.62
759.394	37069.38
759.731	36795.71
760.068	36858.99
760.405	36653.34
760.743	36480.92
761.08	36628.71
761.417	36346.23
761.754	36336.97
762.091	36207.71
762.428	36113.25
762.765	35954.38
763.102	36096.97
763.438	35790.77
763.775	35731.33
764.112	35687.49
764.449	35687.49
764.785	35574.73
765.122	35371.34
765.458	35166.83
765.795	35228.75
766.131	35078.24
766.467	35042.09
766.804	34770.46
767.14	34574.98
767.476	34674.41
767.812	34433.74
768.148	34419.28
768.485	34326.17
768.821	34086.63
769.157	34003.02
769.492	34002.11
769.828	33910.82
770.164	33681.67
770.5	33464.95
770.836	33503.14
771.171	33321.45
771.507	33356.48
771.842	33034.46
772.178	33096.83
772.513	33049.82
772.849	32955.59
773.184	32712.66
773.519	32760.57
773.855	32565.09
774.19	32312.44
774.525	32256.62
774.86	32292.78
775.195	32218.88
775.53	32013.92
775.865	31844.43
776.2	31604.66
776.535	31389.08
776.87	31369.64
777.205	31395.86
777.539	31205.58
777.874	31312.02
778.209	31159.48
778.543	30968.3
778.878	30770.79
779.212	30750.45
779.547	30627.51
779.881	30525.6
780.215	30387.29
780.55	30455.32
780.884	30223.91
781.218	30152.5
781.552	30075.89
781.886	29901.21
782.22	29783.47
782.554	29842
782.888	29504.38
783.222	29230.94
783.556	29371.5
783.889	29167.44
784.223	28983.04
784.557	28964.28
784.89	29111.62
785.224	28864.17
785.557	28582.82
785.891	28637.06
786.224	28561.81
786.558	28507.34
786.891	28108.71
787.224	28174.47
787.557	28176.28
787.891	27998.88
788.224	27876.63
788.557	28037.53
788.89	27819.23
789.223	27753.01
789.556	27470.31
789.888	27564.32
790.221	27292.46
790.554	27143.54
790.887	27214.27
791.219	27083.43
791.552	26993.03
791.884	27025.35
792.217	26821.74
792.549	26764.56
792.882	26498.81
793.214	26412.94
793.546	26525.47
793.879	26341.07
794.211	26158.93
794.543	26298.14
794.875	26286.61
795.207	26122.77
795.539	26031.48
795.871	25984.02
796.203	25737.92
796.535	25579.74
796.867	25614.31
797.198	25528.44
797.53	25432.17
797.862	25348.1
798.193	25311.72
798.525	25153.53
798.856	25256.36
799.188	24939.53
799.519	24823.37
799.85	24802.81
800.182	24780.44
800.513	24875.57
800.844	24564.4
801.175	24618.18
801.506	24586.54
801.837	24515.13
802.168	24364.4
802.499	24353.33
802.83	24204.63
803.161	24113.56
803.491	24074.24
803.822	24095.93
804.153	23945.2
804.483	23812.55
804.814	23671.99
805.145	23663.18
805.475	23600.13
805.805	23497.98
806.136	23554.71
806.466	23374.15
806.796	23422.05
807.126	23330.76
807.457	23189.07
807.787	23186.13
808.117	23198.33
808.447	23058
808.777	23206.01
809.107	23069.75
809.436	22909.98
809.766	22821.17
810.096	22744.33
810.426	22600.15
810.755	22661.85
811.085	22685.8
811.414	22457.56
811.744	22390.44
812.073	22319.03
812.403	22347.96
812.732	22271.58
813.061	22170.79
813.39	22204.68
813.719	22055.99
814.049	22145.93
814.378	22006.95
814.707	21856.9
815.036	21905.94
815.365	21681.31
815.693	21642.89
816.022	21666.39
816.351	21538.26
816.68	21480.41
817.008	21507.98
817.337	21377.14
817.665	21234.99
817.994	21360.19
818.322	21349.34
818.651	21253.52
818.979	21138.72
819.307	21190.7
819.636	21117.93
819.964	20960.42
820.292	21111.38
820.62	21062.12
820.948	20951.84
821.276	21047.65
821.604	20916.81
821.932	20985.51
822.259	20941.44
822.587	20816.47
822.915	20846.3
823.243	20903.93
823.57	20805.63
823.898	20905.51
824.225	20843.59
824.553	20752.75
824.88	20804.5
825.207	20883.14
825.535	20833.2
825.862	20862.35
826.189	20767.43
826.516	20860.54
826.843	20869.58
827.17	20917.26
827.497	20867.09
827.824	20752.75
828.151	20775.57
828.478	20794.55
828.805	20924.49
829.131	20792.52
829.458	20788.68
829.785	20694.67
830.111	20799.07
830.438	20864.15
830.764	20794.1
831.09	20874.55
831.417	20694.89
831.743	20828.45
832.069	20689.02
832.395	20698.51
832.722	20689.7
833.048	20587.1
833.374	20603.82
833.7	20480.21
834.026	20566.76
834.351	20533.09
834.677	20573.31
835.003	20541.23
835.329	20538.97
835.654	20502.36
835.98	20433.43
836.306	20408.8
836.631	20348.01
836.956	20303.04
837.282	20394.34
837.607	20246.77
837.932	20208.35
838.258	20192.53
838.583	20232.08
838.908	20044.74
839.233	20094.23
839.558	20124.74
839.883	20014.91
840.208	20013.33
840.533	19964.97
840.858	19976.27
841.182	19960.22
841.507	19944.63
841.832	19731.08
842.156	19752.55
842.481	19781.7
842.805	19679.1
843.13	19671.64
843.454	19561.59
843.778	19642.72
844.103	19523.4
844.427	19486.56
844.751	19514.13
845.075	19320.47
845.399	19364.76
845.723	19254.48
846.047	19250.19
846.371	19071.43
846.695	19127.93
847.019	18862.4
847.343	18885.45
847.666	18751.44
847.99	18663.31
848.313	18642.52
848.637	18466.48
848.96	18472.13
849.284	18557.1
849.607	18279.59
849.931	18229.2
850.254	18221.51
850.577	18022.2
850.9	17931.58
851.223	17885.25
851.546	17824.23
851.869	17750.34
852.192	17826.49
852.515	17639.61
852.838	17560.06
853.161	17537.01
853.483	17480.29
853.806	17288.66
854.129	17324.81
854.451	17314.19
854.774	17240.3
855.096	17175.89
855.419	17075.1
855.741	17051.6
856.063	16958.72
856.385	16951.04
856.708	16921.89
857.03	16736.58
857.352	16813.41
857.674	16732.51
857.996	16746.97
858.318	16637.37
858.64	16715.11
858.961	16556.02
859.283	16457.94
859.605	16425.18
859.926	16497.26
860.248	16389.92
860.57	16301.79
860.891	16290.04
861.212	16239.42
861.534	16150.83
861.855	16150.61
862.176	16112.87
862.498	16135.69
862.819	16104.28
863.14	16037.39
863.461	16002.14
863.782	15990.61
864.103	15958.3
864.424	15815.47
864.745	15832.87
865.065	15820.67
865.386	15807.79
865.707	15688.92
866.027	15757.62
866.348	15765.98
866.668	15702.03
866.989	15643.05
867.309	15621.13
867.63	15552.66
867.95	15650.96
868.27	15444.64
868.59	15545.42
868.91	15442.15
869.23	15485.31
869.55	15436.27
869.87	15480.12
870.19	15419.33
870.51	15403.73
870.83	15373.9
871.15	15238.09
871.469	15340.68
871.789	15324.41
872.109	15311.08
872.428	15126
872.748	15209.39
873.067	15245.55
873.386	15180.01
873.706	15249.84
874.025	15010.98
874.344	15029.05
874.663	15089.62
874.982	15076.96
875.301	14977.08
875.62	14942.5
875.939	14938.89
876.258	14938.43
876.577	14884.88
876.896	14874.26
877.214	14749.97
877.533	14832.67
877.852	14784.31
878.17	14788.83
878.489	14679.68
878.807	14785.44
879.125	14718.55
879.444	14705.22
879.762	14724.88
880.08	14658.67
880.398	14659.35
880.716	14539.58
881.034	14493.25
881.352	14463.42
881.67	14400.37
881.988	14447.15
882.306	14381.16
882.624	14339.81
882.941	14330.77
883.259	14282.86
883.577	14210.54
883.894	14279.92
884.212	14203.09
884.529	14242.63
884.846	14107.27
885.164	14201.73
885.481	14094.39
885.798	14114.28
886.115	13949.76
886.432	14003.54
886.75	13941.85
887.067	13999.02
887.383	13885.13
887.7	13930.1
888.017	13808.97
888.334	13796.09
888.651	13758.8
888.967	13648.98
889.284	13620.96
889.6	13603.78
889.917	13496.44
890.233	13510.9
890.55	13491.24
890.866	13470.22
891.182	13426.38
891.498	13371.47
891.815	13317.23
892.131	13258.03
892.447	13276.56
892.763	13182.32
893.079	13150.69
893.395	13188.88
893.71	13045.83
894.026	13065.49
894.342	12966.96
894.657	12859.85
894.973	12882.67
895.289	12899.62
895.604	12877.92
895.92	12752.73
896.235	12710.47
896.55	12735.1
896.865	12625.5
897.181	12705.95
897.496	12627.99
897.811	12564.71
898.126	12442.68
898.441	12465.28
898.756	12487.65
899.071	12397.71
899.386	12315.23
899.7	12296.02
900.015	12256.25
900.33	12082.92
900.644	12094.67
900.959	12157.27
901.273	12074.78
901.588	11949.81
901.902	11931.73
902.216	11910.27
902.531	11941.45
902.845	11780.78
903.159	11801.57
903.473	11705.07
903.787	11647.45
904.101	11597.05
904.415	11691.06
904.729	11565.19
905.042	11477.51
905.356	11438.87
905.67	11394.8
905.984	11364.97
906.297	11414.46
906.611	11299.66
906.924	11243.16
907.237	11306.89
907.551	11200.45
907.864	11109.38
908.177	11078.65
908.491	11109.16
908.804	10982.38
909.117	10884.76
909.43	10895.38
909.743	10882.95
910.056	10779.67
910.368	10805.66
910.681	10706.68
910.994	10663.07
911.307	10659.23
911.619	10508.27
911.932	10597.98
912.244	10460.36
912.557	10462.17
912.869	10362.74
913.181	10373.13
913.494	10342.62
913.806	10281.61
914.118	10216.75
914.43	10124.78
914.742	10124.1
915.054	10059.47
915.366	10059.92
915.678	9978.11
915.99	10032.35
916.302	9894.95
916.613	9869.64
916.925	9823.32
917.236	9812.02
917.548	9741.28
917.859	9732.24
918.171	9648.63
918.482	9562.31
918.794	9557.33
919.105	9582.19
919.416	9432.59
919.727	9516.43
920.038	9467.84
920.349	9371.35
920.66	9363.21
920.971	9322.76
921.282	9254.06
921.593	9234.4
921.903	9117.57
922.214	9127.74
922.525	9102.2
922.835	9037.57
923.146	9029.44
923.456	8997.8
923.767	8972.72
924.077	8881.87
924.387	8894.75
924.697	8802.33
925.008	8851.14
925.318	8758.71
925.628	8703.12
925.938	8701.76
926.248	8636.68
926.558	8581.31
926.867	8509.68
927.177	8539.28
927.487	8467.64
927.796	8414.76
928.106	8413.63
928.416	8351.49
928.725	8336.57
929.034	8328.67
929.344	8272.17
929.653	8202.34
929.962	8211.15
930.271	8143.59
930.581	8123.47
930.89	8114.43
931.199	7981.78
931.508	7999.41
931.817	8026.53
932.125	7910.82
932.434	7875.8
932.743	7860.88
933.051	7766.19
933.36	7780.43
933.669	7693.88
933.977	7726.65
934.286	7675.58
934.594	7665.41
934.902	7612.98
935.21	7588.12
935.519	7564.17
935.827	7573.66
936.135	7500.66
936.443	7446.2
936.751	7410.05
937.059	7386.32
937.367	7349.71
937.674	7335.02
937.982	7323.27
938.29	7252.08
938.597	7262.93
938.905	7251.41
939.213	7178.41
939.52	7121.92
939.827	7117.62
940.135	7085.99
940.442	7057.29
940.749	6997.63
941.056	7013.67
941.363	6920.11
941.67	6962.83
941.977	6918.53
942.284	6842.38
942.591	6784.98
942.898	6744.53
943.205	6707.69
943.511	6736.16
943.818	6725.32
944.125	6658.2
944.431	6612.78
944.738	6603.96
945.044	6541.82
945.35	6543.85
945.657	6510.63
945.963	6504.76
946.269	6400.35
946.575	6458.66
946.881	6415.5
947.187	6392.67
947.493	6335.05
947.799	6277.42
948.105	6328.27
948.41	6254.37
948.716	6208.04
949.022	6129.63
949.327	6159.68
949.633	6147.71
949.938	6119.23
950.244	6069.06
950.549	6048.95
950.854	6053.47
951.16	6020.7
951.465	6006.01
951.77	5966.69
952.075	5926.47
952.38	5878.11
952.685	5856.64
952.99	5842.85
953.294	5783.87
953.599	5778.22
953.904	5752.24
954.209	5690.54
954.513	5696.87
954.818	5700.94
955.122	5674.27
955.426	5627.72
955.731	5587.49
956.035	5577.55
956.339	5561.28
956.643	5542.52
956.948	5503.88
957.252	5444.22
957.556	5438.8
957.86	5393.38
958.163	5441.74
958.467	5453.49
958.771	5382.75
959.075	5360.83
959.378	5261.63
959.682	5298.01
959.985	5317.67
960.289	5272.93
960.592	5187.5
960.896	5169.88
961.199	5180.95
961.502	5171.69
961.805	5162.42
962.108	5043.55
962.411	5084.68
962.714	5055.3
963.017	5053.05
963.32	5021.18
963.623	4959.94
963.926	5015.08
964.228	4927.17
964.531	4902.31
964.833	4874.74
965.136	4849.43
965.438	4799.27
965.741	4840.17
966.043	4856.67
966.345	4744.58
966.648	4739.61
966.95	4752.49
967.252	4711.13
967.554	4746.16
967.856	4647.41
968.158	4629.55
968.46	4628.42
968.761	4611.93
969.063	4606.28
969.365	4562.66
969.666	4510.69
969.968	4514.53
970.269	4521.53
970.571	4459.61
970.872	4495.77
971.174	4456.68
971.475	4432.27
971.776	4406.28
972.077	4334.87
972.378	4363.12
972.679	4322.67
972.98	4352.95
973.281	4310.24
973.582	4283.57
973.883	4277.47
974.183	4247.42
974.484	4215.33
974.785	4206.74
975.085	4188.21
975.386	4213.52
975.686	4171.94
975.986	4163.8
976.287	4117.48
976.587	4077.7
976.887	4065.05
977.187	4009
977.487	4058.04
977.787	4064.37
978.087	4000.19
978.387	3994.09
978.687	4004.26
978.987	3984.15
979.286	3945.28
979.586	3925.39
979.885	3926.3
980.185	3853.75
980.484	3850.82
980.784	3837.26
981.083	3824.15
981.382	3779.18
981.682	3782.57
981.981	3775.79
982.28	3752.74
982.579	3722.46
982.878	3716.36
983.177	3743.02
983.475	3663.48
983.774	3646.98
984.073	3641.78
984.372	3633.65
984.67	3624.16
984.969	3621.9
985.267	3593.65
985.566	3572.63
985.864	3582.8
986.162	3509.81
986.461	3500.54
986.759	3499.87
987.057	3503.71
987.355	3430.04
987.653	3475.91
987.951	3390.04
988.249	3435.91
988.547	3401.11
988.844	3371.96
989.142	3359.98
989.44	3364.73
989.737	3339.42
990.035	3332.19
990.332	3324.05
990.63	3261.91
990.927	3265.52
991.224	3216.94
991.521	3238.4
991.819	3247.67
992.116	3232.53
992.413	3174.9
992.71	3159.08
993.006	3129.71
993.303	3183.49
993.6	3148.69
993.897	3121.8
994.193	3096.49
994.49	3097.62
994.787	3046.32
995.083	3047.9
995.379	3049.03
995.676	3007
995.972	3032.08
996.268	2991.63
996.565	2956.15
996.861	2947.34
997.157	2910.95
997.453	2954.34
997.749	2917.51
998.044	2867.79
998.34	2853.55
998.636	2817.4
998.932	2861.69
999.227	2841.13
999.523	2792.54
999.818	2816.27
1000.114	2802.26
1000.409	2798.42
1000.704	2732.43
1001	2702.82
1001.295	2710.51
1001.59	2724.29
1001.885	2711.64
1002.18	2666.67
1002.475	2655.37
1002.77	2655.37
1003.065	2622.15
1003.359	2639.32
1003.654	2624.86
1003.949	2591.64
1004.243	2555.03
1004.538	2539.44
1004.832	2545.09
1005.127	2527.69
1005.421	2490.63
1005.715	2502.83
1006.009	2492.21
1006.304	2437.75
1006.598	2463.28
1006.892	2442.49
1007.186	2417.41
1007.48	2418.99
1007.773	2378.54
1008.067	2373.79
1008.361	2374.92
1008.655	2340.35
1008.948	2319.33
1009.242	2340.12
1009.535	2338.77
1009.829	2280.01
1010.122	2284.08
1010.415	2285.89
1010.708	2245.21
1011.001	2244.53
1011.295	2226.45
1011.588	2204.08
1011.881	2174.93
1012.173	2181.03
1012.466	2154.82
1012.759	2170.86
1013.052	2157.08
1013.344	2131.09
1013.637	2138.77
1013.93	2106.68
1014.222	2110.98
1014.514	2097.42
1014.807	2067.59
1015.099	2068.04
1015.391	2042.28
1015.683	2052.45
1015.976	2007.02
1016.268	1994.59
1016.56	1981.04
1016.851	1947.14
1017.143	1969.28
1017.435	1935.16
1017.727	1947.36
1018.018	1907.82
1018.31	1916.86
1018.602	1905.78
1018.893	1911.43
1019.185	1874.37
1019.476	1850.42
1019.767	1869.63
1020.058	1830.98
1020.35	1833.92
1020.641	1826.69
1020.932	1791.89
1021.223	1780.59
1021.514	1738.33
1021.804	1751.44
1022.095	1761.15
1022.386	1727.93
1022.677	1751.21
1022.967	1713.92
1023.258	1714.6
1023.548	1689.97
1023.839	1671.21
1024.129	1658.56
1024.419	1634.83
1024.709	1649.07
1025	1647.48
1025.29	1626.69
1025.58	1603.19
1025.87	1591.22
1026.16	1578.11
1026.449	1590.09
1026.739	1551.44
1027.029	1561.16
1027.319	1564.1
1027.608	1532.69
1027.898	1511.67
1028.187	1505.79
1028.477	1503.76
1028.766	1492.01
1029.055	1465.12
1029.344	1476.87
1029.634	1456.98
1029.923	1451.11
1030.212	1449.75
1030.501	1423.76
1030.79	1416.98
1031.078	1418.79
1031.367	1429.41
1031.656	1406.59
1031.945	1384.22
1032.233	1365.68
1032.522	1372.46
1032.81	1313.48
1033.099	1346.93
1033.387	1353.03
1033.675	1324.56
1033.963	1303.31
1034.251	1331.79
1034.54	1284.1
1034.828	1274.61
1035.116	1266.7
1035.403	1268.74
1035.691	1253.15
1035.979	1263.54
1036.267	1238
1036.554	1243.43
1036.842	1224.67
1037.129	1205.24
1037.417	1189.42
1037.704	1222.41
1037.992	1192.81
1038.279	1181.28
1038.566	1167.5
1038.853	1167.5
1039.14	1167.5
