Data from White_reflection_standard_FLMS001491_071.txt Node
Date: Tue Feb 07 10:32:09 GMT 2017
User: dcchb
Spectrometer: FLMS00149
Trigger mode: 0
Integration Time (sec): 2.000000E-2
Scans to average: 10
Electric dark correction enabled: true
Nonlinearity correction enabled: false
Boxcar width: 0
XAxis mode: Wavelengths
Number of Pixels in Spectrum: 2048
>>>>>Begin Spectral Data<<<<<
341.393	-7.68
341.776	-7.68
342.16	-7.68
342.543	-58.3
342.927	-68.7
343.31	-83.84
343.693	-72.77
344.077	-51.3
344.46	-47.46
344.843	-52.65
345.226	-34.8
345.61	-32.54
345.993	-25.76
346.376	0.23
346.759	12.2
347.142	19.21
347.525	41.58
347.908	58.76
348.291	80.45
348.674	80
349.057	108.7
349.44	97.62
349.823	145.76
350.206	179.2
350.588	238.41
350.971	246.32
351.354	260.11
351.737	254.91
352.119	296.04
352.502	313.89
352.884	315.7
353.267	327.45
353.65	332.42
354.032	337.62
354.414	350.05
354.797	332.87
355.179	357.5
355.562	356.37
355.944	383.04
356.326	375.13
356.709	396.15
357.091	381.46
357.473	402.02
357.855	370.61
358.238	406.09
358.62	393.66
359.002	396.15
359.384	394.79
359.766	403.61
360.148	405.19
360.53	395.92
360.912	383.72
361.294	400.22
361.676	385.75
362.057	405.87
362.439	377.62
362.821	403.61
363.203	411.74
363.584	399.54
363.966	398.63
364.348	404.96
364.729	409.93
365.111	388.24
365.493	428.69
365.874	412.42
366.256	398.86
366.637	417.39
367.019	407.9
367.4	419.65
367.781	421.23
368.163	404.51
368.544	423.94
368.925	415.58
369.306	399.09
369.688	415.81
370.069	420.55
370.45	410.84
370.831	416.26
371.212	426.43
371.593	439.76
371.974	451.29
372.355	439.76
372.736	438.86
373.117	447.45
373.498	448.8
373.879	447.22
374.26	430.05
374.641	424.17
375.021	441.12
375.402	459.65
375.783	462.81
376.163	503.72
376.544	504.62
376.925	506.43
377.305	482.93
377.686	494.45
378.066	483.15
378.447	497.16
378.827	516.14
379.208	526.54
379.588	503.04
379.968	498.52
380.349	538.52
380.729	519.53
381.109	522.02
381.489	550.27
381.87	536.48
382.25	534.45
382.63	528.57
383.01	551.17
383.39	557.05
383.77	566.54
384.15	577.84
384.53	585.52
384.91	611.28
385.29	611.28
385.67	586.65
386.049	607.67
386.429	625.29
386.809	614
387.189	627.78
387.568	618.74
387.948	635.46
388.328	624.16
388.707	645.63
389.087	651.51
389.466	671.17
389.846	669.81
390.225	672.3
390.605	698.06
390.984	677.5
391.363	674.56
391.743	685.63
392.122	735.35
392.501	714.11
392.881	737.16
393.26	738.96
393.639	740.77
394.018	744.61
394.397	771.05
394.776	779.19
395.155	788
395.534	805.18
395.913	806.53
396.292	785.74
396.671	813.09
397.05	832.75
397.429	824.61
397.808	816.7
398.186	839.07
398.565	834.78
398.944	866.64
399.323	860.54
399.701	867.77
400.08	863.93
400.458	939.18
400.837	930.82
401.215	924.72
401.594	905.29
401.972	951.84
402.351	941.67
402.729	969.92
403.107	976.25
403.486	984.38
403.864	1008.11
404.242	969.69
404.62	1019.18
404.999	1023.93
405.377	1058.05
405.755	1063.47
406.133	1063.47
406.511	1078.84
406.889	1075.9
407.267	1135.11
407.645	1125.62
408.023	1152.96
408.401	1165.17
408.779	1151.61
409.156	1205.62
409.534	1190.7
409.912	1180.99
410.29	1255.33
410.667	1264.37
411.045	1264.6
411.422	1266.41
411.8	1291.94
412.178	1308.21
412.555	1325.84
412.933	1340.08
413.31	1353.18
413.687	1371.94
414.065	1367.2
414.442	1444.26
414.819	1450.81
415.197	1454.2
415.574	1493.07
415.951	1474.99
416.328	1506.63
416.705	1538.72
417.082	1524.71
417.46	1552.73
417.837	1550.92
418.214	1571.48
418.591	1605.38
418.967	1620.75
419.344	1628.43
419.721	1672.05
420.098	1661.43
420.475	1702.78
420.852	1678.83
421.228	1736.68
421.605	1742.55
421.982	1747.75
422.358	1786.62
422.735	1794.08
423.111	1785.94
423.488	1830.69
423.864	1841.76
424.241	1888.54
424.617	1918.59
424.994	1922.66
425.37	1910.91
425.746	1936.22
426.123	1971.93
426.499	1976.67
426.875	2045.82
427.251	2052.6
427.627	2133.28
428.003	2094.18
428.379	2126.95
428.756	2176.44
429.132	2205.59
429.507	2248.3
429.883	2255.31
430.259	2282.2
430.635	2309.32
431.011	2353.38
431.387	2415.98
431.763	2423.67
432.138	2437.22
432.514	2496.66
432.89	2509.54
433.265	2559.48
433.641	2578.24
434.016	2576.2
434.392	2650.33
434.767	2695.75
435.143	2709.76
435.518	2726.03
435.894	2790.66
436.269	2815.29
436.644	2870.66
437.02	2863.43
437.395	2876.99
437.77	2967.83
438.145	2993.14
438.52	3027.94
438.895	3093.25
439.271	3079.69
439.646	3142.06
440.021	3173.25
440.395	3163.98
440.77	3182.52
441.145	3185.9
441.52	3255.28
441.895	3255.73
442.27	3316.3
442.645	3274.04
443.019	3371.66
443.394	3352.45
443.769	3370.53
444.143	3437.65
444.518	3486.69
444.892	3433.58
445.267	3514.94
445.641	3489.85
446.016	3537.99
446.39	3603.97
446.764	3594.03
447.139	3610.53
447.513	3636.74
447.887	3662.95
448.262	3702.05
448.636	3692.78
449.01	3765.55
449.384	3824.08
449.758	3827.24
450.132	3846.68
450.506	3930.97
450.88	3952.66
451.254	3912.44
451.628	4018.88
452.002	4085.09
452.376	4096.16
452.75	4152.21
453.123	4202.15
453.497	4264.29
453.871	4279.66
454.244	4380.9
454.618	4390.85
454.992	4460.22
455.365	4447.11
455.739	4617.96
456.112	4605.75
456.486	4678.97
456.859	4737.05
457.232	4830.16
457.606	4818.4
457.979	4900.89
458.352	4992.64
458.725	5018.4
459.099	5107.44
459.472	5156.7
459.845	5235.79
460.218	5296.13
460.591	5293.65
460.964	5377.49
461.337	5501.32
461.71	5540.65
462.083	5609.8
462.456	5624.94
462.829	5683.92
463.201	5816.57
463.574	5822.45
463.947	5909.68
464.32	6030.12
464.692	6065.83
465.065	6126.62
465.438	6177.69
465.81	6280.74
466.183	6364.8
466.555	6518.47
466.928	6534.29
467.3	6603.67
467.672	6692.71
468.045	6854.96
468.417	6938.8
468.789	6941.29
469.161	7028.29
469.534	7145.12
469.906	7349.19
470.278	7322.75
470.65	7424.21
471.022	7635.05
471.394	7749.63
471.766	7832.56
472.138	7908.72
472.51	8090.41
472.882	8185.77
473.253	8240.24
473.625	8408.14
473.997	8632.32
474.369	8712.09
474.74	8786.66
475.112	8919.99
475.484	9144.39
475.855	9267.33
476.227	9321.11
476.598	9594.1
476.97	9763.81
477.341	9965.16
477.713	10056.91
478.084	10092.16
478.455	10404.92
478.827	10473.62
479.198	10840.62
479.569	10810.79
479.94	11091.91
480.311	11162.87
480.682	11537.78
481.053	11677.66
481.424	11997.65
481.795	12084.65
482.166	12234.25
482.537	12389.28
482.908	12647.13
483.279	12750.63
483.65	12984.74
484.021	13321.91
484.391	13415.01
484.762	13533.2
485.133	13691.62
485.503	13906.98
485.874	14215.67
486.244	14344.71
486.615	14570.92
486.985	14723.23
487.356	15116.89
487.726	15237.11
488.097	15459.48
488.467	15523.66
488.837	15946.02
489.207	16010.43
489.578	16299.68
489.948	16485.44
490.318	16765.89
490.688	16782.61
491.058	17079.1
491.428	17277.96
491.798	17445.19
492.168	17732.42
492.538	17825.52
492.908	18104.61
493.278	18198.39
493.648	18299.41
494.017	18563.13
494.387	18681.54
494.757	18900.29
495.126	19177.35
495.496	19126.95
495.866	19444.01
496.235	19608.98
496.605	19688.07
496.974	19866.37
497.344	20102.07
497.713	20217.77
498.082	20377.09
498.452	20475.62
498.821	20729.17
499.19	20696.63
499.559	20874.93
499.928	21203.06
500.298	21119.22
500.667	21496.61
501.036	21539.77
501.405	21686.66
501.774	21833.32
502.143	22006.43
502.512	22059.53
502.88	22289.36
503.249	22310.83
503.618	22534.77
503.987	22664.71
504.356	22811.15
504.724	22970.02
505.093	23064.93
505.462	23266.28
505.83	23357.58
506.199	23621.53
506.567	23885.7
506.936	23940.39
507.304	24121.4
507.672	24256.76
508.041	24442.52
508.409	24633.93
508.777	24749.86
509.145	24995.5
509.514	25098.78
509.882	25276.62
510.25	25320.24
510.618	25549.16
510.986	25565.43
511.354	25877.51
511.722	26203.38
512.09	26448.34
512.458	26322.47
512.826	26547.1
513.193	26746.64
513.561	26836.81
513.929	27109.57
514.297	27436.34
514.664	27505.94
515.032	27647.86
515.4	27924.69
515.767	28070.22
516.135	28289.88
516.502	28225.25
516.869	28637.89
517.237	28884.89
517.604	28855.51
517.972	29194.49
518.339	29425.44
518.706	29456.63
519.073	29645.32
519.44	29840.12
519.808	30234.01
520.175	30338.86
520.542	30698.63
520.909	30876.7
521.276	30899.07
521.643	31237.6
522.009	31565.5
522.376	31556.68
522.743	31923.45
523.11	32081.42
523.477	32465.81
523.843	32638.92
524.21	33104.44
524.577	33238.45
524.943	33346.02
525.31	33657.65
525.676	33871.88
526.043	34075.26
526.409	34262.6
526.776	34658.98
527.142	34859.42
527.508	35005.86
527.874	35197.72
528.241	35461.44
528.607	35559.07
528.973	35896.01
529.339	35954.99
529.705	36417.8
530.071	36630.9
530.437	36719.94
530.803	37112.02
531.169	37338
531.535	37233.6
531.901	37317.44
532.267	37558.56
532.632	37974.82
532.998	37948.15
533.364	38046.01
533.73	38182.27
534.095	38675.37
534.461	38773.44
534.826	38891.86
535.192	39071.06
535.557	39333.88
535.923	39339.08
536.288	39496.81
536.653	39805.06
537.019	39720.09
537.384	40020.19
537.749	40119.62
538.114	40277.81
538.479	40362.55
538.845	40506.96
539.21	40515.77
539.575	40696.11
539.94	40939.71
540.305	41175.87
540.67	40963.44
541.034	41186.04
541.399	41541.73
541.764	41711.9
542.129	41758.9
542.494	41857.2
542.858	42128.61
543.223	42196.63
543.587	42255.61
543.952	42257.65
544.316	42539.45
544.681	42416.29
545.045	42791.19
545.41	42895.6
545.774	42991.41
546.138	43128.81
546.503	43228.02
546.867	43228.69
547.231	43675.01
547.595	43775.12
547.959	43874.78
548.324	43966.98
548.688	44141.44
549.052	44343.24
549.416	44341.21
549.779	44399.28
550.143	44576.23
550.507	44940.74
550.871	45111.58
551.235	44972.15
551.599	45316.1
551.962	45397.9
552.326	45510.89
552.689	45702.08
553.053	45648.29
553.417	45869.08
553.78	46367.37
554.143	46113.14
554.507	46339.8
554.87	46566.91
555.234	46904.76
555.597	46635.84
555.96	46932.33
556.323	47117.41
556.686	47062.94
557.05	47424.52
557.413	47638.97
557.776	47706.99
558.139	47992.64
558.502	48100.66
558.865	48077.83
559.228	48474.66
559.59	48564.82
559.953	48685.05
560.316	49015.66
560.679	49087.07
561.041	49344.69
561.404	49418.59
561.767	49652.48
562.129	49508.08
562.492	49994.39
562.854	49961.4
563.217	49979.48
563.579	50242.29
563.941	50416.98
564.304	50476.64
564.666	50726.8
565.028	50839.79
565.39	50873.69
565.753	51145.32
566.115	51255.15
566.477	51433.45
566.839	51510.74
567.201	51702.37
567.563	51695.36
567.925	52012.42
568.287	51971.97
568.648	52104.62
569.01	52267.78
569.372	52349.58
569.734	52361.11
570.095	52664.15
570.457	52722.68
570.819	52786.63
571.18	52833.87
571.542	52979.17
571.903	52974.43
572.265	53183.23
572.626	53197.25
572.987	53290.58
573.349	53348.43
573.71	53522.21
574.071	53600.4
574.432	53710.45
574.794	53840.17
575.155	53844.23
575.516	53719.94
575.877	53907.28
576.238	53912.03
576.599	54097.33
576.96	54055.08
577.32	54096.43
577.681	54195.41
578.042	54315.86
578.403	54359.47
578.763	54350.44
579.124	54357.21
579.485	54472.01
579.845	54613.48
580.206	54479.02
580.566	54514.5
580.927	54592.24
581.287	54739.58
581.648	54560.83
582.008	54681.73
582.368	54638.11
582.728	54696.19
583.089	54730.99
583.449	54715.4
583.809	54728.28
584.169	54810.76
584.529	54771.44
584.889	54877.65
585.249	54707.26
585.609	54703.19
585.969	54878.56
586.329	54731.22
586.688	54766.47
587.048	54790.65
587.408	54755.17
587.768	54775.96
588.127	54796.98
588.487	54826.58
588.846	54968.95
589.206	54690.31
589.565	54731.44
589.925	54861.38
590.284	54869.74
590.643	54846.69
591.003	54931.89
591.362	55027.71
591.721	54897.99
592.08	54933.92
592.44	55074.71
592.799	55008.95
593.158	54969.85
593.517	54931.44
593.876	54996.97
594.235	54930.08
594.593	55009.63
594.952	55032.9
595.311	54957.2
595.67	55042.62
596.029	55203.52
596.387	55156.52
596.746	55244.2
597.104	55059.34
597.463	55045.11
597.822	55212.11
598.18	55123.97
598.538	55124.43
598.897	55252.33
599.255	55027.93
599.613	55409.84
599.972	55256.17
600.33	55372.56
600.688	55238.55
601.046	55358.77
601.404	55482.38
601.762	55394.02
602.12	55443.97
602.478	55452.1
602.836	55507.92
603.194	55387.02
603.552	55442.61
603.91	55396.74
604.268	55510.4
604.625	55383.4
604.983	55609.84
605.341	55399.45
605.698	55595.37
606.056	55635.6
606.413	55608.26
606.771	55690.29
607.128	55731.19
607.485	55601.02
607.843	55664.75
608.2	55816.61
608.557	55867.91
608.914	55810.96
609.272	55899.1
609.629	56012.09
609.986	56066.1
610.343	55932.09
610.7	56099.77
611.057	56033.33
611.414	56117.85
611.771	56153.1
612.127	56151.29
612.484	56148.58
612.841	56186.77
613.198	56183.16
613.554	56134.57
613.911	56329.37
614.267	56283.72
614.624	56257.96
614.98	56260.89
615.337	56423.83
615.693	56374.34
616.05	56377.27
616.406	56420.89
616.762	56343.6
617.118	56334.11
617.475	56357.84
617.831	56420.89
618.187	56528.23
618.543	56547.21
618.899	56653.2
619.255	56570.72
619.611	56560.77
619.967	56651.62
620.323	56618.17
620.678	56604.84
621.034	56460.66
621.39	56516.93
621.746	56493.66
622.101	56766.64
622.457	56514.22
622.812	56611.62
623.168	56643.03
623.523	56673.09
623.879	56758.06
624.234	56504.5
624.589	56635.35
624.945	56647.32
625.3	56656.36
625.655	56619.53
626.01	56646.42
626.365	56609.13
626.72	56602.81
627.075	56590.6
627.43	56614.1
627.785	56575.91
628.14	56658.4
628.495	56617.49
628.85	56561.45
629.205	56438.74
629.559	56635.35
629.914	56430.61
630.269	56420.21
630.623	56466.76
630.978	56418.63
631.332	56478.74
631.687	56448.69
632.041	56340.89
632.396	56383.38
632.75	56261.12
633.104	56323.94
633.459	56204.17
633.813	56221.8
634.167	56106.32
634.521	56135.93
634.875	56188.13
635.229	56121.46
635.583	55967.12
635.937	56010.73
636.291	55923.28
636.645	55978.64
636.999	55938.42
637.352	55955.82
637.706	55777.74
638.06	55851.19
638.413	55782.49
638.767	55686.9
639.121	55832.43
639.474	55607.13
639.828	55675.37
640.181	55688.48
640.534	55604.87
640.888	55593.34
641.241	55435.6
641.594	55455.72
641.947	55536.39
642.301	55420.92
642.654	55462.27
643.007	55433.8
643.36	55405.32
643.713	55231.32
644.066	55432.89
644.419	55164.88
644.771	54945.45
645.124	54647.6
645.477	54770.31
645.83	54549.98
646.182	54395.63
646.535	54311.79
646.888	54326.93
647.24	54172.13
647.593	54350.44
647.945	54297.1
648.298	54116.54
648.65	54084.23
649.002	54001.07
649.355	54099.37
649.707	54043.78
650.059	54113.15
650.411	54472.92
650.763	54464.1
651.115	54790.65
651.467	54623.2
651.819	54634.04
652.171	54602.41
652.523	54575.97
652.875	54429.98
653.227	54361.51
653.578	54586.59
653.93	54469.3
654.282	54311.57
654.633	54226.6
654.985	54188.18
655.337	54238.35
655.688	54220.04
656.039	54305.92
656.391	54098.01
656.742	54142.31
657.094	54146.82
657.445	54265.01
657.796	54172.13
658.147	54043.55
658.498	54018.01
658.849	54098.01
659.2	54063.89
659.551	53939.37
659.902	54040.84
660.253	54025.02
660.604	53945.93
660.955	53948.86
661.306	53969.43
661.656	53866.15
662.007	53926.49
662.358	53804.01
662.708	53768.53
663.059	53808.3
663.409	53617.35
663.76	53852.82
664.11	53802.2
664.461	53879.71
664.811	53751.36
665.161	53798.59
665.511	53745.03
665.862	53604.24
666.212	53829.32
666.562	53694.86
666.912	53685.82
667.262	53624.8
667.612	53671.58
667.962	53643.34
668.312	53590.68
668.662	53677.46
669.011	53598.14
669.361	53492.6
669.711	53425.71
670.06	53453.96
670.41	53392.95
670.76	53418.93
671.109	53490.12
671.459	53427.07
671.808	53334.87
672.157	53366.05
672.507	53214.65
672.856	53209.9
673.205	53265.94
673.554	53263.01
673.904	53230.24
674.253	53345.04
674.602	53170.35
674.951	52725.17
675.3	52556.58
675.649	53096.01
675.998	53014.43
676.346	53060.3
676.695	53114.99
677.044	52931.04
677.393	53074.76
677.741	53079.28
678.09	52857.14
678.438	52836.12
678.787	52928.33
679.135	52852.62
679.484	52648.56
679.832	52792.96
680.181	52561.78
680.529	52690.82
680.877	52591.39
681.225	52552.74
681.573	52713.64
681.922	52490.37
682.27	52481.78
682.618	52438.17
682.966	52335.12
683.314	52377.15
683.661	52207.44
684.009	52064.39
684.357	52025.75
684.705	51945.07
685.053	51962.48
685.4	52002.7
685.748	51807.23
686.095	51719.32
686.443	51736.49
686.79	51567.46
687.138	51532.2
687.485	51470.06
687.832	51444.75
688.18	51496.27
688.527	51272.32
688.874	51285.43
689.221	51055.61
689.568	51071.88
689.915	50973.57
690.262	50948.04
690.609	50868.04
690.956	50702.17
691.303	50732.9
691.65	50456.53
691.997	50446.81
692.344	50283.2
692.69	50282.75
693.037	50223.31
693.383	50031.23
693.73	50112.58
694.077	50000.49
694.423	49815.41
694.769	49721.63
695.116	49727.73
695.462	49660.84
695.808	49597.11
696.155	49532.03
696.501	49182.66
696.847	49178.82
697.193	48974.76
697.539	49121.42
697.885	48847.53
698.231	48683.47
698.577	48675.1
698.923	48600.76
699.269	48492.51
699.614	48081.45
699.96	48223.36
700.306	48252.97
700.651	47994.44
700.997	47888.68
701.342	47837.16
701.688	47853.66
702.033	47707.45
702.379	47731.17
702.724	47484.63
703.069	47547.68
703.415	47080.57
703.76	47055.03
704.105	47064.98
704.45	46910.18
704.795	46707.02
705.14	46679.68
705.485	46602.16
705.83	46417.54
706.175	46547.25
706.52	46387.93
706.865	46359.68
707.209	46121.05
707.554	45974.84
707.899	46161.05
708.243	45770.77
708.588	45862.07
708.932	45575.75
709.277	45443.1
709.621	45526.49
709.966	45363.1
710.31	45410.56
710.654	45068.87
710.998	45119.04
711.342	45140.28
711.687	44933.06
712.031	44697.13
712.375	44633.85
712.719	44645.83
713.063	44544.14
713.407	44617.81
713.75	44211.72
714.094	44409.68
714.438	44241.1
714.782	44211.72
715.125	44025.51
715.469	44092.17
715.812	43823.48
716.156	43548.46
716.499	43708.68
716.843	43745.74
717.186	43448.58
717.53	43651.96
717.873	43550.49
718.216	43458.07
718.559	43323.61
718.902	42942.6
719.246	42999.77
719.589	42878.65
719.932	42815.82
720.275	42811.76
720.617	42795.48
720.96	42732.66
721.303	42747.12
721.646	42519.33
721.989	42340.36
722.331	42463.97
722.674	42373.12
723.016	42369.73
723.359	42317.53
723.701	42277.53
724.044	41978.33
724.386	41811.33
724.729	42049.06
725.071	41882.51
725.413	41748.05
725.755	41697.43
726.097	41460.83
726.439	41354.84
726.782	41485.01
727.124	41505.12
727.465	41278.69
727.807	41319.59
728.149	41181.29
728.491	41167.28
728.833	41246.37
729.175	40940.39
729.516	40876.21
729.858	40790.11
730.199	40818.14
730.541	40697.69
730.882	40567.97
731.224	40852.49
731.565	40612.72
731.906	40508.77
732.248	40597.12
732.589	40361.88
732.93	40192.39
733.271	40070.36
733.612	40229.9
733.953	40244.82
734.294	39946.07
734.635	40010.25
734.976	40119.4
735.317	39760.31
735.658	39857.26
735.999	39739.75
736.339	39705.17
736.68	39785.17
737.021	39532.07
737.361	39419.75
737.702	39564.84
738.042	39478.74
738.383	39286.88
738.723	39291.62
739.063	39213.43
739.404	39253.21
739.744	39071.52
740.084	38946.32
740.424	38963.95
740.764	38857.96
741.104	39047.56
741.444	38666.1
741.784	38631.75
742.124	38629.49
742.464	38580.45
742.804	38343.85
743.143	38454.36
743.483	38471.76
743.823	38218.66
744.162	38296.17
744.502	38197.64
744.841	38070.19
745.181	38254.59
745.52	38040.13
745.86	38153.12
746.199	37993.8
746.538	37824.54
746.877	37904.77
747.216	37848.5
747.556	37669.97
747.895	37510.88
748.234	37507.94
748.573	37458.45
748.911	37332.8
749.25	37383.2
749.589	37196.76
749.928	37329.87
750.267	37258.23
750.605	37069.99
750.944	36978.24
751.283	36792.25
751.621	36902.98
751.96	36696.66
752.298	36646.49
752.636	36731.24
752.975	36629.77
753.313	36230.23
753.651	36573.05
753.989	36254.41
754.327	36185.04
754.666	36062.55
755.004	35985.49
755.342	35943.69
755.679	35950.02
756.017	35679.51
756.355	35811.49
756.693	35682.68
757.031	35538.05
757.368	35446.98
757.706	35390.48
758.044	35166.31
758.381	35192.29
758.719	35108.68
759.056	35137.83
759.394	34950.49
759.731	34825.52
760.068	34699.2
760.405	34511.63
760.743	34391.41
761.08	34427.57
761.417	34257.4
761.754	34215.15
762.091	34193.68
762.428	34052.89
762.765	33872.1
763.102	33901.93
763.438	33702.16
763.775	33615.61
764.112	33704.65
764.449	33552.56
764.785	33404.55
765.122	33174.04
765.458	33080.49
765.795	33091.33
766.131	32985.57
766.467	32836.65
766.804	32737.22
767.14	32668.75
767.476	32560.27
767.812	32289.77
768.148	32194.18
768.485	32174.97
768.821	31990.8
769.157	31981.08
769.492	31891.36
769.828	31769.79
770.164	31610.47
770.5	31532.05
770.836	31400.76
771.171	31234.21
771.507	31154.66
771.842	30956.93
772.178	30958.28
772.513	30913.09
772.849	30807.1
773.184	30742.24
773.519	30588.12
773.855	30436.94
774.19	30330.73
774.525	30291.18
774.86	30235.82
775.195	30068.36
775.53	30024.07
775.865	29739.56
776.2	29589.05
776.535	29443.07
776.87	29429.06
777.205	29428.38
777.539	29149.52
777.874	29250.3
778.209	28979.35
778.543	28962.18
778.878	28718.79
779.212	28702.97
779.547	28557.22
779.881	28605.58
780.215	28458.23
780.55	28484.67
780.884	28320.16
781.218	28209.43
781.552	28239.48
781.886	27954.52
782.22	27830.23
782.554	27811.02
782.888	27569.9
783.222	27470.92
783.556	27300.3
783.889	27255.55
784.223	27010.36
784.557	27033.19
784.89	27041.32
785.224	26884.04
785.557	26859.18
785.891	26657.6
786.224	26692.63
786.558	26517.49
786.891	26426.42
787.224	26238.18
787.557	26125.19
787.891	26142.82
788.224	26006.32
788.557	25969.71
788.89	25967.45
789.223	25812.65
789.556	25656.73
789.888	25537.86
790.221	25389.61
790.554	25125.67
790.887	25342.61
791.219	25214.03
791.552	25190.3
791.884	25040.7
792.217	24946.24
792.549	24836.18
792.882	24646.13
793.214	24534.95
793.546	24626.47
793.879	24485.23
794.211	24358.91
794.543	24414.95
794.875	24336.54
795.207	24255.41
795.539	24130.89
795.871	24151.23
796.203	23974.96
796.535	23840.5
796.867	23718.02
797.198	23671.47
797.53	23729.55
797.862	23513.51
798.193	23617.01
798.525	23393.96
798.856	23405.49
799.188	23112.16
799.519	23081.65
799.85	22999.4
800.182	23016.8
800.513	22976.57
800.844	22831.04
801.175	22916.01
801.506	22779.29
801.837	22764.15
802.168	22649.8
802.499	22605.51
802.83	22498.62
803.161	22444.16
803.491	22236.93
803.822	22369.81
804.153	22196.25
804.483	21977.5
804.814	21937.73
805.145	21964.39
805.475	22046.2
805.805	21865.41
806.136	21848.01
806.466	21893.66
806.796	21789.71
807.126	21691.41
807.457	21471.07
807.787	21571.64
808.117	21292.77
808.447	21362.6
808.777	21359.21
809.107	21274.02
809.436	21251.87
809.766	21188.37
810.096	21088.49
810.426	21000.13
810.755	21012.55
811.085	20964.87
811.414	20873.35
811.744	20740.7
812.073	20610.98
812.403	20751.09
812.732	20499.35
813.061	20521.95
813.39	20441.72
813.719	20406.02
814.049	20493.7
814.378	20381.61
814.707	20225.46
815.036	20233.37
815.365	20078.57
815.693	19898.23
816.022	19901.85
816.351	19887.16
816.68	19723.32
817.008	19876.54
817.337	19744.34
817.665	19715.19
817.994	19783.89
818.322	19677
818.651	19589.32
818.979	19627.28
819.307	19687.62
819.636	19521.97
819.964	19404.24
820.292	19406.04
820.62	19397.68
820.948	19456.89
821.276	19440.62
821.604	19321.07
821.932	19328.98
822.259	19432.26
822.587	19384.58
822.915	19272.71
823.243	19400.85
823.57	19285.59
823.898	19231.13
824.225	19198.59
824.553	19265.48
824.88	19222.55
825.207	19271.81
825.535	19237.46
825.862	19319.49
826.189	19189.78
826.516	19335.76
826.843	19263.67
827.17	19242.21
827.497	19322.43
827.824	19268.65
828.151	19299.15
828.478	19188.87
828.805	19334.86
829.131	19222.55
829.458	19212.38
829.785	19080.85
830.111	19275.65
830.438	19279.27
830.764	19176.9
831.09	19225.71
831.417	18991.82
831.743	19220.51
832.069	19096.45
832.395	19020.06
832.722	19095.09
833.048	19084.02
833.374	18981.42
833.7	19000.86
834.026	18994.08
834.351	19025.94
834.677	18993.17
835.003	18981.2
835.329	18863.68
835.654	18948.88
835.98	18793.86
836.306	18806.96
836.631	18751.6
836.956	18801.31
837.282	18808.77
837.607	18684.25
837.932	18590.02
838.258	18760.41
838.583	18706.4
838.908	18500.53
839.233	18579.4
839.558	18571.04
839.883	18436.35
840.208	18387.99
840.533	18393.87
840.858	18412.4
841.182	18423.47
841.507	18395.67
841.832	18191.16
842.156	18237.49
842.481	18210.14
842.805	18157.26
843.13	18099.64
843.454	18042.69
843.778	17953.65
844.103	18043.14
844.427	17872.98
844.751	17864.39
845.075	17878.63
845.399	17819.19
845.723	17652.42
846.047	17710.72
846.371	17597.05
846.695	17490.39
847.019	17416.49
847.343	17398.64
847.666	17269.15
847.99	17258.3
848.313	17181.24
848.637	17072.09
848.96	17023.06
849.284	16995.49
849.607	16818.77
849.931	16847.01
850.254	16696.96
850.577	16627.13
850.9	16441.38
851.223	16506.68
851.546	16503.29
851.869	16313.92
852.192	16358.89
852.515	16155.06
852.838	16169.52
853.161	16161.61
853.483	16148.95
853.806	15948.28
854.129	15941.73
854.451	16005
854.774	15864.67
855.096	15843.65
855.419	15713.03
855.741	15791.22
856.063	15657.67
856.385	15652.47
856.708	15524.34
857.03	15529.76
857.352	15485.47
857.674	15463.55
857.996	15379.71
858.318	15313.04
858.64	15353.72
858.961	15256.55
859.283	15257.9
859.605	15115.76
859.926	15143.78
860.248	15130.68
860.57	15030.34
860.891	15069.66
861.212	14934.97
861.534	14937.69
861.855	14899.95
862.176	14903.56
862.498	14819.05
862.819	14812.04
863.14	14754.64
863.461	14757.13
863.782	14661.54
864.103	14750.8
864.424	14652.5
864.745	14680.07
865.065	14633.74
865.386	14510.58
865.707	14586.74
866.027	14463.12
866.348	14559.17
866.668	14446.4
866.989	14456.8
867.309	14342
867.63	14362.11
867.95	14315.56
868.27	14185.39
868.59	14285.73
868.91	14224.94
869.23	14204.15
869.55	14207.76
869.87	14296.8
870.19	14133.19
870.51	14189.01
870.83	14179.51
871.15	14030.14
871.469	14045.96
871.789	14120.31
872.109	14124.37
872.428	13949.92
872.748	14000.76
873.067	13929.8
873.386	14065.84
873.706	13990.37
874.025	13873.53
874.344	13863.36
874.663	13932.06
874.982	13826.3
875.301	13712.41
875.62	13726.19
875.939	13819.07
876.258	13721.45
876.577	13728.68
876.896	13677.38
877.214	13588.34
877.533	13592.18
877.852	13622.47
878.17	13576.59
878.489	13557.38
878.807	13523.26
879.125	13542.92
879.444	13553.32
879.762	13476.93
880.08	13482.81
880.398	13387.44
880.716	13413.43
881.034	13309.71
881.352	13391.29
881.67	13273.78
881.988	13267.22
882.306	13303.61
882.624	13237.84
882.941	13143.16
883.259	13153.55
883.577	13140.22
883.894	13046.21
884.212	13113.55
884.529	13092.09
884.846	13022.26
885.164	12983.61
885.481	12888.25
885.798	12968.92
886.115	12881.24
886.432	12852.54
886.75	12805.31
887.067	12854.35
887.383	12791.53
887.7	12808.02
888.017	12725.99
888.334	12715.82
888.651	12612.1
888.967	12627.46
889.284	12547.01
889.6	12543.62
889.917	12391.31
890.233	12478.77
890.55	12394.7
890.866	12427.02
891.182	12360.58
891.498	12333.01
891.815	12256.4
892.131	12217.31
892.447	12181.83
892.763	12104.54
893.079	12142.28
893.395	12034.49
893.71	12060.25
894.026	11972.79
894.342	11951.32
894.657	11844.66
894.973	11952.68
895.289	11943.87
895.604	11873.36
895.92	11772.35
896.235	11710.65
896.55	11683.53
896.865	11632.01
897.181	11570.32
897.496	11658.22
897.811	11565.35
898.126	11526.25
898.441	11456.2
898.756	11433.15
899.071	11342.07
899.386	11354.96
899.7	11273.83
900.015	11210.55
900.33	11176.2
900.644	11168.97
900.959	11154.51
901.273	11115.19
901.588	11065.02
901.902	10954.97
902.216	10939.6
902.531	10898.92
902.845	10891.92
903.159	10821.41
903.473	10758.59
903.787	10705.48
904.101	10702.32
904.415	10694.86
904.729	10622.77
905.042	10546.39
905.356	10559.72
905.67	10521.08
905.984	10510.23
906.297	10557.01
906.611	10455.09
906.924	10389.33
907.237	10343.91
907.551	10373.06
907.864	10237.92
908.177	10223.91
908.491	10260.97
908.804	10169.9
909.117	10063.69
909.43	10037.48
909.743	10003.13
910.056	9951.6
910.368	9918.61
910.681	9855.79
910.994	9808.33
911.307	9724.49
911.619	9687.88
911.932	9719.97
912.244	9618.28
912.557	9633.19
912.869	9597.94
913.181	9531.95
913.494	9446.53
913.806	9405.63
914.118	9463.93
914.43	9358.62
914.742	9361.56
915.054	9268.68
915.366	9249.02
915.678	9234.79
915.99	9195.01
916.302	9090.16
916.613	9084.05
916.925	9042.93
917.236	9043.38
917.548	9005.41
917.859	9022.14
918.171	8907.11
918.482	8909.37
918.794	8809.03
919.105	8810.62
919.416	8720.22
919.727	8739.66
920.038	8719.32
920.349	8703.95
920.66	8658.08
920.971	8608.81
921.282	8568.59
921.593	8537.85
921.903	8465.31
922.214	8365.2
922.525	8376.5
922.835	8340.57
923.146	8345.77
923.456	8255.38
923.767	8261.7
924.077	8228.26
924.387	8153.46
924.697	8156.62
925.008	8074.59
925.318	8106.68
925.628	8099.45
925.938	8037.98
926.248	7945.33
926.558	7902.84
926.867	7914.82
927.177	7880.47
927.487	7868.49
927.796	7770.42
928.106	7720.25
928.416	7753.02
928.725	7678.67
929.034	7678.89
929.344	7658.1
929.653	7594.38
929.962	7535.17
930.271	7523.42
930.581	7527.26
930.89	7463.76
931.199	7421.5
931.508	7445
931.817	7377.43
932.125	7316.64
932.434	7318.9
932.743	7282.07
933.051	7216.99
933.36	7173.6
933.669	7169.3
933.977	7093.82
934.286	7069.64
934.594	7121.39
934.902	7006.6
935.21	7021.06
935.519	6976.09
935.827	6909.42
936.135	6898.35
936.443	6857.9
936.751	6856.32
937.059	6753.72
937.367	6802.76
937.674	6793.04
937.982	6720.95
938.29	6685.02
938.597	6699.94
938.905	6606.38
939.213	6623.1
939.52	6562.54
939.827	6562.77
940.135	6569.09
940.442	6465.59
940.749	6427.63
941.056	6410.68
941.363	6377.69
941.67	6374.97
941.977	6358.02
942.284	6288.42
942.591	6303.56
942.898	6239.61
943.205	6286.61
943.511	6193.96
943.818	6180.63
944.125	6102.89
944.431	6152.61
944.738	6070.12
945.044	6104.02
945.35	6026.51
945.657	6021.76
945.963	5984.02
946.269	5949.22
946.575	5934.53
946.881	5860.86
947.187	5843.24
947.493	5870.58
947.799	5887.53
948.105	5798.04
948.41	5733.86
948.716	5791.71
949.022	5720.3
949.327	5707.87
949.633	5628.78
949.938	5682.56
950.244	5658.38
950.549	5596.91
950.854	5605.95
951.16	5559.4
951.465	5524.15
951.77	5513.3
952.075	5468.78
952.38	5451.61
952.685	5471.27
952.99	5364.83
953.294	5347.2
953.599	5316.24
953.904	5345.17
954.209	5257.94
954.513	5284.83
954.818	5272.18
955.122	5254.78
955.426	5219.75
955.731	5165.97
956.035	5168.45
956.339	5129.58
956.643	5136.81
956.948	5075.35
957.252	5081.67
957.556	5080.77
957.86	5026.31
958.163	5015.01
958.467	4972.52
958.771	4950.15
959.075	4990.83
959.378	4891.17
959.682	4891.17
959.985	4910.15
960.289	4832.42
960.592	4846.2
960.896	4784.28
961.199	4819.99
961.502	4807.78
961.805	4738.41
962.108	4703.15
962.411	4727.56
962.714	4670.16
963.017	4643.27
963.32	4672.65
963.623	4644.85
963.926	4606.88
964.228	4599.65
964.531	4577.28
964.833	4561.46
965.136	4506.77
965.438	4523.04
965.741	4472.42
966.043	4409.38
966.345	4441.24
966.648	4443.95
966.95	4380
967.252	4407.79
967.554	4318.3
967.856	4317.4
968.158	4284.18
968.46	4273.56
968.761	4259.55
969.063	4237.85
969.365	4273.33
969.666	4198.99
969.968	4185.43
970.269	4163.05
970.571	4174.13
970.872	4145.65
971.174	4147.01
971.475	4080.12
971.776	4083.28
972.077	4031.53
972.378	3998.99
972.679	4019.56
972.98	4045.09
973.281	4056.39
973.582	3978.65
973.883	3946.11
974.183	3948.37
974.484	3936.39
974.785	3908.37
975.085	3888.26
975.386	3892.33
975.686	3798.09
975.986	3819.33
976.287	3799.22
976.587	3749.96
976.887	3761.71
977.187	3750.41
977.487	3775.72
977.787	3668.83
978.087	3704.31
978.387	3644.2
978.687	3704.54
978.987	3647.59
979.286	3625.22
979.586	3622.96
979.885	3591.32
980.185	3581.15
980.484	3571.43
980.784	3536.63
981.083	3540.92
981.382	3508.83
981.682	3486.46
981.981	3490.3
982.28	3500.47
982.579	3428.84
982.878	3454.82
983.177	3423.86
983.475	3426.58
983.774	3375.73
984.073	3362.62
984.372	3342.51
984.67	3376.63
984.969	3357.65
985.267	3354.04
985.566	3308.61
985.864	3311.55
986.162	3268.39
986.461	3248.05
986.759	3248.5
987.057	3253.7
987.355	3222.97
987.653	3196.75
987.951	3190.65
988.249	3133.93
988.547	3182.74
988.844	3130.09
989.142	3107.04
989.44	3110.2
989.737	3069.07
990.035	3093.7
990.332	3083.76
990.63	3032.46
990.927	3072.01
991.224	3013.71
991.521	2992.01
991.819	3000.37
992.116	2992.24
992.413	2993.37
992.71	2953.37
993.006	2951.33
993.303	2916.31
993.6	2939.81
993.897	2915.4
994.193	2895.97
994.49	2868.85
994.787	2869.08
995.083	2853.26
995.379	2849.19
995.676	2821.39
995.972	2788.4
996.268	2811.68
996.565	2780.27
996.861	2736.88
997.157	2764.67
997.453	2721.28
997.749	2711.34
998.044	2724.22
998.34	2678.12
998.636	2649.65
998.932	2655.75
999.227	2652.13
999.523	2647.84
999.818	2613.04
1000.114	2625.47
1000.409	2557.9
1000.704	2565.81
1001	2577.11
1001.295	2525.36
1001.59	2531.68
1001.885	2499.6
1002.18	2514.06
1002.475	2481.52
1002.77	2477.22
1003.065	2457.79
1003.359	2436.55
1003.654	2396.77
1003.949	2410.11
1004.243	2387.06
1004.538	2396.55
1004.832	2392.93
1005.127	2356.77
1005.421	2321.07
1005.715	2354.97
1006.009	2300.5
1006.304	2295.76
1006.598	2261.64
1006.892	2281.07
1007.186	2239.72
1007.48	2222.31
1007.773	2262.54
1008.067	2216.66
1008.361	2193.61
1008.655	2160.85
1008.948	2167.17
1009.242	2193.16
1009.535	2127.63
1009.829	2128.98
1010.122	2164.91
1010.415	2105.03
1010.708	2089.66
1011.001	2098.25
1011.295	2075.88
1011.588	2076.78
1011.881	2065.48
1012.173	2047.86
1012.466	2042.21
1012.759	2001.76
1013.052	2016.9
1013.344	1989.55
1013.637	1979.61
1013.93	1985.94
1014.222	1952.49
1014.514	1952.94
1014.807	1952.72
1015.099	1933.96
1015.391	1899.39
1015.683	1901.42
1015.976	1874.08
1016.268	1882.21
1016.56	1864.13
1016.851	1859.39
1017.143	1856.22
1017.435	1858.71
1017.727	1797.69
1018.018	1803.12
1018.31	1804.02
1018.602	1770.35
1018.893	1780.52
1019.185	1732.84
1019.476	1744.36
1019.767	1731.25
1020.058	1723.34
1020.35	1708.2
1020.641	1693.06
1020.932	1685.38
1021.223	1656.68
1021.514	1693.51
1021.804	1657.58
1022.095	1603.8
1022.386	1650.8
1022.677	1623.01
1022.967	1589.34
1023.258	1581.65
1023.548	1592.5
1023.839	1543.46
1024.129	1560.86
1024.419	1563.12
1024.709	1540.75
1025	1525.16
1025.29	1550.69
1025.58	1486.74
1025.87	1503.92
1026.16	1489.23
1026.449	1468.89
1026.739	1453.52
1027.029	1451.49
1027.319	1487.42
1027.608	1432.73
1027.898	1416.01
1028.187	1429.79
1028.477	1406.52
1028.766	1432.05
1029.055	1417.59
1029.344	1394.31
1029.634	1364.48
1029.923	1354.31
1030.212	1337.14
1030.501	1351.38
1030.79	1325.16
1031.078	1321.55
1031.367	1354.09
1031.656	1321.77
1031.945	1313.19
1032.233	1291.27
1032.522	1276.8
1032.81	1256.69
1033.099	1253.53
1033.387	1254.43
1033.675	1228.44
1033.963	1216.24
1034.251	1215.11
1034.54	1219.63
1034.828	1222.57
1035.116	1204.71
1035.403	1171.95
1035.691	1186.86
1035.979	1160.87
1036.267	1160.2
1036.554	1169.91
1036.842	1145.28
1037.129	1153.19
1037.417	1144.15
1037.704	1162.91
1037.992	1093.98
1038.279	1121.1
1038.566	1096.92
1038.853	1096.92
1039.14	1096.92
