Data from white_poster_card_FLMS001491_00077.txt Node
Date: Wed Feb 08 11:51:59 GMT 2017
User: dcchb
Spectrometer: FLMS00149
Trigger mode: 0
Integration Time (sec): 2.000000E-2
Scans to average: 10
Electric dark correction enabled: true
Nonlinearity correction enabled: false
Boxcar width: 0
XAxis mode: Wavelengths
Number of Pixels in Spectrum: 2048
>>>>>Begin Spectral Data<<<<<
341.393	-10.9
341.776	-10.9
342.16	-10.9
342.543	-62.65
342.927	-71.24
343.31	-58.13
343.693	-73.5
344.077	-71.02
344.46	-49.55
344.843	-55.2
345.226	-34.63
345.61	-30.56
345.993	-14.07
346.376	-15.65
346.759	2.88
347.142	37
347.525	65.48
347.908	33.61
348.291	65.7
348.674	92.14
349.057	105.48
349.44	119.71
349.823	135.31
350.206	165.14
350.588	215.98
350.971	219.15
351.354	215.76
351.737	252.37
352.119	260.05
352.502	287.39
352.884	256.43
353.267	289.65
353.65	297.79
354.032	300.73
354.414	299.82
354.797	313.38
355.179	321.52
355.562	312.48
355.944	329.43
356.326	349.09
356.709	358.35
357.091	324.23
357.473	349.99
357.855	351.57
358.238	350.67
358.62	348.63
359.002	345.47
359.384	343.44
359.766	349.54
360.148	338.47
360.53	352.02
360.912	333.95
361.294	327.39
361.676	351.12
362.057	327.39
362.439	340.95
362.821	338.92
363.203	330.78
363.584	324.23
363.966	331.46
364.348	314.06
364.729	310.22
365.111	327.62
365.493	333.04
365.874	315.64
366.256	327.39
366.637	329.88
367.019	322.87
367.4	339.82
367.781	329.2
368.163	341.4
368.544	325.36
368.925	312.03
369.306	310.44
369.688	324.45
370.069	315.19
370.45	295.53
370.831	313.38
371.212	306.6
371.593	304.57
371.974	352.7
372.355	322.19
372.736	339.14
373.117	318.35
373.498	350.22
373.879	311.57
374.26	315.19
374.641	310.9
375.021	314.29
375.402	316.55
375.783	325.81
376.163	329.88
376.544	344.12
376.925	339.6
377.305	346.83
377.686	327.17
378.066	326.94
378.447	332.36
378.827	351.35
379.208	339.82
379.588	347.73
379.968	319.26
380.349	345.02
380.729	335.75
381.109	354.28
381.489	333.72
381.87	340.05
382.25	361.29
382.63	354.51
383.01	356.32
383.39	364
383.77	359.48
384.15	367.62
384.53	382.31
384.91	360.84
385.29	362.42
385.67	366.94
386.049	387.73
386.429	381.18
386.809	352.7
387.189	373.72
387.568	377.33
387.948	354.06
388.328	376.2
388.707	381.85
389.087	378.69
389.466	406.26
389.846	394.28
390.225	389.99
390.605	396.32
390.984	391.12
391.363	395.19
391.743	410.55
392.122	383.89
392.501	403.32
392.881	408.07
393.26	400.61
393.639	404
394.018	427.28
394.397	443.32
394.776	424.79
395.155	394.51
395.534	407.39
395.913	420.72
396.292	439.48
396.671	408.97
397.05	447.16
397.429	427.05
397.808	429.76
398.186	441.06
398.565	429.54
398.944	446.26
399.323	444.45
399.701	451.01
400.08	453.72
400.458	476.99
400.837	456.2
401.215	483.09
401.594	472.93
401.972	498.01
402.351	469.54
402.729	483.55
403.107	460.27
403.486	482.19
403.864	479.03
404.242	498.24
404.62	509.31
404.999	519.25
405.377	502.53
405.755	519.25
406.133	528.07
406.511	526.94
406.889	534.62
407.267	570.32
407.645	541.85
408.023	554.51
408.401	548.63
408.779	597.22
409.156	581.62
409.534	592.7
409.912	608.06
410.29	633.6
410.667	636.99
411.045	613.71
411.422	650.32
411.8	663.65
412.178	688.51
412.555	684.9
412.933	697.55
413.31	704.78
413.687	717.66
414.065	746.82
414.442	749.3
414.819	792.92
415.197	800.15
415.574	782.75
415.951	820.49
416.328	847.6
416.705	847.6
417.082	870.88
417.46	873.37
417.837	872.24
418.214	907.26
418.591	910.43
418.967	957.43
419.344	943.2
419.721	974.16
420.098	970.99
420.475	1015.51
420.852	1006.47
421.228	1022.97
421.605	1048.28
421.982	1059.8
422.358	1086.69
422.735	1091.44
423.111	1070.2
423.488	1096.19
423.864	1140.48
424.241	1172.57
424.617	1157.65
424.994	1170.53
425.37	1171.44
425.746	1201.95
426.123	1229.29
426.499	1237.43
426.875	1235.39
427.251	1272.68
427.627	1305.22
428.003	1334.82
428.379	1347.48
428.756	1354.71
429.132	1376.18
429.507	1394.94
429.883	1412.79
430.259	1445.56
430.635	1459.57
431.011	1469.74
431.387	1483.07
431.763	1537.3
432.138	1572.78
432.514	1566.91
432.89	1554.03
433.265	1607.13
433.641	1655.49
434.016	1646.68
434.392	1684.19
434.767	1719.9
435.143	1680.13
435.518	1754.7
435.894	1744.76
436.269	1742.04
436.644	1815.49
437.02	1828.14
437.395	1843.96
437.77	1846.9
438.145	1882.83
438.52	1887.35
438.895	1921.02
439.271	1941.81
439.646	1981.13
440.021	2007.35
440.395	1980.68
440.77	1982.72
441.145	2015.48
441.52	2022.26
441.895	2030.4
442.27	2057.06
442.645	2038.76
443.019	2103.39
443.394	2095.03
443.769	2094.13
444.143	2121.24
444.518	2121.24
444.892	2146.33
445.267	2137.74
445.641	2183.39
446.016	2218.19
446.39	2215.25
446.764	2221.58
447.139	2232.88
447.513	2241.24
447.887	2243.95
448.262	2224.29
448.636	2264.97
449.01	2303.61
449.384	2342.25
449.758	2388.36
450.132	2370.95
450.506	2334.57
450.88	2408.92
451.254	2384.51
451.628	2452.99
452.002	2474.91
452.376	2462.25
452.75	2487.34
453.123	2525.98
453.497	2530.95
453.871	2567.56
454.244	2602.59
454.618	2680.1
454.992	2682.36
455.365	2671.96
455.739	2730.27
456.112	2795.35
456.486	2773.88
456.859	2821.56
457.232	2859.3
457.606	2853.43
457.979	2906.76
458.352	2957.38
458.725	2987.66
459.099	2983.37
459.472	3061.33
459.845	3102.91
460.218	3125.51
460.591	3159.41
460.964	3150.82
461.337	3227.2
461.71	3285.96
462.083	3315.11
462.456	3320.53
462.829	3311.72
463.201	3354.66
463.574	3428.55
463.947	3463.13
464.32	3521.88
464.692	3574.99
465.065	3599.62
465.438	3648.21
465.81	3689.56
466.183	3748.55
466.555	3788.54
466.928	3765.04
467.3	3810.92
467.672	3878.03
468.045	3971.14
468.417	3999.84
468.789	4036.67
469.161	4044.81
469.534	4193.05
469.906	4217.01
470.278	4252.04
470.65	4310.79
471.022	4367.06
471.394	4439.15
471.766	4457.45
472.138	4491.8
472.51	4618.35
472.882	4722.76
473.253	4687.05
473.625	4805.69
473.997	4902.87
474.369	4951.23
474.74	4997.78
475.112	5096.98
475.484	5188.28
475.855	5232.12
476.227	5252.91
476.598	5426.47
476.97	5465.34
477.341	5571.55
477.713	5672.56
478.084	5756.4
478.455	5836.63
478.827	5899
479.198	6031.2
479.569	6041.14
479.94	6200.91
480.311	6237.75
480.682	6412.88
481.053	6539.66
481.424	6664.85
481.795	6681.35
482.166	6830.5
482.537	6869.37
482.908	7058.51
483.279	7095.8
483.65	7199.3
484.021	7400.43
484.391	7483.36
484.762	7503.7
485.133	7563.36
485.503	7710.25
485.874	7901.2
486.244	7946.63
486.615	8077.92
486.985	8193.85
487.356	8353.4
487.726	8378.93
488.097	8591.58
488.467	8577.57
488.837	8806.49
489.207	8877.9
489.578	9025.47
489.948	9050.78
490.318	9262.52
490.688	9270.21
491.058	9404.89
491.428	9587.26
491.798	9641.05
492.168	9844.2
492.538	9906.12
492.908	9939.12
493.278	10081.49
493.648	10137.76
494.017	10270.41
494.387	10422.49
494.757	10451.19
495.126	10576.84
495.496	10555.37
495.866	10700.45
496.235	10767.8
496.605	10945.42
496.974	10956.72
497.344	11091.18
497.713	11144.74
498.082	11265.18
498.452	11429.93
498.821	11438.74
499.19	11489.36
499.559	11628.56
499.928	11705.85
500.298	11733.65
500.667	11792.63
501.036	11879.86
501.405	12009.8
501.774	12030.36
502.143	12167.08
502.512	12215.22
502.88	12392.39
503.249	12369.56
503.618	12423.8
503.987	12535.21
504.356	12719.16
504.724	12685.03
505.093	12792.15
505.462	12880.51
505.83	12971.58
506.199	13097
506.567	13216.77
506.936	13172.48
507.304	13425.81
507.672	13495.18
508.041	13606.59
508.409	13638
508.777	13789.64
509.145	13883.19
509.514	13815.4
509.882	14047.26
510.25	14042.06
510.618	14253.13
510.986	14190.98
511.354	14367.7
511.722	14517.08
512.09	14675.04
512.458	14634.13
512.826	14779.44
513.193	14913.45
513.561	15046.55
513.929	15111.18
514.297	15220.79
514.664	15352.53
515.032	15345.08
515.4	15559.76
515.767	15647.22
516.135	15678.63
516.502	15656.48
516.869	15956.13
517.237	16119.07
517.604	16012.63
517.972	16269.57
518.339	16311.38
518.706	16415.33
519.073	16566.97
519.44	16652.61
519.808	16848.09
520.175	16825.04
520.542	17099.61
520.909	17166.5
521.276	17189.55
521.643	17441.74
522.009	17566.71
522.376	17625.92
522.743	17761.96
523.11	18020.71
523.477	18156.53
523.843	18237.43
524.21	18365.79
524.577	18634.71
524.943	18671.54
525.31	18780.92
525.676	18981.37
526.043	19031.31
526.409	19166.45
526.776	19448.25
527.142	19544.06
527.508	19537.28
527.874	19757.62
528.241	19893.43
528.607	19949.93
528.973	20026.08
529.339	20252.07
529.705	20438.5
530.071	20633.53
530.437	20675.11
530.803	20730.25
531.169	20878.94
531.535	20803.24
531.901	21042.33
532.267	21030.8
532.632	21349.66
532.998	21327.29
533.364	21342.21
533.73	21469.89
534.095	21664.68
534.461	21851.35
534.826	21983.32
535.192	22023.77
535.557	22202.3
535.923	22176.99
536.288	22226.93
536.653	22402.74
537.019	22416.3
537.384	22547.6
537.749	22680.25
538.114	22804.09
538.479	22844.77
538.845	22875.27
539.21	22826.69
539.575	22906.01
539.94	23126.12
540.305	23384.87
540.67	23289.95
541.034	23368.82
541.399	23440.46
541.764	23563.84
542.129	23722.26
542.494	23745.76
542.858	23839.99
543.223	23864.63
543.587	24047.67
543.952	23997.5
544.316	24086.09
544.681	24089.71
545.045	24284.5
545.41	24417.38
545.774	24361.56
546.138	24406.76
546.503	24552.52
546.867	24668.67
547.231	24872.74
547.595	24843.58
547.959	25012.39
548.324	24954.54
548.688	25043.35
549.052	25264.14
549.416	25231.6
549.779	25309.79
550.143	25367.19
550.507	25538.71
550.871	25618.93
551.235	25690.34
551.599	25844.01
551.962	25880.39
552.326	26007.17
552.689	26218.24
553.053	26085.36
553.417	26231.8
553.78	26532.13
554.143	26430.89
554.507	26437.44
554.87	26697.09
555.234	26946.81
555.597	26893.47
555.96	26962.85
556.323	27039.91
556.686	27154.26
557.05	27252.33
557.413	27356.74
557.776	27537.75
558.139	27656.39
558.502	27790.85
558.865	27888.7
559.228	28013.44
559.59	28251.86
559.953	28287.11
560.316	28546.76
560.679	28647.55
561.041	28629.7
561.404	28901.1
561.767	29086.64
562.129	28913.53
562.492	29359.4
562.854	29289.34
563.217	29307.65
563.579	29488.21
563.941	29594.42
564.304	29881.87
564.666	29899.5
565.028	29945.82
565.39	30009.32
565.753	30329.54
566.115	30328.86
566.477	30492.25
566.839	30524.79
567.201	30850.43
567.563	30712.13
567.925	31092.46
568.287	31067.38
568.648	31228.5
569.01	31222.85
569.372	31558.21
569.734	31363.19
570.095	31675.27
570.457	31916.17
570.819	31906.45
571.18	31898.54
571.542	32173.33
571.903	32119.55
572.265	32355.7
572.626	32435.02
572.987	32371.07
573.349	32550.73
573.71	32613.78
574.071	32690.61
574.432	32798.63
574.794	32995.91
575.155	33084.05
575.516	32956.37
575.877	33023.93
576.238	33186.19
576.599	33289.92
576.96	33307.99
577.32	33412.62
577.681	33465.96
578.042	33537.82
578.403	33614.2
578.763	33658.49
579.124	33729.45
579.485	33794.54
579.845	34014.42
580.206	33894.19
580.566	33795.44
580.927	33859.84
581.287	33995.43
581.648	33927.64
582.008	34079.27
582.368	34032.49
582.728	34122.89
583.089	34098.48
583.449	34011.93
583.809	34139.38
584.169	34226.61
584.529	34148.42
584.889	34377.34
585.249	34096
585.609	34081.76
585.969	34357.46
586.329	34086.96
586.688	34337.35
587.048	34324.69
587.408	34190.91
587.768	34076.79
588.127	34238.14
588.487	34038.6
588.846	34366.27
589.206	34234.75
589.565	34297.35
589.925	34275.2
590.284	34296.22
590.643	34406.95
591.003	34360.17
591.362	34480.84
591.721	34343
592.08	34423.45
592.44	34508.64
592.799	34446.95
593.158	34434.97
593.517	34452.82
593.876	34538.47
594.235	34344.58
594.593	34409.43
594.952	34550.9
595.311	34514.97
595.67	34617.79
596.029	34684.68
596.387	34741.85
596.746	34705.47
597.104	34620.5
597.463	34611.01
597.822	34806.26
598.18	34682.65
598.538	34638.58
598.897	34956.99
599.255	34662.08
599.613	35167.83
599.972	34877.9
600.33	35108.62
600.688	34816.88
601.046	34970.32
601.404	35030.89
601.762	35059.81
602.12	35105.69
602.478	35270.65
602.836	35123.99
603.194	35007.16
603.552	35083.54
603.91	34976.88
604.268	35196.53
604.625	35114.73
604.983	35249.86
605.341	35073.37
605.698	35331.22
606.056	35346.81
606.413	35178.91
606.771	35546.13
607.128	35545.22
607.485	35329.41
607.843	35427.49
608.2	35568.05
608.557	35637.42
608.914	35453.93
609.272	35691.89
609.629	35726.01
609.986	35910.41
610.343	35790.19
610.7	35966.23
611.057	35902.5
611.414	35862.73
611.771	36020.69
612.127	36146.56
612.484	36084.19
612.841	36119.9
613.198	35980.92
613.554	36065.66
613.911	36303.62
614.267	36244.87
614.624	36129.16
614.98	36280.35
615.337	36432.66
615.693	36400.79
616.05	36302.72
616.406	36542.26
616.762	36328.48
617.118	36405.99
617.475	36381.59
617.831	36519.89
618.187	36524.18
618.543	36614.12
618.899	36789.48
619.255	36703.16
619.611	36600.56
619.967	36767.11
620.323	36781.58
620.678	36566.67
621.034	36596.95
621.39	36537.97
621.746	36511.07
622.101	36984.51
622.457	36642.14
622.812	36711.29
623.168	36830.16
623.523	36768.92
623.879	36976.6
624.234	36606.89
624.589	36827.68
624.945	36823.83
625.3	36845.53
625.655	36770.05
626.01	36784.96
626.365	36934.11
626.72	36963.49
627.075	36732.76
627.43	36736.83
627.785	36638.08
628.14	36650.28
628.495	36781.12
628.85	36714.91
629.205	36713.33
629.559	36710.16
629.914	36499.77
630.269	36538.19
630.623	36516.27
630.978	36403.05
631.332	36587.91
631.687	36672.2
632.041	36551.52
632.396	36549.72
632.75	36429.49
633.104	36394.24
633.459	36360.12
633.813	36250.52
634.167	36224.75
634.521	36295.26
634.875	36231.76
635.229	36182.49
635.583	35994.25
635.937	36004.87
636.291	36061.14
636.645	35987.02
636.999	35960.13
637.352	36018.66
637.706	35784.09
638.06	35897.3
638.413	35731.66
638.767	35649.85
639.121	35774.14
639.474	35575.73
639.828	35658.21
640.181	35549.74
640.534	35616.41
640.888	35570.31
641.241	35301.61
641.594	35425.23
641.947	35434.27
642.301	35146.59
642.654	35352.23
643.007	35278.56
643.36	35196.98
643.713	35138.68
644.066	35277.21
644.419	34987.72
644.771	34693.95
645.124	34450.34
645.477	34464.35
645.83	34225.71
646.182	33979.39
646.535	33984.81
646.888	33937.13
647.24	33795.89
647.593	34070.91
647.945	33914.98
648.298	33738.94
648.65	33692.16
649.002	33644.48
649.355	33774.65
649.707	33801.31
650.059	33829.34
650.411	34242.21
650.763	34341.19
651.115	34441.07
651.467	34380.06
651.819	34376.67
652.171	34317.01
652.523	34219.83
652.875	34125.6
653.227	34028.65
653.578	34270.45
653.93	34033.62
654.282	33947.3
654.633	33809.22
654.985	34002.89
655.337	34056.45
655.688	33967.64
656.039	34087.41
656.391	33772.84
656.742	33801.99
657.094	33826.62
657.445	33884.25
657.796	33741.2
658.147	33732.84
658.498	33801.54
658.849	33819.62
659.2	33688.32
659.551	33622.56
659.902	33829.56
660.253	33768.55
660.604	33765.84
660.955	33512.51
661.306	33575.33
661.656	33586.41
662.007	33644.93
662.358	33518.61
662.708	33532.85
663.059	33571.94
663.409	33251.95
663.76	33425.28
664.11	33559.29
664.461	33585.5
664.811	33526.07
665.161	33445.84
665.511	33414.66
665.862	33361.33
666.212	33483.13
666.562	33423.25
666.912	33335.11
667.262	33308.22
667.612	33296.02
667.962	33283.14
668.312	33211.95
668.662	33361.33
669.011	33364.04
669.361	33235
669.711	33140.99
670.06	33210.37
670.41	33072.07
670.76	33066.64
671.109	33122.01
671.459	33133.76
671.808	32985.52
672.157	33163.59
672.507	32907.78
672.856	32881.56
673.205	32887.44
673.554	33021.45
673.904	32795.92
674.253	33006.76
674.602	32946.65
674.951	32382.14
675.3	32165.43
675.649	32793.88
675.998	32774.45
676.346	32737.16
676.695	32728.8
677.044	32557.51
677.393	32653.1
677.741	32710.27
678.09	32689.71
678.438	32489.03
678.787	32600.67
679.135	32617.84
679.484	32416.27
679.832	32537.62
680.181	32334.69
680.529	32429.6
680.877	32398.41
681.225	32248.14
681.573	32455.59
681.922	32150.74
682.27	32045.2
682.618	32120.68
682.966	32058.31
683.314	32058.08
683.661	31904.42
684.009	31787.81
684.357	31718.66
684.705	31631.43
685.053	31789.62
685.4	31687.02
685.748	31447.7
686.095	31550.07
686.443	31322.51
686.79	31380.59
687.138	31393.69
687.485	31314.83
687.832	31200.48
688.18	31239.35
688.527	31069.64
688.874	31040.94
689.221	30956.87
689.568	30772.24
689.915	30783.99
690.262	30803.43
690.609	30661.74
690.956	30468.75
691.303	30597.11
691.65	30402.76
691.997	30356.43
692.344	30296.77
692.69	30143.56
693.037	30272.37
693.383	29895.65
693.73	29922.55
694.077	29821.53
694.423	29798.93
694.769	29725.49
695.116	29650.01
695.462	29690.46
695.808	29524.59
696.155	29508.32
696.501	29323.24
696.847	29339.06
697.193	29089.57
697.539	29272.85
697.885	28949.69
698.231	28961.89
698.577	28866.08
698.923	28872.86
699.269	28728
699.614	28621.11
699.96	28506.76
700.306	28494.56
700.651	28649.36
700.997	28318.75
701.342	28327.56
701.688	28350.84
702.033	28167.11
702.379	28170.73
702.724	27975.25
703.069	28084.4
703.415	27735.71
703.76	27782.26
704.105	27689.16
704.45	27685.09
704.795	27483.97
705.14	27491.65
705.485	27469.05
705.83	27304.99
706.175	27424.08
706.52	27311.54
706.865	27137.76
707.209	27213.92
707.554	26860.93
707.899	27149.51
708.243	26857.09
708.588	26932.79
708.932	26789.75
709.277	26673.14
709.621	26836.3
709.966	26574.84
710.31	26635.85
710.654	26369.19
710.998	26371.23
711.342	26436.08
711.687	26365.35
712.031	26181.18
712.375	26115.64
712.719	26140.05
713.063	26097.56
713.407	26190.22
713.75	26017.79
714.094	26052.14
714.438	25818.7
714.782	25908.64
715.125	25786.16
715.469	25789.77
715.812	25663.9
716.156	25613.96
716.499	25591.81
716.843	25585.03
717.186	25404.02
717.53	25529.22
717.873	25583
718.216	25310.46
718.559	25347.98
718.902	25226.62
719.246	25179.85
719.589	25124.71
719.932	25020.08
720.275	25006.74
720.617	24976.24
720.96	24917.48
721.303	24916.35
721.646	24919.97
721.989	24632.74
722.331	24704.38
722.674	24695.79
723.016	24746.64
723.359	24565.17
723.701	24625.51
724.044	24390.04
724.386	24393.43
724.729	24410.15
725.071	24399.75
725.413	24327.89
725.755	24370.15
726.097	24298.29
726.439	24166.54
726.782	24171.29
727.124	24235.01
727.465	24124.28
727.807	24074.56
728.149	24036.37
728.491	23913.67
728.833	23935.36
729.175	23945.53
729.516	23840.45
729.858	23836.83
730.199	23819.2
730.541	23718.42
730.882	23677.29
731.224	23785.98
731.565	23563.39
731.906	23495.6
732.248	23597.97
732.589	23437.52
732.93	23341.48
733.271	23404.07
733.612	23360.23
733.953	23368.59
734.294	23267.81
734.635	23195.04
734.976	23332.66
735.317	23167.92
735.658	23061.94
735.999	23159.79
736.339	23051.31
736.68	23095.16
737.021	23039.11
737.361	22925.22
737.702	23047.47
738.042	22930.19
738.383	22899.45
738.723	22918.66
739.063	22764.32
739.404	22819
739.744	22772.9
740.084	22609.52
740.424	22575.4
740.764	22648.61
741.104	22676.18
741.444	22407.72
741.784	22435.06
742.124	22466.7
742.464	22478.9
742.804	22438
743.143	22201.85
743.483	22294.5
743.823	22215.63
744.162	22197.78
744.502	22308.74
744.841	22190.32
745.181	22194.16
745.52	22113.03
745.86	22183.99
746.199	21987.39
746.538	22098.57
746.877	22053.37
747.216	22004.79
747.556	21950.1
747.895	21880.27
748.234	21891.12
748.573	21859.26
748.911	21737.45
749.25	21680.73
749.589	21734.51
749.928	21574.97
750.267	21656.78
750.605	21589.66
750.944	21517.34
751.283	21409.78
751.621	21492.03
751.96	21318.7
752.298	21293.62
752.636	21437.35
752.975	21190.12
753.313	21167.97
753.651	21207.97
753.989	21018.37
754.327	21101.54
754.666	20962.56
755.004	21061.08
755.342	20937.92
755.679	20967.08
756.017	20876.46
756.355	20909.9
756.693	20903.35
757.031	20786.97
757.368	20732.05
757.706	20618.84
758.044	20600.53
758.381	20687.31
758.719	20440.54
759.056	20551.04
759.394	20296.81
759.731	20229.69
760.068	20214.78
760.405	20180.2
760.743	20090.04
761.08	20073.54
761.417	19986.08
761.754	20058.4
762.091	19905.63
762.428	19885.52
762.765	19623.61
763.102	19840.55
763.438	19612.99
763.775	19592.42
764.112	19584.29
764.449	19599.65
764.785	19469.26
765.122	19291.64
765.458	19320.57
765.795	19276.95
766.131	19156.05
766.467	19051.65
766.804	18952.44
767.14	18861.82
767.476	18834.02
767.812	18829.5
768.148	18839.45
768.485	18747.02
768.821	18645.78
769.157	18586.8
769.492	18595.61
769.828	18516.97
770.164	18311.1
770.5	18344.55
770.836	18316.52
771.171	18166.92
771.507	18160.6
771.842	18023.88
772.178	18098
772.513	18019.36
772.849	17891.45
773.184	17830.89
773.519	17944.1
773.855	17703.66
774.19	17668.86
774.525	17604.23
774.86	17544.34
775.195	17545.47
775.53	17463.44
775.865	17379.37
776.2	17219.83
776.535	17138.25
776.87	17084.01
777.205	17005.37
777.539	17050.12
777.874	17025.03
778.209	16864.58
778.543	16804.7
778.878	16710.69
779.212	16770.58
779.547	16677.47
779.881	16694.65
780.215	16459.85
780.55	16651.03
780.884	16456.91
781.218	16355.67
781.552	16334.43
781.886	16290.36
782.22	16250.36
782.554	16254.21
782.888	16102.12
783.222	16030.93
783.556	15900.09
783.889	15922.24
784.223	15791.62
784.557	15759.98
784.89	15724.95
785.224	15693.09
785.557	15583.26
785.891	15536.03
786.224	15539.42
786.558	15473.21
786.891	15252.42
787.224	15246.1
787.557	15255.59
787.891	15267.79
788.224	15149.15
788.557	15099.66
788.89	15087.46
789.223	15029.15
789.556	14920.46
789.888	14881.81
790.221	14891.3
790.554	14797.75
790.887	14737.18
791.219	14742.38
791.552	14675.26
791.884	14466.23
792.217	14563.63
792.549	14418.32
792.882	14366.35
793.214	14378.1
793.546	14346.01
793.879	14316.86
794.211	14181.72
794.543	14222.62
794.875	14180.36
795.207	14115.05
795.539	14093.58
795.871	14121.38
796.203	14053.59
796.535	13826.02
796.867	13900.59
797.198	13848.84
797.53	13793.25
797.862	13685.46
798.193	13739.02
798.525	13596.42
798.856	13653.6
799.188	13536.31
799.519	13460.83
799.85	13365.02
800.182	13357.11
800.513	13340.61
800.844	13167.28
801.175	13377.67
801.506	13346.03
801.837	13192.14
802.168	13178.13
802.499	13060.84
802.83	13066.72
803.161	13058.13
803.491	13010.45
803.822	13049.32
804.153	12945.59
804.483	12736.56
804.814	12819.49
805.145	12835.54
805.475	12770.46
805.805	12714.19
806.136	12772.04
806.466	12740.85
806.796	12684.13
807.126	12568.65
807.457	12517.13
807.787	12539.05
808.117	12522.55
808.447	12443.46
808.777	12502.89
809.107	12405.27
809.436	12275.33
809.766	12388.09
810.096	12317.81
810.426	12248.66
810.755	12269.45
811.085	12204.37
811.414	12224.48
811.744	12072.62
812.073	12054.77
812.403	12078.27
812.732	11959.18
813.061	11923.02
813.39	11942.68
813.719	11911.95
814.049	11951.27
814.378	11937.93
814.707	11825.4
815.036	11777.94
815.365	11752.18
815.693	11610.26
816.022	11674.89
816.351	11656.13
816.68	11579.07
817.008	11638.73
817.337	11570.71
817.665	11450.72
817.994	11586.08
818.322	11432.19
818.651	11464.05
818.979	11424.28
819.307	11466.08
819.636	11387.67
819.964	11330.95
820.292	11406.2
820.62	11397.38
820.948	11323.49
821.276	11370.04
821.604	11274.22
821.932	11384.95
822.259	11360.55
822.587	11302.92
822.915	11242.36
823.243	11284.84
823.57	11201.46
823.898	11208.91
824.225	11245.98
824.553	11220.67
824.88	11190.84
825.207	11252.53
825.535	11200.55
825.862	11227.67
826.189	11102.25
826.516	11310.61
826.843	11307.44
827.17	11271.51
827.497	11243.94
827.824	11299.99
828.151	11308.57
828.478	11253.66
828.805	11314
829.131	11243.72
829.458	11178.18
829.785	11156.71
830.111	11154.45
830.438	11181.57
830.764	11121.01
831.09	11304.28
831.417	11183.6
831.743	11208.69
832.069	11237.84
832.395	11120.1
832.722	11215.47
833.048	11125.07
833.374	11193.77
833.7	11059.99
834.026	11111.97
834.351	11139.54
834.677	11092.08
835.003	11130.05
835.329	11067
835.654	10995.36
835.98	11002.37
836.306	10969.15
836.631	10957.17
836.956	10993.78
837.282	11061.35
837.607	10922.59
837.932	10851.41
838.258	10934.35
838.583	10897.74
838.908	10843.27
839.233	10915.59
839.558	10892.31
839.883	10757.4
840.208	10767.12
840.533	10695.03
840.858	10757.4
841.182	10767.34
841.507	10709.94
841.832	10667.01
842.156	10691.41
842.481	10664.97
842.805	10623.17
843.13	10640.12
843.454	10576.39
843.778	10557.86
844.103	10520.12
844.427	10476.28
844.751	10504.07
845.075	10442.38
845.399	10464.08
845.723	10365.55
846.047	10363.74
846.371	10365.32
846.695	10353.8
847.019	10258.88
847.343	10212.56
847.666	10128.04
847.99	10089.85
848.313	10141.6
848.637	10001.71
848.96	10017.08
849.284	9942.05
849.607	9873.13
849.931	9896.41
850.254	9800.82
850.577	9758.11
850.9	9705.9
851.223	9695.96
851.546	9672.01
851.869	9657.32
852.192	9665.9
852.515	9555.62
852.838	9464.55
853.161	9536.64
853.483	9470.88
853.806	9389.3
854.129	9404.67
854.451	9407.83
854.774	9370.54
855.096	9366.25
855.419	9285.8
855.741	9224.56
856.063	9226.59
856.385	9196.99
856.708	9169.87
857.03	9105.47
857.352	9099.82
857.674	9112.47
857.996	9011.68
858.318	8994.74
858.64	8999.03
858.961	9009.88
859.283	8924
859.605	8881.52
859.926	8919.93
860.248	8871.35
860.57	8883.78
860.891	8873.38
861.212	8797.23
861.534	8728.75
861.855	8755.42
862.176	8737.57
862.498	8741.18
862.819	8772.37
863.14	8687.4
863.461	8725.14
863.782	8695.08
864.103	8691.92
864.424	8657.12
864.745	8583.45
865.065	8593.16
865.386	8533.96
865.707	8578.02
866.027	8597.01
866.348	8555.65
866.668	8479.49
866.989	8474.52
867.309	8476.1
867.63	8491.25
867.95	8518.82
868.27	8413.51
868.59	8436.56
868.91	8397.24
869.23	8403.56
869.55	8354.53
869.87	8429.55
870.19	8356.11
870.51	8326.5
870.83	8396.33
871.15	8322.66
871.469	8371.25
871.789	8306.39
872.109	8358.14
872.428	8309.33
872.748	8287.86
873.067	8249.22
873.386	8248.99
873.706	8240.4
874.025	8245.83
874.344	8165.38
874.663	8176.68
874.982	8174.42
875.301	8176.45
875.62	8101.2
875.939	8128.77
876.258	8126.96
876.577	8082.44
876.896	8043.57
877.214	8070.01
877.533	8063.69
877.852	8017.81
878.17	8038.38
878.489	7981.43
878.807	8040.18
879.125	7969.9
879.444	7958.38
879.762	7969.68
880.08	7990.02
880.398	7881.77
880.716	7921.77
881.034	7846.52
881.352	7865.73
881.67	7860.3
881.988	7840.42
882.306	7892.62
882.624	7788.44
882.941	7830.02
883.259	7781.89
883.577	7772.85
883.894	7763.36
884.212	7698.95
884.529	7691.04
884.846	7714.32
885.164	7666.86
885.481	7657.37
885.798	7621.44
886.115	7569.46
886.432	7642.45
886.75	7525.4
887.067	7545.06
887.383	7558.61
887.7	7538.05
888.017	7440.2
888.334	7512.06
888.651	7430.03
888.967	7446.53
889.284	7380.99
889.6	7372.63
889.917	7311.16
890.233	7347.32
890.55	7319.07
890.866	7339.86
891.182	7352.97
891.498	7265.06
891.815	7270.26
892.131	7235.23
892.447	7252.18
892.763	7150.94
893.079	7101.23
893.395	7134.45
893.71	7122.92
894.026	7087.89
894.342	7154.11
894.657	7036.37
894.973	7028.69
895.289	6969.03
895.604	7086.54
895.92	6996.6
896.235	6931.51
896.55	6946.88
896.865	6920.44
897.181	6905.07
897.496	6891.06
897.811	6857.16
898.126	6809.71
898.441	6790.27
898.756	6777.39
899.071	6764.51
899.386	6734.68
899.7	6716.83
900.015	6658.75
900.33	6588.24
900.644	6634.57
900.959	6581.92
901.273	6621.69
901.588	6531.3
901.902	6573.56
902.216	6539.88
902.531	6460.56
902.845	6489.94
903.159	6414.01
903.473	6386.89
903.787	6371.3
904.101	6313.9
904.415	6377.18
904.729	6327.23
905.042	6272.09
905.356	6245.88
905.67	6292.21
905.984	6225.99
906.297	6248.14
906.611	6240.91
906.924	6214.24
907.237	6172.21
907.551	6160.91
907.864	6123.4
908.177	6082.72
908.491	6054.02
908.804	6052.21
909.117	6041.59
909.43	5987.13
909.743	5956.62
910.056	5916.62
910.368	5932.67
910.681	5920.24
910.994	5877.76
911.307	5830.3
911.619	5786.91
911.932	5792.33
912.244	5768.38
912.557	5775.61
912.869	5726.12
913.181	5695.84
913.494	5686.57
913.806	5660.13
914.118	5628.04
914.43	5553.92
914.742	5583.75
915.054	5573.81
915.366	5547.37
915.678	5510.31
915.99	5476.64
916.302	5444.55
916.613	5433.92
916.925	5414.94
917.236	5446.58
917.548	5360.25
917.859	5404.32
918.171	5347.6
918.482	5308.96
918.794	5297.21
919.105	5258.79
919.416	5213.59
919.727	5179.92
920.038	5200.26
920.349	5198.68
920.66	5152.12
920.971	5170.66
921.282	5132.92
921.593	5122.75
921.903	5094.72
922.214	5061.96
922.525	5033.48
922.835	5043.2
923.146	5016.76
923.456	4974.5
923.767	4911.9
924.077	4946.25
924.387	4912.58
924.697	4915.97
925.008	4880.49
925.318	4861.74
925.628	4852.02
925.938	4822.87
926.248	4834.84
926.558	4809.31
926.867	4806.6
927.177	4726.82
927.487	4732.93
927.796	4722.53
928.106	4700.84
928.416	4687.5
928.725	4649.54
929.034	4620.16
929.344	4639.82
929.653	4634.62
929.962	4612.93
930.271	4553.04
930.581	4549.88
930.89	4501.75
931.199	4502.2
931.508	4438.92
931.817	4459.94
932.125	4400.73
932.434	4403.44
932.743	4420.17
933.051	4380.85
933.36	4387.17
933.669	4349.43
933.977	4353.05
934.286	4317.34
934.594	4309.21
934.902	4288.19
935.21	4243
935.519	4271.92
935.827	4243.9
936.135	4190.12
936.443	4215.65
936.751	4170
937.059	4155.99
937.367	4151.7
937.674	4158.7
937.982	4166.61
938.29	4118.25
938.597	4110.12
938.905	4030.12
939.213	4049.55
939.52	4018.14
939.827	4000.97
940.135	3984.25
940.442	3986.28
940.749	3994.87
941.056	3934.3
941.363	3919.16
941.67	3893.17
941.977	3913.51
942.284	3883.23
942.591	3858.15
942.898	3844.59
943.205	3817.7
943.511	3825.38
943.818	3825.83
944.125	3756.68
944.431	3775.44
944.738	3815.89
945.044	3734.31
945.35	3706.51
945.657	3713.52
945.963	3676.91
946.269	3675.78
946.575	3676.68
946.881	3631.94
947.187	3645.05
947.493	3634.65
947.799	3569.12
948.105	3562.79
948.41	3534.99
948.716	3523.69
949.022	3541.09
949.327	3519.85
949.633	3441.66
949.938	3485.28
950.244	3466.97
950.549	3419.97
950.854	3423.36
951.16	3414.54
951.465	3410.25
951.77	3400.08
952.075	3342.23
952.38	3384.71
952.685	3346.52
952.99	3321.21
953.294	3306.52
953.599	3321.89
953.904	3327.09
954.209	3280.99
954.513	3281.89
954.818	3234.43
955.122	3240.99
955.426	3248.67
955.731	3219.07
956.035	3187.66
956.339	3150.14
956.643	3165.96
956.948	3155.34
957.252	3168
957.556	3134.1
957.86	3132.74
958.163	3146.98
958.467	3103.14
958.771	3084.83
959.075	3059.3
959.378	3060.65
959.682	3048.9
959.985	3032.86
960.289	2998.73
960.592	2992.63
960.896	3029.92
961.199	3021.78
961.502	2957.83
961.805	2979.3
962.108	2916.93
962.411	2917.15
962.714	2951.05
963.017	2909.92
963.32	2949.47
963.623	2906.99
963.926	2896.59
964.228	2869.02
964.531	2831.28
964.833	2836.48
965.136	2846.42
965.438	2825.41
965.741	2813.2
966.043	2793.77
966.345	2775.01
966.648	2761
966.95	2745.41
967.252	2724.84
967.554	2704.51
967.856	2763.49
968.158	2683.94
968.46	2682.13
968.761	2700.21
969.063	2699.31
969.365	2664.28
969.666	2629.93
969.968	2636.26
970.269	2631.74
970.571	2643.04
970.872	2615.69
971.174	2607.78
971.475	2580.44
971.776	2589.48
972.077	2532.98
972.378	2566.66
972.679	2573.44
972.98	2535.47
973.281	2559.42
973.582	2532.98
973.883	2484.62
974.183	2504.51
974.484	2472.87
974.785	2484.85
975.085	2466.32
975.386	2440.33
975.686	2451.63
975.986	2435.13
976.287	2411.18
976.587	2402.14
976.887	2398.3
977.187	2400.56
977.487	2380.45
977.787	2370.73
978.087	2401.24
978.387	2368.47
978.687	2323.5
978.987	2295.48
979.286	2321.24
979.586	2318.98
979.885	2330.96
980.185	2321.69
980.484	2290.5
980.784	2268.81
981.083	2265.87
981.382	2257.51
981.682	2216.83
981.981	2236.04
982.28	2243.95
982.579	2222.03
982.878	2228.13
983.177	2201.02
983.475	2215.48
983.774	2177.51
984.073	2187.68
984.372	2165.99
984.67	2152.2
984.969	2158.53
985.267	2128.25
985.566	2118.98
985.864	2108.81
986.162	2079.66
986.461	2104.75
986.759	2114.92
987.057	2067.91
987.355	2059.55
987.653	2062.26
987.951	2056.16
988.249	2043.51
988.547	2037.63
988.844	2013.22
989.142	2013.9
989.44	2042.83
989.737	2009.61
990.035	1971.42
990.332	1967.12
990.63	1960.12
990.927	1959.21
991.224	1954.47
991.521	1979.1
991.819	1950.63
992.116	1965.99
992.413	1938.2
992.71	1916.28
993.006	1921.7
993.303	1900.46
993.6	1899.33
993.897	1874.47
994.193	1892.78
994.49	1864.53
994.787	1838.54
995.083	1852.1
995.379	1836.05
995.676	1824.98
995.972	1817.75
996.268	1838.31
996.565	1787.69
996.861	1772.1
997.157	1800.57
997.453	1779.11
997.749	1783.17
998.044	1776.39
998.34	1726.68
998.636	1738.2
998.932	1742.72
999.227	1730.29
999.523	1724.42
999.818	1688.03
1000.114	1670.86
1000.409	1685.32
1000.704	1691.42
1001	1685.55
1001.295	1648.26
1001.59	1669.28
1001.885	1648.04
1002.18	1653.46
1002.475	1612.78
1002.77	1619.56
1003.065	1576.4
1003.359	1600.58
1003.654	1597.64
1003.949	1596.96
1004.243	1583.18
1004.538	1609.84
1004.832	1571.65
1005.127	1546.12
1005.421	1528.94
1005.715	1539.11
1006.009	1539.34
1006.304	1536.85
1006.598	1508.15
1006.892	1497.31
1007.186	1507.25
1007.48	1513.12
1007.773	1471.77
1008.067	1464.54
1008.361	1471.77
1008.655	1464.76
1008.948	1429.74
1009.242	1432.9
1009.535	1459.34
1009.829	1427.93
1010.122	1421.83
1010.415	1428.15
1010.708	1414.6
1011.001	1382.28
1011.295	1413.92
1011.588	1373.24
1011.881	1372.34
1012.173	1381.83
1012.466	1368.72
1012.759	1339.57
1013.052	1324.65
1013.344	1348.38
1013.637	1341.38
1013.93	1370.53
1014.222	1319.68
1014.514	1314.26
1014.807	1288.95
1015.099	1277.2
1015.391	1308.16
1015.683	1278.78
1015.976	1302.73
1016.268	1294.6
1016.56	1245.11
1016.851	1248.95
1017.143	1259.12
1017.435	1247.37
1017.727	1219.8
1018.018	1207.6
1018.31	1215.05
1018.602	1239.91
1018.893	1196.97
1019.185	1170.08
1019.476	1184.55
1019.767	1198.78
1020.058	1160.82
1020.35	1170.08
1020.641	1175.05
1020.932	1172.12
1021.223	1139.8
1021.514	1142.74
1021.804	1123.08
1022.095	1138.9
1022.386	1123.98
1022.677	1115.62
1022.967	1093.25
1023.258	1107.94
1023.548	1085.11
1023.839	1108.84
1024.129	1079.24
1024.419	1071.33
1024.709	1072.91
1025	1042.63
1025.29	1060.71
1025.58	1067.94
1025.87	1048.5
1026.16	1022.06
1026.449	1057.09
1026.739	1041.05
1027.029	1017.77
1027.319	1048.73
1027.608	1017.54
1027.898	1011.44
1028.187	993.36
1028.477	994.95
1028.766	976.64
1029.055	982.97
1029.344	969.18
1029.634	974.38
1029.923	981.16
1030.212	956.3
1030.501	942.29
1030.79	935.96
1031.078	941.39
1031.367	938.45
1031.656	921.05
1031.945	934.83
1032.233	900.03
1032.522	908.39
1032.81	877.89
1033.099	907.04
1033.387	885.8
1033.675	906.13
1033.963	889.19
1034.251	853.48
1034.54	887.6
1034.828	886.47
1035.116	875.63
1035.403	872.46
1035.691	856.64
1035.979	862.97
1036.267	843.09
1036.554	840.6
1036.842	850.32
1037.129	806.48
1037.417	823.65
1037.704	841.5
1037.992	802.86
1038.279	841.5
1038.566	803.76
1038.853	803.76
1039.14	803.76
