Data from White_reflection_standard_FLMS001491_097.txt Node
Date: Tue Feb 07 10:32:14 GMT 2017
User: dcchb
Spectrometer: FLMS00149
Trigger mode: 0
Integration Time (sec): 2.000000E-2
Scans to average: 10
Electric dark correction enabled: true
Nonlinearity correction enabled: false
Boxcar width: 0
XAxis mode: Wavelengths
Number of Pixels in Spectrum: 2048
>>>>>Begin Spectral Data<<<<<
341.393	-9.75
341.776	-9.75
342.16	-9.75
342.543	-54.72
342.927	-49.52
343.31	-63.3
343.693	-77.09
344.077	-60.14
344.46	-56.52
344.843	-50.42
345.226	-65.79
345.61	-14.94
345.993	-27.6
346.376	-4.32
346.759	2.68
347.142	25.51
347.525	47.2
347.908	51.27
348.291	70.03
348.674	107.31
349.057	116.13
349.44	117.48
349.823	151.61
350.206	159.97
350.588	225.5
350.971	257.37
351.354	256.69
351.737	278.38
352.119	311.6
352.502	312.05
352.884	317.25
353.267	324.48
353.65	334.2
354.032	366.97
354.414	335.1
354.797	350.25
355.179	350.7
355.562	369.91
355.944	387.76
356.326	404.25
356.709	379.4
357.091	385.5
357.473	406.97
357.855	388.21
358.238	394.99
358.62	427.53
359.002	395.44
359.384	391.83
359.766	409
360.148	383.69
360.53	415.33
360.912	395.22
361.294	400.41
361.676	421.43
362.057	421.66
362.439	414.42
362.821	425.05
363.203	392.05
363.584	411.26
363.966	416.68
364.348	405.38
364.729	388.89
365.111	413.52
365.493	409.45
365.874	409
366.256	419.17
366.637	425.72
367.019	411.49
367.4	418.04
367.781	396.35
368.163	423.01
368.544	431.15
368.925	417.59
369.306	425.5
369.688	427.53
370.069	412.39
370.45	439.51
370.831	451.49
371.212	412.16
371.593	433.18
371.974	437.93
372.355	443.12
372.736	457.13
373.117	454.42
373.498	458.72
373.879	458.26
374.26	459.39
374.641	435.44
375.021	460.98
375.402	461.65
375.783	468.89
376.163	493.07
376.544	500.52
376.925	490.81
377.305	475.44
377.686	480.64
378.066	480.86
378.447	504.59
378.827	491.26
379.208	497.59
379.588	517.7
379.968	508.88
380.349	517.47
380.729	534.42
381.109	539.62
381.489	539.39
381.87	532.61
382.25	550.24
382.63	554.53
383.01	542.1
383.39	580.3
383.77	556.34
384.15	578.94
384.53	569.45
384.91	583.01
385.29	579.62
385.67	607.87
386.049	628.66
386.429	620.97
386.809	623.91
387.189	616.68
387.568	634.08
387.948	643.57
388.328	631.37
388.707	676.56
389.087	669.33
389.466	696.9
389.846	679.05
390.225	691.48
390.605	667.75
390.984	707.07
391.363	699.61
391.743	739.16
392.122	731.25
392.501	720.18
392.881	751.59
393.26	763.34
393.639	768.09
394.018	768.77
394.397	784.13
394.776	771.7
395.155	791.14
395.534	787.52
395.913	799.95
396.292	827.29
396.671	814.64
397.05	829.78
397.429	856.9
397.808	844.7
398.186	852.15
398.565	875.88
398.944	849.89
399.323	870.46
399.701	903
400.08	876.78
400.458	899.16
400.837	898.25
401.215	911.36
401.594	939.61
401.972	937.35
402.351	955.88
402.729	964.01
403.107	937.8
403.486	996.33
403.864	978.25
404.242	1011.24
404.62	1006.5
404.999	1017.8
405.377	1039.94
405.755	1067.74
406.133	1069.1
406.511	1085.82
406.889	1108.64
407.267	1095.76
407.645	1136.44
408.023	1132.15
408.401	1158.59
408.779	1169.88
409.156	1185.25
409.534	1197
409.912	1180.28
410.29	1224.12
410.667	1254.4
411.045	1293.95
411.422	1270.45
411.8	1317.23
412.178	1304.57
412.555	1368.3
412.933	1356.09
413.31	1396.32
413.687	1411.69
414.065	1399.48
414.442	1411.23
414.819	1441.06
415.197	1458.69
415.574	1490.55
415.951	1517.67
416.328	1488.75
416.705	1533.04
417.082	1523.1
417.46	1563.09
417.837	1545.24
418.214	1572.81
418.591	1636.54
418.967	1600.38
419.344	1615.07
419.721	1673.37
420.098	1669.08
420.475	1668.85
420.852	1674.73
421.228	1727.84
421.605	1735.97
421.982	1740.94
422.358	1789.3
422.735	1806.93
423.111	1805.12
423.488	1830.43
423.864	1861.84
424.241	1839.7
424.617	1905.68
424.994	1924.44
425.37	1923.09
425.746	1974.38
426.123	1985.46
426.499	1996.3
426.875	2034.04
427.251	2074.04
427.627	2094.15
428.003	2133.02
428.379	2142.74
428.756	2172.12
429.132	2223.19
429.507	2247.6
429.883	2268.61
430.259	2286.24
430.635	2306.35
431.011	2330.76
431.387	2395.39
431.763	2460.02
432.138	2491.88
432.514	2528.49
432.89	2570.98
433.265	2526.68
433.641	2612.56
434.016	2638.09
434.392	2657.53
434.767	2724.87
435.143	2713.57
435.518	2728.49
435.894	2791.54
436.269	2840.12
436.644	2860.01
437.02	2909.95
437.395	2900.91
437.77	2956.28
438.145	2970.52
438.52	3041.02
438.895	3046.22
439.271	3097.52
439.646	3121.92
440.021	3170.96
440.395	3171.64
440.77	3195.59
441.145	3184.75
441.52	3272.65
441.895	3286.66
442.27	3334.35
442.645	3318.53
443.019	3370.5
443.394	3403.27
443.769	3414.12
444.143	3399.88
444.518	3509.94
444.892	3424.97
445.267	3473.33
445.641	3525.53
446.016	3538.41
446.39	3596.71
446.764	3602.59
447.139	3623.83
447.513	3658.18
447.887	3635.58
448.262	3706.99
448.636	3733.66
449.01	3777.95
449.384	3794
449.758	3834.22
450.132	3855.01
450.506	3896.82
450.88	3940.43
451.254	3986.08
451.628	4008.23
452.002	4071.96
452.376	4103.82
452.75	4121.9
453.123	4186.98
453.497	4271.27
453.871	4286.19
454.244	4359.18
454.618	4426.07
454.992	4477.82
455.365	4451.83
455.739	4614.54
456.112	4603.69
456.486	4717.14
456.859	4729.79
457.232	4807.08
457.606	4824.93
457.979	4914.42
458.352	4943.8
458.725	5053.17
459.099	5095.88
459.472	5160.97
459.845	5206.84
460.218	5261.75
460.591	5378.59
460.964	5380.4
461.337	5454.52
461.71	5578.81
462.083	5656.55
462.456	5628.3
462.829	5719.82
463.201	5811.34
463.574	5781.06
463.947	5966.82
464.32	6046.59
464.692	6054.5
465.065	6149.41
465.438	6223.54
465.81	6343.99
466.183	6388.73
466.555	6505.34
466.928	6609.52
467.3	6529.29
467.672	6692.9
468.045	6842.28
468.417	6836.85
468.789	6990.3
469.161	7027.58
469.534	7198.2
469.906	7322.27
470.278	7409.95
470.65	7435.03
471.022	7590.73
471.394	7759.99
471.766	7823.49
472.138	7877.5
472.51	8077.27
472.882	8242.01
473.253	8362.69
473.625	8434.33
473.997	8648.11
474.369	8686.52
474.74	8834.32
475.112	9001.99
475.484	9123.35
475.855	9270.24
476.227	9385.04
476.598	9564.69
476.97	9662.99
477.341	9946.38
477.713	10056.88
478.084	10108.41
478.455	10432.69
478.827	10467.95
479.198	10808.28
479.569	10845.11
479.94	11165.1
480.311	11294.36
480.682	11461.37
481.053	11746.56
481.424	11921.69
481.795	12041.69
482.166	12234
482.537	12423.83
482.908	12683.48
483.279	12837.6
483.65	12980.65
484.021	13302.9
484.391	13448.88
484.762	13522.55
485.133	13807.52
485.503	13911.92
485.874	14290.67
486.244	14341.97
486.615	14679.81
486.985	14843.2
487.356	15022.63
487.726	15228.27
488.097	15533.35
488.467	15568.15
488.837	15884.98
489.207	16038.65
489.578	16283.84
489.948	16437.05
490.318	16767.21
490.688	16778.29
491.058	17078.39
491.428	17338.05
491.798	17470.25
492.168	17820.75
492.538	17898.48
492.908	18108.87
493.278	18312.94
493.648	18340.05
494.017	18590.44
494.387	18745.47
494.757	18998.34
495.126	19124.21
495.496	19117.66
495.866	19372.34
496.235	19628.38
496.605	19783.41
496.974	19932.1
497.344	20093.45
497.713	20225.65
498.082	20320.57
498.452	20560.79
498.821	20686.43
499.19	20691.41
499.559	20921.46
499.928	21168.23
500.298	21268.79
500.667	21475.57
501.036	21411.84
501.405	21627.88
501.774	21704.71
502.143	21959.85
502.512	22123.68
502.88	22410
503.249	22304.02
503.618	22511.24
503.987	22584.91
504.356	22832.14
504.724	22973.83
505.093	23045.02
505.462	23214.28
505.83	23403.42
506.199	23602.74
506.567	23928.38
506.936	23929.96
507.304	24255.83
507.672	24342.83
508.041	24411.99
508.409	24685.2
508.777	24822.37
509.145	24942.14
509.514	25021.91
509.882	25244.51
510.25	25433.65
510.618	25557.27
510.986	25610.37
511.354	25938.5
511.722	26077.25
512.09	26400.18
512.458	26407.19
512.826	26614.64
513.193	26817.35
513.561	26973.05
513.929	27174.17
514.297	27436.99
514.664	27580.72
515.032	27711.33
515.4	27913.36
515.767	28072.91
516.135	28273.8
516.502	28197.2
516.869	28787.01
517.237	28841.7
517.604	28824.98
517.972	29213.21
518.339	29471.06
518.706	29571.4
519.073	29554.67
519.44	29894.33
519.808	30329.8
520.175	30290.93
520.542	30750.35
520.909	30783.8
521.276	30808.65
521.643	31264.23
522.009	31552.59
522.376	31774.05
522.743	31795.07
523.11	32147.6
523.477	32550.53
523.843	32626.91
524.21	33018.99
524.577	33228.48
524.943	33478.87
525.31	33626.88
525.676	34013.54
526.043	34144.61
526.409	34351.38
526.776	34702.56
527.142	34843.58
527.508	34955.66
527.874	35218.03
528.241	35486.04
528.607	35534.4
528.973	35913.38
529.339	36131.23
529.705	36482.63
530.071	36701.38
530.437	36779.12
530.803	36958.32
531.169	37339.78
531.535	37225.66
531.901	37403.96
532.267	37650.96
532.632	37890.5
532.998	37986.77
533.364	38279.19
533.73	38430.6
534.095	38615.91
534.461	38687.32
534.826	38927.99
535.192	39026.97
535.557	39305.15
535.923	39399.39
536.288	39615.43
536.653	39790.34
537.019	39714.86
537.384	39964.8
537.749	40106.49
538.114	40190.33
538.479	40312.36
538.845	40513.03
539.21	40493.14
539.575	40706.25
539.94	40831.44
540.305	41103.3
540.67	41135.16
541.034	41374.48
541.399	41509.84
541.764	41585.32
542.129	41675.71
542.494	41866.89
542.858	42051.52
543.223	42122.48
543.587	42294.45
543.952	42320.67
544.316	42482.02
544.681	42489.93
545.045	42704.84
545.41	43041.1
545.774	43045.85
546.138	43207.88
546.503	43182.57
546.867	43392.5
547.231	43667.07
547.595	43768.09
547.959	43830.91
548.324	43868.65
548.688	44161.07
549.052	44233.61
549.416	44277.45
549.779	44381.63
550.143	44582.98
550.507	44960.6
550.871	45013.25
551.235	45008.28
551.599	45306.8
551.962	45340.47
552.326	45501.37
552.689	45702.95
553.053	45596.96
553.417	45819.33
553.78	46268.59
554.143	46198.98
554.507	46386.1
554.87	46417.28
555.234	46948.34
555.597	46774.11
555.96	46900.43
556.323	47178.39
556.686	47174.1
557.05	47508.78
557.413	47520.76
557.776	47772.73
558.139	48067.86
558.502	47978.15
558.865	48167.07
559.228	48442.99
559.59	48502.2
559.953	48543.33
560.316	49043.65
560.679	49016.76
561.041	49263.99
561.404	49272.57
561.767	49657.65
562.129	49560.25
562.492	49918.66
562.854	49906
563.217	50028.49
563.579	50185.09
563.941	50361.13
564.304	50516.61
564.666	50814.45
565.028	50776.94
565.39	50918.18
565.753	51015.35
566.115	51239.75
566.477	51424.16
566.839	51529.24
567.201	51730.14
567.563	51776.92
567.925	51964.93
568.287	52010.81
568.648	52108.21
569.01	52225.27
569.372	52376.67
569.734	52355.21
570.095	52565.14
570.457	52701.18
570.819	52774.4
571.18	52790.9
571.542	52982.76
571.903	53119.93
572.265	53116.77
572.626	53239.02
572.987	53310.66
573.349	53349.3
573.71	53575.29
574.071	53568.28
574.432	53644.44
574.794	53850.76
575.155	53815.05
575.516	53713.14
575.877	53875.62
576.238	53994.94
576.599	54146.34
576.96	54089.4
577.32	54160.58
577.681	54221.6
578.042	54392.67
578.403	54304.08
578.763	54345.89
579.124	54339.56
579.485	54443.29
579.845	54598.99
580.206	54477.64
580.566	54526.9
580.927	54607.35
581.287	54651.87
581.648	54555.83
582.008	54708.14
582.368	54546.33
582.728	54675.37
583.089	54714.01
583.449	54773.22
583.809	54715.37
584.169	54859.55
584.529	54734.58
584.889	54913.78
585.249	54814.12
585.609	54621.59
585.969	54874.01
586.329	54745.88
586.688	54830.62
587.048	54731.41
587.408	54835.59
587.768	54773.67
588.127	54766.67
588.487	54709.49
588.846	54960.56
589.206	54755.82
589.565	54826.55
589.925	54898.87
590.284	54897.29
590.643	54901.35
591.003	54938.19
591.362	54966.21
591.721	54971.41
592.08	54964.85
592.44	55012.99
592.799	54978.41
593.158	54975.93
593.517	54956.72
593.876	55031.75
594.235	55023.16
594.593	54967.34
594.952	55038.75
595.311	54953.33
595.67	55055.7
596.029	55174.11
596.387	55204.4
596.746	55210.95
597.104	55089.6
597.463	55137.96
597.822	55263.83
598.18	55145.64
598.538	55078.52
598.897	55252.76
599.255	55009.82
599.613	55429.93
599.972	55273.09
600.33	55402.13
600.688	55246.2
601.046	55336.6
601.404	55459.98
601.762	55396.48
602.12	55539.98
602.478	55519.64
602.836	55501.11
603.194	55437.84
603.552	55478.06
603.91	55433.77
604.268	55568
604.625	55498.85
604.983	55608.45
605.341	55506.76
605.698	55575.46
606.056	55636.93
606.413	55598.28
606.771	55754.66
607.128	55779.97
607.485	55542.69
607.843	55652.75
608.2	55810.48
608.557	55942.23
608.914	55835.57
609.272	55906.75
609.629	55966.18
609.986	55993.08
610.343	55934.32
610.7	56126.18
611.057	56074.43
611.414	55989.01
611.771	56055.9
612.127	56209.12
612.484	56192.84
612.841	56249.11
613.198	56128.89
613.554	56160.98
613.911	56275.55
614.267	56300.64
614.624	56309.23
614.98	56318.72
615.337	56352.84
615.693	56311.03
616.05	56297.93
616.406	56584.7
616.762	56328.66
617.118	56398.94
617.475	56413.86
617.831	56486.4
618.187	56440.07
618.543	56501.99
618.899	56667.86
619.255	56600.52
619.611	56469.67
619.967	56580.63
620.323	56723
620.678	56583.12
621.034	56490.92
621.39	56492.27
621.746	56482.78
622.101	56797.12
622.457	56557.13
622.812	56603.91
623.168	56697.01
623.523	56658.82
623.879	56727.52
624.234	56501.99
624.589	56609.56
624.945	56664.47
625.3	56673.28
625.655	56571.59
626.01	56713.96
626.365	56672.38
626.72	56634.64
627.075	56609.1
627.43	56674.87
627.785	56500.63
628.14	56545.83
628.495	56585.6
628.85	56581.76
629.205	56464.7
629.559	56675.54
629.914	56457.02
630.269	56511.25
630.623	56350.58
630.978	56313.29
631.332	56475.77
631.687	56500.41
632.041	56407.75
632.396	56391.71
632.75	56301.99
633.104	56360.52
633.459	56197.82
633.813	56236.01
634.167	56234.88
634.521	56228.78
634.875	56211.38
635.229	56109.91
635.583	56006.41
635.937	55982.68
636.291	55884.83
636.645	55981.1
636.999	55893.42
637.352	55998.95
637.706	55739.52
638.06	55880.99
638.413	55802.35
638.767	55769.8
639.121	55820.65
639.474	55657.04
639.828	55662.69
640.181	55631.05
640.534	55623.37
640.888	55557.61
641.241	55440.77
641.594	55519.42
641.947	55567.78
642.301	55440.55
642.654	55459.53
643.007	55398.06
643.36	55354.9
643.713	55331.85
644.066	55335.92
644.419	55273.09
644.771	55027
645.124	54767.12
645.477	54716.95
645.83	54557.86
646.182	54442.38
646.535	54217.3
646.888	54358.54
647.24	54114.93
647.593	54397.19
647.945	54268.15
648.298	54052.11
648.65	54052.11
649.002	54006.24
649.355	54096.18
649.707	54094.59
650.059	54105.89
650.411	54440.35
650.763	54472.44
651.115	54764.86
651.467	54670.85
651.819	54673.56
652.171	54529.16
652.523	54476.96
652.875	54525.77
653.227	54325.1
653.578	54519.67
653.93	54503.62
654.282	54315.61
654.633	54312.22
654.985	54262.73
655.337	54356.96
655.688	54340.24
656.039	54331.2
656.391	54046.69
656.742	54163.75
657.094	54207.13
657.445	54129.62
657.796	54070.64
658.147	54012.79
658.498	54092.11
658.849	54094.82
659.2	54074.93
659.551	53970.53
659.902	54027.25
660.253	53981.38
660.604	54049.17
660.955	53827.03
661.306	53945.45
661.656	53928.5
662.007	53863.87
662.358	53831.32
662.708	53834.49
663.059	53893.47
663.409	53651.44
663.76	53857.76
664.11	53822.96
664.461	53766.02
664.811	53807.14
665.161	53789.52
665.511	53648.73
665.862	53705.23
666.212	53798.33
666.562	53786.35
666.912	53700.03
667.262	53676.75
667.612	53669.75
667.962	53562.86
668.312	53564.21
668.662	53772.57
669.011	53551.78
669.361	53607.15
669.711	53535.51
670.06	53460.94
670.41	53364.44
670.76	53385.01
671.109	53404.67
671.459	53451.9
671.808	53352.69
672.157	53361.05
672.507	53279.47
672.856	53152.47
673.205	53281.06
673.554	53380.94
673.904	53205.13
674.253	53367.38
674.602	53281.06
674.951	52755.19
675.3	52615.99
675.649	53060.5
675.998	53052.59
676.346	53069.99
676.695	53172.13
677.044	52830.67
677.393	53057.79
677.741	52969.43
678.09	52872.25
678.438	52802.65
678.787	52928.07
679.135	52855.31
679.484	52673.62
679.832	52807.4
680.181	52608.98
680.529	52691.92
680.877	52572.6
681.225	52580.06
681.573	52764.91
681.922	52422.55
682.27	52396.79
682.618	52461.19
682.966	52267.75
683.314	52328.09
683.661	52326.28
684.009	52110.01
684.357	51943.46
684.705	51868.89
685.053	51979.62
685.4	51991.15
685.748	51723.81
686.095	51745.73
686.443	51685.17
686.79	51587.09
687.138	51591.61
687.485	51569.69
687.832	51334.67
688.18	51522.91
688.527	51209.25
688.874	51298.51
689.221	51113.88
689.568	51145.75
689.915	50854.45
690.262	50935.13
690.609	50807.9
690.956	50779.2
691.303	50719.77
691.65	50555.03
691.997	50605.19
692.344	50285.66
692.69	50256.5
693.037	50280.01
693.383	49962.95
693.73	50061.71
694.077	49957.08
694.423	49889.96
694.769	49771.32
695.116	49629.18
695.462	49619.68
695.808	49367.26
696.155	49564.09
696.501	49177.44
696.847	49233.48
697.193	48960.27
697.539	49020.38
697.885	48849.53
698.231	48684.12
698.577	48682.76
698.923	48650.67
699.269	48393.5
699.614	48275.31
699.96	48235.77
700.306	48197.8
700.651	48108.31
700.997	47907.41
701.342	47848.21
701.688	47732.28
702.033	47685.27
702.379	47687.98
702.724	47565.95
703.069	47647.53
703.415	47125.06
703.76	47050.03
704.105	47145.17
704.45	46985.85
704.795	46777.5
705.14	46656.15
705.485	46554.91
705.83	46465.64
706.175	46472.87
706.52	46398.3
706.865	46281.24
707.209	46196.05
707.554	45977.07
707.899	46018.2
708.243	45808.71
708.588	45831.31
708.932	45522.62
709.277	45469.06
709.621	45661.82
709.966	45341.83
710.31	45284.2
710.654	45004.21
710.998	45098.22
711.342	45103.19
711.687	44936.42
712.031	44797.89
712.375	44673.6
712.719	44766.7
713.063	44547.28
713.407	44613.94
713.75	44428.41
714.094	44324.46
714.438	44237.9
714.782	44229.09
715.125	44007.4
715.469	44105.93
715.812	43785.49
716.156	43751.82
716.499	43706.17
716.843	43658.26
717.186	43470.47
717.53	43597.47
717.873	43560.86
718.216	43512.5
718.559	43291.04
718.902	42997.49
719.246	42891.95
719.589	42930.14
719.932	42826.64
720.275	42756.59
720.617	42746.19
720.96	42619.87
721.303	42653.09
721.646	42562.92
721.989	42359.99
722.331	42518.18
722.674	42464.62
723.016	42410.61
723.359	42255.81
723.701	42345.75
724.044	42028.02
724.386	41854.46
724.729	42030.28
725.071	41916.84
725.413	41803.39
725.755	41801.36
726.097	41535.15
726.439	41447.24
726.782	41416.28
727.124	41543.06
727.465	41380.58
727.807	41205.44
728.149	41129.29
728.491	41149.85
728.833	41149.62
729.175	40934.26
729.516	40956.18
729.858	40789.18
730.199	40968.61
730.541	40643.42
730.882	40715.96
731.224	40808.84
731.565	40619.24
731.906	40504.67
732.248	40518.68
732.589	40188.75
732.93	40250.21
733.271	40258.57
733.612	40215.64
733.953	40162.53
734.294	40091.57
734.635	39935.42
734.976	40101.29
735.317	39681.87
735.658	39848.19
735.999	39675.54
736.339	39544.92
736.68	39745.14
737.021	39516.9
737.361	39379.95
737.702	39575.88
738.042	39315.1
738.383	39269.45
738.723	39354.19
739.063	39190.13
739.404	39193.74
739.744	39147.87
740.084	38956.01
740.424	38944.94
740.764	38759.4
741.104	38958.27
741.444	38708.56
741.784	38509.47
742.124	38706.75
742.464	38547.43
742.804	38517.6
743.143	38616.36
743.483	38499.75
743.823	38216.82
744.162	38138.63
744.502	38236.71
744.841	38032.87
745.181	38191.74
745.52	37982.93
745.86	38046.65
746.199	37930.5
746.538	37785.87
746.877	37872.2
747.216	37906.55
747.556	37721.92
747.895	37701.81
748.234	37592.43
748.573	37458.42
748.911	37455.71
749.25	37437.18
749.589	37226.34
749.928	37215.94
750.267	37149.28
750.605	37290.74
750.944	36956.51
751.283	36822.28
751.621	36942.28
751.96	36796.74
752.298	36724.88
752.636	36759.46
752.975	36523.53
753.313	36413.7
753.651	36629.97
753.989	36337.1
754.327	36356.53
754.666	35998.57
755.004	36100.49
755.342	36107.95
755.679	36029.76
756.017	35812.82
756.355	35868.63
756.693	35540.51
757.031	35564.46
757.368	35396.33
757.706	35404.24
758.044	35233.17
758.381	35114.98
758.719	35170.35
759.056	35138.93
759.394	34967.41
759.731	34776.68
760.068	34689
760.405	34561.1
760.743	34452.17
761.08	34641.55
761.417	34366.75
761.754	34206.3
762.091	34223.7
762.428	33978.51
762.765	33847.67
763.102	34021.68
763.438	33781
763.775	33588.02
764.112	33639.54
764.449	33454.69
764.785	33268.7
765.122	33158.2
765.458	33213.11
765.795	33027.58
766.131	32955.72
766.467	32828.71
766.804	32736.06
767.14	32595.72
767.476	32572.9
767.812	32354.83
768.148	32334.04
768.485	32158.22
768.821	31944.89
769.157	32005.91
769.492	31995.29
769.828	31738.35
770.164	31485.47
770.5	31520.95
770.836	31520.5
771.171	31301.07
771.507	31129.32
771.842	31049.55
772.178	31044.35
772.513	30759.39
772.849	30787.64
773.184	30604.14
773.519	30639.62
773.855	30455.89
774.19	30382.45
774.525	30135
774.86	30269.91
775.195	30138.16
775.53	29901.11
775.865	29942.01
776.2	29501.57
776.535	29421.12
776.87	29349.93
777.205	29309.48
777.539	29162.37
777.874	29144.74
778.209	29017.97
778.543	28985.42
778.878	28733.91
779.212	28693
779.547	28589.5
779.881	28543.18
780.215	28354.71
780.55	28535.27
780.884	28118.1
781.218	28137.99
781.552	28040.14
781.886	27893.7
782.22	27757.66
782.554	27705.68
782.888	27423.66
783.222	27429.08
783.556	27321.51
783.889	27273.83
784.223	27127.39
784.557	26938.02
784.89	27133.04
785.224	26911.81
785.557	26637.92
785.891	26748.87
786.224	26528.09
786.558	26589.1
786.891	26354.08
787.224	26259.62
787.557	26094.43
787.891	26079.29
788.224	26153.63
788.557	26000.87
788.89	26012.17
789.223	25856.24
789.556	25567.44
789.888	25603.82
790.221	25546.42
790.554	25344.84
790.887	25411.28
791.219	25254.22
791.552	25119.99
791.884	25002.93
792.217	25003.83
792.549	24741.92
792.882	24638.42
793.214	24626.22
793.546	24649.27
793.879	24453.11
794.211	24424.41
794.543	24436.84
794.875	24363.85
795.207	24457.18
795.539	24037.98
795.871	24091.09
796.203	23976.52
796.535	23915.73
796.867	23805.45
797.198	23741.04
797.53	23646.13
797.862	23550.31
798.193	23535.62
798.525	23305.8
798.856	23436.87
799.188	23228.51
799.519	23098.57
799.85	22994.85
800.182	23045.92
800.513	22946.04
800.844	22814.74
801.175	22920.05
801.506	22871.01
801.837	22541.3
802.168	22678.47
802.499	22618.36
802.83	22432.15
803.161	22359.38
803.491	22375.2
803.822	22335.88
804.153	22208.65
804.483	22055.89
804.814	22019.96
805.145	21972.05
805.475	22014.53
805.805	21908.55
806.136	21909.45
806.466	21854.99
806.796	21719.4
807.126	21597.6
807.457	21553.3
807.787	21571.61
808.117	21432.85
808.447	21393.08
808.777	21469.69
809.107	21252.29
809.436	21180.21
809.766	21160.55
810.096	21134.11
810.426	20958.97
810.755	21044.39
811.085	20983.83
811.414	20859.31
811.744	20710.61
812.073	20778.18
812.403	20678.07
812.732	20612.54
813.061	20537.96
813.39	20399.21
813.719	20449.6
814.049	20496.83
814.378	20373.22
814.707	20239.67
815.036	20325.76
815.365	20162.83
815.693	19973.46
816.022	19985.21
816.351	19921.48
816.68	19909.5
817.008	19953.8
817.337	19803.97
817.665	19747.93
817.994	19702.5
818.322	19732.11
818.651	19570.76
818.979	19512
819.307	19696.63
819.636	19533.92
819.964	19388.39
820.292	19494.37
820.62	19486.01
820.948	19449.18
821.276	19449.86
821.604	19338.45
821.932	19436.07
822.259	19352.91
822.587	19319.46
822.915	19370.76
823.243	19516.52
823.57	19262.74
823.898	19349.29
824.225	19187.94
824.553	19269.97
824.88	19228.62
825.207	19361.27
825.535	19260.03
825.862	19248.73
826.189	19260.26
826.516	19295.06
826.843	19343.42
827.17	19310.42
827.497	19356.52
827.824	19292.57
828.151	19310.88
828.478	19154.5
828.805	19341.61
829.131	19140.26
829.458	19180.26
829.785	19152.46
830.111	19185.68
830.438	19309.29
830.764	19180.26
831.09	19154.95
831.417	19048.06
831.743	19223.42
832.069	19138.45
832.395	19027.49
832.722	19142.97
833.048	19071.33
833.374	19014.84
833.7	18943.88
834.026	18942.52
834.351	18994.73
834.677	18992.47
835.003	19008.96
835.329	18910.66
835.654	18928.29
835.98	18814.17
836.306	18954.28
836.631	18742.98
836.956	18898.68
837.282	18801.06
837.607	18738.69
837.932	18662.31
838.258	18714.96
838.583	18600.16
838.908	18571.01
839.233	18574.62
839.558	18534.4
839.883	18431.13
840.208	18365.82
840.533	18520.61
840.858	18325.59
841.182	18409.43
841.507	18311.13
841.832	18364.91
842.156	18262.09
842.481	18230.9
842.805	18107.97
843.13	18060.06
843.454	18088.31
843.778	18023.45
844.103	18008.54
844.427	17882.44
844.751	17893.06
845.075	17787.98
845.399	17770.58
845.723	17755.66
846.047	17744.59
846.371	17674.76
846.695	17596.57
847.019	17460.98
847.343	17448.55
847.666	17268.44
847.99	17215.56
848.313	17176.24
848.637	17089.01
848.96	17085.17
849.284	17086.08
849.607	16901.9
849.931	16893.31
850.254	16715.01
850.577	16634.79
850.9	16512.98
851.223	16514.79
851.546	16391.63
851.869	16253.78
852.192	16373.33
852.515	16250.62
852.838	16220.56
853.161	16174.46
853.483	16070.06
853.806	16010.4
854.129	15940.12
854.451	15966.78
854.774	15881.14
855.096	15838.2
855.419	15762.5
855.741	15629.84
856.063	15748.03
856.385	15676.62
856.708	15567.47
857.03	15515.27
857.352	15493.35
857.674	15407.93
857.996	15361.6
858.318	15324.31
858.64	15271.89
858.961	15355.27
859.283	15195.05
859.605	15050.42
859.926	15196.63
860.248	15074.83
860.57	15018.56
860.891	15001.61
861.212	14983.76
861.534	14885.23
861.855	14884.55
862.176	14802.97
862.498	14888.62
862.819	14813.59
863.14	14774.95
863.461	14744.89
863.782	14711.9
864.103	14656.76
864.424	14654.28
864.745	14669.87
865.065	14651.79
865.386	14581.28
865.707	14563.66
866.027	14522.98
866.348	14490.44
866.668	14573.15
866.989	14480.95
867.309	14334.51
867.63	14346.04
867.95	14397.11
868.27	14301.29
868.59	14340.39
868.91	14220.61
869.23	14190.33
869.55	14165.7
869.87	14236.89
870.19	14212.03
870.51	14193.95
870.83	14157.79
871.15	14146.27
871.469	14017.46
871.789	14080.96
872.109	14037.12
872.428	14018.36
872.748	14050.22
873.067	14064.23
873.386	13973.39
873.706	14036.66
874.025	13823.34
874.344	13904.24
874.663	13901.3
874.982	13828.53
875.301	13902.21
875.62	13779.27
875.939	13733.17
876.258	13760.74
876.577	13610.69
876.896	13660.63
877.214	13666.96
877.533	13696.56
877.852	13635.32
878.17	13529.33
878.489	13621.08
878.807	13609.11
879.125	13618.82
879.444	13448.21
879.762	13414.76
880.08	13534.98
880.398	13383.35
880.716	13408.43
881.034	13441.43
881.352	13364.14
881.67	13325.05
881.988	13285.27
882.306	13204.37
882.624	13195.11
882.941	13107.42
883.259	13167.99
883.577	13052.74
883.894	13038.95
884.212	13033.08
884.529	13109.68
884.846	12990.36
885.164	12937.71
885.481	12933.87
885.798	12976.35
886.115	12852.97
886.432	12867.2
886.75	12763.03
887.067	12806.19
887.383	12702.69
887.7	12739.98
888.017	12750.37
888.334	12707.66
888.651	12596.02
888.967	12603.71
889.284	12527.33
889.6	12480.32
889.917	12445.97
890.233	12515.57
890.55	12371.17
890.866	12417.95
891.182	12374.11
891.498	12283.04
891.815	12302.25
892.131	12269.48
892.447	12118.98
892.763	12142.93
893.079	12075.81
893.395	12108.35
893.71	12101.35
894.026	12089.82
894.342	11986.1
894.657	11941.35
894.973	11897.74
895.289	11838.3
895.604	11866.1
895.92	11815.03
896.235	11679.21
896.55	11704.52
896.865	11682.83
897.181	11635.82
897.496	11679.44
897.811	11551.31
898.126	11518.76
898.441	11407.58
898.756	11456.39
899.071	11392.89
899.386	11343.85
899.7	11287.58
900.015	11256.85
900.33	11098.21
900.644	11100.24
900.959	11118.78
901.273	11067.48
901.588	11047.82
901.902	11050.53
902.216	11055.95
902.531	10944.09
902.845	10912.68
903.159	10825.45
903.473	10837.43
903.787	10754.72
904.101	10715.62
904.415	10704.1
904.729	10658.67
905.042	10623.42
905.356	10538.23
905.67	10592.69
905.984	10494.39
906.297	10376.2
906.611	10397.66
906.924	10378
907.237	10387.72
907.551	10285.58
907.864	10204.68
908.177	10279.48
908.491	10202.64
908.804	10122.19
909.117	10051.01
909.43	10101.18
909.743	9958.58
910.056	9975.75
910.368	9949.99
910.681	9913.61
910.994	9837
911.307	9786.38
911.619	9710.68
911.932	9798.13
912.244	9603.79
912.557	9642.66
912.869	9618.48
913.181	9534.86
913.494	9574.18
913.806	9447.63
914.118	9411.48
914.43	9429.33
914.742	9371.25
915.054	9282.67
915.366	9303.46
915.678	9230.69
915.99	9285.38
916.302	9143.46
916.613	9124.25
916.925	9119.51
917.236	9044.93
917.548	8951.37
917.859	9014.88
918.171	8923.58
918.482	8879.29
918.794	8836.8
919.105	8858.04
919.416	8784.6
919.727	8738.5
920.038	8723.58
920.349	8728.1
920.66	8619.86
920.971	8593.19
921.282	8580.31
921.593	8518.62
921.903	8454.44
922.214	8452.4
922.525	8414.67
922.835	8356.81
923.146	8312.07
923.456	8317.72
923.767	8214.45
924.077	8261
924.387	8202.92
924.697	8123.37
925.008	8108.91
925.318	8114.33
925.628	8069.82
925.938	7995.69
926.248	7955.24
926.558	7816.94
926.867	7899.2
927.177	7837.05
927.487	7820.11
927.796	7824.17
928.106	7774.23
928.416	7715.02
928.725	7669.37
929.034	7660.79
929.344	7612.43
929.653	7621.47
929.962	7610.85
930.271	7520.45
930.581	7510.73
930.89	7499.89
931.199	7387.8
931.508	7428.25
931.817	7424.64
932.125	7382.83
932.434	7285.88
932.743	7242.49
933.051	7218.76
933.36	7242.04
933.669	7206.34
933.977	7073.91
934.286	7108.49
934.594	7057.41
934.902	7013.57
935.21	6980.35
935.519	6931.09
935.827	6983.29
936.135	6892.9
936.443	6870.75
936.751	6866.46
937.059	6811.32
937.367	6791.66
937.674	6803.63
937.982	6728.16
938.29	6736.29
938.597	6697.87
938.905	6622.62
939.213	6573.81
939.52	6538.56
939.827	6599.12
940.135	6520.93
940.442	6486.58
940.749	6487.71
941.056	6476.86
941.363	6415.85
941.67	6350.77
941.977	6309.64
942.284	6328.62
942.591	6319.81
942.898	6263.54
943.205	6250.88
943.511	6142.86
943.818	6144.67
944.125	6129.53
944.431	6132.24
944.738	6097.89
945.044	6076.87
945.35	6007.05
945.657	6013.6
945.963	6016.76
946.269	5951.68
946.575	5923.88
946.881	5935.18
947.187	5915.75
947.493	5844.11
947.799	5857.22
948.105	5798.46
948.41	5759.37
948.716	5734.51
949.022	5711.46
949.327	5729.31
949.633	5666.72
949.938	5668.98
950.244	5632.59
950.549	5633.72
950.854	5558.92
951.16	5526.83
951.465	5533.16
951.77	5482.99
952.075	5456.1
952.38	5442.77
952.685	5454.74
952.99	5461.3
953.294	5405.71
953.599	5367.29
953.904	5332.94
954.209	5288.65
954.513	5304.92
954.818	5303.56
955.122	5283.67
955.426	5207.29
955.731	5183.79
956.035	5128.2
956.339	5108.99
956.643	5133.4
956.948	5066.51
957.252	5057.01
957.556	5069.44
957.86	5003.68
958.163	5000.29
958.467	4997.81
958.771	4979.95
959.075	4920.07
959.378	4879.62
959.682	4919.84
959.985	4918.71
960.289	4881.88
960.592	4816.12
960.896	4807.53
961.199	4808.88
961.502	4777.7
961.805	4758.72
962.108	4718.49
962.411	4727.98
962.714	4671.04
963.017	4660.87
963.32	4644.6
963.623	4592.62
963.926	4592.39
964.228	4565.05
964.531	4580.64
964.833	4535.67
965.136	4523.02
965.438	4545.61
965.741	4458.84
966.043	4447.54
966.345	4426.52
966.648	4434.21
966.95	4418.39
967.252	4373.42
967.554	4362.34
967.856	4367.54
968.158	4341.55
968.46	4311.72
968.761	4272.85
969.063	4278.28
969.365	4261.55
969.666	4251.84
969.968	4181.78
970.269	4205.28
970.571	4179.52
970.872	4144.04
971.174	4125.29
971.475	4112.18
971.776	4115.12
972.077	4062.46
972.378	4043.26
972.679	4043.26
972.98	4016.36
973.281	3980.21
973.582	3955.35
973.883	3940.89
974.183	3964.16
974.484	3926.87
974.785	3891.62
975.085	3893.65
975.386	3913.77
975.686	3861.11
975.986	3858.85
976.287	3834.22
976.587	3809.36
976.887	3819.76
977.187	3780.21
977.487	3782.7
977.787	3740.89
978.087	3702.93
978.387	3702.47
978.687	3714.22
978.987	3654.79
979.286	3673.55
979.586	3665.86
979.885	3607.79
980.185	3534.57
980.484	3586.32
980.784	3572.08
981.083	3561.91
981.382	3536.6
981.682	3550.61
981.981	3510.39
982.28	3479.43
982.579	3446.66
982.878	3434.46
983.177	3418.41
983.475	3434.68
983.774	3410.28
984.073	3368.47
984.372	3361.92
984.67	3375.7
984.969	3346.55
985.267	3366.21
985.566	3324.86
985.864	3314.69
986.162	3302.94
986.461	3241.92
986.759	3265.65
987.057	3222.94
987.355	3209.83
987.653	3189.72
987.951	3204.86
988.249	3184.29
988.547	3150.17
988.844	3176.16
989.142	3110.85
989.44	3142.49
989.737	3126.22
990.035	3069.95
990.332	3075.37
990.63	3023.4
990.927	3052.55
991.224	3045.99
991.521	3015.26
991.819	3035.15
992.116	3001.7
992.413	2958.31
992.71	2980.68
993.006	2950.18
993.303	2936.17
993.6	2932.32
993.897	2918.31
994.193	2896.62
994.49	2878.54
994.787	2840.8
995.083	2816.39
995.379	2797.41
995.676	2803.29
995.972	2773.68
996.268	2800.58
996.565	2726.45
996.861	2764.87
997.157	2744.98
997.453	2698.88
997.749	2709.96
998.044	2714.48
998.34	2670.41
998.636	2674.25
998.932	2624.99
999.227	2643.74
999.523	2686.45
999.818	2634.48
1000.114	2596.97
1000.409	2624.76
1000.704	2522.17
1001	2585.67
1001.295	2537.08
1001.59	2537.53
1001.885	2514.93
1002.18	2488.95
1002.475	2477.42
1002.77	2482.62
1003.065	2451.43
1003.359	2426.35
1003.654	2415.28
1003.949	2431.55
1004.243	2424.54
1004.538	2391.55
1004.832	2367.37
1005.127	2383.19
1005.421	2351.55
1005.715	2337.99
1006.009	2317.2
1006.304	2326.69
1006.598	2305.67
1006.892	2277.2
1007.186	2263.19
1007.48	2255.73
1007.773	2215.51
1008.067	2213.25
1008.361	2211.21
1008.655	2188.16
1008.948	2188.84
1009.242	2181.38
1009.535	2190.65
1009.829	2125.57
1010.122	2133.25
1010.415	2121.05
1010.708	2101.61
1011.001	2105.45
1011.295	2073.59
1011.588	2095.51
1011.881	2028.62
1012.173	2032.01
1012.466	2029.3
1012.759	2021.16
1013.052	2034.49
1013.344	1988.39
1013.637	2019.58
1013.93	1959.47
1014.222	1961.73
1014.514	1974.84
1014.807	1940.03
1015.099	1944.55
1015.391	1919.02
1015.683	1895.06
1015.976	1925.57
1016.268	1860.71
1016.56	1839.7
1016.851	1824.1
1017.143	1840.38
1017.435	1808.51
1017.727	1836.76
1018.018	1794.5
1018.31	1750.89
1018.602	1791.56
1018.893	1735.75
1019.185	1792.69
1019.476	1709.98
1019.767	1723.99
1020.058	1717.21
1020.35	1738.23
1020.641	1708.4
1020.932	1696.65
1021.223	1688.97
1021.514	1656.88
1021.804	1632.25
1022.095	1643.09
1022.386	1636.54
1022.677	1645.13
1022.967	1613.71
1023.258	1584.79
1023.548	1618.46
1023.839	1580.5
1024.129	1562.87
1024.419	1556.32
1024.709	1537.78
1025	1586.37
1025.29	1533.94
1025.58	1512.02
1025.87	1489.88
1026.16	1502.76
1026.449	1512.25
1026.739	1474.06
1027.029	1461.4
1027.319	1439.26
1027.608	1425.02
1027.898	1410.1
1028.187	1418.92
1028.477	1434.74
1028.766	1403.78
1029.055	1362.87
1029.344	1384.79
1029.634	1360.16
1029.923	1388.86
1030.212	1366.49
1030.501	1354.74
1030.79	1313.61
1031.078	1333.04
1031.367	1307.06
1031.656	1272.93
1031.945	1288.07
1032.233	1261.18
1032.522	1292.14
1032.81	1299.6
1033.099	1268.64
1033.387	1277.9
1033.675	1268.86
1033.963	1235.42
1034.251	1213.73
1034.54	1211.24
1034.828	1221.86
1035.116	1212.14
1035.403	1201.75
1035.691	1211.01
1035.979	1186.61
1036.267	1155.42
1036.554	1178.92
1036.842	1165.59
1037.129	1165.36
1037.417	1158.81
1037.704	1145.03
1037.992	1148.87
1038.279	1121.52
1038.566	1131.02
1038.853	1131.02
1039.14	1131.02
