Data from white_steel_sheet_FLMS001491_020.txt Node
Date: Tue Feb 07 10:57:29 GMT 2017
User: dcchb
Spectrometer: FLMS00149
Trigger mode: 0
Integration Time (sec): 2.000000E-2
Scans to average: 10
Electric dark correction enabled: true
Nonlinearity correction enabled: false
Boxcar width: 0
XAxis mode: Wavelengths
Number of Pixels in Spectrum: 2048
>>>>>Begin Spectral Data<<<<<
341.393	-5.38
341.776	-5.38
342.16	-5.38
342.543	-68.2
342.927	-87.64
343.31	-55.78
343.693	-72.27
344.077	-56.23
344.46	-46.51
344.843	-59.39
345.226	-44.02
345.61	-45.61
345.993	-13.52
346.376	13.15
346.759	0.72
347.142	17.22
347.525	38.46
347.908	54.05
348.291	58.8
348.674	103.32
349.057	107.61
349.44	117.78
349.823	145.12
350.206	166.37
350.588	209.98
350.971	227.38
351.354	230.09
351.737	227.83
352.119	263.99
352.502	250.66
352.884	276.87
353.267	280.49
353.65	286.59
354.032	325.01
354.414	309.86
354.797	326.59
355.179	321.62
355.562	315.97
355.944	325.91
356.326	332.69
356.709	331.79
357.091	334.72
357.473	341.5
357.855	355.97
358.238	350.09
358.62	357.55
359.002	337.21
359.384	337.66
359.766	346.7
360.148	350.09
360.53	337.21
360.912	339.24
361.294	337.89
361.676	346.93
362.057	338.34
362.439	348.28
362.821	346.7
363.203	340.6
363.584	325.68
363.966	318.9
364.348	331.11
364.729	337.43
365.111	343.99
365.493	324.78
365.874	306.25
366.256	313.03
366.637	318.68
367.019	315.74
367.4	321.62
367.781	317.55
368.163	321.39
368.544	319.36
368.925	303.31
369.306	330.2
369.688	325.46
370.069	345.57
370.45	319.58
370.831	308.28
371.212	340.15
371.593	308.28
371.974	317.77
372.355	327.04
372.736	321.39
373.117	314.61
373.498	334.72
373.879	310.99
374.26	329.53
374.641	348.73
375.021	343.76
375.402	328.17
375.783	334.5
376.163	370.88
376.544	345.12
376.925	340.37
377.305	339.69
377.686	354.61
378.066	357.32
378.447	361.39
378.827	345.57
379.208	351.67
379.588	366.59
379.968	371.11
380.349	345.8
380.729	362.52
381.109	362.52
381.489	374.27
381.87	373.82
382.25	365.68
382.63	360.26
383.01	369.3
383.39	343.31
383.77	364.33
384.15	377.66
384.53	376.08
384.91	365.91
385.29	421.27
385.67	378.79
386.049	377.89
386.429	373.14
386.809	392.35
387.189	395.96
387.568	400.71
387.948	387.15
388.328	398
388.707	415.4
389.087	398.22
389.466	405.46
389.846	406.36
390.225	425.79
390.605	443.42
390.984	433.03
391.363	433.48
391.743	422.4
392.122	427.6
392.501	455.85
392.881	449.07
393.26	439.13
393.639	468.5
394.018	448.84
394.397	467.6
394.776	476.64
395.155	450.65
395.534	453.36
395.913	465.11
396.292	473.02
396.671	481.16
397.05	500.14
397.429	503.31
397.808	492.91
398.186	521.61
398.565	503.53
398.944	509.41
399.323	506.7
399.701	522.06
400.08	525.45
400.458	520.71
400.837	543.08
401.215	546.02
401.594	552.57
401.972	566.36
402.351	567.94
402.729	562.74
403.107	585.34
403.486	603.42
403.864	617.65
404.242	627.14
404.62	623.08
404.999	597.31
405.377	637.54
405.755	634.6
406.133	673.92
406.511	663.3
406.889	663.3
407.267	689.06
407.645	710.53
408.023	685.22
408.401	717.54
408.779	739.01
409.156	756.86
409.534	741.94
409.912	760.47
410.29	788.04
410.667	782.17
411.045	806.12
411.422	795.05
411.8	807.93
412.178	824.2
412.555	853.13
412.933	831.43
413.31	848.83
413.687	871.43
414.065	882.05
414.442	897.42
414.819	905.33
415.197	884.31
415.574	918.21
415.951	934.03
416.328	923.18
416.705	942.39
417.082	954.59
417.46	959.79
417.837	965.89
418.214	979.23
418.591	970.86
418.967	1007.93
419.344	1015.16
419.721	1026.68
420.098	1040.92
420.475	1058.09
420.852	1081.82
421.228	1076.17
421.605	1110.75
421.982	1096.28
422.358	1105.55
422.735	1133.35
423.111	1117.3
423.488	1143.06
423.864	1142.16
424.241	1169.5
424.617	1159.79
424.994	1164.08
425.37	1187.58
425.746	1235.26
426.123	1227.58
426.499	1210.63
426.875	1238.65
427.251	1289.05
427.627	1255.83
428.003	1290.63
428.379	1307.13
428.756	1302.61
429.132	1329.72
429.507	1359.55
429.883	1344.87
430.259	1398.88
430.635	1396.62
431.011	1437.29
431.387	1471.87
431.763	1467.57
432.138	1481.81
432.514	1481.36
432.89	1508.25
433.265	1524.75
433.641	1574.69
434.016	1575.14
434.392	1599.32
434.767	1628.93
435.143	1625.54
435.518	1631.64
435.894	1666.89
436.269	1676.83
436.644	1701.69
437.02	1720.45
437.395	1765.65
437.77	1742.82
438.145	1791.41
438.52	1793.89
438.895	1826.44
439.271	1819.43
439.646	1867.34
440.021	1887.9
440.395	1864.63
440.77	1915.02
441.145	1908.24
441.52	1927.22
441.895	1941.01
442.27	1959.76
442.645	1971.52
443.019	1987.79
443.394	1993.89
443.769	2011.51
444.143	2014.9
444.518	2064.39
444.892	2026.2
445.267	2082.93
445.641	2099.2
446.016	2115.69
446.39	2131.51
446.764	2157.5
447.139	2119.76
447.513	2187.56
447.887	2199.53
448.262	2188.01
448.636	2188.01
449.01	2239.31
449.384	2229.14
449.758	2269.59
450.132	2303.94
450.506	2351.17
450.88	2301.45
451.254	2336.48
451.628	2392.97
452.002	2414.67
452.376	2428.45
452.75	2437.49
453.123	2468
453.497	2505.97
453.871	2542.35
454.244	2584.83
454.618	2554.78
454.992	2625.06
455.365	2636.81
455.739	2676.58
456.112	2715
456.486	2688.33
456.859	2760.2
457.232	2818.05
457.606	2838.39
457.979	2860.76
458.352	2904.82
458.725	2940.08
459.099	2998.61
459.472	3049.45
459.845	3050.58
460.218	3071.37
460.591	3096.23
460.964	3120.64
461.337	3215.33
461.71	3225.49
462.083	3254.65
462.456	3264.82
462.829	3321.54
463.201	3322.89
463.574	3359.95
463.947	3421.2
464.32	3482.89
464.692	3506.39
465.065	3533.96
465.438	3600.85
465.81	3643.79
466.183	3678.36
466.555	3777.12
466.928	3760.4
467.3	3728.76
467.672	3848.53
468.045	3910.67
468.417	3921.75
468.789	3952.25
469.161	3987.28
469.534	4087.84
469.906	4125.58
470.278	4180.95
470.65	4264.56
471.022	4351.79
471.394	4403.54
471.766	4493.26
472.138	4495.97
472.51	4585.68
472.882	4627.27
473.253	4752.69
473.625	4761.95
473.997	4838.79
474.369	4895.05
474.74	4915.17
475.112	5038.55
475.484	5126.46
475.855	5208.94
476.227	5248.49
476.598	5396.96
476.97	5489.39
477.341	5587.47
477.713	5603.28
478.084	5636.28
478.455	5814.8
478.827	5884.63
479.198	6015.48
479.569	6000.56
479.94	6218.18
480.311	6296.83
480.682	6448.23
481.053	6563.26
481.424	6662.47
481.795	6713.09
482.166	6840.54
482.537	6949.46
482.908	7059.29
483.279	7111.72
483.65	7212.51
484.021	7437.59
484.391	7458.6
484.762	7547.19
485.133	7634.87
485.503	7769.78
485.874	7915.09
486.244	7937.91
486.615	8104.24
486.985	8177.68
487.356	8393.95
487.726	8478.92
488.097	8626.26
488.467	8620.61
488.837	8858.34
489.207	8974.04
489.578	9019.01
489.948	9142.85
490.318	9270.53
490.688	9303.3
491.058	9450.64
491.428	9584.42
491.798	9712.78
492.168	9910.74
492.538	9889.73
492.908	10102.6
493.278	10200.23
493.648	10182.15
494.017	10303.05
494.387	10432.54
494.757	10487
495.126	10632.98
495.496	10690.38
495.866	10821
496.235	10885.41
496.605	11004.27
496.974	11074.78
497.344	11190.03
497.713	11291.27
498.082	11326.07
498.452	11438.84
498.821	11499.85
499.19	11633.18
499.559	11690.36
499.928	11789.56
500.298	11896.68
500.667	12099.39
501.036	12003.57
501.405	12115.66
501.774	12231.13
502.143	12287.4
502.512	12293.96
502.88	12415.31
503.249	12538.92
503.618	12692.82
503.987	12717.45
504.356	12805.36
504.724	12938.69
505.093	12936.88
505.462	12979.14
505.83	13082.64
506.199	13250.32
506.567	13389.29
506.936	13459.8
507.304	13504.55
507.672	13632
508.041	13671.55
508.409	13839.23
508.777	13966.23
509.145	14032.44
509.514	14068.15
509.882	14236.73
510.25	14266.79
510.618	14347.01
510.986	14443.28
511.354	14570.73
511.722	14742.48
512.09	14925.53
512.458	14799.43
512.826	14980.89
513.193	15059.76
513.561	15185.86
513.929	15271.73
514.297	15425.4
514.664	15488.22
515.032	15654.09
515.4	15753.98
515.767	15850.47
516.135	15944.71
516.502	15861.55
516.869	16224.02
517.237	16295.43
517.604	16219.5
517.972	16473.06
518.339	16599.15
518.706	16701.98
519.073	16694.29
519.44	16904.68
519.808	17041.85
520.175	17157.11
520.542	17385.8
520.909	17413.14
521.276	17534.04
521.643	17761.38
522.009	17951.89
522.376	17999.57
522.743	18073.69
523.11	18290.18
523.477	18456.96
523.843	18528.59
524.21	18825.76
524.577	18917.96
524.943	19048.36
525.31	19126.77
525.676	19344.17
526.043	19463.03
526.409	19482.02
526.776	19786.87
527.142	19790.48
527.508	19999.06
527.874	20084.03
528.241	20145.05
528.607	20352.28
528.973	20539.39
529.339	20489.45
529.705	20814.41
530.071	21025.03
530.437	21040.85
530.803	21089.21
531.169	21270.67
531.535	21146.6
531.901	21385.92
532.267	21525.35
532.632	21698.91
532.998	21742.75
533.364	21877.43
533.73	21928.05
534.095	22033.59
534.461	22100.25
534.826	22255.05
535.192	22428.61
535.557	22609.62
535.923	22479.68
536.288	22674.02
536.653	22748.6
537.019	22791.99
537.384	22840.12
537.749	23030.62
538.114	23097.51
538.479	23190.39
538.845	23161.47
539.21	23249.83
539.575	23337.28
539.94	23469.03
540.305	23772.3
540.67	23766.65
541.034	23882.58
541.399	23869.7
541.764	23902.24
542.129	24057.49
542.494	24047.77
542.858	24171.84
543.223	24229.01
543.587	24436.46
543.952	24367.76
544.316	24528.21
544.681	24527.99
545.045	24747.87
545.41	24887.75
545.774	24924.13
546.138	24884.81
546.503	24960.74
546.867	25027.41
547.231	25268.98
547.595	25229.21
547.959	25275.08
548.324	25304.24
548.688	25514.4
549.052	25537
549.416	25661.51
549.779	25663.1
550.143	25832.58
550.507	25941.06
550.871	26007.72
551.235	26010.88
551.599	26269.63
551.962	26226.47
552.326	26353.25
552.689	26466.92
553.053	26476.63
553.417	26604.31
553.78	26803.18
554.143	26818.32
554.507	26867.36
554.87	27093.79
555.234	27334.01
555.597	27208.82
555.96	27330.85
556.323	27443.84
556.686	27431.19
557.05	27675.92
557.413	27700.78
557.776	27897.61
558.139	28067.55
558.502	28062.36
558.865	28146.87
559.228	28299.64
559.59	28418.28
559.953	28497.82
560.316	28884.03
560.679	28801.32
561.041	29015.1
561.404	29077.92
561.767	29312.72
562.129	29240.4
562.492	29471.36
562.854	29475.43
563.217	29527.4
563.579	29646.04
563.941	29844.46
564.304	29957.22
564.666	30246.48
565.028	30243.54
565.39	30387.27
565.753	30467.94
566.115	30595.62
566.477	30812.34
566.839	30850.98
567.201	31121.26
567.563	31076.06
567.925	31275.83
568.287	31217.75
568.648	31297.07
569.01	31573.22
569.372	31644.41
569.734	31613.45
570.095	31889.6
570.457	32053.66
570.819	32141.57
571.18	32146.54
571.542	32308.12
571.903	32462.24
572.265	32473.76
572.626	32551.73
572.987	32622.46
573.349	32730.26
573.71	32689.8
574.071	32890.93
574.432	33025.84
574.794	33204.37
575.155	33042.34
575.516	32987.42
575.877	33240.3
576.238	33274.42
576.599	33470.8
576.96	33408.88
577.32	33536.79
577.681	33665.15
578.042	33563.91
578.403	33650.91
578.763	33568.65
579.124	33690.23
579.485	33873.05
579.845	33977.23
580.206	33789.89
580.566	33863.56
580.927	33932.03
581.287	34063.55
581.648	33899.04
582.008	33970.67
582.368	34006.83
582.728	34106.04
583.089	34021.75
583.449	33968.87
583.809	34018.81
584.169	34174.74
584.529	33993.95
584.889	34362.53
585.249	34222.65
585.609	33909.66
585.969	34085.02
586.329	34175.64
586.688	34180.61
587.048	34133.61
587.408	34131.8
587.768	34092.71
588.127	34122.31
588.487	34119.37
588.846	34335.86
589.206	34060.39
589.565	34105.59
589.925	34212.25
590.284	34058.58
590.643	34172.7
591.003	34204.79
591.362	34381.06
591.721	34313.26
592.08	34151.69
592.44	34230.78
592.799	34228.07
593.158	34250.44
593.517	34192.36
593.876	34259.93
594.235	34221.52
594.593	34250.22
594.952	34219.03
595.311	34055.19
595.67	34267.39
596.029	34433.94
596.387	34262.87
596.746	34453.37
597.104	34247.28
597.463	34175.19
597.822	34402.08
598.18	34275.75
598.538	34202.31
598.897	34567.5
599.255	34087.06
599.613	34662.63
599.972	34343.32
600.33	34458.12
600.688	34380.83
601.046	34535.41
601.404	34790.54
601.762	34709.86
602.12	34721.84
602.478	34612.92
602.836	34523.65
603.194	34463.77
603.552	34460.61
603.91	34461.74
604.268	34653.37
604.625	34609.08
604.983	34630.09
605.341	34405.01
605.698	34639.81
606.056	34774.27
606.413	34700.6
606.771	34758
607.128	34842.74
607.485	34600.94
607.843	34626.48
608.2	34812.69
608.557	34929.07
608.914	34753.03
609.272	34987.82
609.629	34930.2
609.986	35213.35
610.343	34966.35
610.7	35193.69
611.057	35162.51
611.414	35147.59
611.771	35165.22
612.127	35272.56
612.484	35209.29
612.841	35473.69
613.198	35259.45
613.554	35189.17
613.911	35449.96
614.267	35404.31
614.624	35394.14
614.98	35622.83
615.337	35807.24
615.693	35717.97
616.05	35610.63
616.406	35830.51
616.762	35755.03
617.118	35696.05
617.475	35754.36
617.831	35825.32
618.187	35916.16
618.543	35837.74
618.899	36038.64
619.255	35988.7
619.611	35855.37
619.967	36004.75
620.323	36228.02
620.678	36005.2
621.034	35901.02
621.39	35964.97
621.746	35910.74
622.101	36331.06
622.457	36014.24
622.812	36198.64
623.168	36305.75
623.523	36282.25
623.879	36360.22
624.234	36186.44
624.589	36217.4
624.945	36338.52
625.3	36237.96
625.655	36177.4
626.01	36250.39
626.365	36193.22
626.72	36125.65
627.075	36124.52
627.43	35966.1
627.785	36068.7
628.14	36325.19
628.495	36110.05
628.85	36183.27
629.205	36019.89
629.559	36209.71
629.914	35985.31
630.269	36075.48
630.623	35919.55
630.978	35837.29
631.332	36101.24
631.687	36132.65
632.041	35967.46
632.396	35972.2
632.75	35735.6
633.104	35866.67
633.459	35693.79
633.813	35693.57
634.167	35780.8
634.521	35667.58
634.875	35616.06
635.229	35562.72
635.583	35504.19
635.937	35387.59
636.291	35268.95
636.645	35408.6
636.999	35329.96
637.352	35320.02
637.706	34980.82
638.06	35260.13
638.413	35233.01
638.767	35080.02
639.121	35106.92
639.474	35005.9
639.828	34903.98
640.181	34935.39
640.534	34966.13
640.888	34823.08
641.241	34680.26
641.594	34804.1
641.947	34697.44
642.301	34691.56
642.654	34578.79
643.007	34657.44
643.36	34470.77
643.713	34398.46
644.066	34497.21
644.419	34318.46
644.771	34040.5
645.124	33785.82
645.477	33671.25
645.83	33558.26
646.182	33334.99
646.535	33384.25
646.888	33245.72
647.24	33269
647.593	33261.31
647.945	33273.07
648.298	33183.35
648.65	33130.47
649.002	32999.63
649.355	33094.99
649.707	32979.51
650.059	33022.45
650.411	33580.85
650.763	33654.07
651.115	33936.55
651.467	33858.59
651.819	33795.09
652.171	33627.18
652.523	33753.73
652.875	33621.76
653.227	33409.79
653.578	33789.44
653.93	33586.73
654.282	33388.54
654.633	33388.77
654.985	33486.62
655.337	33342.89
655.688	33424.93
656.039	33545.6
656.391	33226.97
656.742	33259.28
657.094	33236.91
657.445	33476.68
657.796	33217.93
658.147	33122.79
658.498	33165.5
658.849	33227.42
659.2	33088.21
659.551	33111.04
659.902	33108.55
660.253	32937.48
660.604	33008.67
660.955	32850.7
661.306	33012.96
661.656	32906.07
662.007	32910.36
662.358	32879.86
662.708	32724.38
663.059	32560.54
663.409	32426.31
663.76	32707.2
664.11	32672.4
664.461	32592.86
664.811	32482.8
665.161	32441
665.511	32318.97
665.862	32313.54
666.212	32375.01
666.562	32431.73
666.912	32285.97
667.262	32115.13
667.612	32181.8
667.962	32056.37
668.312	31938.41
668.662	32028.8
669.011	31852.76
669.361	31780.9
669.711	31786.33
670.06	31749.94
670.41	31454.58
670.76	31358.31
671.109	31595.37
671.459	31292.33
671.808	31236.51
672.157	31387.92
672.507	30997.42
672.856	30929.4
673.205	31026.57
673.554	31081.49
673.904	30897.31
674.253	31086
674.602	30907.25
674.951	30488.73
675.3	30279.47
675.649	30729.63
675.998	30782.06
676.346	30702.29
676.695	30883.98
677.044	30550.43
677.393	30652.57
677.741	30645.79
678.09	30484.21
678.438	30541.16
678.787	30634.27
679.135	30464.33
679.484	30393.59
679.832	30537.54
680.181	30309.08
680.529	30447.38
680.877	30239.93
681.225	30407.83
681.573	30464.33
681.922	30285.57
682.27	30263.43
682.618	30274.95
682.966	30133.71
683.314	30406.47
683.661	30276.76
684.009	30136.43
684.357	30227.72
684.705	30200.6
685.053	30413.25
685.4	30272.24
685.748	30174.39
686.095	30241.73
686.443	30054.17
686.79	30045.81
687.138	30174.84
687.485	30196.31
687.832	30098.91
688.18	30207.16
688.527	30040.61
688.874	30141.85
689.221	30042.87
689.568	30043.09
689.915	30000.84
690.262	30136.2
690.609	29915.64
690.956	29872.48
691.303	29828.41
691.65	29872.25
691.997	29806.94
692.344	29650.11
692.69	29638.36
693.037	29805.59
693.383	29440.62
693.73	29572.82
694.077	29524.46
694.423	29531.24
694.769	29436.1
695.116	29568.3
695.462	29366.73
695.808	29396.11
696.155	29335.99
696.501	29234.98
696.847	29245.6
697.193	28981.2
697.539	29081.76
697.885	28999.73
698.231	28797.48
698.577	28912.28
698.923	28812.84
699.269	28674.99
699.614	28622.11
699.96	28486.3
700.306	28455.11
700.651	28342.8
700.997	28301.9
701.342	28341.9
701.688	28166.08
702.033	28041.11
702.379	28145.97
702.724	28009.7
703.069	28008.35
703.415	27815.58
703.76	27751.18
704.105	27797.5
704.45	27688.81
704.795	27526.55
705.14	27423.05
705.485	27623.72
705.83	27396.16
706.175	27310.06
706.52	27295.82
706.865	27256.73
707.209	27107.58
707.554	26998.43
707.899	27158.88
708.243	26953.01
708.588	26928.15
708.932	26735.38
709.277	26862.16
709.621	26738.77
709.966	26572.23
710.31	26632.56
710.654	26467.82
710.998	26534.49
711.342	26498.33
711.687	26488.61
712.031	26386.02
712.375	26327.94
712.719	26359.8
713.063	26195.96
713.407	26276.19
713.75	26158.9
714.094	26091.79
714.438	26010.43
714.782	26001.17
715.125	25825.35
715.469	25884.33
715.812	25736.31
716.156	25619.03
716.499	25690.67
716.843	25700.16
717.186	25517.11
717.53	25661.74
717.873	25715.52
718.216	25521.86
718.559	25576.55
718.902	25312.82
719.246	25295.65
719.589	25160.74
719.932	25062.43
720.275	25215.65
720.617	25120.96
720.96	25091.13
721.303	24957.8
721.646	25128.2
721.989	24910.12
722.331	24828.77
722.674	24936.56
723.016	24902.44
723.359	24841.42
723.701	24819.95
724.044	24654.99
724.386	24628.55
724.729	24670.81
725.071	24576.57
725.413	24521.43
725.755	24533.86
726.097	24471.49
726.439	24375.9
726.782	24361.66
727.124	24464.03
727.465	24194.21
727.807	24205.96
728.149	24196.92
728.491	24114.89
728.833	24191.72
729.175	24038.28
729.516	23996.47
729.858	23982.91
730.199	24080.31
730.541	24009.35
730.882	23952.86
731.224	23926.19
731.565	23902.92
731.906	23741.79
732.248	23854.78
732.589	23634
732.93	23589.93
733.271	23619.76
733.612	23613.21
733.953	23547.45
734.294	23382.03
734.635	23398.98
734.976	23404.62
735.317	23413.89
735.658	23389.26
735.999	23282.82
736.339	23218.64
736.68	23372.08
737.021	23302.48
737.361	23152.88
737.702	23144.29
738.042	23101.58
738.383	23086.67
738.723	23115.82
739.063	23014.8
739.404	23102.71
739.744	23029.49
740.084	22965.31
740.424	22990.62
740.764	22850.51
741.104	22848.26
741.444	22682.84
741.784	22717.19
742.124	22751.08
742.464	22724.42
742.804	22705.66
743.143	22588.6
743.483	22552.9
743.823	22417.53
744.162	22497.08
744.502	22524.87
744.841	22374.82
745.181	22475.84
745.52	22255.05
745.86	22352.22
746.199	22228.61
746.538	22216.86
746.877	22180.48
747.216	22200.14
747.556	22141.61
747.895	22212.79
748.234	22067.71
748.573	22025.23
748.911	22013.47
749.25	21978.67
749.589	21844.89
749.928	21941.61
750.267	21856.87
750.605	21758.79
750.944	21700.94
751.283	21680.6
751.621	21825.23
751.96	21591.34
752.298	21654.84
752.636	21474.28
752.975	21607.61
753.313	21372.14
753.651	21442.64
753.989	21387.28
754.327	21349.54
754.666	21140.28
755.004	21234.06
755.342	21176.66
755.679	21155.19
756.017	20944.35
756.355	21123.55
756.693	20956.78
757.031	21034.97
757.368	20800.4
757.706	20745.03
758.044	20666.39
758.381	20763.11
758.719	20627.3
759.056	20727.18
759.394	20559.28
759.731	20565.38
760.068	20405.16
760.405	20299.17
760.743	20265.5
761.08	20220.08
761.417	20115.9
761.754	20113.86
762.091	20128.33
762.428	20014.88
762.765	19819.41
763.102	19813.76
763.438	19732.86
763.775	19621.9
764.112	19611.73
764.449	19577.15
764.785	19635.23
765.122	19486.31
765.458	19355.69
765.795	19372.87
766.131	19216.03
766.467	19201.12
766.804	19153.44
767.14	19050.84
767.476	19038.41
767.812	19010.39
768.148	19094.46
768.485	18917.29
768.821	18703.05
769.157	18703.96
769.492	18693.34
769.828	18621.25
770.164	18433.23
770.5	18511.19
770.836	18485.43
771.171	18306
771.507	18321.37
771.842	18178.32
772.178	18253.35
772.513	18092.9
772.849	18035.27
773.184	18006.57
773.519	17965.67
773.855	17871.66
774.19	17859.23
774.525	17675.74
774.86	17771.78
775.195	17762.51
775.53	17695.62
775.865	17476.19
776.2	17360.94
776.535	17260.61
776.87	17262.64
777.205	17285.01
777.539	17097.45
777.874	17113.26
778.209	17008.63
778.543	16915.98
778.878	16811.35
779.212	16840.96
779.547	16821.07
779.881	16767.29
780.215	16658.81
780.55	16677.57
780.884	16577.91
781.218	16432.6
781.552	16518.93
781.886	16307.18
782.22	16308.31
782.554	16283
782.888	16170.46
783.222	15969.34
783.556	15987.64
783.889	16022.45
784.223	15928.89
784.557	15807.99
784.89	15855.44
785.224	15782.9
785.557	15725.05
785.891	15614.32
786.224	15616.81
786.558	15609.12
786.891	15443.7
787.224	15319.64
787.557	15334.78
787.891	15384.72
788.224	15335.68
788.557	15332.29
788.89	15229.47
789.223	15154.9
789.556	15086.65
789.888	15068.57
790.221	15012.3
790.554	14842.59
790.887	14845.53
791.219	14839.2
791.552	14751.52
791.884	14693.67
792.217	14693.22
792.549	14553.33
792.882	14545.87
793.214	14395.82
793.546	14436.95
793.879	14409.83
794.211	14317.18
794.543	14413.9
794.875	14237.41
795.207	14343.85
795.539	14217.3
795.871	14181.14
796.203	14041.93
796.535	14020.01
796.867	13959.22
797.198	13912.9
797.53	13980.92
797.862	13800.36
798.193	13843.07
798.525	13684.65
798.856	13765.33
799.188	13567.6
799.519	13512.91
799.85	13477.88
800.182	13463.64
800.513	13467.71
800.844	13337.32
801.175	13442.85
801.506	13371.44
801.837	13269.75
802.168	13307.04
802.499	13210.54
802.83	13153.14
803.161	13182.75
803.491	13008.97
803.822	13063.43
804.153	13062.75
804.483	12932.81
804.814	12895.75
805.145	12826.6
805.475	12845.13
805.805	12792.25
806.136	12780.95
806.466	12726.71
806.796	12724.23
807.126	12675.87
807.457	12580.05
807.787	12676.32
808.117	12477
808.447	12514.97
808.777	12550.67
809.107	12495.31
809.436	12381.41
809.766	12458.47
810.096	12337.35
810.426	12238.36
810.755	12294.41
811.085	12306.39
811.414	12189.78
811.744	12153.17
812.073	12176.45
812.403	12109.78
812.732	11964.47
813.061	12034.08
813.39	11930.12
813.719	11983
814.049	11995.89
814.378	11961.08
814.707	11896.45
815.036	11826.62
815.365	11780.98
815.693	11706.85
816.022	11738.04
816.351	11724.71
816.68	11636.57
817.008	11681.54
817.337	11585.5
817.665	11546.18
817.994	11536.46
818.322	11544.37
818.651	11477.48
818.979	11428.67
819.307	11485.62
819.636	11413.98
819.964	11323.36
820.292	11486.75
820.62	11422.79
820.948	11318.16
821.276	11397.93
821.604	11369.01
821.932	11289.46
822.259	11386.64
822.587	11274.1
822.915	11294.89
823.243	11291.04
823.57	11251.5
823.898	11355
824.225	11281.1
824.553	11271.61
824.88	11307.32
825.207	11369.69
825.535	11305.51
825.862	11300.99
826.189	11211.27
826.516	11310.48
826.843	11312.97
827.17	11278.39
827.497	11309.8
827.824	11326.52
828.151	11358.61
828.478	11271.38
828.805	11284.27
829.131	11253.31
829.458	11247.66
829.785	11268.45
830.111	11282.46
830.438	11260.09
830.764	11315.45
831.09	11245.85
831.417	11288.79
831.743	11222.12
832.069	11141.22
832.395	11197.94
832.722	11157.26
833.048	11112.07
833.374	11166.53
833.7	11022.13
834.026	11193.65
834.351	11141.67
834.677	11111.39
835.003	11082.69
835.329	11127.21
835.654	11081.33
835.98	11040.43
836.306	11123.37
836.631	10964.05
836.956	11060.09
837.282	11025.06
837.607	10962.24
837.932	11008.57
838.258	10971.05
838.583	10980.77
838.908	10809.93
839.233	10893.99
839.558	10858.06
839.883	10859.19
840.208	10763.83
840.533	10785.07
840.858	10776.26
841.182	10754.34
841.507	10721.57
841.832	10729.93
842.156	10705.52
842.481	10676.37
842.805	10634.11
843.13	10602.02
843.454	10613.77
843.778	10601.57
844.103	10576.26
844.427	10457.85
844.751	10467.11
845.075	10449.94
845.399	10471.86
845.723	10351.41
846.047	10399.54
846.371	10344.4
846.695	10313.67
847.019	10225.31
847.343	10223.05
847.666	10127.91
847.99	10108.03
848.313	10096.5
848.637	10034.81
848.96	10044.3
849.284	9986.67
849.607	9909.39
849.931	9953.23
850.254	9822.61
850.577	9783.51
850.9	9704.65
851.223	9742.16
851.546	9694.7
851.869	9619.45
852.192	9704.42
852.515	9606.57
852.838	9497.19
853.161	9464.88
853.483	9460.58
853.806	9428.72
854.129	9387.14
854.451	9366.8
854.774	9398.21
855.096	9264.21
855.419	9297.43
855.741	9226.47
856.063	9241.83
856.385	9170.42
856.708	9143.53
857.03	9135.4
857.352	9139.69
857.674	9099.24
857.996	9104.44
858.318	9054.27
858.64	9026.47
858.961	8976.76
859.283	8973.59
859.605	8942.63
859.926	8913.03
860.248	8883.88
860.57	8851.34
860.891	8879.13
861.212	8863.54
861.534	8812.24
861.855	8771.56
862.176	8779.02
862.498	8756.2
862.819	8774.5
863.14	8655.86
863.461	8668.29
863.782	8631
864.103	8674.84
864.424	8647.95
864.745	8647.95
865.065	8644.11
865.386	8608.63
865.707	8623.09
866.027	8600.27
866.348	8574.51
866.668	8500.38
866.989	8533.6
867.309	8471.01
867.63	8473.49
867.95	8453.15
868.27	8369.09
868.59	8405.92
868.91	8424.23
869.23	8350.56
869.55	8428.3
869.87	8353.04
870.19	8340.39
870.51	8391.46
870.83	8372.93
871.15	8253.84
871.469	8330.22
871.789	8288.41
872.109	8313.95
872.428	8280.95
872.748	8267.85
873.067	8213.16
873.386	8257.68
873.706	8240.5
874.025	8172.26
874.344	8167.06
874.663	8141.52
874.982	8111.92
875.301	8155.99
875.62	8097.68
875.939	8043.67
876.258	8061.3
876.577	8041.64
876.896	7999.61
877.214	8031.24
877.533	8043.45
877.852	8026.95
878.17	7995.09
878.489	8000.06
878.807	7999.38
879.125	7984.01
879.444	7975.43
879.762	7968.42
880.08	7911.7
880.398	7907.41
880.716	7946.27
881.034	7925.94
881.352	7831.93
881.67	7882.32
881.988	7790.35
882.306	7831.02
882.624	7817.24
882.941	7771.59
883.259	7741.53
883.577	7758.48
883.894	7735.21
884.212	7712.61
884.529	7733.62
884.846	7617.7
885.164	7706.51
885.481	7578.6
885.798	7615.21
886.115	7573.85
886.432	7534.08
886.75	7563.91
887.067	7591.26
887.383	7464.93
887.7	7473.29
888.017	7463.57
888.334	7400.07
888.651	7455.44
888.967	7399.17
889.284	7363.92
889.6	7330.47
889.917	7311.71
890.233	7379.74
890.55	7298.83
890.866	7252.51
891.182	7260.42
891.498	7202.11
891.815	7262.22
892.131	7122.79
892.447	7188.1
892.763	7180.19
893.079	7149.01
893.395	7170.25
893.71	7059.52
894.026	7098.84
894.342	7076.47
894.657	6938.84
894.973	6976.81
895.289	6985.4
895.604	6969.58
895.92	6983.59
896.235	6965.73
896.55	6925.28
896.865	6872.86
897.181	6883.48
897.496	6929.58
897.811	6845.96
898.126	6834.21
898.441	6773.65
898.756	6736.81
899.071	6686.19
899.386	6718.06
899.7	6677.61
900.015	6657.49
900.33	6556.48
900.644	6622.69
900.959	6567.55
901.273	6523.03
901.588	6543.6
901.902	6509.7
902.216	6551.51
902.531	6498.85
902.845	6441.45
903.159	6391.96
903.473	6340.67
903.787	6347.45
904.101	6299.54
904.415	6302.02
904.729	6249.14
905.042	6260.22
905.356	6219.99
905.67	6195.36
905.984	6239.65
906.297	6210.95
906.611	6133.67
906.924	6090.96
907.237	6109.49
907.551	6062.03
907.864	6056.83
908.177	6048.7
908.491	6009.83
908.804	6007.12
909.117	5934.35
909.43	5950.17
909.743	5860.68
910.056	5892.32
910.368	5832.21
910.681	5845.31
910.994	5763.28
911.307	5751.98
911.619	5774.58
911.932	5777.52
912.244	5715.37
912.557	5743.62
912.869	5723.96
913.181	5670.4
913.494	5630.85
913.806	5620.69
914.118	5609.16
914.43	5529.61
914.742	5561.25
915.054	5541.82
915.366	5491.65
915.678	5489.16
915.99	5473.34
916.302	5416.4
916.613	5394.7
916.925	5377.08
917.236	5437.64
917.548	5365.78
917.859	5352.44
918.171	5315.38
918.482	5288.26
918.794	5248.49
919.105	5246.46
919.416	5207.82
919.727	5242.62
920.038	5210.53
920.349	5155.39
920.66	5097.08
920.971	5149.06
921.282	5088.72
921.593	5092.56
921.903	5018.67
922.214	5047.59
922.525	5039.23
922.835	4995.39
923.146	4999.91
923.456	4973.02
923.767	4950.42
924.077	4942.74
924.387	4855.51
924.697	4843.98
925.008	4865.23
925.318	4862.06
925.628	4836.98
925.938	4799.24
926.248	4794.94
926.558	4750.65
926.867	4702.07
927.177	4691.9
927.487	4688.73
927.796	4639.02
928.106	4667.72
928.416	4622.75
928.725	4645.57
929.034	4598.79
929.344	4555.4
929.653	4530.77
929.962	4542.52
930.271	4507.72
930.581	4478.79
930.89	4459.81
931.199	4437.44
931.508	4403.77
931.817	4476.99
932.125	4338.23
932.434	4356.31
932.743	4341.62
933.051	4342.3
933.36	4284.68
933.669	4299.59
933.977	4256.65
934.286	4284.68
934.594	4262.3
934.902	4230.67
935.21	4188.41
935.519	4184.57
935.827	4204.9
936.135	4145.92
936.443	4142.31
936.751	4103.66
937.059	4145.7
937.367	4057.79
937.674	4068.18
937.982	4074.29
938.29	4040.16
938.597	4064.12
938.905	3979.37
939.213	3976.43
939.52	3981.63
939.827	3979.6
940.135	3912.93
940.442	3951.58
940.749	3931.92
941.056	3931.69
941.363	3853.27
941.67	3847.4
941.977	3816.44
942.284	3791.58
942.591	3778.93
942.898	3811.02
943.205	3743.9
943.511	3759.94
943.818	3748.87
944.125	3705.71
944.431	3697.8
944.738	3674.97
945.044	3720.17
945.35	3685.82
945.657	3639.72
945.963	3638.82
946.269	3619.61
946.575	3609.66
946.881	3599.27
947.187	3587.97
947.493	3550.91
947.799	3561.3
948.105	3510.23
948.41	3517.24
948.716	3509.1
949.022	3490.8
949.327	3471.36
949.633	3426.39
949.938	3465.04
950.244	3491.48
950.549	3408.54
950.854	3382.33
951.16	3333.97
951.465	3386.85
951.77	3331.48
952.075	3305.04
952.38	3338.26
952.685	3321.99
952.99	3292.39
953.294	3272.95
953.599	3239.05
953.904	3279.5
954.209	3240.18
954.513	3185.95
954.818	3231.14
955.122	3170.81
955.426	3221.43
955.731	3152.95
956.035	3095.78
956.339	3152.95
956.643	3126.29
956.948	3076.8
957.252	3056.46
957.556	3088.77
957.86	3065.05
958.163	3100.98
958.467	3052.39
958.771	3023.69
959.075	3028.44
959.378	2980.75
959.682	2988.44
959.985	2992.73
960.289	2892.85
960.592	2960.64
960.896	2945.28
961.199	2931.72
961.502	2926.07
961.805	2939.4
962.108	2907.76
962.411	2870.93
962.714	2863.24
963.017	2863.02
963.32	2843.81
963.623	2846.07
963.926	2808.33
964.228	2799.06
964.531	2801.78
964.833	2800.19
965.136	2807.43
965.438	2773.98
965.741	2764.49
966.043	2741.89
966.345	2703.7
966.648	2672.06
966.95	2698.95
967.252	2694.89
967.554	2638.17
967.856	2660.31
968.158	2652.4
968.46	2639.07
968.761	2670.71
969.063	2615.11
969.365	2585.06
969.666	2603.36
969.968	2616.47
970.269	2552.74
970.571	2559.98
970.872	2561.33
971.174	2557.72
971.475	2501.22
971.776	2554.33
972.077	2519.07
972.378	2505.74
972.679	2505.29
972.98	2497.83
973.281	2469.81
973.582	2415.8
973.883	2472.52
974.183	2421.22
974.484	2448.11
974.785	2428.45
975.085	2385.06
975.386	2414.44
975.686	2406.53
975.986	2407.44
976.287	2361.11
976.587	2380.09
976.887	2331.05
977.187	2362.01
977.487	2354.33
977.787	2316.37
978.087	2305.97
978.387	2296.71
978.687	2306.65
978.987	2292.86
979.286	2247.89
979.586	2274.33
979.885	2306.65
980.185	2231.85
980.484	2218.74
980.784	2222.58
981.083	2177.39
981.382	2218.97
981.682	2204.73
981.981	2194.11
982.28	2156.14
982.579	2154.79
982.878	2152.75
983.177	2157.5
983.475	2153.66
983.774	2113.43
984.073	2084.96
984.372	2072.08
984.67	2132.87
984.969	2102.36
985.267	2076.15
985.566	2084.96
985.864	2061.01
986.162	2044.51
986.461	2020.55
986.759	2040.44
987.057	2012.64
987.355	2012.19
987.653	2034.57
987.951	1964.51
988.249	1976.26
988.547	1984.62
988.844	1981.01
989.142	1972.19
989.44	1955.02
989.737	1970.16
990.035	1926.09
990.332	1961.12
990.63	1922.93
990.927	1925.19
991.224	1901.01
991.521	1925.19
991.819	1906.43
992.116	1902.37
992.413	1879.99
992.71	1893.78
993.006	1866.89
993.303	1865.08
993.6	1833.44
993.897	1824.85
994.193	1805.64
994.49	1828.47
994.787	1814.01
995.083	1784.18
995.379	1786.89
995.676	1775.81
995.972	1789.15
996.268	1758.64
996.565	1750.96
996.861	1734.01
997.157	1747.57
997.453	1729.71
997.749	1712.99
998.044	1697.17
998.34	1726.78
998.636	1694.46
998.932	1690.39
999.227	1659.66
999.523	1682.03
999.818	1672.31
1000.114	1666.21
1000.409	1642.49
1000.704	1635.48
1001	1653.78
1001.295	1652.88
1001.59	1630.06
1001.885	1606.78
1002.18	1584.86
1002.475	1570.17
1002.77	1597.06
1003.065	1589.61
1003.359	1594.58
1003.654	1574.01
1003.949	1566.55
1004.243	1543.28
1004.538	1533.34
1004.832	1521.13
1005.127	1512.32
1005.421	1507.8
1005.715	1520.23
1006.009	1492.66
1006.304	1496.95
1006.598	1485.43
1006.892	1448.37
1007.186	1452.89
1007.48	1439.78
1007.773	1455.37
1008.067	1443.17
1008.361	1423.28
1008.655	1436.61
1008.948	1402.27
1009.242	1395.94
1009.535	1397.75
1009.829	1407.91
1010.122	1379.89
1010.415	1418.31
1010.708	1369.72
1011.001	1374.92
1011.295	1374.24
1011.588	1330.85
1011.881	1344.87
1012.173	1337.86
1012.466	1331.76
1012.759	1325.66
1013.052	1313.91
1013.344	1319.33
1013.637	1293.79
1013.93	1288.14
1014.222	1291.08
1014.514	1282.95
1014.807	1263.51
1015.099	1253.57
1015.391	1283.4
1015.683	1266.68
1015.976	1258.77
1016.268	1217.41
1016.56	1244.53
1016.851	1214.25
1017.143	1199.33
1017.435	1215.38
1017.727	1174.93
1018.018	1204.08
1018.31	1194.81
1018.602	1193.46
1018.893	1174.25
1019.185	1160.92
1019.476	1176.51
1019.767	1147.36
1020.058	1155.94
1020.35	1149.84
1020.641	1114.36
1020.932	1108.71
1021.223	1144.65
1021.514	1101.03
1021.804	1087.02
1022.095	1102.84
1022.386	1102.61
1022.677	1089.28
1022.967	1062.16
1023.258	1062.39
1023.548	1088.83
1023.839	1058.32
1024.129	1044.53
1024.419	1047.02
1024.709	1043.4
1025	1028.26
1025.29	1026.46
1025.58	1029.62
1025.87	1011.32
1026.16	1008.6
1026.449	989.85
1026.739	992.56
1027.029	978.55
1027.319	945.33
1027.608	986.46
1027.898	966.12
1028.187	960.47
1028.477	972.9
1028.766	949.4
1029.055	960.02
1029.344	956.85
1029.634	961.82
1029.923	899
1030.212	922.73
1030.501	932.67
1030.79	913.69
1031.078	894.03
1031.367	900.36
1031.656	910.98
1031.945	913.69
1032.233	889.74
1032.522	879.34
1032.81	897.65
1033.099	876.63
1033.387	885.67
1033.675	860.81
1033.963	850.42
1034.251	863.52
1034.54	861.71
1034.828	853.35
1035.116	844.77
1035.403	849.74
1035.691	819.23
1035.979	818.78
1036.267	838.44
1036.554	814.71
1036.842	803.86
1037.129	817.42
1037.417	807.93
1037.704	795.28
1037.992	781.04
1038.279	784.88
1038.566	761.38
1038.853	761.38
1039.14	761.38
