Data from white_poster_card_FLMS001491_00047.txt Node
Date: Wed Feb 08 11:51:35 GMT 2017
User: dcchb
Spectrometer: FLMS00149
Trigger mode: 0
Integration Time (sec): 2.000000E-2
Scans to average: 10
Electric dark correction enabled: true
Nonlinearity correction enabled: false
Boxcar width: 0
XAxis mode: Wavelengths
Number of Pixels in Spectrum: 2048
>>>>>Begin Spectral Data<<<<<
341.393	-10.11
341.776	-10.11
342.16	-10.11
342.543	-45.82
342.927	-80.17
343.31	-67.74
343.693	-86.95
344.077	-64.57
344.46	-43.78
344.843	-49.21
345.226	-52.37
345.61	-46.5
345.993	2.54
346.376	-19.83
346.759	7.06
347.142	47.51
347.525	52.71
347.908	60.39
348.291	71.24
348.674	78.92
349.057	110.56
349.44	127.96
349.823	138.58
350.206	159.83
350.588	190.56
350.971	212.25
351.354	222.88
351.737	226.04
352.119	245.25
352.502	247.28
352.884	278.24
353.267	270.33
353.65	285.47
354.032	280.95
354.414	288.41
354.797	313.04
355.179	334.51
355.562	317.34
355.944	319.14
356.326	322.08
356.709	333.16
357.091	341.97
357.473	332.48
357.855	338.13
358.238	332.48
358.62	342.42
359.002	332.7
359.384	338.35
359.766	330.44
360.148	346.71
360.53	330.67
360.912	353.72
361.294	329.54
361.676	344.91
362.057	339.93
362.439	332.48
362.821	347.84
363.203	348.3
363.584	343.1
363.966	318.01
364.348	334.51
364.729	313.72
365.111	304.46
365.493	303.78
365.874	317.11
366.256	327.51
366.637	320.73
367.019	309.88
367.4	311.69
367.781	325.7
368.163	315.08
368.544	320.27
368.925	322.08
369.306	331.35
369.688	301.29
370.069	310.56
370.45	295.64
370.831	321.4
371.212	317.34
371.593	318.69
371.974	309.65
372.355	323.44
372.736	309.2
373.117	313.95
373.498	317.11
373.879	331.12
374.26	330.9
374.641	314.4
375.021	321.86
375.402	321.18
375.783	322.99
376.163	338.8
376.544	323.66
376.925	335.19
377.305	327.51
377.686	334.74
378.066	342.87
378.447	348.07
378.827	331.12
379.208	333.61
379.588	329.31
379.968	362.76
380.349	354.62
380.729	327.28
381.109	345.58
381.489	352.14
381.87	345.13
382.25	355.75
382.63	336.77
383.01	361.85
383.39	355.3
383.77	343.55
384.15	355.53
384.53	362.08
384.91	344.45
385.29	347.84
385.67	347.84
386.049	365.24
386.429	383.1
386.809	374.28
387.189	373.15
387.568	358.47
387.948	386.94
388.328	388.52
388.707	374.28
389.087	368.41
389.466	387.62
389.846	369.76
390.225	393.27
390.605	365.7
390.984	369.99
391.363	380.84
391.743	378.58
392.122	400.72
392.501	390.33
392.881	407.05
393.26	421.06
393.639	410.67
394.018	423.55
394.397	419.25
394.776	402.98
395.155	392.36
395.534	406.37
395.913	407.73
396.292	425.58
396.671	418.8
397.05	417.45
397.429	428.75
397.808	412.93
398.186	416.54
398.565	436.43
398.944	451.12
399.323	458.8
399.701	447.05
400.08	445.24
400.458	454.96
400.837	438.69
401.215	451.34
401.594	443.21
401.972	465.35
402.351	464.68
402.729	445.47
403.107	466.26
403.486	467.16
403.864	461.97
404.242	481.4
404.62	502.64
404.999	496.77
405.377	479.59
405.755	482.98
406.133	508.29
406.511	499.25
406.889	514.62
407.267	537.9
407.645	518.46
408.023	534.28
408.401	531.34
408.779	550.1
409.156	564.11
409.534	581.74
409.912	550.32
410.29	593.26
410.667	615.63
411.045	619.93
411.422	618.12
411.8	621.96
412.178	628.29
412.555	643.66
412.933	679.81
413.31	678.68
413.687	703.09
414.065	696.54
414.442	697.89
414.819	749.42
415.197	757.78
415.574	751.22
415.951	770.66
416.328	795.97
416.705	767.04
417.082	798.91
417.46	813.37
417.837	825.8
418.214	858.79
418.591	866.02
418.967	879.36
419.344	889.75
419.721	925.91
420.098	893.82
420.475	934.27
420.852	942.86
421.228	967.04
421.605	966.36
421.982	988.05
422.358	1010.43
422.735	1044.1
423.111	1049.52
423.488	1064.89
423.864	1080.93
424.241	1094.49
424.617	1080.71
424.994	1072.34
425.37	1117.32
425.746	1136.3
426.123	1131.1
426.499	1159.35
426.875	1178.78
427.251	1200.02
427.627	1201.38
428.003	1234.83
428.379	1234.6
428.756	1248.84
429.132	1293.58
429.507	1298.78
429.883	1303.3
430.259	1354.82
430.635	1355.28
431.011	1358.44
431.387	1399.57
431.763	1405.22
432.138	1442.28
432.514	1482.5
432.89	1490.41
433.265	1510.3
433.641	1548.94
434.016	1521.15
434.392	1562.73
434.767	1611.09
435.143	1593.01
435.518	1628.04
435.894	1605.66
436.269	1655.83
436.644	1684.08
437.02	1678.43
437.395	1691.09
437.77	1731.76
438.145	1750.52
438.52	1761.82
438.895	1785.09
439.271	1779.22
439.646	1847.92
440.021	1846.34
440.395	1832.32
440.77	1848.14
441.145	1894.24
441.52	1837.75
441.895	1875.04
442.27	1941.02
442.645	1890.4
443.019	1953.45
443.394	1931.53
443.769	1939.89
444.143	1968.59
444.518	1965.43
444.892	1987.12
445.267	1999.33
445.641	2035.03
446.016	2017.18
446.39	2058.31
446.764	2050.62
447.139	2059.89
447.513	2080
447.887	2093.11
448.262	2113.45
448.636	2117.51
449.01	2145.08
449.384	2128.14
449.758	2195.93
450.132	2183.5
450.506	2221.92
450.88	2208.81
451.254	2250.84
451.628	2271.86
452.002	2297.85
452.376	2267.12
452.75	2322.03
453.123	2329.94
453.497	2355.93
453.871	2385.3
454.244	2419.43
454.618	2436.15
454.992	2518.86
455.365	2502.59
455.739	2552.53
456.112	2571.51
456.486	2580.78
456.859	2596.37
457.232	2659.2
457.606	2636.82
457.979	2705.07
458.352	2764.5
458.725	2786.88
459.099	2783.71
459.472	2808.8
459.845	2832.07
460.218	2898.74
460.591	2889.7
460.964	2919.53
461.337	2976.02
461.71	3024.61
462.083	3075.91
462.456	3051.95
462.829	3097.38
463.201	3157.94
463.574	3179.86
463.947	3195.45
464.32	3297.6
464.692	3295.11
465.065	3309.57
465.438	3354.77
465.81	3395
466.183	3444.03
466.555	3516.57
466.928	3515.22
467.3	3549.12
467.672	3617.36
468.045	3686.97
468.417	3697.59
468.789	3704.59
469.161	3722.9
469.534	3801.76
469.906	3861.65
470.278	3898.94
470.65	3945.49
471.022	3998.82
471.394	4103.45
471.766	4123.56
472.138	4138.93
472.51	4235.2
472.882	4305.25
473.253	4343.45
473.625	4403.1
473.997	4503.67
474.369	4561.74
474.74	4547.96
475.112	4661.85
475.484	4724
475.855	4813.26
476.227	4815.98
476.598	4973.94
476.97	4999.93
477.341	5182.75
477.713	5186.36
478.084	5236.53
478.455	5384.77
478.827	5411.21
479.198	5537.09
479.569	5538.44
479.94	5684.2
480.311	5728.04
480.682	5855.27
481.053	6041.25
481.424	6126
481.795	6165.77
482.166	6228.82
482.537	6283.51
482.908	6402.15
483.279	6504.52
483.65	6638.75
484.021	6697.06
484.391	6797.39
484.762	6905.86
485.133	6990.38
485.503	7029.93
485.874	7261.56
486.244	7255.46
486.615	7395.34
486.985	7493.19
487.356	7605.51
487.726	7756.91
488.097	7844.14
488.467	7853.41
488.837	8049.34
489.207	8168.2
489.578	8232.16
489.948	8376.11
490.318	8450.68
490.688	8453.17
491.058	8613.84
491.428	8779.26
491.798	8796.89
492.168	8971.57
492.538	9049.99
492.908	9146.26
493.278	9265.12
493.648	9267.16
494.017	9440.03
494.387	9508.96
494.757	9546.02
495.126	9653.59
495.496	9750.31
495.866	9800.7
496.235	9934.71
496.605	10072.11
496.974	10129.73
497.344	10211.09
497.713	10247.24
498.082	10297.86
498.452	10392.78
498.821	10460.12
499.19	10469.61
499.559	10660.34
499.928	10730.17
500.298	10763.16
500.667	10873.67
501.036	10912.99
501.405	11007.22
501.774	11005.87
502.143	11166.54
502.512	11201.57
502.88	11345.07
503.249	11317.73
503.618	11441.79
503.987	11522.01
504.356	11573.76
504.724	11658.28
505.093	11726.98
505.462	11705.51
505.83	11886.75
506.199	11939.86
506.567	12059.63
506.936	12092.62
507.304	12251.71
507.672	12369.67
508.041	12408.32
508.409	12449.45
508.777	12627.75
509.145	12740.06
509.514	12749.33
509.882	12791.13
510.25	12829.32
510.618	13013.73
510.986	13031.58
511.354	13280.61
511.722	13297.33
512.09	13424.34
512.458	13451.45
512.826	13578.68
513.193	13606.48
513.561	13671.56
513.929	13787.72
514.297	13897.32
514.664	14076.97
515.032	14145.22
515.4	14098.89
515.767	14257.08
516.135	14436.74
516.502	14336.4
516.869	14642.61
517.237	14613.23
517.604	14610.75
517.972	14889.16
518.339	14967.8
518.706	14974.8
519.073	15085.54
519.44	15285.53
519.808	15425.19
520.175	15392.87
520.542	15560.1
520.909	15661.11
521.276	15684.84
521.643	15923.48
522.009	15963.03
522.376	16171.83
522.743	16325.28
523.11	16471.71
523.477	16561.2
523.843	16621.54
524.21	16869.9
524.577	16922.1
524.943	17091.36
525.31	17228.08
525.676	17315.08
526.043	17496.09
526.409	17565.7
526.776	17771.79
527.142	17733.38
527.508	18015.63
527.874	18049.75
528.241	18157.55
528.607	18177.66
528.973	18408.84
529.339	18407.93
529.705	18649.74
530.071	18724.31
530.437	18950.07
530.803	18953.46
531.169	19125.43
531.535	19073.45
531.901	19238.87
532.267	19319.55
532.632	19441.35
532.998	19502.37
533.364	19664.17
533.73	19729.71
534.095	19887.9
534.461	19917.05
534.826	20085.4
535.192	20135.35
535.557	20259.86
535.923	20231.16
536.288	20300.54
536.653	20505.28
537.019	20430.71
537.384	20634.32
537.749	20750.25
538.114	20817.36
538.479	20803.13
538.845	20893.29
539.21	20928.32
539.575	21022.55
539.94	21051.71
540.305	21216.22
540.67	21223.68
541.034	21441.07
541.399	21524.46
541.764	21556.78
542.129	21567.62
542.494	21681.75
542.858	21846.04
543.223	21817.34
543.587	21918.12
543.952	21997.67
544.316	22087.16
544.681	21963.55
545.045	22124.67
545.41	22320.83
545.774	22294.84
546.138	22408.05
546.503	22453.25
546.867	22493.93
547.231	22649.86
547.595	22721.72
547.959	22818.89
548.324	22756.29
548.688	22806.46
549.052	22993.8
549.416	22997.19
549.779	23111.09
550.143	23137.75
550.507	23298.2
550.871	23431.98
551.235	23441.25
551.599	23710.39
551.962	23633.79
552.326	23788.58
552.689	23964.17
553.053	23877.62
553.417	23836.04
553.78	24299.76
554.143	24157.84
554.507	24301.56
554.87	24433.31
555.234	24666.3
555.597	24507.66
555.96	24620.65
556.323	24798.95
556.686	24855.9
557.05	25050.02
557.413	25091.6
557.776	25116.46
558.139	25381.54
558.502	25356.45
558.865	25560.29
559.228	25693.39
559.59	25833.73
559.953	25880.51
560.316	26136.32
560.679	26186.94
561.041	26266.03
561.404	26437.55
561.767	26575.63
562.129	26522.97
562.492	26784.66
562.854	26750.09
563.217	26866.02
563.579	27052.68
563.941	27089.97
564.304	27353.01
564.666	27346.68
565.028	27418.32
565.39	27539.67
565.753	27627.8
566.115	27881.36
566.477	27856.73
566.839	27931.75
567.201	28257.62
567.563	28219.2
567.925	28427.78
568.287	28400.44
568.648	28432.3
569.01	28630.94
569.372	28905.06
569.734	28693.77
570.095	29056.92
570.457	29119.97
570.819	29209.01
571.18	29169.68
571.542	29265.05
571.903	29344.14
572.265	29573.06
572.626	29564.48
572.987	29661.65
573.349	29854.86
573.71	29855.77
574.071	30066.16
574.432	30085.59
574.794	30298.02
575.155	30170.56
575.516	30174.4
575.877	30166.04
576.238	30421.63
576.599	30519.03
576.96	30481.97
577.32	30523.1
577.681	30707.5
578.042	30738.23
578.403	30853.93
578.763	30791.34
579.124	30771.68
579.485	30910.66
579.845	31010.99
580.206	30957.89
580.566	30937.1
580.927	31061.84
581.287	31172.12
581.648	31047.83
582.008	31257.77
582.368	31170.76
582.728	31292.34
583.089	31149.29
583.449	31192
583.809	31360.36
584.169	31375.95
584.529	31297.76
584.889	31505.44
585.249	31378.21
585.609	31177.77
585.969	31399.23
586.329	31325.11
586.688	31420.7
587.048	31422.28
587.408	31257.99
587.768	31310.65
588.127	31301.15
588.487	31336.18
588.846	31458.21
589.206	31293.92
589.565	31437.65
589.925	31600.58
590.284	31485.56
590.643	31421.83
591.003	31580.47
591.362	31615.72
591.721	31505.22
592.08	31568.49
592.44	31643.29
592.799	31616.17
593.158	31566.01
593.517	31733.91
593.876	31499.12
594.235	31573.01
594.593	31659.79
594.952	31705.21
595.311	31704.53
595.67	31680.13
596.029	31721.93
596.387	31744.98
596.746	31861.82
597.104	31745.44
597.463	31756.06
597.822	31897.75
598.18	31711.54
598.538	31739.11
598.897	31897.52
599.255	31746.79
599.613	32169.15
599.972	31932.78
600.33	32028.82
600.688	31882.16
601.046	31944.08
601.404	32090.06
601.762	32031.98
602.12	32226.55
602.478	32125.09
602.836	32210.06
603.194	32147.69
603.552	32173.9
603.91	32119.66
604.268	32175.03
604.625	32155.82
604.983	32301.35
605.341	32166.44
605.698	32520.33
606.056	32383.61
606.413	32224.29
606.771	32502.7
607.128	32461.8
607.485	32301.58
607.843	32426.1
608.2	32576.15
608.557	32613.21
608.914	32522.37
609.272	32745.41
609.629	32721
609.986	32817.05
610.343	32748.57
610.7	32953.54
611.057	32965.52
611.414	32852.3
611.771	32796.26
612.127	33021.11
612.484	33013.2
612.841	33144.72
613.198	32968.46
613.554	33116.93
613.911	33158.28
614.267	33236.47
614.624	33222.01
614.98	33216.58
615.337	33304.72
615.693	33291.38
616.05	33189.47
616.406	33451.83
616.762	33391.95
617.118	33341.55
617.475	33335.68
617.831	33427.2
618.187	33567.76
618.543	33386.3
618.899	33704.48
619.255	33694.54
619.611	33443.47
619.967	33615.67
620.323	33689.34
620.678	33546.07
621.034	33500.19
621.39	33576.57
621.746	33480.53
622.101	33823.57
622.457	33579.74
622.812	33700.19
623.168	33733.63
623.523	33685.5
623.879	33787.87
624.234	33605.5
624.589	33787.19
624.945	33766.4
625.3	33705.16
625.655	33708.77
626.01	33633.97
626.365	33744.48
626.72	33572.96
627.075	33655.67
627.43	33559.85
627.785	33573.86
628.14	33620.87
628.495	33796
628.85	33619.06
629.205	33491.15
629.559	33693.41
629.914	33517.82
630.269	33615.22
630.623	33417.26
630.978	33415
631.332	33572.73
631.687	33459.74
632.041	33360.08
632.396	33592.62
632.75	33314.89
633.104	33376.35
633.459	33189.24
633.813	33143.37
634.167	33184.04
634.521	33119.64
634.875	33379.74
635.229	33006.65
635.583	32904.28
635.937	32955.8
636.291	33012.52
636.645	32986.53
636.999	32859.53
637.352	32947.21
637.706	32703.15
638.06	32852.98
638.413	32690.95
638.767	32680.33
639.121	32715.81
639.474	32438.3
639.828	32472.87
640.181	32485.76
640.534	32535.7
640.888	32473.55
641.241	32247.8
641.594	32395.14
641.947	32346.78
642.301	32272.43
642.654	32323.05
643.007	32267.23
643.36	32269.04
643.713	32098.42
644.066	32311.75
644.419	32093
644.771	31817.3
645.124	31552.67
645.477	31476.07
645.83	31240.82
646.182	31142.97
646.535	31036.98
646.888	31005.79
647.24	30915.18
647.593	31147.03
647.945	31026.81
648.298	30713.37
648.65	30858.91
649.002	30796.08
649.355	30932.8
649.707	30779.36
650.059	30866.59
650.411	31441.04
650.763	31232.46
651.115	31643.52
651.467	31500.02
651.819	31493.47
652.171	31386.35
652.523	31339.57
652.875	31338.44
653.227	31283.08
653.578	31416.18
653.93	31320.36
654.282	31034.72
654.633	31001.5
654.985	31202.63
655.337	31175.73
655.688	31069.52
656.039	31213.25
656.391	30989.52
656.742	30870.66
657.094	30976.87
657.445	31155.62
657.796	30930.09
658.147	30896.42
658.498	30786.14
658.849	31076.53
659.2	30837.66
659.551	30790.66
659.902	30909.3
660.253	30789.08
660.604	30811.22
660.955	30675.86
661.306	30914.95
661.656	30504.79
662.007	30787.04
662.358	30725.12
662.708	30625.69
663.059	30553.6
663.409	30483.77
663.76	30595.41
664.11	30580.72
664.461	30658.01
664.811	30653.94
665.161	30533.49
665.511	30436.77
665.862	30478.58
666.212	30543.89
666.562	30627.27
666.912	30498.46
667.262	30471.35
667.612	30414.4
667.962	30498.24
668.312	30471.57
668.662	30571.91
669.011	30463.44
669.361	30316.77
669.711	30271.12
670.06	30258.92
670.41	30242.43
670.76	30201.3
671.109	30300.95
671.459	30147.74
671.808	30210.56
672.157	30307.51
672.507	30021.41
672.856	30164.24
673.205	30146.16
673.554	30204.23
673.904	29949.33
674.253	30130.34
674.602	30093.05
674.951	29667.53
675.3	29536.23
675.649	29997.01
675.998	29964.47
676.346	29940.51
676.695	30082.2
677.044	29748.43
677.393	29890.34
677.741	29821.65
678.09	29705.49
678.438	29674.3
678.787	29806.5
679.135	29755.66
679.484	29529.68
679.832	29644.93
680.181	29564.93
680.529	29542.78
680.877	29559.73
681.225	29535.1
681.573	29561.77
681.922	29355.44
682.27	29318.83
682.618	29324.94
682.966	29133.75
683.314	29268.89
683.661	29143.92
684.009	29051.95
684.357	28986.41
684.705	28932.4
685.053	29017.37
685.4	28837.72
685.748	28807.21
686.095	28677.95
686.443	28769.47
686.79	28615.58
687.138	28612.86
687.485	28604.05
687.832	28582.58
688.18	28541
688.527	28434.56
688.874	28234.12
689.221	28307.79
689.568	28207.45
689.915	28102.82
690.262	28128.81
690.609	28101.92
690.956	27872.77
691.303	27976.72
691.65	27765.88
691.997	27723.85
692.344	27737.41
692.69	27592.1
693.037	27600.91
693.383	27484.31
693.73	27621.25
694.077	27309.85
694.423	27289.06
694.769	27195.05
695.116	27200.47
695.462	27154.82
695.808	26958.22
696.155	26998.89
696.501	26847.94
696.847	26735.85
697.193	26606.36
697.539	26791.67
697.885	26551.45
698.231	26499.7
698.577	26574.5
698.923	26340.15
699.269	26170.67
699.614	26277.78
699.96	25997.57
700.306	26102.42
700.651	25992.82
700.997	26042.54
701.342	25875.08
701.688	25848.64
702.033	25634.41
702.379	25661.98
702.724	25597.35
703.069	25657.46
703.415	25449.1
703.76	25384.93
704.105	25358.26
704.45	25319.39
704.795	25181.32
705.14	25053.86
705.485	25152.16
705.83	25045.05
706.175	24988.33
706.52	24950.36
706.865	24850.7
707.209	24779.07
707.554	24697.03
707.899	24772.96
708.243	24595.57
708.588	24513.76
708.932	24398.29
709.277	24423.14
709.621	24446.65
709.966	24334.78
710.31	24374.78
710.654	24095.92
710.998	24087.33
711.342	24130.27
711.687	24060.21
712.031	24011.85
712.375	23901.8
712.719	24022.93
713.063	23883.04
713.407	23796.04
713.75	23802.14
714.094	23681.24
714.438	23638.53
714.782	23662.94
715.125	23426.33
715.469	23435.6
715.812	23436.5
716.156	23359.89
716.499	23334.36
716.843	23318.77
717.186	23188.15
717.53	23274.47
717.873	23276.96
718.216	23202.84
718.559	23023.18
718.902	22882.39
719.246	22977.31
719.589	23035.16
719.932	22782.28
720.275	22702.74
720.617	22833.13
720.96	22703.41
721.303	22713.58
721.646	22799.01
721.989	22553.59
722.331	22622.51
722.674	22561.95
723.016	22587.26
723.359	22509.97
723.701	22478.34
724.044	22279.02
724.386	22210.09
724.729	22388.85
725.071	22252.58
725.413	22379.13
725.755	22154.5
726.097	22218.46
726.439	21987.95
726.782	22076.09
727.124	22139.59
727.465	21946.6
727.807	21985.02
728.149	21831.12
728.491	21808.75
728.833	21923.77
729.175	21814.62
729.516	21712.48
729.858	21641.07
730.199	21719.71
730.541	21652.82
730.882	21611.92
731.224	21612.82
731.565	21487.63
731.906	21488.31
732.248	21497.12
732.589	21405.6
732.93	21327.63
733.271	21363.56
733.612	21296.22
733.953	21371.25
734.294	21250.12
734.635	21176
734.976	21176.45
735.317	21124.92
735.658	21054.42
735.999	21109.33
736.339	20999.73
736.68	21095.1
737.021	20932.16
737.361	20977.13
737.702	21005.38
738.042	21039.73
738.383	20913.4
738.723	20878.15
739.063	20844.25
739.404	20917.92
739.744	20742.79
740.084	20738.04
740.424	20743.01
740.764	20620.08
741.104	20675.9
741.444	20607.88
741.784	20546.18
742.124	20589.12
742.464	20483.36
742.804	20563.81
743.143	20373.08
743.483	20377.83
743.823	20303.48
744.162	20318.39
744.502	20375.34
744.841	20199.98
745.181	20253.08
745.52	20070.72
745.86	20202.24
746.199	20097.61
746.538	20128.79
746.877	20092.86
747.216	20170.83
747.556	19956.37
747.895	19967.22
748.234	19962.92
748.573	19862.59
748.911	19876.82
749.25	19850.83
749.589	19631.86
749.928	19755.92
750.267	19700.1
750.605	19641.8
750.944	19565.64
751.283	19577.17
751.621	19617.85
751.96	19531.75
752.298	19477.74
752.636	19442.26
752.975	19430.73
753.313	19329.49
753.651	19337.18
753.989	19242.49
754.327	19232.32
754.666	19192.09
755.004	19141.25
755.342	19130.17
755.679	19196.61
756.017	18964.08
756.355	19089.5
756.693	18927.69
757.031	18938.77
757.368	18839.79
757.706	18789.17
758.044	18749.62
758.381	18803.86
758.719	18612.67
759.056	18629.4
759.394	18609.51
759.731	18515.05
760.068	18394.15
760.405	18310.08
760.743	18342.85
761.08	18370.19
761.417	18330.42
761.754	18176.53
762.091	18156.64
762.428	17936.53
762.765	17966.36
763.102	18045.01
763.438	17995.29
763.775	17861.06
764.112	17831.23
764.449	17816.31
764.785	17720.27
765.122	17622.19
765.458	17596.43
765.795	17621.74
766.131	17501.07
766.467	17435.3
766.804	17389.66
767.14	17312.37
767.476	17249.32
767.812	17230.34
768.148	17254.07
768.485	17035.77
768.821	17012.72
769.157	16981.08
769.492	16924.36
769.828	16923.45
770.164	16779.5
770.5	16778.6
770.836	16664.7
771.171	16610.92
771.507	16612.73
771.842	16486.18
772.178	16542.9
772.513	16408.21
772.849	16328.67
773.184	16250.7
773.519	16321.66
773.855	16139.29
774.19	16149.24
774.525	16010.93
774.86	16013.65
775.195	15940.43
775.53	15909.92
775.865	15916.02
776.2	15761
776.535	15748.57
776.87	15599.19
777.205	15562.13
777.539	15528.46
777.874	15580.66
778.209	15513.77
778.543	15375.7
778.878	15290.28
779.212	15299.77
779.547	15210.5
779.881	15245.76
780.215	15069.94
780.55	15160.79
780.884	15029.27
781.218	14998.76
781.552	15009.83
781.886	14861.13
782.22	14845.99
782.554	14790.4
782.888	14655.04
783.222	14576.17
783.556	14421.15
783.889	14430.19
784.223	14335.72
784.557	14381.83
784.89	14422.05
785.224	14276.97
785.557	14268.83
785.891	14222.28
786.224	14123.07
786.558	14243.3
786.891	13984.32
787.224	14057.09
787.557	13916.98
787.891	13792.91
788.224	13897.32
788.557	13819.35
788.89	13792.91
789.223	13801.95
789.556	13659.58
789.888	13655.29
790.221	13559.25
790.554	13495.52
790.887	13414.62
791.219	13425.69
791.552	13346.37
791.884	13274.51
792.217	13206.26
792.549	13171.01
792.882	13060.73
793.214	13062.99
793.546	13080.84
793.879	13046.49
794.211	12959.72
794.543	13011.92
794.875	12896.21
795.207	12943.9
795.539	12867.51
795.871	12966.27
796.203	12737.57
796.535	12663
796.867	12741.87
797.198	12647.86
797.53	12643.57
797.862	12573.06
798.193	12587.75
798.525	12431.37
798.856	12520.18
799.188	12326.29
799.519	12261.88
799.85	12202
800.182	12228.21
800.513	12181.66
800.844	12089.68
801.175	12226.18
801.506	12138.49
801.837	12146.63
802.168	12047.2
802.499	12058.72
802.83	11941.89
803.161	11866.64
803.491	11888.11
803.822	11861.44
804.153	11824.83
804.483	11731.73
804.814	11763.14
805.145	11750.71
805.475	11665.06
805.805	11629.58
806.136	11659.64
806.466	11576.7
806.796	11636.13
807.126	11510.04
807.457	11493.77
807.787	11427.55
808.117	11379.19
808.447	11449.25
808.777	11405.41
809.107	11434.56
809.436	11322.02
809.766	11327.67
810.096	11237.05
810.426	11210.16
810.755	11179.88
811.085	11194.56
811.414	11135.13
811.744	11124.96
812.073	11074.12
812.403	11075.25
812.732	11027.56
813.061	10970.16
813.39	10935.36
813.719	10968.81
814.049	10926.77
814.378	10916.61
814.707	10828.25
815.036	10804.74
815.365	10770.85
815.693	10642.49
816.022	10739.89
816.351	10692.2
816.68	10582.83
817.008	10594.81
817.337	10515.26
817.665	10487.01
817.994	10484.07
818.322	10525.66
818.651	10495.37
818.979	10430.06
819.307	10449.95
819.636	10388.03
819.964	10384.87
820.292	10355.72
820.62	10419.67
820.948	10351.2
821.276	10378.31
821.604	10383.51
821.932	10353.91
822.259	10370.63
822.587	10270.07
822.915	10303.74
823.243	10312.1
823.57	10301.03
823.898	10257.19
824.225	10259.9
824.553	10290.86
824.88	10234.14
825.207	10304.19
825.535	10240.92
825.862	10290.41
826.189	10285.89
826.516	10276.4
826.843	10348.71
827.17	10274.36
827.497	10320.24
827.824	10374.25
828.151	10261.03
828.478	10272.1
828.805	10344.87
829.131	10223.74
829.458	10252.67
829.785	10169.05
830.111	10235.49
830.438	10252.89
830.764	10262.39
831.09	10231.43
831.417	10173.35
831.743	10306.68
832.069	10284.76
832.395	10207.47
832.722	10306.23
833.048	10214.03
833.374	10167.47
833.7	10187.36
834.026	10155.95
834.351	10104.65
834.677	10122.5
835.003	10200.01
835.329	10127.25
835.654	10118.21
835.98	10133.8
836.306	10088.38
836.631	10021.71
836.956	10062.39
837.282	9990.08
837.607	10048.15
837.932	10028.27
838.258	10002.28
838.583	10010.87
838.908	9973.81
839.233	9958.44
839.558	9901.72
839.883	9876.63
840.208	9872.34
840.533	9848.84
840.858	9853.13
841.182	9846.13
841.507	9861.27
841.832	9719.12
842.156	9760.7
842.481	9762.74
842.805	9773.36
843.13	9649.52
843.454	9706.24
843.778	9715.06
844.103	9643.87
844.427	9635.06
844.751	9595.74
845.075	9645
845.399	9493.37
845.723	9502.63
846.047	9537.88
846.371	9386.7
846.695	9392.8
847.019	9334.27
847.343	9310.55
847.666	9238.01
847.99	9240.27
848.313	9205.92
848.637	9182.19
848.96	9167.73
849.284	9190.1
849.607	9048.18
849.931	9069.42
850.254	9035.98
850.577	8970.89
850.9	8847.51
851.223	8862.2
851.546	8845.93
851.869	8824.46
852.192	8830.11
852.515	8739.71
852.838	8698.81
853.161	8680.28
853.483	8659.04
853.806	8600.28
854.129	8619.04
854.451	8568.87
854.774	8493.84
855.096	8485.03
855.419	8505.6
855.741	8484.81
856.063	8446.39
856.385	8395.54
856.708	8357.8
857.03	8373.62
857.352	8331.36
857.674	8334.07
857.996	8286.17
858.318	8208.65
858.64	8281.42
858.961	8223.8
859.283	8215.21
859.605	8160.52
859.926	8210.69
860.248	8130.46
860.57	8081.65
860.891	8069.22
861.212	8115.55
861.534	8033.29
861.855	8075.78
862.176	8069.45
862.498	8030.35
862.819	8034.42
863.14	7947.87
863.461	7948.77
863.782	7897.02
864.103	7945.38
864.424	7948.55
864.745	7892.73
865.065	7852.51
865.386	7876.46
865.707	7838.04
866.027	7822.45
866.348	7881.88
866.668	7831.71
866.989	7830.59
867.309	7721.89
867.63	7801.43
867.95	7798.04
868.27	7709.46
868.59	7738.84
868.91	7721.89
869.23	7702.68
869.55	7723.24
869.87	7674.43
870.19	7654.77
870.51	7688.89
870.83	7666.07
871.15	7541.1
871.469	7660.42
871.789	7610.7
872.109	7571.38
872.428	7485.51
872.748	7525.06
873.067	7532.06
873.386	7551.72
873.706	7511.95
874.025	7421.1
874.344	7498.84
874.663	7497.03
874.982	7424.27
875.301	7455.68
875.62	7391.05
875.939	7379.3
876.258	7401.67
876.577	7358.06
876.896	7379.52
877.214	7342.91
877.533	7331.16
877.852	7303.37
878.17	7327.77
878.489	7342.46
878.807	7358.51
879.125	7329.36
879.444	7351.5
879.762	7258.17
880.08	7291.39
880.398	7184.95
880.716	7270.15
881.034	7152.86
881.352	7154.44
881.67	7211.39
881.988	7186.08
882.306	7163.71
882.624	7161
882.941	7099.98
883.259	7112.19
883.577	7077.16
883.894	7089.14
884.212	7024.73
884.529	7070.15
884.846	7028.57
885.164	7013.21
885.481	7002.58
885.798	6992.64
886.115	6966.2
886.432	6965.07
886.75	6980.89
887.067	6981.34
887.383	6858.18
887.7	6875.36
888.017	6853.21
888.334	6855.47
888.651	6813.21
888.967	6840.1
889.284	6765.08
889.6	6726.66
889.917	6721.24
890.233	6719.65
890.55	6722.14
890.866	6717.39
891.182	6674.68
891.498	6630.84
891.815	6599.43
892.131	6580.22
892.447	6602.37
892.763	6591.52
893.079	6587.23
893.395	6613.44
893.71	6530.73
894.026	6456.84
894.342	6487.57
894.657	6463.62
894.973	6510.62
895.289	6390.17
895.604	6389.04
895.92	6409.15
896.235	6309.72
896.55	6394.01
896.865	6338.65
897.181	6332.55
897.496	6272.66
897.811	6277.86
898.126	6222.27
898.441	6180.91
898.756	6176.39
899.071	6194.92
899.386	6203.51
899.7	6117.41
900.015	6046.9
900.33	6079.44
900.644	6031.08
900.959	6050.07
901.273	6036.51
901.588	6010.75
901.902	5873.12
902.216	5922.61
902.531	5894.82
902.845	5962.39
903.159	5902.05
903.473	5836.51
903.787	5810.75
904.101	5854.82
904.415	5833.12
904.729	5798.32
905.042	5758.32
905.356	5734.82
905.67	5725.1
905.984	5716.06
906.297	5657.53
906.611	5669.51
906.924	5641.94
907.237	5678.1
907.551	5632.22
907.864	5597.42
908.177	5570.76
908.491	5578.44
908.804	5559.23
909.117	5483.08
909.43	5487.82
909.743	5464.77
910.056	5469.29
910.368	5400.82
910.681	5393.36
910.994	5420.03
911.307	5365.79
911.619	5296.64
911.932	5319.24
912.244	5287.15
912.557	5271.1
912.869	5283.99
913.181	5229.52
913.494	5244.44
913.806	5177.55
914.118	5181.39
914.43	5172.8
914.742	5162.41
915.054	5089.64
915.366	5093.93
915.678	5113.59
915.99	5073.14
916.302	5009.19
916.613	4975.52
916.925	4989.76
917.236	4991.11
917.548	4914.5
917.859	5000.83
918.171	4966.25
918.482	4915.86
918.794	4890.55
919.105	4774.39
919.416	4821.62
919.727	4801.96
920.038	4784.11
920.349	4737.33
920.66	4747.05
920.971	4750.67
921.282	4708.63
921.593	4674.74
921.903	4661.85
922.214	4657.56
922.525	4649.2
922.835	4601.97
923.146	4556.77
923.456	4582.53
923.767	4549.99
924.077	4554.74
924.387	4534.4
924.697	4535.53
925.008	4542.54
925.318	4468.41
925.628	4458.47
925.938	4443.78
926.248	4403.56
926.558	4408.3
926.867	4394.52
927.177	4347.96
927.487	4330.79
927.796	4265.48
928.106	4336.67
928.416	4295.76
928.725	4281.53
929.034	4246.5
929.344	4304.12
929.653	4234.07
929.962	4227.06
930.271	4199.72
930.581	4170.12
930.89	4187.97
931.199	4144.58
931.508	4159.72
931.817	4095.99
932.125	4089.21
932.434	4102.1
932.743	4079.05
933.051	4009.89
933.36	4061.19
933.669	3983.45
933.977	4006.05
934.286	4023.91
934.594	3973.29
934.902	3922.89
935.21	3891.93
935.519	3899.61
935.827	3907.75
936.135	3869.79
936.443	3842.44
936.751	3830.69
937.059	3823.91
937.367	3783.46
937.674	3755.44
937.982	3780.97
938.29	3776.91
938.597	3765.38
938.905	3706.17
939.213	3709.79
939.52	3747.3
939.827	3693.07
940.135	3642.9
940.442	3636.12
940.749	3663.69
941.056	3637.47
941.363	3561.54
941.67	3627.76
941.977	3577.14
942.284	3569.45
942.591	3524.48
942.898	3549.57
943.205	3524.03
943.511	3494.2
943.818	3496.91
944.125	3403.36
944.431	3464.37
944.738	3466.86
945.044	3452.62
945.35	3404.03
945.657	3372.17
945.963	3333.3
946.269	3328.1
946.575	3347.09
946.881	3323.58
947.187	3303.25
947.493	3333.53
947.799	3278.84
948.105	3277.48
948.41	3229.8
948.716	3261.89
949.022	3236.58
949.327	3250.14
949.633	3188.45
949.938	3203.59
950.244	3225.51
950.549	3232.51
950.854	3146.87
951.16	3175.79
951.465	3141.67
951.77	3122.01
952.075	3101.44
952.38	3111.39
952.685	3125.17
952.99	3079.07
953.294	3080.2
953.599	3033.65
953.904	3045.63
954.209	3014.89
954.513	3012.18
954.818	2977.83
955.122	3010.6
955.426	3001.11
955.731	2967.66
956.035	2916.36
956.339	2945.97
956.643	2951.62
956.948	2911.62
957.252	2860.55
957.556	2903.03
957.86	2876.59
958.163	2852.64
958.467	2845.86
958.771	2852.86
959.075	2807.89
959.378	2830.49
959.682	2788.23
959.985	2806.54
960.289	2762.02
960.592	2744.17
960.896	2796.82
961.199	2743.04
961.502	2736.03
961.805	2725.41
962.108	2697.39
962.411	2704.62
962.714	2681.57
963.017	2670.04
963.32	2683.38
963.623	2652.19
963.926	2675.92
964.228	2643.6
964.531	2636.82
964.833	2652.64
965.136	2609.25
965.438	2625.98
965.741	2554.34
966.043	2607.22
966.345	2594.56
966.648	2579.2
966.95	2536.04
967.252	2521.12
967.554	2501.69
967.856	2495.58
968.158	2464.4
968.46	2474.34
968.761	2471.63
969.063	2440.67
969.365	2440.44
969.666	2422.14
969.968	2454.46
970.269	2394.34
970.571	2430.05
970.872	2425.08
971.174	2387.56
971.475	2399.99
971.776	2409.26
972.077	2358.19
972.378	2355.25
972.679	2377.4
972.98	2309.15
973.281	2352.31
973.582	2304.18
973.883	2334.01
974.183	2280.22
974.484	2306.44
974.785	2285.65
975.085	2277.96
975.386	2276.83
975.686	2254.46
975.986	2238.87
976.287	2252.2
976.587	2213.78
976.887	2195.93
977.187	2198.42
977.487	2209.94
977.787	2212.65
978.087	2154.58
978.387	2162.03
978.687	2172.43
978.987	2136.27
979.286	2186.67
979.586	2152.32
979.885	2133.33
980.185	2136.72
980.484	2112.32
980.784	2118.42
981.083	2110.06
981.382	2124.07
981.682	2103.73
981.981	2037.97
982.28	2049.04
982.579	2081.81
982.878	2047.46
983.177	2052.66
983.475	2021.02
983.774	1990.29
984.073	1998.65
984.372	2026.44
984.67	1977.63
984.969	1977.63
985.267	1979.44
985.566	1969.72
985.864	1975.15
986.162	1967.01
986.461	1963.85
986.759	1930.85
987.057	1893.34
987.355	1889.5
987.653	1938.76
987.951	1914.81
988.249	1882.04
988.547	1887.92
988.844	1894.92
989.142	1896.96
989.44	1864.64
989.737	1838.43
990.035	1857.18
990.332	1857.63
990.63	1854.92
990.927	1813.57
991.224	1817.64
991.521	1832.32
991.819	1781.03
992.116	1820.57
992.413	1767.69
992.71	1798.88
993.006	1772.44
993.303	1771.08
993.6	1757.07
993.897	1726.11
994.193	1737.86
994.49	1731.99
994.787	1713.46
995.083	1719.79
995.379	1663.52
995.676	1713.23
995.972	1683.63
996.268	1703.29
996.565	1650.41
996.861	1642.5
997.157	1656.06
997.453	1657.87
997.749	1647.92
998.044	1618.77
998.34	1637.75
998.636	1619.45
998.932	1633.23
999.227	1604.53
999.523	1584.2
999.818	1586.91
1000.114	1600.47
1000.409	1575.61
1000.704	1544.42
1001	1547.59
1001.295	1531.99
1001.59	1548.26
1001.885	1545.33
1002.18	1529.06
1002.475	1545.1
1002.77	1508.49
1003.065	1502.16
1003.359	1505.33
1003.654	1503.75
1003.949	1477.08
1004.243	1488.6
1004.538	1478.44
1004.832	1465.33
1005.127	1454.26
1005.421	1423.07
1005.715	1426.91
1006.009	1438.44
1006.304	1430.98
1006.598	1376.97
1006.892	1412.67
1007.186	1397.76
1007.48	1409.51
1007.773	1388.95
1008.067	1373.13
1008.361	1400.47
1008.655	1393.01
1008.948	1362.51
1009.242	1334.26
1009.535	1366.35
1009.829	1342.17
1010.122	1324.77
1010.415	1301.27
1010.708	1319.57
1011.001	1316.86
1011.295	1325.45
1011.588	1297.88
1011.881	1286.8
1012.173	1289.29
1012.466	1278.44
1012.759	1247.03
1013.052	1257.42
1013.344	1266.69
1013.637	1241.15
1013.93	1245.45
1014.222	1241.61
1014.514	1247.48
1014.807	1194.38
1015.099	1214.71
1015.391	1212.23
1015.683	1190.08
1015.976	1227.82
1016.268	1160.48
1016.56	1179.46
1016.851	1183.98
1017.143	1179.91
1017.435	1176.07
1017.727	1151.21
1018.018	1156.41
1018.31	1151.66
1018.602	1149.18
1018.893	1141.5
1019.185	1129.74
1019.476	1129.07
1019.767	1127.94
1020.058	1115.73
1020.35	1084.32
1020.641	1098.33
1020.932	1064.66
1021.223	1089.97
1021.514	1085.68
1021.804	1047.49
1022.095	1029.18
1022.386	1061.05
1022.677	1018.33
1022.967	1062.63
1023.258	1014.95
1023.548	1012.23
1023.839	1017.88
1024.129	1046.81
1024.419	1021.72
1024.709	994.15
1025	983.99
1025.29	980.6
1025.58	998
1025.87	965
1026.16	968.39
1026.449	961.16
1026.739	976.53
1027.029	962.29
1027.319	930.43
1027.608	952.35
1027.898	948.05
1028.187	926.81
1028.477	927.49
1028.766	930.65
1029.055	921.16
1029.344	903.31
1029.634	926.36
1029.923	897.66
1030.212	887.04
1030.501	890.88
1030.79	883.88
1031.078	880.49
1031.367	911.44
1031.656	856.31
1031.945	883.65
1032.233	878
1032.522	861.28
1032.81	847.04
1033.099	825.8
1033.387	838
1033.675	860.82
1033.963	837.1
1034.251	823.54
1034.54	848.62
1034.828	822.86
1035.116	800.49
1035.403	836.64
1035.691	812.69
1035.979	810.43
1036.267	804.33
1036.554	814.72
1036.842	796.87
1037.129	782.41
1037.417	790.09
1037.704	761.62
1037.992	759.13
1038.279	779.47
1038.566	756.42
1038.853	756.42
1039.14	756.42
