Data from white_wall_FLMS001491_093.txt Node
Date: Tue Feb 07 11:06:15 GMT 2017
User: dcchb
Spectrometer: FLMS00149
Trigger mode: 0
Integration Time (sec): 2.000000E-2
Scans to average: 10
Electric dark correction enabled: true
Nonlinearity correction enabled: false
Boxcar width: 0
XAxis mode: Wavelengths
Number of Pixels in Spectrum: 2048
>>>>>Begin Spectral Data<<<<<
341.393	-4.93
341.776	-4.93
342.16	-4.93
342.543	-85.61
342.927	-80.18
343.31	-68.2
343.693	-70.92
344.077	-72.5
344.46	-41.09
344.843	-60.97
345.226	-55.1
345.61	-39.96
345.993	-15.78
346.376	-9.9
346.759	17.67
347.142	14.28
347.525	53.6
347.908	64.9
348.291	81.4
348.674	93.37
349.057	109.19
349.44	123.2
349.823	139.47
350.206	175.18
350.588	213.14
350.971	247.27
351.354	243.43
351.737	268.28
352.119	278.91
352.502	283.2
352.884	315.29
353.267	312.58
353.65	304.22
354.032	306.02
354.414	327.04
354.797	338.79
355.179	336.3
355.562	356.19
355.944	340.82
356.326	340.37
356.709	356.19
357.091	362.74
357.473	368.17
357.855	369.75
358.238	362.74
358.62	371.78
359.002	365.91
359.384	358.9
359.766	340.6
360.148	348.28
360.53	347.83
360.912	327.49
361.294	352.35
361.676	358.9
362.057	347.15
362.439	346.25
362.821	353.71
363.203	376.53
363.584	337.43
363.966	337.21
364.348	361.61
364.729	352.35
365.111	331.56
365.493	345.8
365.874	362.52
366.256	364.55
366.637	341.05
367.019	344.67
367.4	347.6
367.781	334.04
368.163	347.38
368.544	361.39
368.925	313.25
369.306	335.17
369.688	348.28
370.069	342.18
370.45	357.55
370.831	353.03
371.212	371.11
371.593	339.24
371.974	353.48
372.355	341.73
372.736	354.16
373.117	334.27
373.498	346.7
373.879	358.23
374.26	331.33
374.641	341.5
375.021	340.37
375.402	365.23
375.783	367.04
376.163	362.97
376.544	372.69
376.925	368.39
377.305	374.04
377.686	373.14
378.066	385.79
378.447	366.81
378.827	359.35
379.208	367.94
379.588	391.22
379.968	370.65
380.349	359.13
380.729	378.56
381.109	385.79
381.489	368.39
381.87	396.64
382.25	394.83
382.63	396.87
383.01	401.39
383.39	400.94
383.77	389.41
384.15	395.51
384.53	404.78
384.91	386.92
385.29	399.35
385.67	404.1
386.049	417.88
386.429	414.95
386.809	417.43
387.189	419.01
387.568	442.52
387.948	448.62
388.328	453.59
388.707	436.64
389.087	434.16
389.466	452.91
389.846	461.5
390.225	464.89
390.605	468.05
390.984	459.01
391.363	485.91
391.743	481.84
392.122	495.4
392.501	496.98
392.881	497.66
393.26	522.51
393.639	516.19
394.018	514.38
394.397	537.43
394.776	550.99
395.155	568.61
395.534	569.07
395.913	581.95
396.292	558.9
396.671	601.61
397.05	600.48
397.429	603.19
397.808	574.04
398.186	627.6
398.565	647.93
398.944	633.7
399.323	668.95
399.701	662.62
400.08	686.58
400.458	689.29
400.837	710.98
401.215	688.16
401.594	708.5
401.972	753.47
402.351	726.12
402.729	724.77
403.107	776.29
403.486	784.88
403.864	806.57
404.242	805.44
404.62	861.04
404.999	834.6
405.377	845.9
405.755	875.27
406.133	892.45
406.511	899.68
406.889	914.59
407.267	943.07
407.645	965.89
408.023	964.08
408.401	1011.32
408.779	1024.87
409.156	1050.64
409.534	1046.34
409.912	1065.78
410.29	1122.5
410.667	1094.93
411.045	1135.61
411.422	1156.17
411.8	1125.66
412.178	1211.08
412.555	1198.2
412.933	1204.98
413.31	1245.43
413.687	1276.84
414.065	1275.04
414.442	1295.15
414.819	1338.54
415.197	1327.69
415.574	1357.52
415.951	1364.98
416.328	1382.6
416.705	1388.25
417.082	1398.88
417.46	1437.29
417.837	1446.33
418.214	1448.14
418.591	1502.15
418.967	1488.36
419.344	1504.64
419.721	1544.86
420.098	1538.31
420.475	1583.96
420.852	1580.79
421.228	1585.99
421.605	1596.61
421.982	1621.02
422.358	1649.49
422.735	1661.69
423.111	1666.44
423.488	1698.98
423.864	1722.26
424.241	1762.26
424.617	1754.57
424.994	1799.09
425.37	1802.71
425.746	1820.33
426.123	1816.04
426.499	1863.72
426.875	1886.55
427.251	1945.08
427.627	1929.26
428.003	1960.67
428.379	2019.42
428.756	2004.51
429.132	2056.94
429.507	2091.74
429.883	2116.82
430.259	2144.84
430.635	2147.33
431.011	2180.55
431.387	2237.27
431.763	2308.23
432.138	2303.03
432.514	2304.84
432.89	2335.12
433.265	2350.94
433.641	2435.68
434.016	2450.6
434.392	2496.7
434.767	2555.68
435.143	2514.33
435.518	2564.04
435.894	2602.69
436.269	2601.78
436.644	2664.38
437.02	2706.86
437.395	2691.72
437.77	2755.45
438.145	2788.22
438.52	2782.79
438.895	2861.21
439.271	2864.37
439.646	2910.25
440.021	2931.72
440.395	2930.36
440.77	2931.04
441.145	2979.85
441.52	3049.68
441.895	3047.65
442.27	3089.23
442.645	3095.1
443.019	3115.44
443.394	3116.57
443.769	3204.25
444.143	3183.01
444.518	3227.08
444.892	3192.05
445.267	3248.77
445.641	3298.26
446.016	3315.21
446.39	3335.77
446.764	3334.19
447.139	3369.67
447.513	3413.29
447.887	3460.06
448.262	3453.74
448.636	3492.61
449.01	3523.79
449.384	3561.08
449.758	3590.68
450.132	3648.53
450.506	3639.95
450.88	3685.37
451.254	3661.64
451.628	3727.85
452.002	3829.55
452.376	3799.72
452.75	3854.86
453.123	3884.01
453.497	3971.46
453.871	4019.37
454.244	4098.92
454.618	4102.99
454.992	4160.38
455.365	4215.52
455.739	4321.74
456.112	4359.25
456.486	4376.2
456.859	4392.7
457.232	4580.03
457.606	4503.43
457.979	4594.95
458.352	4636.08
458.725	4765.11
459.099	4829.29
459.472	4856.19
459.845	4862.29
460.218	4925.79
460.591	5016.41
460.964	5037.42
461.337	5188.15
461.71	5274.71
462.083	5325.78
462.456	5332.33
462.829	5346.57
463.201	5448.26
463.574	5500.24
463.947	5544.53
464.32	5704.53
464.692	5723.73
465.065	5800.79
465.438	5907.68
465.81	5990.85
466.183	6049.6
466.555	6164.17
466.928	6187.22
467.3	6214.57
467.672	6346.32
468.045	6527.55
468.417	6472.64
468.789	6583.37
469.161	6708.11
469.534	6796.7
469.906	6913.76
470.278	6993.98
470.65	7079.86
471.022	7244.82
471.394	7381.32
471.766	7428.1
472.138	7531.37
472.51	7709.9
472.882	7834.41
473.253	7971.58
473.625	8078.47
473.997	8249.09
474.369	8250.22
474.74	8407.96
475.112	8576.99
475.484	8693.83
475.855	8898.11
476.227	8927.04
476.598	9236.18
476.97	9232.79
477.341	9468.72
477.713	9612.67
478.084	9748.26
478.455	10029.16
478.827	10069.38
479.198	10376.27
479.569	10363.39
479.94	10697.61
480.311	10828.46
480.682	10954.56
481.053	11273.64
481.424	11429.12
481.795	11560.87
482.166	11791.37
482.537	11970.35
482.908	12159.95
483.279	12382.09
483.65	12604
484.021	12761.29
484.391	12941.17
484.762	13068.4
485.133	13304.55
485.503	13413.93
485.874	13697.99
486.244	13822.96
486.615	14193.79
486.985	14324.64
487.356	14583.16
487.726	14770.73
488.097	15005.98
488.467	15082.58
488.837	15462.91
489.207	15585.17
489.578	15876.46
489.948	15975.67
490.318	16215.66
490.688	16327.75
491.058	16603.9
491.428	16833.27
491.798	16988.3
492.168	17276.88
492.538	17346.25
492.908	17563.42
493.278	17778.78
493.648	17852.45
494.017	18156.18
494.387	18401.59
494.757	18542.38
495.126	18751.19
495.496	18695.82
495.866	18981.69
496.235	19133.1
496.605	19360.21
496.974	19561.11
497.344	19733.76
497.713	19838.16
498.082	19965.17
498.452	20163.35
498.821	20292.39
499.19	20386.62
499.559	20612.83
499.928	20727.63
500.298	20895.09
500.667	21075.87
501.036	21169.2
501.405	21382.53
501.774	21429.76
502.143	21678.57
502.512	21828.85
502.88	21953.82
503.249	22027.03
503.618	22315.16
503.987	22437.19
504.356	22613.46
504.724	22683.06
505.093	22873.79
505.462	22970.51
505.83	23235.14
506.199	23404.85
506.567	23730.49
506.936	23709.48
507.304	23979.52
507.672	24038.73
508.041	24189.46
508.409	24389.68
508.777	24680.07
509.145	24771.59
509.514	24919.16
509.882	25036.45
510.25	25253.39
510.618	25334.97
510.986	25649.54
511.354	25913.71
511.722	25919.13
512.09	26232.57
512.458	26295.85
512.826	26528.84
513.193	26744.88
513.561	26807.25
513.929	27169.95
514.297	27343.73
514.664	27545.53
515.032	27568.13
515.4	27891.74
515.767	28045.18
516.135	28213.76
516.502	28110.49
516.869	28504.38
517.237	28741.21
517.604	28672.28
517.972	29197.92
518.339	29369.89
518.706	29399.27
519.073	29601.07
519.44	29838.13
519.808	30065.24
520.175	30130.55
520.542	30574.15
520.909	30719.46
521.276	30737.31
521.643	31114.7
522.009	31345.21
522.376	31603.51
522.743	31911.07
523.11	32125.53
523.477	32395.57
523.843	32579.98
524.21	32951.49
524.577	33151.49
524.943	33276.68
525.31	33448.88
525.676	33754.86
526.043	33914.18
526.409	34195.53
526.776	34455.63
527.142	34559.81
527.508	34799.81
527.874	35127.25
528.241	35323.41
528.607	35401.6
528.973	35816.95
529.339	35693.57
529.705	36248.35
530.071	36388.69
530.437	36636.37
530.803	36725.63
531.169	36884.5
531.535	37012.4
531.901	37157.26
532.267	37354.09
532.632	37669.56
532.998	37716.11
533.364	37966.05
533.73	38240.62
534.095	38443.78
534.461	38370.78
534.826	38751.57
535.192	38946.81
535.557	39125.57
535.923	39110.2
536.288	39337.77
536.653	39507.7
537.019	39457.76
537.384	39666.57
537.749	39957.86
538.114	39979.78
538.479	40127.12
538.845	40269.94
539.21	40197.63
539.575	40488.24
539.94	40727.79
540.305	40900.44
540.67	40829.48
541.034	41015.91
541.399	41252.52
541.764	41475.56
542.129	41625.84
542.494	41700.19
542.858	41857.02
543.223	41890.24
543.587	42345.37
543.952	42256.11
544.316	42454.29
544.681	42364.58
545.045	42601.63
545.41	42832.36
545.774	42998.01
546.138	43011.57
546.503	43265.57
546.867	43458.33
547.231	43645.67
547.595	43717.08
547.959	43856.29
548.324	43933.12
548.688	44222.83
549.052	44309.84
549.416	44458.76
549.779	44580.57
550.143	44705.31
550.507	44939.43
550.871	45166.99
551.235	45061.68
551.599	45537.38
551.962	45515.91
552.326	45757.26
552.689	46083.35
553.053	45883.58
553.417	46143.01
553.78	46731.02
554.143	46513.4
554.507	46775.31
554.87	46890.11
555.234	47246.94
555.597	47159.25
555.96	47322.19
556.323	47558.34
556.686	47686.25
557.05	47878.56
557.413	48146.8
557.776	48230.19
558.139	48444.19
558.502	48549.27
558.865	48642.83
559.228	48941.58
559.59	49056.15
559.953	49104.06
560.316	49529.81
560.679	49536.14
561.041	49665.18
561.404	50003.7
561.767	50143.58
562.129	50086.41
562.492	50420.19
562.854	50450.02
563.217	50546.74
563.579	50717.8
563.941	51002.32
564.304	51163.22
564.666	51342.65
565.028	51333.61
565.39	51523.89
565.753	51648.4
566.115	51721.62
566.477	51895.18
566.839	51970.43
567.201	52266.69
567.563	52154.15
567.925	52429.85
568.287	52517.98
568.648	52652.9
569.01	52807.69
569.372	52917.07
569.734	52864.42
570.095	53218.76
570.457	53219.43
570.819	53282.03
571.18	53250.62
571.542	53495.13
571.903	53460.11
572.265	53575.36
572.626	53637.95
572.987	53735.8
573.349	53757.5
573.71	53939.87
574.071	54020.77
574.432	54094.44
574.794	54224.61
575.155	54262.8
575.516	54198.17
575.877	54322.68
576.238	54442.23
576.599	54562.22
576.96	54577.82
577.32	54569.23
577.681	54599.96
578.042	54748.43
578.403	54694.42
578.763	54737.81
579.124	54845.15
579.485	54917.24
579.845	55003.12
580.206	54994.3
580.566	54958.37
580.927	54991.82
581.287	55090.8
581.648	54955.21
582.008	55148.87
582.368	55190.46
582.728	55154.52
583.089	55109.55
583.449	55200.85
583.809	55206.5
584.169	55219.61
584.529	55160.63
584.889	55348.19
585.249	55145.94
585.609	55174.64
585.969	55346.38
586.329	55276.56
586.688	55265.26
587.048	55239.49
587.408	55254.41
587.768	55268.42
588.127	55239.04
588.487	55215.99
588.846	55404.91
589.206	55250.12
589.565	55296.44
589.925	55442.65
590.284	55289.89
590.643	55366.04
591.003	55447.85
591.362	55560.84
591.721	55442.88
592.08	55468.41
592.44	55521.07
592.799	55496.89
593.158	55409.88
593.517	55451.47
593.876	55487.17
594.235	55491.24
594.593	55458.47
594.952	55506.83
595.311	55446.04
595.67	55543.21
596.029	55701.85
596.387	55648.97
596.746	55709.09
597.104	55593.16
597.463	55631.8
597.822	55636.09
598.18	55534.18
598.538	55550.9
598.897	55734.62
599.255	55552.93
599.613	55894.84
599.972	55775.3
600.33	55802.19
600.688	55739.59
601.046	55890.1
601.404	55954.96
601.762	55806.03
602.12	55845.58
602.478	55918.12
602.836	55999.02
603.194	55838.35
603.552	55963.32
603.91	55874.73
604.268	55982.98
604.625	55807.61
604.983	56006.25
605.341	55893.94
605.698	56036.08
606.056	56170.32
606.413	56044.9
606.771	56180.49
607.128	56183.42
607.485	56079.25
607.843	56118.11
608.2	56204.21
608.557	56287.83
608.914	56231.11
609.272	56336.87
609.629	56405.11
609.986	56493.02
610.343	56353.81
610.7	56571.89
611.057	56460.25
611.414	56432.23
611.771	56535.73
612.127	56570.98
612.484	56545.45
612.841	56690.3
613.198	56593.58
613.554	56559.46
613.911	56756.29
614.267	56761.26
614.624	56690.08
614.98	56773.01
615.337	56912.67
615.693	56837.19
616.05	56786.12
616.406	57000.58
616.762	56884.65
617.118	56862.28
617.475	56808.94
617.831	56916.96
618.187	56970.3
618.543	57016.17
618.899	57074.25
619.255	57121.25
619.611	57157.18
619.967	57155.38
620.323	57286.67
620.678	57160.35
621.034	57084.42
621.39	57081.25
621.746	57089.39
622.101	57366.9
622.457	57134.59
622.812	57212.32
623.168	57214.58
623.523	57249.16
623.879	57326.22
624.234	57161.48
624.589	57196.5
624.945	57289.84
625.3	57282.38
625.655	57251.42
626.01	57258.42
626.365	57245.09
626.72	57298.2
627.075	57235.83
627.43	57190.18
627.785	57174.58
628.14	57249.38
628.495	57287.35
628.85	57197.86
629.205	57144.75
629.559	57250.74
629.914	57084.87
630.269	57234.92
630.623	57153.57
630.978	57050.52
631.332	57121.7
631.687	57199.22
632.041	57066.56
632.396	57150.63
632.75	56986.57
633.104	57022.72
633.459	56939.56
633.813	56945.44
634.167	56878.55
634.521	56944.53
634.875	56857.53
635.229	56847.36
635.583	56737.99
635.937	56788.38
636.291	56765.33
636.645	56763.3
636.999	56612.34
637.352	56757.19
637.706	56601.27
638.06	56753.8
638.413	56610.76
638.767	56529.86
639.121	56676.52
639.474	56422.74
639.828	56489.4
640.181	56468.39
640.534	56532.34
640.888	56395.62
641.241	56302.97
641.594	56302.52
641.947	56417.77
642.301	56290.31
642.654	56323.53
643.007	56293.93
643.36	56234.72
643.713	56190.43
644.066	56189.75
644.419	56112.69
644.771	55994.95
645.124	55632.7
645.477	55633.83
645.83	55457.79
646.182	55408.98
646.535	55286.05
646.888	55319.04
647.24	55218.25
647.593	55397.91
647.945	55162.43
648.298	55175.09
648.65	55155.2
649.002	55010.35
649.355	55120.85
649.707	55136.45
650.059	55123.34
650.411	55458.47
650.763	55440.17
651.115	55696.43
651.467	55587.28
651.819	55645.13
652.171	55582.08
652.523	55538.92
652.875	55537.11
653.227	55344.58
653.578	55653.72
653.93	55518.36
654.282	55349.1
654.633	55385.48
654.985	55339.83
655.337	55372.15
655.688	55391.58
656.039	55392.48
656.391	55189.78
656.742	55246.5
657.094	55142.77
657.445	55287.18
657.796	55117.01
658.147	55168.08
658.498	55185.71
658.849	55224.58
659.2	55152.72
659.551	55076.56
659.902	55204.69
660.253	55115.66
660.604	55121.08
660.955	54965.83
661.306	55097.58
661.656	55022.78
662.007	54951.14
662.358	55023.68
662.708	55030.69
663.059	54934.87
663.409	54800.41
663.76	55007.86
664.11	54848.32
664.461	54969.67
664.811	54904.36
665.161	54840.18
665.511	54814.42
665.862	54851.71
666.212	54956.34
666.562	54909.11
666.912	54809.67
667.262	54781.88
667.612	54761.77
667.962	54816.91
668.312	54692.39
668.662	54910.69
669.011	54726.51
669.361	54670.7
669.711	54644.93
670.06	54600.19
670.41	54587.99
670.76	54545.27
671.109	54646.97
671.459	54607.87
671.808	54479.06
672.157	54524.71
672.507	54366.75
672.856	54389.8
673.205	54545.05
673.554	54466.86
673.904	54392.51
674.253	54504.82
674.602	54430.93
674.951	53999.75
675.3	53876.37
675.649	54251.05
675.998	54242.46
676.346	54333.53
676.695	54374.88
677.044	54144.38
677.393	54217.6
677.741	54263.93
678.09	54193.19
678.438	54050.6
678.787	54123.82
679.135	54145.74
679.484	53892.86
679.832	53975.57
680.181	53868.91
680.529	53957.49
680.877	53726.77
681.225	53748.69
681.573	53928.34
681.922	53741.23
682.27	53691.29
682.618	53589.82
682.966	53578.29
683.314	53661.68
683.661	53422.59
684.009	53374.91
684.357	53347.11
684.705	53289.26
685.053	53286.78
685.4	53243.39
685.748	53039.78
686.095	53068.03
686.443	52953.45
686.79	52846.34
687.138	52832.33
687.485	52852.21
687.832	52691.09
688.18	52649.73
688.527	52513.01
688.874	52512.33
689.221	52371.55
689.568	52453.13
689.915	52256.52
690.262	52354.15
690.609	52152.34
690.956	52137.43
691.303	52140.37
691.65	51928.85
691.997	51849.3
692.344	51708.29
692.69	51705.58
693.037	51736.54
693.383	51362.08
693.73	51559.14
694.077	51349.2
694.423	51291.58
694.769	51238.02
695.116	51156.44
695.462	51120.51
695.808	50854.07
696.155	50999.83
696.501	50715.09
696.847	50813.62
697.193	50490.47
697.539	50671.03
697.885	50344.03
698.231	50237.82
698.577	50217.03
698.923	50141.77
699.269	50115.33
699.614	49862.23
699.96	49865.17
700.306	49776.13
700.651	49643.48
700.997	49497.27
701.342	49537.95
701.688	49473.77
702.033	49339.99
702.379	49308.58
702.724	48984.52
703.069	49163.04
703.415	48818.65
703.76	48896.38
704.105	48871.75
704.45	48709.72
704.795	48516.05
705.14	48312.44
705.485	48436.51
705.83	48221.37
706.175	48303.86
706.52	48154.71
706.865	47881.5
707.209	48017.54
707.554	47825
707.899	47955.84
708.243	47636.53
708.588	47669.52
708.932	47367.16
709.277	47391.79
709.621	47420.49
709.966	47136.43
710.31	47205.13
710.654	46911.35
710.998	46941.86
711.342	46974.4
711.687	46693.05
712.031	46647.63
712.375	46535.77
712.719	46455.32
713.063	46583.68
713.407	46597.46
713.75	46271.14
714.094	46307.07
714.438	46147.3
714.782	46186.85
715.125	46051.26
715.469	46110.92
715.812	45778.95
716.156	45658.28
716.499	45724.04
716.843	45680.65
717.186	45454.89
717.53	45608.79
717.873	45544.83
718.216	45479.52
718.559	45291.05
718.902	45032.08
719.246	45040.44
719.589	44955.02
719.932	44855.81
720.275	44727.23
720.617	44831.86
720.96	44630.73
721.303	44688.13
721.646	44656.72
721.989	44359.78
722.331	44452.66
722.674	44531.98
723.016	44425.99
723.359	44322.04
723.701	44298.99
724.044	44121.59
724.386	44024.65
724.729	43974.25
725.071	43910.98
725.413	43924.31
725.755	43748.95
726.097	43740.14
726.439	43475.96
726.782	43511.67
727.124	43696.52
727.465	43557.09
727.807	43388.05
728.149	43363.87
728.491	43308.96
728.833	43107.16
729.175	43020.38
729.516	42937.22
729.858	42951.91
730.199	42913.94
730.541	42825.13
730.882	42832.14
731.224	42926.37
731.565	42512.82
731.906	42674.85
732.248	42688.64
732.589	42376.1
732.93	42273.06
733.271	42357.8
733.612	42193.06
733.953	42287.97
734.294	42101.76
734.635	42114.64
734.976	42092.95
735.317	41951.93
735.658	41857.25
735.999	41901.99
736.339	41737.25
736.68	41825.16
737.021	41636.01
737.361	41453.87
737.702	41653.64
738.042	41500.65
738.383	41529.57
738.723	41558.72
739.063	41323.48
739.404	41530.48
739.744	41330.26
740.084	41019.08
740.424	41112.86
740.764	41110.15
741.104	41255.68
741.444	40951.96
741.784	40757.84
742.124	40921
742.464	40808.46
742.804	40764.17
743.143	40583.83
743.483	40650.27
743.823	40423.61
744.162	40443.95
744.502	40532.76
744.841	40182.26
745.181	40416.61
745.52	40122.38
745.86	40335.7
746.199	40052.1
746.538	40089.16
746.877	40205.76
747.216	40089.84
747.556	40074.92
747.895	40052.1
748.234	39758.32
748.573	39711.09
748.911	39658.43
749.25	39698.43
749.589	39464.77
749.928	39585.44
750.267	39558.55
750.605	39436.07
750.944	39366.92
751.283	39162.4
751.621	39250.54
751.96	38947.04
752.298	38909.08
752.636	38950.88
752.975	38779.81
753.313	38587.05
753.651	38631.34
753.989	38587.05
754.327	38502.53
754.666	38305.02
755.004	38338.92
755.342	38474.74
755.679	38290.11
756.017	37910.23
756.355	38085.59
756.693	37784.36
757.031	37945.94
757.368	37641.99
757.706	37610.8
758.044	37440.41
758.381	37451.26
758.719	37331.94
759.056	37308.89
759.394	37228.67
759.731	36927.43
760.068	36935.79
760.405	36915
760.743	36685.63
761.08	36964.27
761.417	36598.4
761.754	36517.27
762.091	36439.99
762.428	36304.4
762.765	36103.05
763.102	36147.57
763.438	35901.92
763.775	35772.89
764.112	35665.77
764.449	35774.69
764.785	35663.74
765.122	35481.37
765.458	35369.06
765.795	35201.15
766.131	35129.29
766.467	34976.07
766.804	34819.01
767.14	34710.77
767.476	34780.14
767.812	34474.84
768.148	34614.05
768.485	34342.42
768.821	34172.7
769.157	34157.34
769.492	34058.13
769.828	34005.02
770.164	33857.68
770.5	33695.65
770.836	33714.41
771.171	33475.77
771.507	33356.68
771.842	33044.6
772.178	33027.42
772.513	33083.24
772.849	32965.05
773.184	32798.28
773.519	32742.01
773.855	32542.92
774.19	32403.71
774.525	32260.21
774.86	32428.12
775.195	32245.07
775.53	32010.27
775.865	32018.18
776.2	31613.22
776.535	31545.43
776.87	31617.97
777.205	31471.53
777.539	31296.17
777.874	31223.85
778.209	31050.3
778.543	30858.21
778.878	30752.91
779.212	30623.64
779.547	30561.72
779.881	30615.96
780.215	30313.14
780.55	30401.73
780.884	30071.79
781.218	30060.04
781.552	30201.96
781.886	29931.68
782.22	29727.4
782.554	29754.06
782.888	29426.39
783.222	29326.95
783.556	29228.88
783.889	29281.53
784.223	29004.03
784.557	28962.9
784.89	28948.43
785.224	28833.41
785.557	28750.25
785.891	28639.06
786.224	28457.37
786.558	28453.31
786.891	28247.66
787.224	28126.53
787.557	28138.29
787.891	28011.74
788.224	27898.74
788.557	27892.87
788.89	27829.59
789.223	27682.7
789.556	27540.79
789.888	27469.83
790.221	27341.02
790.554	27061.7
790.887	27200.91
791.219	27035.26
791.552	26937.19
791.884	26869.39
792.217	26804.54
792.549	26745.55
792.882	26515.96
793.214	26520.02
793.546	26485
793.879	26346.24
794.211	26175.85
794.543	26273.48
794.875	25908.29
795.207	26139.69
795.539	25826.93
795.871	25910.55
796.203	25731.57
796.535	25648.41
796.867	25607.28
797.198	25526.38
797.53	25460.84
797.862	25372.26
798.193	25320.73
798.525	25091.36
798.856	25214.29
799.188	24853.63
799.519	24871.25
799.85	24761.2
800.182	24818.6
800.513	24703.12
800.844	24547.19
801.175	24591.03
801.506	24585.61
801.837	24461.09
802.168	24292.96
802.499	24192.63
802.83	24052.07
803.161	23976.14
803.491	24090.93
803.822	24115.34
804.153	23840.55
804.483	23685.97
804.814	23727.55
805.145	23620.89
805.475	23564.85
805.805	23504.96
806.136	23511.29
806.466	23474.23
806.796	23313.1
807.126	23218.87
807.457	23198.98
807.787	23174.8
808.117	23058.42
808.447	23007.35
808.777	23033.79
809.107	22948.14
809.436	22838.31
809.766	22733.46
810.096	22771.65
810.426	22590.86
810.755	22528.49
811.085	22523.97
811.414	22476.51
811.744	22378.89
812.073	22326.91
812.403	22293.02
812.732	22221.6
813.061	22187.93
813.39	22075.39
813.719	21946.58
814.049	22115.62
814.378	21881.73
814.707	21895.29
815.036	21837.89
815.365	21655.29
815.693	21572.13
816.022	21494.84
816.351	21475.41
816.68	21381.85
817.008	21420.04
817.337	21308.86
817.665	21183.67
817.994	21229.77
818.322	21195.64
818.651	21163.1
818.979	21031.58
819.307	21051.47
819.636	20994.52
819.964	20793.85
820.292	20959.49
820.62	20980.73
820.948	20882.66
821.276	20889.21
821.604	20790.91
821.932	20964.01
822.259	20899.83
822.587	20908.65
822.915	20750.01
823.243	20863.9
823.57	20791.13
823.898	20750.46
824.225	20752.04
824.553	20730.8
824.88	20771.02
825.207	20700.29
825.535	20681.08
825.862	20728.54
826.189	20700.06
826.516	20810.57
826.843	20726.5
827.17	20721.08
827.497	20833.84
827.824	20735.77
828.151	20810.34
828.478	20776.9
828.805	20753.62
829.131	20699.39
829.458	20679.27
829.785	20639.05
830.111	20746.16
830.438	20787.29
830.764	20685.37
831.09	20754.98
831.417	20554.08
831.743	20621.87
832.069	20550.91
832.395	20538.26
832.722	20517.69
833.048	20356.8
833.374	20580.29
833.7	20441.54
834.026	20507.98
834.351	20518.82
834.677	20529.22
835.003	20522.89
835.329	20415.32
835.654	20486.06
835.98	20413.52
836.306	20403.57
836.631	20259.17
836.956	20276.12
837.282	20287.42
837.607	20152.96
837.932	20089.46
838.258	20174.43
838.583	19979.4
838.908	19953.42
839.233	20070.48
839.558	20015.56
839.883	19955.68
840.208	19917.26
840.533	19939.18
840.858	19971.95
841.182	19849.46
841.507	19762.46
841.832	19714.1
842.156	19754.33
842.481	19658.51
842.805	19646.08
843.13	19565.86
843.454	19587.55
843.778	19513.43
844.103	19415.35
844.427	19332.19
844.751	19419.42
845.075	19232.76
845.399	19223.27
845.723	19096.26
846.047	19140.56
846.371	18952.54
846.695	19030.28
847.019	18764.52
847.343	18776.72
847.666	18673.22
847.99	18569.72
848.313	18598.65
848.637	18416.06
848.96	18326.79
849.284	18422.61
849.607	18270.52
849.931	18207.02
850.254	18044.09
850.577	18019.23
850.9	17925.9
851.223	17875.96
851.546	17779.69
851.869	17639.13
852.192	17749.86
852.515	17555.06
852.838	17441.62
853.161	17485.01
853.483	17405.91
853.806	17287.05
854.129	17275.75
854.451	17237.78
854.774	17178.57
855.096	17160.04
855.419	17026.26
855.741	16989.2
856.063	16947.85
856.385	16920.28
856.708	16721.18
857.03	16764.57
857.352	16805.02
857.674	16746.49
857.996	16569.32
858.318	16549.44
858.64	16546.27
858.961	16493.17
859.283	16423.79
859.605	16328.88
859.926	16382.66
860.248	16247.52
860.57	16185.61
860.891	16332.95
861.212	16163.46
861.534	16073.52
861.855	16078.49
862.176	16050.02
862.498	15981.32
862.819	16018.83
863.14	15948.55
863.461	15898.38
863.782	15937.93
864.103	15965.27
864.424	15844.82
864.745	15892.28
865.065	15740.42
865.386	15651.16
865.707	15659.97
866.027	15618.16
866.348	15613.87
866.668	15676.24
866.989	15566.64
867.309	15550.14
867.63	15520.31
867.95	15501.78
868.27	15384.72
868.59	15430.82
868.91	15426.3
869.23	15345.85
869.55	15396.02
869.87	15379.75
870.19	15307.21
870.51	15372.29
870.83	15291.17
871.15	15146.99
871.469	15249.81
871.789	15217.04
872.109	15122.36
872.428	15131.85
872.748	15115.35
873.067	15084.39
873.386	15111.51
873.706	15059.31
874.025	15033.09
874.344	14953.55
874.663	14946.32
874.982	14894.11
875.301	14978.86
875.62	14917.39
875.939	14871.29
876.258	14801.69
876.577	14772.76
876.896	14854.57
877.214	14716.49
877.533	14738.64
877.852	14706.77
878.17	14687.11
878.489	14622.71
878.807	14680.11
879.125	14645.98
879.444	14651.63
879.762	14523.28
880.08	14536.84
880.398	14436.95
880.716	14397.63
881.034	14368.48
881.352	14464.75
881.67	14343.39
881.988	14328.25
882.306	14281.02
882.624	14266.11
882.941	14294.36
883.259	14166.68
883.577	14171.65
883.894	14141.37
884.212	14194.02
884.529	14096.85
884.846	14086.68
885.164	14023.4
885.481	13971.65
885.798	14000.35
886.115	13839.9
886.432	13950.18
886.75	13759.45
887.067	13851.43
887.383	13779.34
887.7	13755.84
888.017	13732.56
888.334	13723.07
888.651	13637.88
888.967	13684.88
889.284	13573.92
889.6	13615.28
889.917	13421.84
890.233	13489.63
890.55	13430.88
890.866	13362.85
891.182	13313.14
891.498	13327.6
891.815	13254.61
892.131	13173.93
892.447	13192.69
892.763	13147.49
893.079	13128.06
893.395	13045.12
893.71	13067.95
894.026	12949.31
894.342	12960.83
894.657	12866.37
894.973	12834.28
895.289	12793.83
895.604	12832.02
895.92	12695.75
896.235	12651.69
896.55	12582.08
896.865	12567.17
897.181	12585.02
897.496	12513.84
897.811	12490.56
898.126	12424.57
898.441	12431.35
898.756	12399.72
899.071	12229.55
899.386	12304.35
899.7	12205.15
900.015	12180.97
900.33	12097.35
900.644	12079.5
900.959	12143.45
901.273	12097.35
901.588	11980.07
901.902	11879.96
902.216	11827.98
902.531	11885.61
902.845	11813.52
903.159	11681.54
903.473	11636.12
903.787	11693.75
904.101	11634.09
904.415	11540.3
904.729	11538.72
905.042	11508.67
905.356	11448.33
905.67	11340.54
905.984	11322.23
906.297	11387.54
906.611	11282.91
906.924	11288.79
907.237	11186.41
907.551	11161.56
907.864	11048.11
908.177	11046.31
908.491	10976.7
908.804	10976.7
909.117	10888.57
909.43	10873.65
909.743	10849.7
910.056	10755.24
910.368	10693.77
910.681	10613.77
910.994	10648.12
911.307	10656.26
911.619	10500.33
911.932	10564.28
912.244	10509.6
912.557	10448.13
912.869	10384.85
913.181	10332.88
913.494	10349.6
913.806	10241.81
914.118	10173.11
914.43	10136.72
914.742	10120
915.054	10059.66
915.366	10059.66
915.678	9992.77
915.99	9965.2
916.302	9879.33
916.613	9807.47
916.925	9858.54
917.236	9776.28
917.548	9755.94
917.859	9730.18
918.171	9668.71
918.482	9666.91
918.794	9504.88
919.105	9550.53
919.416	9491.32
919.727	9448.16
920.038	9416.07
920.349	9338.33
920.66	9298.78
920.971	9267.14
921.282	9283.64
921.593	9179.46
921.903	9134.94
922.214	9075.06
922.525	9106.7
922.835	9098.79
923.146	9012.46
923.456	8949.64
923.767	8976.3
924.077	8941.05
924.387	8877.78
924.697	8838.91
925.008	8767.95
925.318	8754.39
925.628	8748.74
925.938	8691.34
926.248	8625.8
926.558	8609.08
926.867	8598.69
927.177	8503.77
927.487	8451.35
927.796	8404.34
928.106	8393.72
928.416	8317.79
928.725	8332.48
929.034	8310.78
929.344	8232.37
929.653	8180.84
929.962	8152.6
930.271	8194.63
930.581	8132.48
930.89	8113.5
931.199	8061.07
931.508	8049.77
931.817	8032.15
932.125	7961.64
932.434	7885.94
932.743	7833.96
933.051	7815.43
933.36	7840.51
933.669	7723.91
933.977	7736.11
934.286	7703.12
934.594	7695.89
934.902	7553.74
935.21	7599.39
935.519	7591.03
935.827	7514.42
936.135	7486.17
936.443	7364.37
936.751	7325.73
937.059	7389.68
937.367	7322.56
937.674	7331.38
937.982	7273.98
938.29	7281.43
938.597	7261.09
938.905	7162.11
939.213	7126.18
939.52	7027.2
939.827	7090.93
940.135	7000.99
940.442	6952.63
940.749	6970.25
941.056	6949.24
941.363	6906.75
941.67	6911.05
941.977	6866.3
942.284	6829.47
942.591	6768.9
942.898	6740.2
943.205	6702.24
943.511	6741.11
943.818	6688.68
944.125	6613.65
944.431	6609.13
944.738	6628.34
945.044	6575.46
945.35	6563.94
945.657	6495.24
945.963	6418.86
946.269	6444.62
946.575	6441.91
946.881	6429.48
947.187	6396.03
947.493	6335.02
947.799	6290.5
948.105	6229.94
948.41	6267.22
948.716	6160.78
949.022	6186.32
949.327	6163.95
949.633	6098.19
949.938	6079.43
950.244	6053.67
950.549	6065.19
950.854	6015.03
951.16	6009.15
951.465	5977.29
951.77	5925.31
952.075	5907.46
952.38	5890.51
952.685	5856.61
952.99	5839.21
953.294	5774.13
953.599	5786.1
953.904	5773
954.209	5746.78
954.513	5756.73
954.818	5700.23
955.122	5657.07
955.426	5606.9
955.731	5598.09
956.035	5581.36
956.339	5568.71
956.643	5547.47
956.948	5551.31
957.252	5458.66
957.556	5406.91
957.86	5407.81
958.163	5425.44
958.467	5432.22
958.771	5368.26
959.075	5331.65
959.378	5299.11
959.682	5366.45
959.985	5284.42
960.289	5219.57
960.592	5204.88
960.896	5187.25
961.199	5116.97
961.502	5176.63
961.805	5130.3
962.108	5121.72
962.411	5090.76
962.714	5064.32
963.017	5075.16
963.32	5069.97
963.623	5003.3
963.926	4970.31
964.228	4955.62
964.531	4931.44
964.833	4929.63
965.136	4899.12
965.438	4846.47
965.741	4834.72
966.043	4832.01
966.345	4844.43
966.648	4772.8
966.95	4730.09
967.252	4706.36
967.554	4724.66
967.856	4710.2
968.158	4628.62
968.46	4637.43
968.761	4611.45
969.063	4615.29
969.365	4526.7
969.666	4529.41
969.968	4483.77
970.269	4493.26
970.571	4469.3
970.872	4413.26
971.174	4450.77
971.475	4462.07
971.776	4450.77
972.077	4397.89
972.378	4373.49
972.679	4394.5
972.98	4353.83
973.281	4298.91
973.582	4300.04
973.883	4300.95
974.183	4250.33
974.484	4212.14
974.785	4251.91
975.085	4231.57
975.386	4215.07
975.686	4164.9
975.986	4175.53
976.287	4128.3
976.587	4102.31
976.887	4061.18
977.187	4110.89
977.487	4065.25
977.787	4051.24
978.087	4060.73
978.387	4034.96
978.687	4073.83
978.987	3996.1
979.286	3978.24
979.586	3935.31
979.885	3900.28
980.185	3980.73
980.484	3895.31
980.784	3914.06
981.083	3839.49
981.382	3826.38
981.682	3811.47
981.981	3843.11
982.28	3803.33
982.579	3747.97
982.878	3748.42
983.177	3721.07
983.475	3748.87
983.774	3684.47
984.073	3693.73
984.372	3630.91
984.67	3642.66
984.969	3624.58
985.267	3619.16
985.566	3600.63
985.864	3594.98
986.162	3567.86
986.461	3530.12
986.759	3516.33
987.057	3506.84
987.355	3503.23
987.653	3485.6
987.951	3464.81
988.249	3460.97
988.547	3479.5
988.844	3418.48
989.142	3364.93
989.44	3327.41
989.737	3349.33
990.035	3311.37
990.332	3341.42
990.63	3327.41
990.927	3330.8
991.224	3278.6
991.521	3259.84
991.819	3264.36
992.116	3228.66
992.413	3217.58
992.71	3235.21
993.006	3166.29
993.303	3170.35
993.6	3136.91
993.897	3129.45
994.193	3117.93
994.49	3129.23
994.787	3125.38
995.083	3055.78
995.379	3044.03
995.676	3045.84
995.972	2989.79
996.268	3020.75
996.565	2992.51
996.861	2994.09
997.157	2966.74
997.453	2945.73
997.749	2976.91
998.044	2885.39
998.34	2892.4
998.636	2922
998.932	2879.97
999.227	2842.91
999.523	2828.22
999.818	2807.2
1000.114	2859.18
1000.409	2806.3
1000.704	2783.92
1001	2788.44
1001.295	2764.49
1001.59	2724.04
1001.885	2710.48
1002.18	2689.46
1002.475	2693.53
1002.77	2671.61
1003.065	2617.15
1003.359	2641.33
1003.654	2648.56
1003.949	2638.17
1004.243	2569.24
1004.538	2593.19
1004.832	2584.16
1005.127	2550.03
1005.421	2529.47
1005.715	2516.13
1006.009	2532.41
1006.304	2500.09
1006.598	2496.02
1006.892	2460.99
1007.186	2435.23
1007.48	2438.4
1007.773	2410.83
1008.067	2393.2
1008.361	2390.04
1008.655	2378.51
1008.948	2379.19
1009.242	2341.9
1009.535	2349.13
1009.829	2334.44
1010.122	2352.75
1010.415	2254.9
1010.708	2297.38
1011.001	2272.52
1011.295	2258.51
1011.588	2243.6
1011.881	2232.53
1012.173	2214.22
1012.466	2211.28
1012.759	2197.27
1013.052	2186.2
1013.344	2173.32
1013.637	2131.96
1013.93	2130.16
1014.222	2125.41
1014.514	2096.03
1014.807	2108.69
1015.099	2072.76
1015.391	2067.56
1015.683	2056.49
1015.976	2042.7
1016.268	2057.16
1016.56	2027.79
1016.851	1970.61
1017.143	2021.01
1017.435	1977.39
1017.727	1960.44
1018.018	1962.7
1018.31	1965.19
1018.602	1904.4
1018.893	1917.73
1019.185	1890.39
1019.476	1883.16
1019.767	1881.8
1020.058	1877.06
1020.35	1842.93
1020.641	1831.63
1020.932	1833.67
1021.223	1794.8
1021.514	1787.11
1021.804	1779.2
1022.095	1771.75
1022.386	1784.85
1022.677	1720
1022.967	1708.92
1023.258	1681.35
1023.548	1718.64
1023.839	1717.96
1024.129	1704.86
1024.419	1678.87
1024.709	1678.42
1025	1654.91
1025.29	1641.58
1025.58	1638.42
1025.87	1626.44
1026.16	1589.15
1026.449	1604.97
1026.739	1592.99
1027.029	1559.1
1027.319	1563.62
1027.608	1522.26
1027.898	1545.31
1028.187	1527.23
1028.477	1515.71
1028.766	1509.38
1029.055	1491.75
1029.344	1474.13
1029.634	1457.86
1029.923	1475.03
1030.212	1463.73
1030.501	1457.41
1030.79	1418.99
1031.078	1430.51
1031.367	1427.35
1031.656	1425.09
1031.945	1375.37
1032.233	1368.82
1032.522	1386.9
1032.81	1346.67
1033.099	1375.6
1033.387	1335.15
1033.675	1335.6
1033.963	1336.96
1034.251	1324.75
1034.54	1311.19
1034.828	1307.13
1035.116	1268.71
1035.403	1287.24
1035.691	1276.17
1035.979	1264.42
1036.267	1241.82
1036.554	1242.72
1036.842	1229.61
1037.129	1215.15
1037.417	1230.29
1037.704	1196.85
1037.992	1205.43
1038.279	1195.27
1038.566	1157.53
1038.853	1157.53
1039.14	1157.53
