Data from White_paper_FLMS001491_024.txt Node
Date: Tue Feb 07 10:34:52 GMT 2017
User: dcchb
Spectrometer: FLMS00149
Trigger mode: 0
Integration Time (sec): 2.000000E-2
Scans to average: 10
Electric dark correction enabled: true
Nonlinearity correction enabled: false
Boxcar width: 0
XAxis mode: Wavelengths
Number of Pixels in Spectrum: 2048
>>>>>Begin Spectral Data<<<<<
341.393	-10.86
341.776	-10.86
342.16	-10.86
342.543	-69.84
342.927	-69.16
343.31	-74.59
343.693	-79.79
344.077	-79.79
344.46	-69.84
344.843	-34.36
345.226	-32.78
345.61	-47.92
345.993	-24.19
346.376	-6.57
346.759	26.2
347.142	32.75
347.525	47.67
347.908	67.1
348.291	82.92
348.674	91.28
349.057	101.9
349.44	129.47
349.823	150.94
350.206	172.64
350.588	226.87
350.971	254.89
351.354	258.06
351.737	268.45
352.119	266.87
352.502	286.98
352.884	285.18
353.267	301.9
353.65	298.96
354.032	321.79
354.414	344.38
354.797	310.26
355.179	349.13
355.562	357.26
355.944	347.32
356.326	367.89
356.709	371.28
357.091	354.78
357.473	377.15
357.855	364.5
358.238	378.51
358.62	380.09
359.002	355.23
359.384	381.67
359.766	394.78
360.148	392.97
360.53	366.53
360.912	382.57
361.294	380.31
361.676	361.56
362.057	374.21
362.439	379.41
362.821	366.76
363.203	373.08
363.584	366.98
363.966	376.93
364.348	353.2
364.729	366.08
365.111	364.04
365.493	349.36
365.874	373.76
366.256	375.34
366.637	362.91
367.019	354.33
367.4	374.21
367.781	369.47
368.163	332.63
368.544	366.53
368.925	353.42
369.306	377.6
369.688	389.81
370.069	355
370.45	363.82
370.831	375.34
371.212	382.35
371.593	370.6
371.974	364.72
372.355	349.36
372.736	387.09
373.117	337.83
373.498	382.8
373.879	360.65
374.26	357.26
374.641	367.66
375.021	365.85
375.402	378.96
375.783	391.84
376.163	416.25
376.544	388.45
376.925	408.34
377.305	381.9
377.686	394.55
378.066	393.2
378.447	385.96
378.827	390.03
379.208	388
379.588	409.01
379.968	414.66
380.349	415.79
380.729	421.44
381.109	413.08
381.489	408.56
381.87	420.09
382.25	420.31
382.63	439.07
383.01	436.58
383.39	415.34
383.77	421.9
384.15	440.2
384.53	465.06
384.91	437.71
385.29	449.24
385.67	429.58
386.049	428.45
386.429	455.57
386.809	469.35
387.189	460.31
387.568	439.3
387.948	476.58
388.328	490.37
388.707	461.89
389.087	478.62
389.466	506.19
389.846	498.73
390.225	494.21
390.605	505.06
390.984	507.54
391.363	498.96
391.743	545.73
392.122	507.77
392.501	529.92
392.881	524.94
393.26	523.14
393.639	542.12
394.018	552.74
394.397	571.27
394.776	563.36
395.155	572.4
395.534	567.65
395.913	578.28
396.292	571.95
396.671	571.27
397.05	572.4
397.429	593.42
397.808	593.64
398.186	590.25
398.565	617.82
398.944	611.95
399.323	633.19
399.701	619.18
400.08	624.38
400.458	621.89
400.837	617.37
401.215	637.94
401.594	658.27
401.972	701.21
402.351	681.55
402.729	669.35
403.107	705.28
403.486	712.74
403.864	722
404.242	733.3
404.62	745.95
404.999	759.97
405.377	773.52
405.755	834.31
406.133	820.3
406.511	813.07
406.889	838.16
407.267	864.14
407.645	846.74
408.023	875.67
408.401	890.36
408.779	926.29
409.156	970.58
409.534	941.2
409.912	981.2
410.29	990.69
410.667	1036.34
411.045	1047.64
411.422	1084.03
411.8	1115.21
412.178	1133.52
412.555	1171.71
412.933	1174.19
413.31	1226.39
413.687	1253.51
414.065	1267.3
414.442	1273.17
414.819	1343.23
415.197	1347.75
415.574	1399.95
415.951	1418.25
416.328	1438.82
416.705	1460.06
417.082	1461.42
417.46	1538.7
417.837	1526.73
418.214	1581.87
418.591	1604.92
418.967	1627.06
419.344	1639.04
419.721	1699.38
420.098	1683.56
420.475	1727.17
420.852	1751.13
421.228	1764.46
421.605	1795.64
421.982	1857.34
422.358	1841.52
422.735	1900.05
423.111	1906.38
423.488	1945.47
423.864	1935.3
424.241	1979.37
424.617	2007.16
424.994	2025.92
425.37	2049.65
425.746	2083.32
426.123	2088.07
426.499	2144.56
426.875	2155.86
427.251	2206.71
427.627	2235.41
428.003	2255.52
428.379	2267.27
428.756	2346.82
429.132	2357.44
429.507	2375.29
429.883	2413.48
430.259	2457.1
430.635	2475.85
431.011	2507.72
431.387	2576.64
431.763	2606.25
432.138	2649.18
432.514	2653.02
432.89	2719.91
433.265	2747.94
433.641	2780.03
434.016	2856.41
434.392	2867.26
434.767	2957.42
435.143	2947.7
435.518	2982.51
435.894	2998.1
436.269	3056.18
436.644	3128.72
437.02	3111.77
437.395	3120.81
437.77	3215.95
438.145	3276.28
438.52	3302.05
438.895	3344.08
439.271	3336.4
439.646	3407.35
440.021	3482.38
440.395	3461.82
440.77	3456.39
441.145	3488.71
441.52	3540.23
441.895	3539.55
442.27	3568.03
442.645	3597.41
443.019	3635.6
443.394	3633.11
443.769	3667.46
444.143	3660.23
444.518	3730.28
444.892	3716.05
445.267	3727.8
445.641	3776.38
446.016	3801.24
446.39	3849.6
446.764	3856.83
447.139	3869.26
447.513	3943.16
447.887	3901.58
448.262	3934.12
448.636	3955.14
449.01	4042.82
449.384	4028.13
449.758	4050.5
450.132	4119.43
450.506	4156.26
450.88	4117.39
451.254	4165.75
451.628	4187.22
452.002	4291.62
452.376	4291.4
452.75	4366.2
453.123	4392.64
453.497	4432.41
453.871	4495.01
454.244	4550.83
454.618	4588.79
454.992	4621.11
455.365	4676.02
455.739	4807.77
456.112	4819.52
456.486	4837.37
456.859	4945.39
457.232	4986.52
457.606	4971.83
457.979	5052.73
458.352	5163.69
458.725	5232.39
459.099	5264.71
459.472	5376.57
459.845	5392.84
460.218	5522.1
460.591	5541.31
460.964	5530.91
461.337	5689.33
461.71	5765.03
462.083	5828.31
462.456	5848.19
462.829	5848.19
463.201	6005.03
463.574	5965.25
463.947	6107.4
464.32	6218.81
464.692	6251.8
465.065	6302.65
465.438	6451.34
465.81	6507.39
466.183	6613.6
466.555	6655.86
466.928	6759.13
467.3	6736.76
467.672	6909.41
468.045	7058.11
468.417	7030.76
468.789	7127.93
469.161	7249.51
469.534	7358.66
469.906	7481.15
470.278	7477.53
470.65	7643.17
471.022	7743.29
471.394	7911.87
471.766	8020.79
472.138	8105.08
472.51	8275.25
472.882	8426.66
473.253	8532.42
473.625	8621.23
473.997	8782.13
474.369	8800.43
474.74	8898.28
475.112	9057.6
475.484	9203.36
475.855	9470.25
476.227	9500.3
476.598	9707.75
476.97	9771.03
477.341	10025.03
477.713	10202.66
478.084	10221.19
478.455	10514.06
478.827	10635.64
479.198	10885.8
479.569	10889.87
479.94	11204.21
480.311	11261.16
480.682	11594.48
481.053	11858.43
481.424	11972.1
481.795	12098.65
482.166	12246.9
482.537	12449.15
482.908	12697.73
483.279	12777.05
483.65	13055.01
484.021	13271.95
484.391	13451.38
484.762	13574.09
485.133	13723.01
485.503	13890.02
485.874	14169.33
486.244	14285.49
486.615	14625.36
486.985	14747.85
487.356	15013.83
487.726	15154.84
488.097	15442.97
488.467	15416.98
488.837	15806.8
489.207	15911.88
489.578	16154.82
489.948	16390.52
490.318	16605.2
490.688	16622.83
491.058	16915.25
491.428	17098.07
491.798	17259.65
492.168	17567.89
492.538	17648.11
492.908	17817.37
493.278	18105.95
493.648	18060.98
494.017	18374.42
494.387	18531.02
494.757	18660.51
495.126	18851.24
495.496	18871.81
495.866	19053.5
496.235	19320.38
496.605	19493.03
496.974	19504.56
497.344	19716.08
497.713	19831.78
498.082	20022.51
498.452	20114.94
498.821	20259.79
499.19	20321.94
499.559	20602.38
499.928	20700.23
500.298	20766.22
500.667	21004.86
501.036	20983.16
501.405	21183.61
501.774	21287.11
502.143	21380.21
502.512	21542.92
502.88	21725.97
503.249	21706.31
503.618	22001.44
503.987	22038.73
504.356	22175
504.724	22335.22
505.093	22489.11
505.462	22460.86
505.83	22736.56
506.199	22877.35
506.567	23125.71
506.936	23153.5
507.304	23534.73
507.672	23522.08
508.041	23671.23
508.409	23849.53
508.777	24023.31
509.145	24064.21
509.514	24129.97
509.882	24382.62
510.25	24393.47
510.618	24619.68
510.986	24659
511.354	24861.25
511.722	25206.1
512.09	25365.87
512.458	25293.56
512.826	25609.71
513.193	25735.81
513.561	25715.02
513.929	26039.75
514.297	26221.9
514.664	26351.61
515.032	26478.84
515.4	26747.31
515.767	26931.48
516.135	27006.73
516.502	26916.79
516.869	27281.3
517.237	27357.91
517.604	27480.85
517.972	27734.62
518.339	27969.87
518.706	27946.82
519.073	28122.64
519.44	28342.07
519.808	28718.78
520.175	28661.61
520.542	29061.82
520.909	29193.12
521.276	29106.11
521.643	29520.57
522.009	29711.75
522.376	29860.44
522.743	30085.52
523.11	30450.26
523.477	30604.83
523.843	30824.26
524.21	31146.06
524.577	31252.27
524.943	31428.54
525.31	31574.07
525.676	31863.33
526.043	32092.02
526.409	32210.89
526.776	32504.22
527.142	32651.78
527.508	32860.59
527.874	33114.82
528.241	33223.97
528.607	33319.79
528.973	33777.63
529.339	33651.53
529.705	34008.36
530.071	34251.74
530.437	34355.01
530.803	34697.6
531.169	34942.57
531.535	34724.27
531.901	34877.71
532.267	35120.42
532.632	35393.86
532.998	35399.06
533.364	35767.86
533.73	35789.55
534.095	36073.84
534.461	36246.04
534.826	36276.32
535.192	36514.73
535.557	36756.53
535.923	36735.52
536.288	36923.08
536.653	37112.46
537.019	37215.28
537.384	37327.59
537.749	37520.36
538.114	37554.93
538.479	37563.29
538.845	37878.09
539.21	37881.02
539.575	37906.11
539.94	38238.98
540.305	38377.73
540.67	38270.62
541.034	38501.57
541.399	38798.06
541.764	38895.23
542.129	39135.91
542.494	39142.69
542.858	39242.12
543.223	39231.04
543.587	39603.92
543.952	39450.02
544.316	39808.2
544.681	39633.75
545.045	39943.34
545.41	40267.63
545.774	40325.25
546.138	40295.88
546.503	40505.59
546.867	40407.06
547.231	40860.83
547.595	40914.62
547.959	41112.58
548.324	41137.66
548.688	41236.87
549.052	41424.66
549.416	41560.25
549.779	41530.87
550.143	41638.67
550.507	41978.54
550.871	41978.54
551.235	42063.06
551.599	42347.8
551.962	42502.15
552.326	42555.03
552.689	42723.61
553.053	42651.52
553.417	42771.74
553.78	43290.37
554.143	43127.67
554.507	43319.07
554.87	43405.62
555.234	43844.93
555.597	43533.98
555.96	43784.82
556.323	44007.42
556.686	44173.06
557.05	44474.3
557.413	44513.84
557.776	44548.42
558.139	44834.51
558.502	44942.08
558.865	44926.26
559.228	45234.28
559.59	45335.52
559.953	45477.66
560.316	45853.24
560.679	46024.99
561.041	46021.37
561.404	46112.22
561.767	46437.86
562.129	46257.75
562.492	46805.31
562.854	46718.98
563.217	46859.09
563.579	46965.53
563.941	47317.39
564.304	47492.97
564.666	47726.87
565.028	47617.72
565.39	47906.07
565.753	48026.75
566.115	48131.83
566.477	48292.95
566.839	48518.26
567.201	48757.57
567.563	48733.17
567.925	48965.7
568.287	49028.75
568.648	49066.27
569.01	49348.97
569.372	49614.27
569.734	49553.03
570.095	49815.4
570.457	49923.19
570.819	50001.16
571.18	50046.58
571.542	50263.97
571.903	50321.15
572.265	50259.46
572.626	50587.58
572.987	50531.54
573.349	50719.78
573.71	50822.15
574.071	50935.6
574.432	51021.7
574.794	51277.73
575.155	51280.45
575.516	51242.25
575.877	51462.81
576.238	51446.09
576.599	51632.3
576.96	51603.37
577.32	51698.51
577.681	51772.41
578.042	51973.99
578.403	51948.45
578.763	51948.9
579.124	52075.9
579.485	52239.74
579.845	52260.53
580.206	52230.7
580.566	52336.46
580.927	52336.24
581.287	52390.02
581.648	52289.91
582.008	52549.34
582.368	52374.43
582.728	52563.35
583.089	52569.68
583.449	52553.41
583.809	52608.77
584.169	52801.31
584.529	52547.53
584.889	52896.9
585.249	52681.54
585.609	52726.96
585.969	52733.74
586.329	52719.28
586.688	52756.56
587.048	52819.84
587.408	52836.56
587.768	52808.09
588.127	52822.1
588.487	52859.84
588.846	53138.48
589.206	52836.11
589.565	52845.38
589.925	53037.24
590.284	52916.56
590.643	53078.59
591.003	53082.66
591.362	53160.4
591.721	53098.7
592.08	53112.26
592.44	53166.27
592.799	53193.62
593.158	53207.85
593.517	53254.86
593.876	53193.84
594.235	53202.2
594.593	53248.3
594.952	53350
595.311	53222.54
595.67	53410.78
596.029	53501.63
596.387	53499.6
596.746	53522.87
597.104	53395.87
597.463	53486.26
597.822	53491.23
598.18	53409.43
598.538	53437.9
598.897	53641.51
599.255	53327.85
599.613	53842.64
599.972	53604.9
600.33	53748.4
600.688	53558.58
601.046	53675.86
601.404	53841.06
601.762	53847.16
602.12	53826.82
602.478	53879.7
602.836	53899.13
603.194	53712.25
603.552	53876.54
603.91	53687.61
604.268	53920.15
604.625	53747.95
604.983	54002.86
605.341	53850.77
605.698	54025.91
606.056	53981.17
606.413	54106.36
606.771	54120.6
607.128	54165.79
607.485	54043.76
607.843	54055.29
608.2	54195.62
608.557	54279.69
608.914	54154.27
609.272	54322.85
609.629	54413.92
609.986	54457.09
610.343	54304.09
610.7	54593.13
611.057	54488.5
611.414	54506.8
611.771	54488.72
612.127	54669.51
612.484	54577.53
612.841	54642.62
613.198	54537.31
613.554	54596.74
613.911	54778.88
614.267	54598.32
614.624	54674.71
614.98	54708.15
615.337	54838.77
615.693	54799.45
616.05	54819.56
616.406	54885.1
616.762	54755.83
617.118	54831.09
617.475	54775.27
617.831	54961.48
618.187	54887.13
618.543	54922.38
618.899	55075.15
619.255	55066.56
619.611	55034.25
619.967	55088.25
620.323	55153.79
620.678	55011.87
621.034	55131.64
621.39	55010.97
621.746	54917.41
622.101	55218.19
622.457	55122.6
622.812	55123.51
623.168	55161.25
623.523	55150.85
623.879	55194.92
624.234	55021.82
624.589	55142.94
624.945	55116.73
625.3	55156.73
625.655	55184.75
626.01	55165.32
626.365	55178.65
626.72	55077.86
627.075	55145.43
627.43	55182.26
627.785	55078.99
628.14	55118.76
628.495	55191.76
628.85	55154.92
629.205	55008.93
629.559	55224.52
629.914	55042.15
630.269	55159.44
630.623	55014.81
630.978	55073.57
631.332	55142.49
631.687	55219.1
632.041	55023.17
632.396	55073.79
632.75	54984.98
633.104	55102.72
633.459	54919.22
633.813	55024.98
634.167	54915.15
634.521	54868.6
634.875	54916.73
635.229	54951.08
635.583	54809.84
635.937	54883.29
636.291	54801.93
636.645	54824.98
636.999	54749.51
637.352	54850.07
637.706	54737.08
638.06	54790.64
638.413	54694.82
638.767	54666.12
639.121	54704.08
639.474	54570.98
639.828	54727.59
640.181	54676.74
640.534	54666.8
640.888	54540.7
641.241	54538.44
641.594	54596.06
641.947	54633.35
642.301	54606.23
642.654	54571.66
643.007	54520.13
643.36	54583.64
643.713	54445.33
644.066	54521.26
644.419	54354.26
644.771	54219.8
645.124	53877.44
645.477	53827.27
645.83	53740.72
646.182	53590.89
646.535	53579.37
646.888	53621.17
647.24	53475.42
647.593	53728.06
647.945	53582.76
648.298	53530.56
648.65	53385.25
649.002	53302.31
649.355	53457.56
649.707	53434.29
650.059	53610.55
650.411	53906.59
650.763	53968.74
651.115	54336.86
651.467	54144.55
651.819	54133.7
652.171	54118.79
652.523	54004.67
652.875	53990.43
653.227	53874.95
653.578	54086.02
653.93	53948.17
654.282	53922.18
654.633	53768.97
654.985	53904.11
655.337	53936.42
655.688	53856.42
656.039	54020.94
656.391	53739.59
656.742	53777.1
657.094	53749.99
657.445	53824.11
657.796	53836.99
658.147	53794.28
658.498	53801.51
658.849	53850.1
659.2	53737.78
659.551	53725.8
659.902	53760.38
660.253	53636.54
660.604	53831.11
660.955	53641.06
661.306	53775.97
661.656	53647.84
662.007	53722.87
662.358	53627.95
662.708	53721.96
663.059	53683.55
663.409	53524.91
663.76	53665.92
664.11	53617.11
664.461	53684.45
664.811	53723.77
665.161	53612.36
665.511	53506.83
665.862	53577.56
666.212	53662.53
666.562	53582.98
666.912	53588.41
667.262	53536.21
667.612	53414.63
667.962	53544.57
668.312	53487.17
668.662	53627.73
669.011	53431.35
669.361	53474.29
669.711	53371.01
670.06	53360.39
670.41	53277.91
670.76	53220.51
671.109	53389.99
671.459	53253.95
671.808	53276.55
672.157	53245.37
672.507	53030.68
672.856	53104.13
673.205	53190.23
673.554	53226.16
673.904	53045.14
674.253	53225.25
674.602	53095.76
674.951	52589.34
675.3	52465.95
675.649	52969.67
675.998	52900.74
676.346	53026.39
676.695	53122.66
677.044	52677.47
677.393	52855.77
677.741	52936.67
678.09	52721.76
678.438	52747.75
678.787	52833.4
679.135	52725.61
679.484	52531.26
679.832	52706.17
680.181	52511.83
680.529	52503.01
680.877	52463.01
681.225	52398.61
681.573	52589.34
681.922	52360.64
682.27	52303.24
682.618	52196.58
682.966	52189.57
683.314	52256.46
683.661	52118.62
684.009	51875.91
684.357	51862.58
684.705	51851.05
685.053	51846.76
685.4	51777.16
685.748	51584.39
686.095	51571.74
686.443	51463.04
686.79	51470.27
687.138	51407.22
687.485	51348.69
687.832	51167.23
688.18	51279.54
688.527	51062.37
688.874	51055.37
689.221	50988.7
689.568	50859.67
689.915	50825.54
690.262	50729.27
690.609	50686.11
690.956	50467.36
691.303	50439.34
691.65	50254.26
691.997	50320.02
692.344	49997.99
692.69	50131.55
693.037	50084.32
693.383	49746.7
693.73	49917.32
694.077	49720.49
694.423	49747.83
694.769	49465.13
695.116	49531.11
695.462	49334.28
695.808	49286.37
696.155	49356.88
696.501	49097
696.847	48999.38
697.193	48769.33
697.539	48888.64
697.885	48724.35
698.231	48487.07
698.577	48504.47
698.923	48392.39
699.269	48337.25
699.614	48116.91
699.96	48070.13
700.306	48050.7
700.651	47850.93
700.997	47804.6
701.342	47760.31
701.688	47618.85
702.033	47511.05
702.379	47458.17
702.724	47404.62
703.069	47500.88
703.415	47050.5
703.76	47020.22
704.105	46975.25
704.45	46858.19
704.795	46685.99
705.14	46631.75
705.485	46527.58
705.83	46398.77
706.175	46492.55
706.52	46186.34
706.865	46243.29
707.209	46086.01
707.554	46063.63
707.899	46164.87
708.243	45752
708.588	45775.05
708.932	45658.45
709.277	45499.35
709.621	45601.5
709.966	45286.48
710.31	45371.22
710.654	45027.05
710.998	45198.57
711.342	45118.8
711.687	45007.39
712.031	44776.66
712.375	44700.73
712.719	44757
713.063	44659.15
713.407	44712.93
713.75	44614.63
714.094	44395.88
714.438	44327.63
714.782	44317.46
715.125	44095.1
715.469	44118.6
715.812	43900.07
716.156	43664.83
716.499	43742.56
716.843	43787.99
717.186	43653.3
717.53	43725.62
717.873	43675.22
718.216	43628.9
718.559	43550.48
718.902	43131.96
719.246	43214.67
719.589	43232.75
719.932	42916.15
720.275	43031.85
720.617	43046.31
720.96	43011.51
721.303	42982.58
721.646	42889.25
721.989	42535.36
722.331	42749.14
722.674	42629.37
723.016	42692.2
723.359	42688.13
723.701	42422.15
724.044	42227.35
724.386	42076.39
724.729	42173.79
725.071	42114.58
725.413	42249.27
725.755	42009.5
726.097	41929.28
726.439	41652.45
726.782	41746.68
727.124	41862.61
727.465	41750.75
727.807	41653.58
728.149	41494.94
728.491	41374.49
728.833	41483.41
729.175	41373.36
729.516	41285.23
729.858	41150.54
730.199	41220.82
730.541	41205.46
730.882	41044.56
731.224	41247.26
731.565	40828.29
731.906	40887.95
732.248	41002.75
732.589	40776.77
732.93	40613.16
733.271	40708.52
733.612	40695.64
733.953	40763.66
734.294	40580.16
734.635	40549.43
734.976	40594.17
735.317	40355.76
735.658	40413.39
735.999	40251.58
736.339	40134.07
736.68	40247.74
737.021	40174.3
737.361	39983.12
737.702	40213.17
738.042	40132.26
738.383	39870.12
738.723	40079.84
739.063	39832.61
739.404	39942.89
739.744	39824.7
740.084	39562.11
740.424	39627.19
740.764	39599.17
741.104	39725.95
741.444	39413.86
741.784	39266.52
742.124	39542.45
742.464	39355.56
742.804	39341.78
743.143	39201.89
743.483	39153.08
743.823	38949.92
744.162	38957.61
744.502	39023.82
744.841	38885.07
745.181	39049.35
745.52	38918.96
745.86	38928.45
746.199	38843.94
746.538	38835.8
746.877	38742.24
747.216	38713.09
747.556	38540.44
747.895	38587.9
748.234	38449.37
748.573	38419.77
748.911	38298.87
749.25	38349.94
749.589	38170.96
749.928	38159.21
750.267	38241.24
750.605	38012.55
750.944	37938.2
751.283	37908.37
751.621	37867.01
751.96	37719.9
752.298	37621.14
752.636	37606.45
752.975	37476.74
753.313	37430.64
753.651	37435.39
753.989	37225.45
754.327	37197.43
754.666	37007.83
755.004	37171.89
755.342	37161.49
755.679	36920.6
756.017	36841.73
756.355	36976.64
756.693	36753.6
757.031	36827.04
757.368	36676.31
757.706	36558.57
758.044	36373.27
758.381	36395.64
758.719	36186.61
759.056	36167.85
759.394	36107.74
759.731	35869.78
760.068	35831.81
760.405	35725.83
760.743	35608.99
761.08	35655.55
761.417	35421.2
761.754	35338.49
762.091	35350.24
762.428	35163.81
762.765	35024.15
763.102	35217.36
763.438	34956.35
763.775	34765.85
764.112	34775.12
764.449	34739.41
764.785	34567.21
765.122	34332.64
765.458	34282.25
765.795	34184.17
766.131	34224.4
766.467	34027.57
766.804	33883.16
767.14	33662.15
767.476	33713
767.812	33433.46
768.148	33503.06
768.485	33278.43
768.821	33161.83
769.157	33232.56
769.492	33070.75
769.828	33064.43
770.164	32684.78
770.5	32703.98
770.836	32619.47
771.171	32566.36
771.507	32482.75
771.842	32088.86
772.178	32035.3
772.513	32075.75
772.849	32042.53
773.184	31830.11
773.519	31826.49
773.855	31734.29
774.19	31506.73
774.525	31442.55
774.86	31444.81
775.195	31376.11
775.53	31126.63
775.865	31063.12
776.2	30812.06
776.535	30561.89
776.87	30763.02
777.205	30478.73
777.539	30371.39
777.874	30579.52
778.209	30250.49
778.543	30204.62
778.878	29921.01
779.212	29852.08
779.547	29838.98
779.881	29887.56
780.215	29592.88
780.55	29557.4
780.884	29372.32
781.218	29327.35
781.552	29337.07
781.886	29249.39
782.22	29019.79
782.554	29010.52
782.888	28596.52
783.222	28646.01
783.556	28576.18
783.889	28525.34
784.223	28245.34
784.557	28150.66
784.89	28210.77
785.224	28009.87
785.557	27994.96
785.891	27762.19
786.224	27702.53
786.558	27775.07
786.891	27532.14
787.224	27444.46
787.557	27302.32
787.891	27246.5
788.224	27212.15
788.557	27127.86
788.89	27118.37
789.223	27010.12
789.556	26729.23
789.888	26716.12
790.221	26616.69
790.554	26523.81
790.887	26506.63
791.219	26435
791.552	26391.61
791.884	26260.09
792.217	26124.27
792.549	25969.25
792.882	25851.96
793.214	25847.89
793.546	25845.86
793.879	25564.06
794.211	25523.61
794.543	25652.42
794.875	25397.51
795.207	25493.33
795.539	25193.67
795.871	25270.96
796.203	25028.48
796.535	25155.71
796.867	24924.3
797.198	24895.38
797.53	24815.15
797.862	24642.5
798.193	24763.63
798.525	24529.28
798.856	24596.85
799.188	24311.66
799.519	24238.9
799.85	24090.2
800.182	24018.11
800.513	24103.31
800.844	23908.74
801.175	23950.77
801.506	23950.09
801.837	23897.44
802.168	23741.73
802.499	23724.79
802.83	23600.95
803.161	23418.35
803.491	23513.49
803.822	23481.18
804.153	23308.53
804.483	23088.64
804.814	23067.4
805.145	23041.19
805.475	23056.55
805.805	22932.26
806.136	22984.01
806.466	22955.99
806.796	22864.02
807.126	22630.13
807.457	22682.33
807.787	22576.79
808.117	22547.64
808.447	22411.83
808.777	22525.27
809.107	22290.25
809.436	22274.65
809.766	22217.25
810.096	22217.03
810.426	22070.37
810.755	22076.24
811.085	22111.72
811.414	21918.73
811.744	21790.83
812.073	21650.04
812.403	21722.35
812.732	21545.86
813.061	21648.91
813.39	21385.19
813.719	21393.77
814.049	21607.33
814.378	21318.52
814.707	21282.59
815.036	21284.85
815.365	21174.12
815.693	20985.65
816.022	21060
816.351	20910.62
816.68	20965.31
817.008	20941.36
817.337	20781.59
817.665	20660.01
817.994	20874.24
818.322	20738.65
818.651	20578.88
818.979	20585.21
819.307	20602.83
819.636	20537.3
819.964	20483.74
820.292	20469.96
820.62	20386.12
820.948	20352.45
821.276	20421.82
821.604	20342.05
821.932	20455.72
822.259	20378.21
822.587	20443.74
822.915	20383.4
823.243	20388.15
823.57	20310.64
823.898	20325.1
824.225	20144.54
824.553	20267.93
824.88	20192.45
825.207	20324.42
825.535	20265.89
825.862	20419.79
826.189	20205.1
826.516	20356.06
826.843	20404.65
827.17	20273.8
827.497	20310.64
827.824	20243.52
828.151	20367.81
828.478	20149.06
828.805	20337.53
829.131	20248.94
829.458	20125.56
829.785	20136.18
830.111	20242.39
830.438	20279.45
830.764	20115.16
831.09	20253.24
831.417	20072.45
831.743	20142.73
832.069	20210.08
832.395	20150.19
832.722	20151.77
833.048	19966.69
833.374	19996.07
833.7	20008.5
834.026	19917.65
834.351	19970.31
834.677	20046.92
835.003	20070.87
835.329	20005.56
835.654	19844.44
835.98	19751.56
836.306	19823.87
836.631	19827.49
836.956	19853.93
837.282	19801.5
837.607	19673.59
837.932	19714.72
838.258	19703.2
838.583	19654.84
838.908	19493.48
839.233	19575.52
839.558	19547.72
839.883	19546.82
840.208	19403.32
840.533	19375.97
840.858	19389.08
841.182	19448.97
841.507	19388.63
841.832	19201.97
842.156	19263.89
842.481	19283.32
842.805	19229.99
843.13	19126.26
843.454	19115.64
843.778	19039.49
844.103	19009.66
844.427	18937.34
844.751	18841.52
845.075	18936.21
845.399	18809.89
845.723	18662.09
846.047	18800.4
846.371	18530.57
846.695	18467.07
847.019	18348.2
847.343	18171.94
847.666	18221.2
847.99	18025.95
848.313	18077.48
848.637	18062.56
848.96	17970.81
849.284	17908.67
849.607	17779.63
849.931	17809.46
850.254	17650.14
850.577	17521.56
850.9	17440.88
851.223	17473.65
851.546	17363.15
851.869	17332.64
852.192	17337.38
852.515	17118.86
852.838	17075.92
853.161	17084.73
853.483	16918.64
853.806	16889.94
854.129	16860.11
854.451	16886.32
854.774	16795.25
855.096	16682.71
855.419	16731.98
855.741	16629.38
856.063	16465.32
856.385	16530.62
856.708	16449.04
857.03	16337.86
857.352	16341.48
857.674	16270.07
857.996	16219.22
858.318	16148.26
858.64	16104.87
858.961	16066
859.283	16087.7
859.605	15991.88
859.926	16025.55
860.248	16006.57
860.57	15824.43
860.891	15865.78
861.212	15858.33
861.534	15802.51
861.855	15689.52
862.176	15666.01
862.498	15739.23
862.819	15706.47
863.14	15556.41
863.461	15517.32
863.782	15592.12
864.103	15598.9
864.424	15420.15
864.745	15443.87
865.065	15376.3
865.386	15394.38
865.707	15324.33
866.027	15403.65
866.348	15363.42
866.668	15285.23
866.989	15100.15
867.309	15155.75
867.63	15215.41
867.95	15220.83
868.27	15092.7
868.59	15116.88
868.91	15071.91
869.23	15049.08
869.55	14986.48
869.87	15101.96
870.19	15025.58
870.51	15056.54
870.83	14958.46
871.15	14866.26
871.469	14878.92
871.789	14901.51
872.109	14872.36
872.428	14764.57
872.748	14815.87
873.067	14794.17
873.386	14684.8
873.706	14800.05
874.025	14637.79
874.344	14599.83
874.663	14667.62
874.982	14638.47
875.301	14600.73
875.62	14564.8
875.939	14526.16
876.258	14475.54
876.577	14539.72
876.896	14487.74
877.214	14399.38
877.533	14449.55
877.852	14347.18
878.17	14428.99
878.489	14385.37
878.807	14296.79
879.125	14341.76
879.444	14294.53
879.762	14266.28
880.08	14313.06
880.398	14171.82
880.716	14227.18
881.034	14101.08
881.352	14087.98
881.67	14085.27
881.988	14076
882.306	14020.18
882.624	14019.05
882.941	13892.05
883.259	13799.17
883.577	13843.69
883.894	13844.82
884.212	13898.38
884.529	13773.64
884.846	13706.97
885.164	13686.86
885.481	13609.8
885.798	13679.63
886.115	13605.28
886.432	13591.72
886.75	13567.54
887.067	13587.43
887.383	13491.16
887.7	13487.09
888.017	13432.18
888.334	13407.54
888.651	13399.63
888.967	13278.28
889.284	13193.09
889.6	13228.11
889.917	13011.4
890.233	13245.51
890.55	13065.63
890.866	13119.64
891.182	13078.51
891.498	12957.16
891.815	12950.38
892.131	12902.47
892.447	12928.01
892.763	12834.45
893.079	12805.52
893.395	12710.84
893.71	12755.58
894.026	12661.8
894.342	12599.88
894.657	12582.93
894.973	12491.86
895.289	12531.41
895.604	12451.64
895.92	12437.62
896.235	12396.04
896.55	12421.35
896.865	12348.59
897.181	12239.44
897.496	12226.11
897.811	12132.55
898.126	12143.4
898.441	12159.44
898.756	12119.44
899.071	12043.06
899.386	12091.87
899.7	11835.15
900.015	11842.39
900.33	11750.64
900.644	11803.07
900.959	11770.3
901.273	11779.11
901.588	11702.5
901.902	11559.23
902.216	11590.64
902.531	11512
902.845	11495.05
903.159	11432.91
903.473	11326.02
903.787	11412.79
904.101	11295.51
904.415	11302.51
904.729	11244.21
905.042	11166.25
905.356	11166.25
905.67	11122.18
905.984	11119.02
906.297	11078.56
906.611	11049.86
906.924	10996.08
907.237	10916.99
907.551	10856.88
907.864	10787.5
908.177	10859.59
908.491	10670.44
908.804	10675.64
909.117	10665.69
909.43	10543.89
909.743	10540.5
910.056	10577.11
910.368	10481.52
910.681	10435.19
910.994	10372.82
911.307	10296.44
911.619	10281.98
911.932	10244.46
912.244	10227.06
912.557	10167.18
912.869	10094.18
913.181	10073.17
913.494	10044.24
913.806	10036.11
914.118	9995.2
914.43	9845.83
914.742	9936.9
915.054	9831.37
915.366	9818.94
915.678	9692.39
915.99	9731.48
916.302	9620.3
916.613	9587.76
916.925	9600.41
917.236	9584.14
917.548	9503.69
917.859	9482.9
918.171	9386.41
918.482	9313.87
918.794	9339.63
919.105	9280.65
919.416	9251.04
919.727	9225.05
920.038	9263.47
920.349	9133.98
920.66	9078.62
920.971	9055.12
921.282	9061.67
921.593	8999.07
921.903	8963.82
922.214	8898.73
922.525	8856.93
922.835	8870.49
923.146	8780.77
923.456	8757.72
923.767	8709.14
924.077	8696.03
924.387	8598.86
924.697	8564.05
925.008	8608.57
925.318	8535.58
925.628	8491.29
925.938	8468.24
926.248	8375.13
926.558	8302.59
926.867	8268.02
927.177	8309.6
927.487	8267.57
927.796	8181.69
928.106	8187.12
928.416	8130.62
928.725	8168.13
929.034	8054.46
929.344	8109.6
929.653	8052.2
929.962	7965.65
930.271	7969.49
930.581	7873.45
930.89	7825.32
931.199	7779.67
931.508	7769.05
931.817	7811.31
932.125	7729.27
932.434	7711.2
932.743	7641.37
933.051	7666.45
933.36	7622.84
933.669	7569.73
933.977	7507.36
934.286	7527.02
934.594	7444.08
934.902	7396.63
935.21	7412.45
935.519	7350.08
935.827	7281.6
936.135	7267.59
936.443	7241.38
936.751	7197.99
937.059	7173.36
937.367	7124.77
937.674	7102.62
937.982	7114.15
938.29	7055.39
938.597	7087.03
938.905	6962.06
939.213	6956.41
939.52	6918.9
939.827	6968.16
940.135	6843.2
940.442	6874.83
940.749	6812.69
941.056	6799.13
941.363	6716.42
941.67	6736.31
941.977	6710.32
942.284	6613.37
942.591	6615.86
942.898	6599.13
943.205	6630.77
943.511	6561.85
943.818	6526.37
944.125	6413.15
944.431	6444.79
944.738	6413.15
945.044	6377.22
945.35	6361.85
945.657	6337.45
945.963	6321.85
946.269	6251.8
946.575	6290.44
946.881	6221.29
947.187	6233.49
947.493	6178.58
947.799	6153.5
948.105	6101.07
948.41	6040.73
948.716	6084.35
949.022	6051.58
949.327	6051.35
949.633	5966.61
949.938	5972.26
950.244	5969.55
950.549	5904.69
950.854	5833.05
951.16	5827.86
951.465	5792.38
951.77	5795.54
952.075	5766.61
952.38	5713.73
952.685	5765.26
952.99	5709.21
953.294	5657.92
953.599	5648.65
953.904	5612.49
954.209	5601.19
954.513	5600.97
954.818	5569.33
955.122	5506.51
955.426	5446.85
955.731	5459.28
956.035	5436.68
956.339	5413.18
956.643	5418.6
956.948	5372.27
957.252	5324.37
957.556	5297.25
957.86	5294.76
958.163	5232.39
958.467	5290.92
958.771	5230.13
959.075	5208.66
959.378	5185.16
959.682	5182.9
959.985	5177.25
960.289	5091.6
960.592	5122.34
960.896	5089.57
961.199	5013.19
961.502	5053.86
961.805	5000.08
962.108	4927.09
962.411	4980.65
962.714	4894.77
963.017	4949.01
963.32	4909.01
963.623	4859.97
963.926	4840.54
964.228	4800.76
964.531	4790.37
964.833	4779.97
965.136	4725.51
965.438	4720.54
965.741	4742.01
966.043	4668.11
966.345	4689.13
966.648	4653.42
966.95	4633.31
967.252	4566.87
967.554	4569.58
967.856	4577.94
968.158	4520.54
968.46	4519.87
968.761	4496.14
969.063	4495.46
969.365	4472.86
969.666	4456.82
969.968	4415.69
970.269	4378.85
970.571	4352.19
970.872	4405.29
971.174	4354.45
971.475	4314.22
971.776	4298.63
972.077	4239.87
972.378	4217.5
972.679	4236.03
972.98	4235.81
973.281	4183.15
973.582	4180.89
973.883	4160.33
974.183	4094.79
974.484	4146.32
974.785	4078.07
975.085	4058.41
975.386	4093.66
975.686	4059.54
975.986	4016.83
976.287	4002.82
976.587	3989.94
976.887	3941.8
977.187	4004.4
977.487	3960.33
977.787	3874.01
978.087	3895.25
978.387	3912.88
978.687	3834.01
978.987	3866.78
979.286	3801.92
979.586	3804.41
979.885	3801.69
980.185	3813.9
980.484	3756.05
980.784	3739.55
981.083	3743.62
981.382	3675.14
981.682	3664.07
981.981	3668.14
982.28	3689.15
982.579	3643.05
982.878	3603.73
983.177	3591.08
983.475	3616.39
983.774	3570.97
984.073	3508.59
984.372	3547.24
984.67	3500.46
984.969	3490.74
985.267	3480.12
985.566	3483.96
985.864	3453.91
986.162	3456.17
986.461	3395.83
986.759	3396.05
987.057	3393.57
987.355	3354.02
987.653	3341.82
987.951	3326.68
988.249	3341.59
988.547	3300.92
988.844	3282.39
989.142	3268.6
989.44	3245.55
989.737	3213.69
990.035	3226.79
990.332	3210.75
990.63	3208.94
990.927	3219.56
991.224	3172.11
991.521	3174.59
991.819	3126.68
992.116	3155.61
992.413	3082.39
992.71	3093.01
993.006	3102.05
993.303	3060.02
993.6	3053.92
993.897	3022.73
994.193	3036.97
994.49	3005.78
994.787	3008.72
995.083	2954.48
995.379	2957.42
995.676	2948.16
995.972	2930.98
996.268	2885.11
996.565	2916.97
996.861	2869.29
997.157	2857.31
997.453	2845.79
997.749	2857.76
998.044	2820.93
998.34	2823.41
998.636	2807.14
998.932	2800.14
999.227	2740.25
999.523	2727.15
999.818	2717.2
1000.114	2693.7
1000.409	2702.74
1000.704	2686.69
1001	2683.76
1001.295	2652.35
1001.59	2657.09
1001.885	2662.74
1002.18	2633.36
1002.475	2556.98
1002.77	2580.93
1003.065	2538.9
1003.359	2544.1
1003.654	2584.78
1003.949	2524.21
1004.243	2523.31
1004.538	2508.85
1004.832	2490.77
1005.127	2479.24
1005.421	2471.56
1005.715	2430.43
1006.009	2423.2
1006.304	2396.31
1006.598	2404.22
1006.892	2368.51
1007.186	2389.53
1007.48	2341.85
1007.773	2329.87
1008.067	2338
1008.361	2276.08
1008.655	2314.28
1008.948	2303.2
1009.242	2242.86
1009.535	2255.52
1009.829	2257.1
1010.122	2225.01
1010.415	2205.13
1010.708	2174.17
1011.001	2190.89
1011.295	2196.76
1011.588	2164
1011.881	2112.92
1012.173	2104.79
1012.466	2128.52
1012.759	2107.95
1013.052	2111.34
1013.344	2094.17
1013.637	2079.71
1013.93	2079.71
1014.222	2085.35
1014.514	2020.05
1014.807	2026.15
1015.099	1994.96
1015.391	1989.31
1015.683	2019.82
1015.976	1957.67
1016.268	1936.43
1016.56	1983.66
1016.851	1955.19
1017.143	1905.92
1017.435	1897.34
1017.727	1902.76
1018.018	1878.35
1018.31	1882.87
1018.602	1848.98
1018.893	1868.41
1019.185	1840.62
1019.476	1809.2
1019.767	1837.45
1020.058	1790.67
1020.35	1803.1
1020.641	1780.28
1020.932	1783.22
1021.223	1772.59
1021.514	1697.79
1021.804	1720.39
1022.095	1717.23
1022.386	1709.32
1022.677	1686.5
1022.967	1662.99
1023.258	1662.77
1023.548	1634.75
1023.839	1652.15
1024.129	1663.9
1024.419	1637.23
1024.709	1651.24
1025	1642.2
1025.29	1617.8
1025.58	1565.59
1025.87	1592.49
1026.16	1584.58
1026.449	1519.95
1026.739	1527.18
1027.029	1560.62
1027.319	1536.67
1027.608	1535.76
1027.898	1479.72
1028.187	1507.52
1028.477	1489.21
1028.766	1480.17
1029.055	1455.09
1029.344	1446.95
1029.634	1424.81
1029.923	1419.61
1030.212	1413.06
1030.501	1423.23
1030.79	1394.3
1031.078	1388.2
1031.367	1368.31
1031.656	1375.54
1031.945	1363.57
1032.233	1373.28
1032.522	1328.76
1032.81	1312.27
1033.099	1303.45
1033.387	1294.19
1033.675	1298.26
1033.963	1283.34
1034.251	1290.12
1034.54	1253.74
1034.828	1283.34
1035.116	1270.23
1035.403	1256.22
1035.691	1219.39
1035.979	1234.76
1036.267	1235.66
1036.554	1214.64
1036.842	1197.69
1037.129	1192.04
1037.417	1176.23
1037.704	1193.63
1037.992	1169.22
1038.279	1126.74
1038.566	1149.11
1038.853	1149.11
1039.14	1149.11
