Data from whiteboard_FLMS001491_00012.txt Node
Date: Wed Feb 08 11:25:28 GMT 2017
User: dcchb
Spectrometer: FLMS00149
Trigger mode: 0
Integration Time (sec): 2.000000E-2
Scans to average: 10
Electric dark correction enabled: true
Nonlinearity correction enabled: false
Boxcar width: 0
XAxis mode: Wavelengths
Number of Pixels in Spectrum: 2048
>>>>>Begin Spectral Data<<<<<
341.393	-12.54
341.776	-12.54
342.16	-12.54
342.543	-48.93
342.927	-63.16
343.31	-75.59
343.693	-66.55
344.077	-53.22
344.46	-29.04
344.843	-52.77
345.226	-48.25
345.61	-32.43
345.993	-3.05
346.376	0.56
346.759	11.41
347.142	30.17
347.525	36.5
347.908	50.28
348.291	59.09
348.674	76.27
349.057	96.61
349.44	122.6
349.823	168.92
350.206	176.38
350.588	220.67
350.971	245.3
351.354	270.61
351.737	286.21
352.119	274.46
352.502	303.83
352.884	297.51
353.267	310.84
353.65	354.91
354.032	341.57
354.414	357.62
354.797	357.62
355.179	347.67
355.562	382.7
355.944	352.87
356.326	387
356.709	371.63
357.091	370.27
357.473	393.1
357.855	389.93
358.238	374.79
358.62	379.09
359.002	373.89
359.384	372.53
359.766	399.42
360.148	379.76
360.53	387.22
360.912	383.61
361.294	399.65
361.676	355.58
362.057	401.91
362.439	390.84
362.821	401.23
363.203	387.9
363.584	365.08
363.966	375.02
364.348	383.61
364.729	377.5
365.111	340.22
365.493	349.71
365.874	390.84
366.256	381.8
366.637	388.35
367.019	375.7
367.4	365.08
367.781	396.03
368.163	372.08
368.544	393.77
368.925	398.52
369.306	390.16
369.688	374.34
370.069	374.79
370.45	386.32
370.831	402.14
371.212	398.29
371.593	389.26
371.974	377.05
372.355	384.74
372.736	397.62
373.117	392.65
373.498	396.03
373.879	398.75
374.26	382.25
374.641	376.6
375.021	398.52
375.402	422.93
375.783	410.95
376.163	433.1
376.544	434
376.925	426.54
377.305	429.25
377.686	424.51
378.066	415.92
378.447	421.12
378.827	411.63
379.208	438.29
379.588	449.82
379.968	430.16
380.349	425.64
380.729	438.07
381.109	448.24
381.489	459.08
381.87	457.95
382.25	447.78
382.63	458.41
383.01	473.32
383.39	464.51
383.77	480.1
384.15	486.88
384.53	492.53
384.91	469.03
385.29	511.06
385.67	491.63
386.049	510.38
386.429	498.86
386.809	480.55
387.189	491.17
387.568	515.13
387.948	529.14
388.328	545.18
388.707	523.94
389.087	530.27
389.466	546.99
389.846	532.53
390.225	528.91
390.605	548.35
390.984	529.59
391.363	540.66
391.743	602.13
392.122	579.08
392.501	578.63
392.881	606.65
393.26	587.89
393.639	601.45
394.018	622.47
394.397	606.42
394.776	653.66
395.155	629.02
395.534	633.99
395.913	658.63
396.292	640.32
396.671	676.93
397.05	677.84
397.429	668.8
397.808	709.25
398.186	695.24
398.565	698.85
398.944	710.6
399.323	725.29
399.701	761.67
400.08	760.32
400.458	764.61
400.837	766.65
401.215	760.77
401.594	775.01
401.972	794.89
402.351	823.14
402.729	843.93
403.107	840.09
403.486	853.2
403.864	862.46
404.242	854.33
404.62	863.82
404.999	894.55
405.377	909.24
405.755	947.43
406.133	963.03
406.511	958.96
406.889	958.05
407.267	987.66
407.645	994.21
408.023	1033.31
408.401	1023.81
408.779	1040.09
409.156	1096.13
409.534	1076.69
409.912	1104.26
410.29	1148.33
410.667	1153.08
411.045	1193.53
411.422	1188.78
411.8	1225.62
412.178	1244.83
412.555	1264.94
412.933	1286.18
413.31	1323.47
413.687	1343.58
414.065	1351.94
414.442	1383.81
414.819	1393.97
415.197	1401.88
415.574	1433.97
415.951	1434.2
416.328	1474.65
416.705	1473.07
417.082	1492.73
417.46	1522.78
417.837	1532.28
418.214	1545.38
418.591	1587.64
418.967	1606.4
419.344	1626.51
419.721	1637.36
420.098	1657.24
420.475	1680.29
420.852	1681.65
421.228	1718.03
421.605	1720.29
421.982	1749.22
422.358	1754.42
422.735	1788.77
423.111	1777.02
423.488	1833.96
423.864	1845.49
424.241	1907.86
424.617	1927.29
424.994	1951.93
425.37	1938.82
425.746	1948.31
426.123	1953.96
426.499	2002.55
426.875	2028.76
427.251	2093.62
427.627	2132.71
428.003	2147.4
428.379	2152.15
428.756	2198.93
429.132	2235.99
429.507	2259.71
429.883	2248.42
430.259	2315.31
430.635	2299.49
431.011	2387.62
431.387	2425.13
431.763	2475.53
432.138	2487.51
432.514	2518.69
432.89	2529.54
433.265	2562.53
433.641	2674.62
434.016	2606.37
434.392	2690.44
434.767	2753.03
435.143	2759.81
435.518	2804.56
435.894	2819.93
436.269	2883.88
436.644	2891.56
437.02	2908.29
437.395	2985.8
437.77	3017.89
438.145	3057.43
438.52	3087.26
438.895	3078.45
439.271	3128.17
439.646	3153.02
440.021	3234.15
440.395	3219.01
440.77	3180.14
441.145	3256.3
441.52	3338.78
441.895	3313.92
442.27	3361.38
442.645	3354.15
443.019	3430.76
443.394	3408.61
443.769	3478.67
444.143	3459.01
444.518	3535.16
444.892	3476.86
445.267	3546.01
445.641	3600.24
446.016	3621.49
446.39	3665.55
446.764	3654.93
447.139	3684.08
447.513	3810.41
447.887	3762.95
448.262	3757.08
448.636	3804.31
449.01	3853.12
449.384	3905.55
449.758	3971.08
450.132	3966.11
450.506	3969.05
450.88	4057.41
451.254	4025.54
451.628	4092.89
452.002	4134.92
452.376	4183.73
452.75	4236.84
453.123	4254.01
453.497	4383.5
453.871	4404.06
454.244	4460.56
454.618	4532.2
454.992	4588.92
455.365	4601.35
455.739	4669.59
456.112	4759.76
456.486	4756.82
456.859	4824.62
457.232	4948.91
457.606	4937.61
457.979	5067.1
458.352	5106.42
458.725	5155.46
459.099	5215.8
459.472	5321.78
459.845	5395.23
460.218	5391.84
460.591	5442.68
460.964	5534.66
461.337	5664.82
461.71	5758.15
462.083	5814.2
462.456	5816.91
462.829	5894.65
463.201	5968.32
463.574	5989.33
463.947	6054.19
464.32	6237.69
464.692	6285.6
465.065	6293.73
465.438	6488.76
465.81	6537.34
466.183	6577.79
466.555	6789.31
466.928	6749.31
467.3	6790.89
467.672	6921.74
468.045	7070.89
468.417	7101.17
468.789	7197.89
469.161	7275.63
469.534	7409.18
469.906	7560.59
470.278	7632.23
470.65	7734.37
471.022	7862.96
471.394	8013.46
471.766	8107.24
472.138	8208.26
472.51	8445.09
472.882	8539.78
473.253	8625.87
473.625	8783.38
473.997	8916.49
474.369	8997.62
474.74	9102.7
475.112	9236.93
475.484	9418.4
475.855	9615.23
476.227	9679.63
476.598	9972.96
476.97	10035.56
477.341	10276
477.713	10416.79
478.084	10496.33
478.455	10825.14
478.827	10899.49
479.198	11192.14
479.569	11270.1
479.94	11473.71
480.311	11619.24
480.682	12012.9
481.053	12181.04
481.424	12414.25
481.795	12470.07
482.166	12732.66
482.537	12870.51
482.908	13096.49
483.279	13246.32
483.65	13573.54
484.021	13846.53
484.391	13945.28
484.762	14169.68
485.133	14228.89
485.503	14505.27
485.874	14766.73
486.244	14997.01
486.615	15327.62
486.985	15440.16
487.356	15748.17
487.726	15810.09
488.097	16119.24
488.467	16208.05
488.837	16624.08
489.207	16797.86
489.578	16966.9
489.948	17237.4
490.318	17449.37
490.688	17473.33
491.058	17795.8
491.428	18108.34
491.798	18215
492.168	18636.69
492.538	18616.35
492.908	18868.77
493.278	19094.75
493.648	19150.34
494.017	19479.83
494.387	19546.04
494.757	19795.07
495.126	20030.77
495.496	20115.74
495.866	20347.83
496.235	20510.99
496.605	20669.63
496.974	20857.87
497.344	21094.93
497.713	21082.04
498.082	21353.22
498.452	21676.15
498.821	21693.33
499.19	21898.97
499.559	22054.22
499.928	22169.02
500.298	22347.32
500.667	22616.02
501.036	22418.28
501.405	22791.15
501.774	22720.19
502.143	23040.86
502.512	23097.58
502.88	23324.47
503.249	23384.81
503.618	23618.7
503.987	23723.78
504.356	23826.61
504.724	23955.42
505.093	24219.36
505.462	24186.14
505.83	24421.84
506.199	24634.04
506.567	24931.43
506.936	24862.06
507.304	25301.82
507.672	25481.25
508.041	25400.35
508.409	25810.51
508.777	26025.19
509.145	26234.68
509.514	26181.12
509.882	26405.52
510.25	26645.97
510.618	26804.38
510.986	26892.51
511.354	27190.81
511.722	27313.75
512.09	27780.85
512.458	27684.13
512.826	27941.98
513.193	28129.77
513.561	28144.23
513.929	28551.68
514.297	28842.52
514.664	29009.07
515.032	29042.51
515.4	29364.99
515.767	29549.84
516.135	29746.68
516.502	29462.16
516.869	30122.48
517.237	30155.7
517.604	30203.16
517.972	30597.5
518.339	30684.5
518.706	30633.88
519.073	31035
519.44	31138.96
519.808	31498.04
520.175	31596.34
520.542	31900.07
520.909	32060.74
521.276	32106.39
521.643	32429.09
522.009	32658.24
522.376	32888.74
522.743	33109.07
523.11	33416.64
523.477	33750.64
523.843	33998.54
524.21	34329.15
524.577	34621.12
524.943	34697.51
525.31	35036.48
525.676	35341.78
526.043	35600.98
526.409	35812.96
526.776	36141.99
527.142	36262.21
527.508	36496.55
527.874	36841.18
528.241	37098.8
528.607	37101.06
528.973	37602.74
529.339	37617.43
529.705	38046.34
530.071	38199.33
530.437	38268.03
530.803	38520
531.169	38707.34
531.535	38795.93
531.901	39009.71
532.267	39169.25
532.632	39494.22
532.998	39581.67
533.364	39843.59
533.73	39909.35
534.095	40274.76
534.461	40226.85
534.826	40492.38
535.192	40703.68
535.557	40985.48
535.923	41070.67
536.288	41086.04
536.653	41297.78
537.019	41144.79
537.384	41460.49
537.749	41676.98
538.114	41835.85
538.479	41859.13
538.845	42057.76
539.21	41991.33
539.575	42345.67
539.94	42511.76
540.305	42608.26
540.67	42724.41
541.034	42865.2
541.399	43119.88
541.764	43140.9
542.129	43353.32
542.494	43545.18
542.858	43646.42
543.223	43574.56
543.587	43798.06
543.952	43896.13
544.316	44028.33
544.681	43983.14
545.045	44266.07
545.41	44594.87
545.774	44647.98
546.138	44740.18
546.503	44830.12
546.867	44857.92
547.231	45367.06
547.595	45399.37
547.959	45450.9
548.324	45550.55
548.688	45744.45
549.052	45781.96
549.416	45803.2
549.779	46068.73
550.143	46126.81
550.507	46403.86
550.871	46541.49
551.235	46550.53
551.599	46839.79
551.962	46859.67
552.326	46974.7
552.689	47345.99
553.053	47299.43
553.417	47354.12
553.78	47870.04
554.143	47749.82
554.507	47920.89
554.87	48013.09
555.234	48441.78
555.597	48277.04
555.96	48466.64
556.323	48575.11
556.686	48605.61
557.05	48806.74
557.413	48980.97
557.776	49145.71
558.139	49323.56
558.502	49486.72
558.865	49399.04
559.228	49688.07
559.59	49857.11
559.953	49898.91
560.316	50295.97
560.679	50256.87
561.041	50445.79
561.404	50675.62
561.767	50842.84
562.129	50740.7
562.492	51096.62
562.854	51114.93
563.217	51143.63
563.579	51224.53
563.941	51438.99
564.304	51728.92
564.666	51740.22
565.028	51890.5
565.39	52061.12
565.753	52235.12
566.115	52231.73
566.477	52435.34
566.839	52478.06
567.201	52721.66
567.563	52702.23
567.925	53031.94
568.287	52980.87
568.648	53053.41
569.01	53304.47
569.372	53430.12
569.734	53377.92
570.095	53567.74
570.457	53776.1
570.819	53874.85
571.18	53905.81
571.542	54141.51
571.903	54015.42
572.265	54144.23
572.626	54349.42
572.987	54354.84
573.349	54532.01
573.71	54595.29
574.071	54730.43
574.432	54766.58
574.794	54947.14
575.155	54948.27
575.516	54819.69
575.877	54961.15
576.238	55060.13
576.599	55210.86
576.96	55124.09
577.32	55248.83
577.681	55326.12
578.042	55397.3
578.403	55357.08
578.763	55344.87
579.124	55420.12
579.485	55538.77
579.845	55531.31
580.206	55541.93
580.566	55537.64
580.927	55544.42
581.287	55650.18
581.648	55521.36
582.008	55690.4
582.368	55623.51
582.728	55620.12
583.089	55545.32
583.449	55554.58
583.809	55643.4
584.169	55694.69
584.529	55649.05
584.889	55846.55
585.249	55702.38
585.609	55628.48
585.969	55788.25
586.329	55605.2
586.688	55790.96
587.048	55765.2
587.408	55710.74
587.768	55729.5
588.127	55795.03
588.487	55702.38
588.846	55952.09
589.206	55742.15
589.565	55844.97
589.925	55959.77
590.284	55946.66
590.643	55940.11
591.003	56079.09
591.362	56082.48
591.721	56025.08
592.08	56151.63
592.44	56166.77
592.799	56169.71
593.158	56166.77
593.517	56182.36
593.876	56257.62
594.235	56194.34
594.593	56210.39
594.952	56396.37
595.311	56212.65
595.67	56335.81
596.029	56512.98
596.387	56491.51
596.746	56511.85
597.104	56448.35
597.463	56424.62
597.822	56475.92
598.18	56417.84
598.538	56392.08
598.897	56508.01
599.255	56345.07
599.613	56576.7
599.972	56463.04
600.33	56481.11
600.688	56399.99
601.046	56478.85
601.404	56543.94
601.762	56471.17
602.12	56541.9
602.478	56555.91
602.836	56446.99
603.194	56329.71
603.552	56407.9
603.91	56306.88
604.268	56388.69
604.625	56312.98
604.983	56435.24
605.341	56355.69
605.698	56464.84
606.056	56511.85
606.413	56484.96
606.771	56557.72
607.128	56617.38
607.485	56482.02
607.843	56513.66
608.2	56755.23
608.557	56724.5
608.914	56677.04
609.272	56813.08
609.629	56830.94
609.986	56917.26
610.343	56810.14
610.7	57064.15
611.057	56985.51
611.414	56936.24
611.771	57035.45
612.127	57173.98
612.484	57126.29
612.841	57236.57
613.198	57117.26
613.554	57256.91
613.911	57401.77
614.267	57411.94
614.624	57419.85
614.98	57407.64
615.337	57634.08
615.693	57514.31
616.05	57493.29
616.406	57729.89
616.762	57615.1
617.118	57590.46
617.475	57644.47
617.831	57701.42
618.187	57801.76
618.543	57747.3
618.899	57908.19
619.255	57815.09
619.611	57751.59
619.967	57869.78
620.323	57941.87
620.678	57876.11
621.034	57727.18
621.39	57786.16
621.746	57690.12
622.101	57990
622.457	57752.94
622.812	57782.1
623.168	57889.89
623.523	57820.06
623.879	57872.26
624.234	57713.85
624.589	57823.68
624.945	57682.66
625.3	57788.42
625.655	57688.09
626.01	57688.31
626.365	57667.07
626.72	57636.34
627.075	57614.19
627.43	57570.35
627.785	57562.44
628.14	57618.26
628.495	57606.96
628.85	57569.9
629.205	57428.89
629.559	57616.9
629.914	57469.11
630.269	57413.52
630.623	57390.92
630.978	57332.16
631.332	57417.59
631.687	57532.39
632.041	57422.11
632.396	57404.71
632.75	57347.53
633.104	57367.19
633.459	57248.33
633.813	57318.61
634.167	57294.2
634.521	57238.16
634.875	57348.21
635.229	57223.92
635.583	57126.97
635.937	57188.21
636.291	57154.77
636.645	57155.9
636.999	57064.38
637.352	57163.36
637.706	56974.89
638.06	57127.65
638.413	57100.08
638.767	57010.14
639.121	57058.95
639.474	56933.31
639.828	56917.03
640.181	56956.13
640.534	56988.9
640.888	56882.01
641.241	56812.18
641.594	56798.17
641.947	56946.64
642.301	56778.06
642.654	56809.24
643.007	56792.97
643.36	56668
643.713	56682.01
644.066	56783.25
644.419	56516.59
644.771	56404.96
645.124	56142.82
645.477	56038.19
645.83	55904.63
646.182	55840.45
646.535	55745.09
646.888	55816.05
647.24	55653.79
647.593	55763.62
647.945	55656.28
648.298	55517.75
648.65	55453.34
649.002	55423.97
649.355	55566.56
649.707	55530.4
650.059	55525.21
650.411	55891.75
650.763	55844.52
651.115	56147.56
651.467	56035.93
651.819	55990.73
652.171	55921.35
652.523	55860.34
652.875	55860.79
653.227	55749.83
653.578	55906.89
653.93	55841.81
654.282	55762.04
654.633	55719.78
654.985	55690.85
655.337	55704.86
655.688	55660.34
656.039	55680.46
656.391	55518.43
656.742	55536.28
657.094	55555.26
657.445	55623.74
657.796	55486.11
658.147	55458.32
658.498	55507.81
658.849	55517.3
659.2	55475.72
659.551	55381.93
659.902	55557.75
660.253	55421.71
660.604	55441.14
660.955	55375.15
661.306	55440.92
661.656	55327.02
662.007	55359.56
662.358	55345.1
662.708	55302.61
663.059	55323.18
663.409	55145.56
663.76	55383.97
664.11	55383.29
664.461	55372.89
664.811	55384.87
665.161	55300.35
665.511	55200.92
665.862	55305.55
666.212	55362.05
666.562	55404.76
666.912	55290.18
667.262	55190.3
667.612	55241.37
667.962	55231.88
668.312	55176.06
668.662	55251.54
669.011	55181.26
669.361	55169.06
669.711	55113.47
670.06	55001.15
670.41	55032.79
670.76	54974.26
671.109	55113.01
671.459	55082.51
671.808	55012.9
672.157	55029.17
672.507	54818.56
672.856	54857.2
673.205	54928.16
673.554	54958.89
673.904	54913.7
674.253	55060.81
674.602	54947.37
674.951	54381.96
675.3	54363.2
675.649	54838.45
675.998	54691.33
676.346	54698.11
676.695	54778.33
677.044	54549.41
677.393	54638.9
677.741	54653.37
678.09	54576.98
678.438	54549.64
678.787	54525.01
679.135	54453.37
679.484	54240.72
679.832	54362.75
680.181	54196.65
680.529	54223.09
680.877	54078.92
681.225	54147.16
681.573	54207.05
681.922	53904.46
682.27	53889.09
682.618	53991.24
682.966	53887.28
683.314	53857.23
683.661	53776.1
684.009	53653.39
684.357	53639.83
684.705	53582.43
685.053	53531.81
685.4	53528.42
685.748	53381.31
686.095	53336.79
686.443	53227.64
686.79	53101.77
687.138	53196.23
687.485	53133.18
687.832	52977.7
688.18	52990.81
688.527	52756.69
688.874	52866.29
689.221	52784.94
689.568	52683.47
689.915	52537.94
690.262	52627.2
690.609	52421.79
690.956	52322.13
691.303	52286.2
691.65	52133.21
691.997	52134.79
692.344	51890.95
692.69	51887.11
693.037	51969.59
693.383	51641.69
693.73	51721.01
694.077	51564.63
694.423	51719.21
694.769	51498.87
695.116	51463.62
695.462	51468.82
695.808	51338.65
696.155	51391.3
696.501	51188.6
696.847	51215.72
697.193	50853.92
697.539	51050.3
697.885	50755.84
698.231	50649.63
698.577	50652.57
698.923	50598.78
699.269	50517.88
699.614	50367.83
699.96	50402.63
700.306	50392.69
700.651	50262.07
700.997	50039.25
701.342	50058.68
701.688	50123.54
702.033	49933.04
702.379	49843.55
702.724	49743.66
703.069	49795.41
703.415	49453.95
703.76	49431.58
704.105	49400.4
704.45	49367.85
704.795	49033.4
705.14	48926.74
705.485	49029.56
705.83	48812.39
706.175	48755.44
706.52	48713.18
706.865	48614.2
707.209	48681.32
707.554	48416.02
707.899	48421.44
708.243	48312.06
708.588	48246.53
708.932	48022.35
709.277	47973.31
709.621	47944.62
709.966	47743.94
710.31	47714.34
710.654	47449.03
710.998	47537.85
711.342	47465.76
711.687	47362.03
712.031	47176.5
712.375	46995.94
712.719	46985.54
713.063	47058.99
713.407	47161.81
713.75	46737.42
714.094	46794.81
714.438	46493.58
714.782	46542.62
715.125	46386.01
715.469	46358.44
715.812	46149.41
716.156	45967.27
716.499	45948.28
716.843	45981.5
717.186	45741.28
717.53	45834.84
717.873	45804.56
718.216	45767.72
718.559	45342.2
718.902	45033.05
719.246	45329.32
719.589	45063.56
719.932	44935.2
720.275	44917.35
720.617	44827.86
720.96	44786.28
721.303	44788.54
721.646	44741.76
721.989	44523.91
722.331	44577.47
722.674	44314.2
723.016	44454.54
723.359	44256.12
723.701	44249.12
724.044	44125.73
724.386	43818.4
724.729	43983.59
725.071	43948.79
725.413	43857.72
725.755	43836.47
726.097	43607.55
726.439	43451.17
726.782	43377.5
727.124	43589.25
727.465	43312.19
727.807	43329.82
728.149	43125.08
728.491	43040.56
728.833	43161.01
729.175	42911.75
729.516	42686.67
729.858	42883.05
730.199	42880.79
730.541	42654.58
730.882	42591.99
731.224	42623.17
731.565	42323.29
731.906	42287.14
732.248	42317.42
732.589	42212.56
732.93	42274.26
733.271	42189.51
733.612	42351.54
733.953	42390.18
734.294	42064.32
734.635	42064.77
734.976	42054.83
735.317	41885.79
735.658	41910.88
735.999	41865.23
736.339	41736.19
736.68	41938.9
737.021	41567.38
737.361	41556.53
737.702	41762.4
738.042	41558.34
738.383	41603.99
738.723	41516.31
739.063	41334.17
739.404	41410.78
739.744	41360.16
740.084	41228.86
740.424	41246.26
740.764	41092.37
741.104	41199.26
741.444	40957.91
741.784	40893.95
742.124	40970.11
742.464	40882.2
742.804	40834.75
743.143	40730.12
743.483	40727.86
743.823	40522.89
744.162	40516.56
744.502	40487.64
744.841	40372.61
745.181	40472.95
745.52	40258.94
745.86	40273.4
746.199	40240.64
746.538	40170.81
746.877	39963.58
747.216	40032.73
747.556	39768.11
747.895	39906.41
748.234	39611.5
748.573	39725.4
748.911	39550.26
749.25	39665.96
749.589	39424.16
749.928	39537.83
750.267	39411.96
750.605	39241.57
750.944	39205.64
751.283	39081.57
751.621	39125.19
751.96	39030.73
752.298	38874.35
752.636	38847.23
752.975	38613.33
753.313	38485.65
753.651	38697.4
753.989	38478.2
754.327	38493.79
754.666	38155.95
755.004	38243.63
755.342	38238.88
755.679	38244.08
756.017	37845.67
756.355	38031.2
756.693	37823.98
757.031	37935.61
757.368	37636.86
757.706	37510.99
758.044	37371.33
758.381	37451.33
758.719	37290.88
759.056	37241.85
759.394	37256.99
759.731	36894.28
760.068	36871.46
760.405	36816.09
760.743	36635.99
761.08	36670.11
761.417	36518.93
761.754	36370.23
762.091	36240.52
762.428	36066.51
762.765	35940.41
763.102	35934.08
763.438	35903.12
763.775	35596.69
764.112	35575.9
764.449	35532.74
764.785	35417.71
765.122	35090.49
765.458	35023.15
765.795	35103.14
766.131	35059.08
766.467	34958.97
766.804	34627
767.14	34593.33
767.476	34372.77
767.812	34238.08
768.148	34321.7
768.485	34144.07
768.821	33931.65
769.157	33752.9
769.492	33815.95
769.828	33696.85
770.164	33469.97
770.5	33339.8
770.836	33312.91
771.171	33083.31
771.507	33144.33
771.842	32925.57
772.178	32856.65
772.513	32701.17
772.849	32495.3
773.184	32377.57
773.519	32274.29
773.855	32203.11
774.19	32000.4
774.525	31918.14
774.86	31933.74
775.195	31863.91
775.53	31681.09
775.865	31406.74
776.2	31358.38
776.535	31120.42
776.87	31014.44
777.205	30977.6
777.539	30793.88
777.874	30766.99
778.209	30533.77
778.543	30483.15
778.878	30249.94
779.212	30339.65
779.547	29998.65
779.881	30056.95
780.215	29859.67
780.55	29783.74
780.884	29646.11
781.218	29628.03
781.552	29563.4
781.886	29231.43
782.22	29280.7
782.554	29094.04
782.888	28801.84
783.222	28837.77
783.556	28710.54
783.889	28556.42
784.223	28529.08
784.557	28387.39
784.89	28439.37
785.224	28259.03
785.557	28097
785.891	28074.63
786.224	27950.56
786.558	27973.39
786.891	27686.62
787.224	27718.25
787.557	27690.68
787.891	27418.83
788.224	27527.52
788.557	27478.49
788.89	27319.85
789.223	27423.35
789.556	27198.72
789.888	27025.17
790.221	26993.53
790.554	26760.99
790.887	26819.52
791.219	26737.49
791.552	26759.64
791.884	26570.71
792.217	26443.71
792.549	26376.14
792.882	26138.86
793.214	26201.46
793.546	26228.8
793.879	25882.6
794.211	25818.87
794.543	25993.1
794.875	25896.16
795.207	25941.8
795.539	25706.1
795.871	25736.16
796.203	25399.22
796.535	25406.68
796.867	25355.38
797.198	25410.07
797.53	25169.62
797.862	25118.32
798.193	25150.19
798.525	25025.22
798.856	25051.66
799.188	24832.23
799.519	24688.28
799.85	24560.6
800.182	24632.46
800.513	24498.9
800.844	24352.02
801.175	24519.69
801.506	24537.09
801.837	24374.39
802.168	24164.9
802.499	24197.89
802.83	24054.17
803.161	23980.5
803.491	24070.67
803.822	23944.12
804.153	23861.86
804.483	23651.92
804.814	23591.58
805.145	23622.77
805.475	23607.18
805.805	23580.28
806.136	23399.95
806.466	23379.16
806.796	23266.17
807.126	23032.5
807.457	23145.72
807.787	22915.67
808.117	22788.89
808.447	22913.63
808.777	22872.51
809.107	22730.14
809.436	22703.24
809.766	22740.08
810.096	22533.98
810.426	22530.14
810.755	22486.08
811.085	22348.23
811.414	22326.98
811.744	22118.63
812.073	22162.24
812.403	21994.56
812.732	21882.02
813.061	21848.13
813.39	21821.91
813.719	21816.71
814.049	21854.45
814.378	21628.02
814.707	21529.26
815.036	21460.11
815.365	21489.27
815.693	21293.34
816.022	21273.45
816.351	21026.45
816.68	20958.43
817.008	21101.03
817.337	20880.02
817.665	20866.01
817.994	20821.26
818.322	20817.64
818.651	20739.68
818.979	20636.41
819.307	20815.61
819.636	20549.86
819.964	20449.97
820.292	20508.5
820.62	20440.25
820.948	20349.18
821.276	20403.64
821.604	20325.45
821.932	20431.67
822.259	20501.49
822.587	20375.17
822.915	20283.42
823.243	20387.83
823.57	20322.74
823.898	20349.86
824.225	20240.71
824.553	20315.51
824.88	20370.42
825.207	20395.96
825.535	20284.78
825.862	20343.76
826.189	20273.48
826.516	20343.76
826.843	20450.65
827.17	20366.36
827.497	20338.34
827.824	20379.92
828.151	20451.55
828.478	20381.95
828.805	20376.07
829.131	20380.82
829.458	20320.26
829.785	20333.14
830.111	20353.48
830.438	20476.18
830.764	20290.65
831.09	20381.5
831.417	20249.3
831.743	20328.17
832.069	20434.6
832.395	20393.93
832.722	20357.09
833.048	20346.7
833.374	20358.45
833.7	20311.22
834.026	20312.12
834.351	20384.89
834.677	20447.03
835.003	20407.03
835.329	20411.55
835.654	20401.16
835.98	20358.67
836.306	20241.61
836.631	20197.77
836.956	20368.84
837.282	20281.39
837.607	20235.97
837.932	20132.01
838.258	20139.7
838.583	20121.62
838.908	20007.27
839.233	20089.3
839.558	19953.94
839.883	19997.78
840.208	19885.47
840.533	19882.3
840.858	19990.77
841.182	19933.83
841.507	19901.28
841.832	19747.16
842.156	19824.22
842.481	19732.48
842.805	19772.47
843.13	19634.4
843.454	19554.85
843.778	19582.87
844.103	19552.82
844.427	19405.7
844.751	19420.85
845.075	19272.37
845.399	19251.81
845.723	19173.85
846.047	19144.02
846.371	18969.78
846.695	18963.23
847.019	18847.98
847.343	18803.69
847.666	18641.2
847.99	18565.73
848.313	18553.75
848.637	18441.66
848.96	18397.82
849.284	18341.55
849.607	18172.52
849.931	18148.34
850.254	17986.53
850.577	17889.81
850.9	17804.62
851.223	17669.03
851.546	17672.87
851.869	17580.89
852.192	17532.53
852.515	17374.8
852.838	17360.79
853.161	17376.83
853.483	17188.36
853.806	17102.49
854.129	17134.13
854.451	17028.59
854.774	16860.01
855.096	16871.76
855.419	16699.79
855.741	16778.65
856.063	16546.8
856.385	16469.06
856.708	16493.92
857.03	16397.42
857.352	16494.82
857.674	16427.03
857.996	16355.16
858.318	16217.77
858.64	16202.17
858.961	16081.95
859.283	16081.05
859.605	15945.23
859.926	16060.26
860.248	15959.69
860.57	15868.4
860.891	15837.66
861.212	15742.07
861.534	15757.21
861.855	15618.91
862.176	15724.22
862.498	15625.24
862.819	15629.98
863.14	15548.63
863.461	15447.16
863.782	15399.03
864.103	15486.49
864.424	15311.35
864.745	15399.03
865.065	15296.21
865.386	15265.7
865.707	15264.57
866.027	15234.74
866.348	15095.54
866.668	15192.71
866.989	15173.95
867.309	15017.35
867.63	15148.64
867.95	15062.99
868.27	14998.81
868.59	15068.64
868.91	15011.7
869.23	15062.54
869.55	14925.82
869.87	15080.62
870.19	15038.59
870.51	15070.45
870.83	14961.08
871.15	14853.28
871.469	14973.05
871.789	14949.78
872.109	14877.91
872.428	14870.23
872.748	14934.18
873.067	14847.63
873.386	14892.6
873.706	14827.75
874.025	14752.04
874.344	14766.73
874.663	14770.12
874.982	14773.28
875.301	14712.49
875.62	14722.89
875.939	14732.16
876.258	14772.15
876.577	14620.29
876.896	14672.95
877.214	14669.56
877.533	14666.39
877.852	14610.12
878.17	14590.92
878.489	14696.9
878.807	14614.87
879.125	14531.48
879.444	14700.52
879.762	14584.81
880.08	14496.45
880.398	14490.81
880.716	14544.59
881.034	14495.33
881.352	14447.87
881.67	14442.45
881.988	14425.04
882.306	14387.08
882.624	14367.87
882.941	14364.03
883.259	14346.85
883.577	14282.68
883.894	14212.17
884.212	14220.76
884.529	14215.78
884.846	14136.24
885.164	14169.68
885.481	14079.97
885.798	14187.54
886.115	14065.05
886.432	14061.66
886.75	14029.8
887.067	14010.37
887.383	13955.45
887.7	14005.62
888.017	13934.44
888.334	13978.05
888.651	13924.72
888.967	13831.39
889.284	13830.48
889.6	13765.63
889.917	13616.03
890.233	13731.28
890.55	13598.17
890.866	13605.18
891.182	13588.91
891.498	13530.15
891.815	13550.49
892.131	13479.98
892.447	13405.18
892.763	13431.4
893.079	13342.36
893.395	13223.04
893.71	13255.81
894.026	13150.05
894.342	13259.88
894.657	13103.72
894.973	13075.02
895.289	13058.75
895.604	13041.58
895.92	13002.26
896.235	12839.32
896.55	12859.44
896.865	12784.18
897.181	12733.56
897.496	12703.28
897.811	12595.94
898.126	12564.3
898.441	12498.09
898.756	12463.97
899.071	12446.34
899.386	12373.35
899.7	12107.14
900.015	12231.43
900.33	12143.07
900.644	12110.76
900.959	12106.24
901.273	12067.37
901.588	11943.98
901.902	11868.73
902.216	11834.83
902.531	11812.91
902.845	11753.02
903.159	11673.25
903.473	11639.58
903.787	11562.97
904.101	11494.95
904.415	11460.83
904.729	11417.44
905.042	11353.71
905.356	11325.01
905.67	11276.2
905.984	11217.45
906.297	11213.83
906.611	11106.94
906.924	11161.63
907.237	11016.09
907.551	10985.13
907.864	10917.34
908.177	10803.22
908.491	10793.95
908.804	10776.1
909.117	10696.1
909.43	10664.69
909.743	10627.18
910.056	10542.89
910.368	10492.27
910.681	10397.81
910.994	10450.69
911.307	10299.73
911.619	10264.25
911.932	10306.06
912.244	10218.38
912.557	10234.19
912.869	10148.32
913.181	10105.16
913.494	10046.18
913.806	10029.91
914.118	9954.88
914.43	9944.48
914.742	9850.02
915.054	9864.71
915.366	9895.45
915.678	9787.65
915.99	9706.98
916.302	9707.88
916.613	9685.06
916.925	9664.04
917.236	9669.69
917.548	9530.03
917.859	9513.08
918.171	9551.05
918.482	9412.07
918.794	9392.41
919.105	9367.1
919.416	9270.6
919.727	9243.26
920.038	9260.21
920.349	9141.12
920.66	9113.09
920.971	9159.42
921.282	9136.6
921.593	9035.81
921.903	9040.1
922.214	9009.82
922.525	8968.92
922.835	8838.3
923.146	8842.37
923.456	8870.84
923.767	8799.88
924.077	8832.65
924.387	8773.22
924.697	8739.77
925.008	8650.51
925.318	8743.84
925.628	8688.7
925.938	8541.81
926.248	8514.24
926.558	8445.99
926.867	8420
927.177	8446.67
927.487	8323.96
927.796	8303.17
928.106	8304.53
928.416	8374.58
928.725	8232.66
929.034	8172.78
929.344	8244.42
929.653	8138.43
929.962	8068.38
930.271	8096.17
930.581	8074.48
930.89	8040.81
931.199	7958.32
931.508	7988.15
931.817	7904.99
932.125	7853.01
932.434	7870.19
932.743	7780.47
933.051	7810.53
933.36	7730.08
933.669	7669.74
933.977	7708.16
934.286	7676.3
934.594	7653.47
934.902	7608.27
935.21	7578.67
935.519	7566.02
935.827	7562.63
936.135	7505.9
936.443	7370.54
936.751	7398.79
937.059	7428.62
937.367	7371.9
937.674	7309.3
937.982	7279.47
938.29	7289.41
938.597	7289.19
938.905	7203.54
939.213	7153.37
939.52	7213.26
939.827	7182.3
940.135	7138.46
940.442	7123.99
940.749	7093.94
941.056	7020.49
941.363	6990.66
941.67	6982.53
941.977	6942.76
942.284	6853.94
942.591	6873.6
942.898	6873.6
943.205	6777.56
943.511	6780.27
943.818	6783.66
944.125	6687.85
944.431	6661.63
944.738	6703.67
945.044	6665.02
945.35	6649.2
945.657	6590.67
945.963	6566.72
946.269	6573.95
946.575	6498.93
946.881	6475.87
947.187	6489.66
947.493	6445.37
947.799	6412.15
948.105	6369.66
948.41	6303
948.716	6384.58
949.022	6307.97
949.327	6320.4
949.633	6266.61
949.938	6204.7
950.244	6176.45
950.549	6165.37
950.854	6167.86
951.16	6081.08
951.465	6039.73
951.77	6034.08
952.075	6015.55
952.38	5939.39
952.685	5942.78
952.99	5888.55
953.294	5906.4
953.599	5839.96
953.904	5804.03
954.209	5784.14
954.513	5776.68
954.818	5795.44
955.122	5687.65
955.426	5709.79
955.731	5632.28
956.035	5607.88
956.339	5627.99
956.643	5563.58
956.948	5595.67
957.252	5497.37
957.556	5535.56
957.86	5449.91
958.163	5520.42
958.467	5463.02
958.771	5425.51
959.075	5479.29
959.378	5369.01
959.682	5355
959.985	5308
960.289	5277.94
960.592	5289.92
960.896	5258.51
961.199	5268.22
961.502	5227.55
961.805	5199.75
962.108	5168.34
962.411	5143.03
962.714	5098.51
963.017	5056.25
963.32	5081.56
963.623	5035.01
963.926	5049.92
964.228	5009.7
964.531	4964.28
964.833	5002.47
965.136	4942.58
965.438	4921.57
965.741	4838.4
966.043	4886.76
966.345	4838.4
966.648	4856.03
966.95	4818.74
967.252	4771.06
967.554	4790.27
967.856	4783.94
968.158	4750.27
968.46	4710.95
968.761	4751.17
969.063	4703.27
969.365	4641.35
969.666	4632.31
969.968	4652.19
970.269	4548.92
970.571	4576.26
970.872	4549.6
971.174	4556.6
971.475	4530.62
971.776	4465.76
972.077	4483.84
972.378	4436.15
972.679	4442.71
972.98	4395.03
973.281	4381.01
973.582	4348.7
973.883	4292.43
974.183	4284.97
974.484	4290.17
974.785	4285.2
975.085	4255.59
975.386	4247.01
975.686	4216.95
975.986	4193.9
976.287	4174.01
976.587	4082.27
976.887	4109.16
977.187	4047.01
977.487	4082.27
977.787	4056.05
978.087	4004.08
978.387	4036.84
978.687	3964.3
978.987	3980.12
979.286	3960.23
979.586	3956.39
979.885	3938.99
980.185	3923.17
980.484	3859.45
980.784	3826.68
981.083	3823.06
981.382	3863.06
981.682	3807.92
981.981	3810.86
982.28	3747.81
982.579	3718.21
982.878	3718.66
983.177	3706.23
983.475	3728.15
983.774	3666.91
984.073	3628.49
984.372	3593.01
984.67	3607.7
984.969	3620.13
985.267	3589.17
985.566	3536.74
985.864	3576.74
986.162	3524.77
986.461	3503.75
986.759	3499.68
987.057	3455.62
987.355	3437.08
987.653	3473.24
987.951	3460.36
988.249	3416.29
988.547	3430.08
988.844	3375.39
989.142	3372
989.44	3374.94
989.737	3365.45
990.035	3341.95
990.332	3324.09
990.63	3311.66
990.927	3300.37
991.224	3258.78
991.521	3287.03
991.819	3264.89
992.116	3259.69
992.413	3227.15
992.71	3183.08
993.006	3222.18
993.303	3145.57
993.6	3134.95
993.897	3176.3
994.193	3122.52
994.49	3082.74
994.787	3115.51
995.083	3096.75
995.379	3043.2
995.676	3039.13
995.972	3038.23
996.268	3027.38
996.565	2995.06
996.861	2967.04
997.157	2981.73
997.453	2939.24
997.749	2929.98
998.044	2915.06
998.34	2903.31
998.636	2870.55
998.932	2875.29
999.227	2889.98
999.523	2874.61
999.818	2839.13
1000.114	2817.89
1000.409	2788.97
1000.704	2819.47
1001	2827.84
1001.295	2746.48
1001.59	2755.75
1001.885	2718.01
1002.18	2718.69
1002.475	2699.93
1002.77	2686.14
1003.065	2679.14
1003.359	2666.48
1003.654	2647.73
1003.949	2634.39
1004.243	2637.33
1004.538	2623.55
1004.832	2594.17
1005.127	2546.71
1005.421	2541.97
1005.715	2533.61
1006.009	2555.53
1006.304	2519.82
1006.598	2527.73
1006.892	2480.27
1007.186	2450.9
1007.48	2485.47
1007.773	2468.3
1008.067	2418.13
1008.361	2399.15
1008.655	2385.81
1008.948	2382.2
1009.242	2404.8
1009.535	2389.43
1009.829	2343.55
1010.122	2329.09
1010.415	2329.09
1010.708	2327.06
1011.001	2310.33
1011.295	2264.91
1011.588	2280.05
1011.881	2236.21
1012.173	2277.12
1012.466	2276.89
1012.759	2240.51
1013.052	2230.11
1013.344	2216.78
1013.637	2176.55
1013.93	2153.95
1014.222	2186.5
1014.514	2133.62
1014.807	2109.44
1015.099	2145.37
1015.391	2125.48
1015.683	2136.78
1015.976	2076.89
1016.268	2055.88
1016.56	2070.34
1016.851	2043.68
1017.143	2045.48
1017.435	2026.95
1017.727	1985.6
1018.018	1976.56
1018.31	1960.29
1018.602	1983.79
1018.893	1977.01
1019.185	1949.67
1019.476	1942.21
1019.767	1932.72
1020.058	1894.07
1020.35	1927.07
1020.641	1875.77
1020.932	1866.73
1021.223	1869.22
1021.514	1841.42
1021.804	1819.73
1022.095	1809.1
1022.386	1785.15
1022.677	1815.21
1022.967	1778.6
1023.258	1770.24
1023.548	1798.03
1023.839	1738.82
1024.129	1735.43
1024.419	1713.29
1024.709	1703.35
1025	1685.04
1025.29	1668.32
1025.58	1697.92
1025.87	1651.59
1026.16	1622.67
1026.449	1628.54
1026.739	1647.75
1027.029	1624.03
1027.319	1624.7
1027.608	1600.07
1027.898	1592.39
1028.187	1578.38
1028.477	1552.61
1028.766	1544.25
1029.055	1520.98
1029.344	1533.86
1029.634	1517.36
1029.923	1511.03
1030.212	1487.98
1030.501	1488.44
1030.79	1447.53
1031.078	1484.59
1031.367	1468.77
1031.656	1414.09
1031.945	1417.02
1032.233	1441.88
1032.522	1431.04
1032.81	1413.64
1033.099	1355.78
1033.387	1382.68
1033.675	1366.63
1033.963	1367.99
1034.251	1342.9
1034.54	1363.92
1034.828	1329.34
1035.116	1321.89
1035.403	1300.42
1035.691	1321.89
1035.979	1289.8
1036.267	1291.38
1036.554	1279.85
1036.842	1277.82
1037.129	1244.15
1037.417	1255
1037.704	1236.92
1037.992	1222.23
1038.279	1238.27
1038.566	1216.58
1038.853	1216.58
1039.14	1216.58
