Data from White_paper_FLMS001491_061.txt Node
Date: Tue Feb 07 10:35:23 GMT 2017
User: dcchb
Spectrometer: FLMS00149
Trigger mode: 0
Integration Time (sec): 2.000000E-2
Scans to average: 10
Electric dark correction enabled: true
Nonlinearity correction enabled: false
Boxcar width: 0
XAxis mode: Wavelengths
Number of Pixels in Spectrum: 2048
>>>>>Begin Spectral Data<<<<<
341.393	-2.81
341.776	-2.81
342.16	-2.81
342.543	-75.35
342.927	-77.61
343.31	-81
343.693	-83.94
344.077	-57.72
344.46	-66.54
344.843	-41
345.226	-37.61
345.61	-27.22
345.993	-27.67
346.376	-2.36
346.759	1.48
347.142	31.99
347.525	25.66
347.908	60.46
348.291	84.87
348.674	108.15
349.057	112.44
349.44	124.87
349.823	129.39
350.206	163.29
350.588	230.86
350.971	223.85
351.354	263.4
351.737	240.8
352.119	283.28
352.502	303.17
352.884	302.27
353.267	314.02
353.65	307.46
354.032	350.63
354.414	335.03
354.797	326.22
355.179	347.24
355.562	351.08
355.944	369.61
356.326	347.69
356.709	365.99
357.091	362.15
357.473	367.35
357.855	382.49
358.238	369.61
358.62	346.33
359.002	381.13
359.384	398.08
359.766	377.07
360.148	368.25
360.53	372.09
360.912	361.93
361.294	361.93
361.676	367.35
362.057	388.37
362.439	370.96
362.821	375.26
363.203	359.44
363.584	358.54
363.966	363.96
364.348	388.59
364.729	358.76
365.111	363.73
365.493	368.03
365.874	368.93
366.256	376.16
366.637	354.02
367.019	361.7
367.4	354.24
367.781	352.43
368.163	360.57
368.544	361.7
368.925	367.58
369.306	373.9
369.688	350.63
370.069	354.02
370.45	391.53
370.831	362.38
371.212	355.82
371.593	344.3
371.974	381.59
372.355	372.77
372.736	370.74
373.117	383.39
373.498	377.52
373.879	381.59
374.26	374.81
374.641	373
375.021	363.73
375.402	372.32
375.783	363.06
376.163	387.91
376.544	379.78
376.925	391.08
377.305	386.11
377.686	386.11
378.066	380.23
378.447	383.17
378.827	439.66
379.208	413.9
379.588	391.76
379.968	399.21
380.349	406.44
380.729	410.06
381.109	419.55
381.489	422.04
381.87	426.33
382.25	388.14
382.63	422.49
383.01	415.26
383.39	434.47
383.77	439.89
384.15	429.72
384.53	438.99
384.91	422.26
385.29	443.28
385.67	437.86
386.049	466.33
386.429	449.61
386.809	462.49
387.189	463.39
387.568	454.8
387.948	467.23
388.328	502.26
388.707	493.22
389.087	495.93
389.466	492.54
389.846	487.8
390.225	505.65
390.605	500.45
390.984	525.54
391.363	509.49
391.743	491.41
392.122	528.47
392.501	530.06
392.881	528.7
393.26	484.86
393.639	537.29
394.018	527.57
394.397	536.61
394.776	524.63
395.155	555.59
395.534	560.56
395.913	554.69
396.292	572.32
396.671	582.03
397.05	608.25
397.429	606.21
397.808	612.09
398.186	609.15
398.565	608.47
398.944	604.41
399.323	630.17
399.701	650.96
400.08	645.76
400.458	631.52
400.837	624.29
401.215	657.28
401.594	658.64
401.972	657.51
402.351	677.62
402.729	705.65
403.107	695.02
403.486	739.32
403.864	717.17
404.242	728.7
404.62	731.18
404.999	758.07
405.377	763.95
405.755	791.29
406.133	805.98
406.511	824.29
406.889	822.03
407.267	870.84
407.645	880.1
408.023	903.83
408.401	903.61
408.779	929.59
409.156	965.3
409.534	954.68
409.912	1000.1
410.29	1020.21
410.667	1070.61
411.045	1069.7
411.422	1116.26
411.8	1152.64
412.178	1150.83
412.555	1169.36
412.933	1192.64
413.31	1245.29
413.687	1244.16
414.065	1307.89
414.442	1316.48
414.819	1320.32
415.197	1386.08
415.574	1415.23
415.951	1438.73
416.328	1432.18
416.705	1490.71
417.082	1490.26
417.46	1530.71
417.837	1575.9
418.214	1619.29
418.591	1602.34
418.967	1623.59
419.344	1652.74
419.721	1670.14
420.098	1695
420.475	1756.47
420.852	1768.67
421.228	1797.14
421.605	1828.55
421.982	1833.3
422.358	1862
422.735	1895.22
423.111	1891.6
423.488	1915.33
423.864	1963.01
424.241	1971.83
424.617	2045.5
424.994	2034.2
425.37	2037.36
425.746	2074.42
426.123	2109
426.499	2138.83
426.875	2173.63
427.251	2221.99
427.627	2244.81
428.003	2280.52
428.379	2291.82
428.756	2330.01
429.132	2383.57
429.507	2397.13
429.883	2430.35
430.259	2470.8
430.635	2525.26
431.011	2565.94
431.387	2610
431.763	2666.5
432.138	2664.69
432.514	2684.8
432.89	2727.96
433.265	2781.07
433.641	2849.54
434.016	2884.35
434.392	2922.08
434.767	2945.59
435.143	2981.74
435.518	2986.49
435.894	3058.13
436.269	3106.94
436.644	3147.16
437.02	3196.43
437.395	3197.11
437.77	3239.59
438.145	3302.41
438.52	3330.89
438.895	3377.67
439.271	3401.85
439.646	3462.41
440.021	3508.74
440.395	3485.69
440.77	3458.12
441.145	3500.37
441.52	3572.91
441.895	3590.54
442.27	3576.3
442.645	3652.69
443.019	3714.83
443.394	3711.67
443.769	3719.35
444.143	3715.06
444.518	3794.15
444.892	3780.37
445.267	3827.15
445.641	3821.95
446.016	3850.87
446.39	3906.47
446.764	3886.35
447.139	3911.44
447.513	3981.27
447.887	4005.67
448.262	3968.61
448.636	4066.46
449.01	4091.77
449.384	4102.62
449.758	4154.82
450.132	4222.61
450.506	4232.56
450.88	4230.52
451.254	4223.52
451.628	4362.5
452.002	4342.61
452.376	4334.02
452.75	4394.14
453.123	4470.74
453.497	4538.99
453.871	4528.82
454.244	4629.38
454.618	4709.61
454.992	4709.16
455.365	4743.73
455.739	4831.64
456.112	4904.18
456.486	4968.13
456.859	4977.17
457.232	5112.31
457.606	5063.95
457.979	5172.42
458.352	5269.14
458.725	5323.38
459.099	5343.26
459.472	5455.12
459.845	5498.29
460.218	5561.34
460.591	5578.74
460.964	5607.89
461.337	5758.17
461.71	5905.06
462.083	5914.77
462.456	5887.2
462.829	5997.71
463.201	6118.16
463.574	6097.82
463.947	6230.7
464.32	6306.4
464.692	6399.51
465.065	6382.56
465.438	6505.72
465.81	6616.22
466.183	6659.16
466.555	6807.86
466.928	6857.57
467.3	6891.92
467.672	7025.93
468.045	7145.93
468.417	7217.11
468.789	7245.59
469.161	7318.35
469.534	7492.36
469.906	7636.76
470.278	7680.15
470.65	7811.45
471.022	7912.01
471.394	8063.87
471.766	8129.4
472.138	8250.31
472.51	8431.54
472.882	8558.55
473.253	8627.47
473.625	8710.63
473.997	8911.08
474.369	9016.16
474.74	9090.96
475.112	9276.04
475.484	9475.81
475.855	9575.02
476.227	9718.97
476.598	9912.18
476.97	10052.07
477.341	10301.78
477.713	10344.49
478.084	10450.47
478.455	10667.42
478.827	10761.65
479.198	11155.77
479.569	11225.82
479.94	11474.63
480.311	11600.73
480.682	11870.55
481.053	12111.9
481.424	12314.38
481.795	12410.2
482.166	12572.23
482.537	12731.32
482.908	13025.32
483.279	13128.37
483.65	13346.44
484.021	13604.97
484.391	13822.81
484.762	13794.11
485.133	13937.39
485.503	14163.37
485.874	14454.89
486.244	14651.49
486.615	14895.78
486.985	15020.98
487.356	15278.37
487.726	15469.55
488.097	15719.04
488.467	15837.9
488.837	16147.5
489.207	16337.55
489.578	16575.74
489.948	16717.65
490.318	16848.95
490.688	16963.75
491.058	17256.85
491.428	17621.36
491.798	17671.75
492.168	17901.58
492.538	17930.96
492.908	18227.9
493.278	18540.66
493.648	18496.36
494.017	18843.25
494.387	18837.82
494.757	19045.5
495.126	19273.29
495.496	19326.85
495.866	19533.17
496.235	19727.97
496.605	19892.71
496.974	19956.44
497.344	20143.78
497.713	20308.75
498.082	20453.37
498.452	20655.86
498.821	20793.7
499.19	20733.37
499.559	20904.66
499.928	21164.32
500.298	21288.15
500.667	21488.15
501.036	21432.78
501.405	21713.68
501.774	21705.09
502.143	22011.3
502.512	22153.22
502.88	22342.82
503.249	22267.11
503.618	22427.33
503.987	22435.02
504.356	22639.76
504.724	22870.71
505.093	22950.94
505.462	23086.75
505.83	23259.18
506.199	23378.95
506.567	23666.62
506.936	23578.94
507.304	23964.69
507.672	24053.28
508.041	24063
508.409	24352.93
508.777	24434.06
509.145	24689.87
509.514	24630.44
509.882	24960.15
510.25	25095.74
510.618	25094.16
510.986	25205.11
511.354	25493.92
511.722	25765.33
512.09	25943.63
512.458	25898.66
512.826	26240.12
513.193	26267.46
513.561	26302.94
513.929	26741.57
514.297	26847.1
514.664	26988.57
515.032	27078.29
515.4	27296.81
515.767	27483.25
516.135	27655.67
516.502	27620.42
516.869	28081.65
517.237	28089.11
517.604	28147.41
517.972	28358.03
518.339	28550.11
518.706	28731.8
519.073	28799.6
519.44	29002.08
519.808	29219.92
520.175	29347.38
520.542	29723.19
520.909	29902.62
521.276	29870.98
521.643	30288.14
522.009	30260.57
522.376	30583.28
522.743	30812.65
523.11	31034.57
523.477	31351.85
523.843	31562.24
524.21	31799.07
524.577	32017.59
524.943	32201.54
525.31	32394.98
525.676	32679.72
526.043	32730.57
526.409	33051.24
526.776	33338.69
527.142	33398.34
527.508	33620.71
527.874	33905.9
528.241	33982.28
528.607	34044.43
528.973	34573.68
529.339	34434.93
529.705	34978.42
530.071	34987.91
530.437	35292.53
530.803	35408.91
531.169	35601
531.535	35645.29
531.901	35803.03
532.267	35971.61
532.632	36309
532.998	36355.78
533.364	36571.82
533.73	36469.45
534.095	37044.58
534.461	37074.18
534.826	37155.99
535.192	37336.55
535.557	37546.94
535.923	37633.71
536.288	37832.13
536.653	37900.6
537.019	38012.23
537.384	38108.96
537.749	38362.51
538.114	38427.14
538.479	38514.82
538.845	38810.86
539.21	38832.55
539.575	38995.26
539.94	38973.79
540.305	39342.6
540.67	39209.49
541.034	39431.63
541.399	39692.87
541.764	39871.4
542.129	40035.01
542.494	40082.24
542.858	40298.95
543.223	40317.49
543.587	40628.89
543.952	40509.12
544.316	40590.25
544.681	40616.01
545.045	40921.99
545.41	41136.22
545.774	41178.03
546.138	41204.69
546.503	41366.95
546.867	41371.92
547.231	41760.16
547.595	41912.47
547.959	41901.85
548.324	42060.04
548.688	42175.06
549.052	42235.17
549.416	42411.44
549.779	42496.18
550.143	42650.98
550.507	42938.66
550.871	43093.01
551.235	42994.93
551.599	43311.53
551.962	43385.43
552.326	43513.56
552.689	43762.59
553.053	43638.3
553.417	43639.43
553.78	44298.62
554.143	44122.36
554.507	44483.48
554.87	44374.33
555.234	44875.56
555.597	44592.63
555.96	44859.96
556.323	45139.73
556.686	45020.19
557.05	45431.25
557.413	45553.28
557.776	45548.31
558.139	45865.36
558.502	45829.88
558.865	45913.5
559.228	46245.01
559.59	46343.99
559.953	46425.8
560.316	46759.12
560.679	46850.19
561.041	47017.2
561.404	47115.72
561.767	47479.78
562.129	47369.5
562.492	47748.93
562.854	47767.01
563.217	47890.85
563.579	48004.74
563.941	48143.95
564.304	48461.23
564.666	48752.52
565.028	48730.37
565.39	48794.55
565.753	49078.61
566.115	49270.24
566.477	49345.5
566.839	49447.19
567.201	49724.7
567.563	49734.41
567.925	49888.53
568.287	50008.76
568.648	50008.08
569.01	50157.45
569.372	50535.97
569.734	50347.96
570.095	50630.21
570.457	50775.52
570.819	50777.55
571.18	50834.04
571.542	51171.44
571.903	51142.06
572.265	51269.06
572.626	51276.97
572.987	51483.97
573.349	51594.25
573.71	51638.09
574.071	51716.73
574.432	51932.55
574.794	52049.83
575.155	52060.23
575.516	51987.91
575.877	52144.74
576.238	52324.18
576.599	52441.69
576.96	52389.94
577.32	52476.04
577.681	52594.68
578.042	52703.6
578.403	52729.36
578.763	52758.97
579.124	52877.61
579.485	53011.39
579.845	53059.07
580.206	52986.3
580.566	53031.05
580.927	53102.01
581.287	53306.75
581.648	53077.38
582.008	53344.04
582.368	53305.39
582.728	53345.84
583.089	53302.45
583.449	53272.4
583.809	53389.68
584.169	53426.29
584.529	53441.66
584.889	53634.42
585.249	53480.53
585.609	53418.38
585.969	53541.09
586.329	53552.17
586.688	53567.98
587.048	53590.36
587.408	53531.6
587.768	53614.31
588.127	53653.41
588.487	53591.49
588.846	53782.44
589.206	53672.61
589.565	53520.08
589.925	53773.63
590.284	53666.74
590.643	53757.13
591.003	53884.13
591.362	53936.56
591.721	53796.9
592.08	53821.76
592.44	53950.8
592.799	53981.98
593.158	53921.2
593.517	53900.63
593.876	53975.21
594.235	53906.96
594.593	54022.44
594.952	54008.42
595.311	53937.24
595.67	54061.53
596.029	54161.41
596.387	54259.49
596.746	54329.77
597.104	54171.81
597.463	54123.68
597.822	54292.94
598.18	54114.64
598.538	54198.93
598.897	54334.07
599.255	54090.68
599.613	54527.28
599.972	54412.48
600.33	54438.02
600.688	54278.93
601.046	54497.9
601.404	54583.32
601.762	54485.7
602.12	54634.17
602.478	54612.48
602.836	54575.87
603.194	54437.34
603.552	54589.88
603.91	54432.59
604.268	54680.95
604.625	54473.27
604.983	54654.28
605.341	54573.61
605.698	54739.48
606.056	54744
606.413	54743.09
606.771	54761.85
607.128	54861.28
607.485	54732.25
607.843	54726.37
608.2	54932.92
608.557	54952.35
608.914	54897.44
609.272	55049.08
609.629	55070.32
609.986	55146.7
610.343	54986.25
610.7	55175.17
611.057	55148.96
611.414	55089.07
611.771	55187.15
612.127	55350.31
612.484	55252.69
612.841	55338.79
613.198	55211.33
613.554	55251.33
613.911	55416.07
614.267	55369.74
614.624	55287.71
614.98	55321.61
615.337	55499.46
615.693	55547.14
616.05	55471.66
616.406	55639.12
616.762	55489.29
617.118	55455.62
617.475	55488.16
617.831	55585.56
618.187	55665.33
618.543	55630.53
618.899	55739.9
619.255	55735.16
619.611	55668.72
619.967	55753.69
620.323	55801.82
620.678	55723.86
621.034	55625.78
621.39	55691.54
621.746	55560.02
622.101	55962.95
622.457	55694.03
622.812	55802.28
623.168	55839.79
623.523	55752.11
623.879	55935.15
624.234	55649.96
624.589	55790.98
624.945	55856.29
625.3	55782.84
625.655	55775.16
626.01	55837.53
626.365	55846.12
626.72	55811.09
627.075	55852.67
627.43	55858.55
627.785	55749.62
628.14	55842.73
628.495	55871.43
628.85	55779.23
629.205	55784.2
629.559	55854.48
629.914	55735.38
630.269	55744.65
630.623	55788.72
630.978	55675.05
631.332	55801.6
631.687	55837.98
632.041	55721.37
632.396	55885.44
632.75	55631.21
633.104	55654.03
633.459	55687.48
633.813	55658.78
634.167	55604.77
634.521	55572
634.875	55575.16
635.229	55585.11
635.583	55499.01
635.937	55556.41
636.291	55535.39
636.645	55510.98
636.999	55493.36
637.352	55522.74
637.706	55343.08
638.06	55478.89
638.413	55414.72
638.767	55392.12
639.121	55423.08
639.474	55254.95
639.828	55342.4
640.181	55392.12
640.534	55329.29
640.888	55287.94
641.241	55183.53
641.594	55184.44
641.947	55367.03
642.301	55214.49
642.654	55234.61
643.007	55205
643.36	55263.76
643.713	55209.52
644.066	55249.07
644.419	55082.52
644.771	54836.65
645.124	54612.7
645.477	54631.91
645.83	54445.02
646.182	54357.79
646.535	54203.45
646.888	54349.43
647.24	54229.21
647.593	54371.8
647.945	54312.37
648.298	54226.5
648.65	54137.46
649.002	54140.17
649.355	54170
649.707	54160.74
650.059	54249.55
650.411	54693.6
650.763	54682.53
651.115	54864.45
651.467	54852.47
651.819	54747.16
652.171	54693.6
652.523	54717.11
652.875	54712.13
653.227	54595.98
653.578	54812.25
653.93	54693.6
654.282	54586.04
654.633	54592.14
654.985	54628.75
655.337	54650.44
655.688	54640.72
656.039	54714.39
656.391	54415.87
656.742	54455.42
657.094	54518.24
657.445	54575.87
657.796	54463.1
658.147	54503.55
658.498	54420.39
658.849	54512.59
659.2	54517.11
659.551	54322.54
659.902	54545.36
660.253	54457.9
660.604	54400.96
660.955	54341.98
661.306	54459.26
661.656	54396.21
662.007	54409.32
662.358	54362.77
662.708	54313.28
663.059	54348.08
663.409	54137.46
663.76	54372.03
664.11	54371.35
664.461	54412.03
664.811	54332.03
665.161	54382.65
665.511	54141.3
665.862	54254.07
666.212	54278.25
666.562	54383.78
666.912	54245.71
667.262	54168.65
667.612	54194.86
667.962	54279.15
668.312	54212.94
668.662	54241.64
669.011	54232.15
669.361	53984.24
669.711	54059.95
670.06	54094.98
670.41	53992.83
670.76	53875.32
671.109	54098.14
671.459	54050.46
671.808	53915.09
672.157	53935.88
672.507	53786.74
672.856	53856.56
673.205	53834.42
673.554	53939.5
673.904	53742.67
674.253	53949.9
674.602	53873.51
674.951	53383.58
675.3	53200.31
675.649	53663.57
675.998	53688.88
676.346	53634.88
676.695	53734.08
677.044	53493.64
677.393	53595.78
677.741	53698.6
678.09	53530.7
678.438	53431.94
678.787	53485.05
679.135	53499.74
679.484	53146.53
679.832	53335
680.181	53166.64
680.529	53290.93
680.877	53106.08
681.225	53081.9
681.573	53156.02
681.922	52976.81
682.27	52932.75
682.618	52877.83
682.966	52797.83
683.314	52994.89
683.661	52792.41
684.009	52632.42
684.357	52634
684.705	52499.76
685.053	52518.97
685.4	52582.7
685.748	52458.18
686.095	52371.63
686.443	52215.25
686.79	52181.81
687.138	52192.2
687.485	52213.67
687.832	52081.7
688.18	52020
688.527	51749.27
688.874	51887.12
689.221	51784.98
689.568	51712.44
689.915	51593.57
690.262	51544.53
690.609	51423.63
690.956	51379.57
691.303	51378.44
691.65	51138.9
691.997	51217.76
692.344	50987.71
692.69	50932.8
693.037	50948.84
693.383	50690.55
693.73	50833.37
694.077	50496.2
694.423	50589.08
694.769	50451
695.116	50326.94
695.462	50377.11
695.808	50211.01
696.155	50235.64
696.501	50063.44
696.847	49830.46
697.193	49784.13
697.539	49886.73
697.885	49620.74
698.231	49546.17
698.577	49384.59
698.923	49470.92
699.269	49243.35
699.614	48984.83
699.96	48943.02
700.306	49120.42
700.651	48911.16
700.997	48825.96
701.342	48698.73
701.688	48714.78
702.033	48425.52
702.379	48490.83
702.724	48440.44
703.069	48507.55
703.415	47952.09
703.76	47974.68
704.105	47865.76
704.45	47838.64
704.795	47648.37
705.14	47568.37
705.485	47582.83
705.83	47296.96
706.175	47389.39
706.52	47252.22
706.865	47151.66
707.209	47157.76
707.554	46937.42
707.899	47148.49
708.243	46743.98
708.588	46747.15
708.932	46507.15
709.277	46543.99
709.621	46612.91
709.966	46298.8
710.31	46345.8
710.654	45971.8
710.998	46227.39
711.342	46200.49
711.687	45856.77
712.031	45946.26
712.375	45821.07
712.719	45791.24
713.063	45671.47
713.407	45775.19
713.75	45543.11
714.094	45520.29
714.438	45260.41
714.782	45304.25
715.125	45184.48
715.469	45233.97
715.812	44889.79
716.156	44881.43
716.499	44793.3
716.843	44874.43
717.186	44637.37
717.53	44766.63
717.873	44792.17
718.216	44678.27
718.559	44361.22
718.902	44197.84
719.246	44357.38
719.589	44171.85
719.932	44091.62
720.275	43910.16
720.617	44060.21
720.96	43886.88
721.303	43949.03
721.646	43842.59
721.989	43549.04
722.331	43725.98
722.674	43611.41
723.016	43607.57
723.359	43438.31
723.701	43468.81
724.044	43247.13
724.386	43021.59
724.729	43248.48
725.071	43173
725.413	43070.41
725.755	42966.68
726.097	42888.26
726.439	42744.54
726.782	42650.53
727.124	42920.35
727.465	42685.78
727.807	42583.41
728.149	42537.99
728.491	42430.88
728.833	42533.02
729.175	42394.49
729.516	42319.01
729.858	42117.44
730.199	42140.04
730.541	42229.98
730.882	42122.86
731.224	42075.4
731.565	41962.87
731.906	41822.53
732.248	42000.83
732.589	41692.82
732.93	41700.5
733.271	41673.16
733.612	41670.22
733.953	41825.24
734.294	41557.45
734.635	41273.39
734.976	41468.64
735.317	41320.17
735.658	41302.32
735.999	41300.51
736.339	41245.14
736.68	41241.08
737.021	41063.45
737.361	41019.61
737.702	41105.26
738.042	40994.08
738.383	40818.71
738.723	40838.6
739.063	40809.22
739.404	40798.6
739.744	40646.06
740.084	40597.93
740.424	40620.3
740.764	40499.18
741.104	40599.96
741.444	40504.15
741.784	40312.97
742.124	40371.27
742.464	40310.25
742.804	40218.5
743.143	40185.51
743.483	40131.73
743.823	39894.9
744.162	39887.89
744.502	40076.81
744.841	39924.28
745.181	39944.39
745.52	39776.71
745.86	39757.73
746.199	39760.66
746.538	39516.15
746.877	39639.31
747.216	39719.08
747.556	39360.9
747.895	39538.07
748.234	39339.43
748.573	39322.03
748.911	39357.06
749.25	39304.63
749.589	39040.23
749.928	39081.36
750.267	39082.72
750.605	39012.21
750.944	38903.28
751.283	38784.42
751.621	38839.33
751.96	38510.3
752.298	38593.69
752.636	38606.34
752.975	38453.13
753.313	38223.3
753.651	38414.03
753.989	38238.67
754.327	38154.38
754.666	38071.67
755.004	37929.98
755.342	38009.75
755.679	37919.36
756.017	37781.96
756.355	37763.65
756.693	37633.71
757.031	37721.17
757.368	37418.13
757.706	37569.08
758.044	37279.82
758.381	37247.74
758.719	37127.06
759.056	37181.07
759.394	36978.14
759.731	36713.06
760.068	36625.6
760.405	36739.05
760.743	36443.46
761.08	36621.99
761.417	36368.44
761.754	36302.45
762.091	36175.9
762.428	36097.94
762.765	35924.83
763.102	36006.64
763.438	35724.84
763.775	35627.66
764.112	35639.19
764.449	35793.08
764.785	35330.27
765.122	35215.7
765.458	35163.95
765.795	35111.29
766.131	35131.18
766.467	34936.16
766.804	34726.9
767.14	34663.85
767.476	34561.7
767.812	34434.25
768.148	34457.07
768.485	34136.4
768.821	34147.25
769.157	33956.97
769.492	33950.19
769.828	33962.17
770.164	33619.13
770.5	33630.43
770.836	33572.58
771.171	33380.94
771.507	33218.91
771.842	33004.68
772.178	32967.17
772.513	32772.82
772.849	32734.86
773.184	32668.65
773.519	32484.92
773.855	32498.93
774.19	32363.12
774.525	32158.15
774.86	32231.14
775.195	32081.54
775.53	32082.45
775.865	31792.51
776.2	31494.67
776.535	31334.44
776.87	31362.69
777.205	31236.82
777.539	31209.7
777.874	31212.41
778.209	30968.58
778.543	30970.39
778.878	30673.67
779.212	30760
779.547	30435.49
779.881	30559.1
780.215	30486.33
780.55	30330.63
780.884	30208.82
781.218	30152.78
781.552	30179.45
781.886	29924.54
782.22	29803.64
782.554	29715.28
782.888	29339.02
783.222	29382.41
783.556	29279.36
783.889	29209.98
784.223	28994.84
784.557	28924.11
784.89	29087.5
785.224	28817.45
785.557	28632.14
785.891	28586.95
786.224	28452.03
786.558	28506.04
786.891	28207.75
787.224	28064.47
787.557	28114.19
787.891	28097.69
788.224	27950.8
788.557	27885.27
788.89	27673.07
789.223	27647.08
789.556	27495
789.888	27399.41
790.221	27356.24
790.554	27104.73
790.887	27070.15
791.219	27132.07
791.552	26983.82
791.884	26816.37
792.217	26787.45
792.549	26530.05
792.882	26518.98
793.214	26375.48
793.546	26558.52
793.879	26245.09
794.211	26246.44
794.543	26351.98
794.875	26095.94
795.207	26188.37
795.539	25902.27
795.871	25917.64
796.203	25779.79
796.535	25592.9
796.867	25603.07
797.198	25518.55
797.53	25377.54
797.862	25323.76
798.193	25250.99
798.525	25163.08
798.856	25123.08
799.188	24897.1
799.519	24877.21
799.85	24710.21
800.182	24757.22
800.513	24752.92
800.844	24436.77
801.175	24612.14
801.506	24535.08
801.837	24448.07
802.168	24467.96
802.499	24248.98
802.83	24192.71
803.161	24083.11
803.491	24055.31
803.822	24110.68
804.153	23918.82
804.483	23762.44
804.814	23681.31
805.145	23571.26
805.475	23606.06
805.805	23660.97
806.136	23527.87
806.466	23468.66
806.796	23408.78
807.126	23219.86
807.457	23122.68
807.787	23255.33
808.117	23130.14
808.447	23022.57
808.777	22981.44
809.107	22940.77
809.436	22852.18
809.766	22765.4
810.096	22791.62
810.426	22559.99
810.755	22621.45
811.085	22488.58
811.414	22562.7
811.744	22367.22
812.073	22348.69
812.403	22250.62
812.732	22176.49
813.061	22180.56
813.39	22007.46
813.719	21954.13
814.049	22077.96
814.378	22038.42
814.707	21858.08
815.036	21823.28
815.365	21732.44
815.693	21512.78
816.022	21565.44
816.351	21545.1
816.68	21375.61
817.008	21436.17
817.337	21314.59
817.665	21225.78
817.994	21325.22
818.322	21166.12
818.651	21189.85
818.979	21023.76
819.307	21255.61
819.636	21099.23
819.964	20960.25
820.292	21017.2
820.62	20986.92
820.948	20990.99
821.276	20986.92
821.604	20901.27
821.932	20969.97
822.259	20900.82
822.587	20963.42
822.915	20868.96
823.243	20874.15
823.57	20809.98
823.898	20991.67
824.225	20793.48
824.553	20758.23
824.88	20801.39
825.207	20834.38
825.535	20753.48
825.862	20802.74
826.189	20710.32
826.516	20860.82
826.843	20874.15
827.17	20802.74
827.497	20864.66
827.824	20760.26
828.151	20904.21
828.478	20804.33
828.805	20838.9
829.131	20744.44
829.458	20647.27
829.785	20656.31
830.111	20655.4
830.438	20873.48
830.764	20663.09
831.09	20814.04
831.417	20640.04
831.743	20653.6
832.069	20673.71
832.395	20601.17
832.722	20705.57
833.048	20638.45
833.374	20619.25
833.7	20505.8
834.026	20592.81
834.351	20614.27
834.677	20484.56
835.003	20500.15
835.329	20501.73
835.654	20362.98
835.98	20301.74
836.306	20411.34
836.631	20277.11
836.956	20342.42
837.282	20332.02
837.607	20205.25
837.932	20127.28
838.258	20158.47
838.583	20084.57
838.908	20021.07
839.233	20042.54
839.558	20111.46
839.883	19892.26
840.208	19920.73
840.533	19857.91
840.858	19883.22
841.182	19897.23
841.507	19872.37
841.832	19708.31
842.156	19851.13
842.481	19730.91
842.805	19628.31
843.13	19626.96
843.454	19570.46
843.778	19519.84
844.103	19481.42
844.427	19427.41
844.751	19484.13
845.075	19315.55
845.399	19213.86
845.723	19170.47
846.047	19191.26
846.371	19039.17
846.695	18999.85
847.019	18816.58
847.343	18730.03
847.666	18719.86
847.99	18580.2
848.313	18536.81
848.637	18458.62
848.96	18563.03
849.284	18506.08
849.607	18173.89
849.931	18221.34
850.254	18081.23
850.577	17922.14
850.9	17848.02
851.223	17935.25
851.546	17786.78
851.869	17727.34
852.192	17737.29
852.515	17545.88
852.838	17565.99
853.161	17578.65
853.483	17417.97
853.806	17365.09
854.129	17301.59
854.451	17192.22
854.774	17167.59
855.096	17096.4
855.419	17070.41
855.741	17063.86
856.063	17017.31
856.385	16897.54
856.708	16863.19
857.03	16721.72
857.352	16782.74
857.674	16732.12
857.996	16652.57
858.318	16602.4
858.64	16512.69
858.961	16534.16
859.283	16427.49
859.605	16413.48
859.926	16357.89
860.248	16339.81
860.57	16214.16
860.891	16228.85
861.212	16178.46
861.534	16194.05
861.855	16166.26
862.176	16241.73
862.498	16164.22
862.819	16182.3
863.14	16074.51
863.461	15994.28
863.782	16007.16
864.103	15958.35
864.424	15904.57
864.745	15865.7
865.065	15773.5
865.386	15710.22
865.707	15807.17
866.027	15800.16
866.348	15790.22
866.668	15756.1
866.989	15680.84
867.309	15533.5
867.63	15581.41
867.95	15543.67
868.27	15461.64
868.59	15517.01
868.91	15500.74
869.23	15438.59
869.55	15385.71
869.87	15448.31
870.19	15432.26
870.51	15397.91
870.83	15308.65
871.15	15238.37
871.469	15217.81
871.789	15292.61
872.109	15281.76
872.428	15196.34
872.748	15182.1
873.067	15186.39
873.386	15177.36
873.706	15185.04
874.025	15004.25
874.344	14997.47
874.663	14977.81
874.982	15059.17
875.301	14984.37
875.62	14990.92
875.939	14903.46
876.258	14846.06
876.577	14750.93
876.896	14836.12
877.214	14765.61
877.533	14794.99
877.852	14776.46
878.17	14676.13
878.489	14685.84
878.807	14673.64
879.125	14738.5
879.444	14616.24
879.762	14667.31
880.08	14668.44
880.398	14539.63
880.716	14637.48
881.034	14493.53
881.352	14509.35
881.67	14381.22
881.988	14371.27
882.306	14399.07
882.624	14310.94
882.941	14256.48
883.259	14153.2
883.577	14241.33
883.894	14106.2
884.212	14239.07
884.529	14202.69
884.846	14079.08
885.164	14056.48
885.481	14073.88
885.798	13970.83
886.115	13943.04
886.432	13891.51
886.75	13958.86
887.067	13882.47
887.383	13828.92
887.7	13922.25
888.017	13717.96
888.334	13716.15
888.651	13690.84
888.967	13675.25
889.284	13606.32
889.6	13477.29
889.917	13447.68
890.233	13513.67
890.55	13449.49
890.866	13472.77
891.182	13369.95
891.498	13338.99
891.815	13275.03
892.131	13219.44
892.447	13157.97
892.763	13166.79
893.079	13158.88
893.395	13073.68
893.71	13041.14
894.026	12988.94
894.342	12972.44
894.657	12837.53
894.973	12830.3
895.289	12884.76
895.604	12880.47
895.92	12730.19
896.235	12724.54
896.55	12773.58
896.865	12633.02
897.181	12576.29
897.496	12598.21
897.811	12476.64
898.126	12507.14
898.441	12407.94
898.756	12399.8
899.071	12329.52
899.386	12262.86
899.7	12199.58
900.015	12176.3
900.33	12085.23
900.644	12164.1
900.959	12128.4
901.273	12096.76
901.588	11947.38
901.902	11916.42
902.216	11834.62
902.531	11785.81
902.845	11792.81
903.159	11792.36
903.473	11690.67
903.787	11624.91
904.101	11582.87
904.415	11500.16
904.729	11554.85
905.042	11473.05
905.356	11428.75
905.67	11337
905.984	11373.61
906.297	11287.29
906.611	11268.31
906.924	11230.79
907.237	11177.91
907.551	11213.84
907.864	11138.14
908.177	11085.94
908.491	11052.94
908.804	10878.71
909.117	10971.82
909.43	10821.99
909.743	10786.74
910.056	10864.47
910.368	10747.87
910.681	10657.47
910.994	10643.01
911.307	10505.61
911.619	10503.58
911.932	10494.99
912.244	10409.57
912.557	10421.77
912.869	10372.51
913.181	10382.9
913.494	10351.27
913.806	10232.85
914.118	10197.15
914.43	10165.74
914.742	10171.84
915.054	10089.81
915.366	10021.33
915.678	9990.6
915.99	9931.62
916.302	9821.11
916.613	9847.55
916.925	9836.7
917.236	9839.64
917.548	9722.13
917.859	9754.22
918.171	9652.98
918.482	9574.56
918.794	9575.92
919.105	9514.91
919.416	9453.66
919.727	9481.69
920.038	9427.9
920.349	9422.93
920.66	9324.4
920.971	9374.12
921.282	9304.29
921.593	9163.95
921.903	9139.77
922.214	9123.05
922.525	9059.1
922.835	9117.85
923.146	8999.44
923.456	8986.11
923.767	8920.8
924.077	8920.8
924.387	8802.16
924.697	8777.75
925.008	8824.08
925.318	8724.87
925.628	8676.96
925.938	8656.17
926.248	8590.64
926.558	8559
926.867	8580.24
927.177	8508.6
927.487	8457.98
927.796	8427.25
928.106	8398.55
928.416	8376.63
928.725	8379.12
929.034	8254.6
929.344	8306.12
929.653	8270.19
929.962	8172.12
930.271	8132.79
930.581	8107.26
930.89	8076.07
931.199	8062.06
931.508	7984.1
931.817	7962.63
932.125	7949.52
932.434	7949.52
932.743	7884.67
933.051	7850.09
933.36	7783.2
933.669	7722.64
933.977	7662.3
934.286	7713.82
934.594	7676.76
934.902	7615.75
935.21	7551.34
935.519	7617.55
935.827	7543.43
936.135	7526.48
936.443	7381.4
936.751	7415.53
937.059	7446.26
937.367	7383.44
937.674	7352.7
937.982	7395.64
938.29	7315.19
938.597	7238.13
938.905	7198.36
939.213	7180.05
939.52	7134.85
939.827	7109.32
940.135	7046.5
940.442	7017.8
940.749	6985.25
941.056	7004.69
941.363	6942.32
941.67	6916.33
941.977	6864.58
942.284	6846.27
942.591	6765.82
942.898	6777.58
943.205	6777.35
943.511	6693.96
943.818	6643.57
944.125	6646.73
944.431	6660.97
944.738	6556.56
945.044	6563.34
945.35	6544.14
945.657	6501.2
945.963	6459.39
946.269	6455.55
946.575	6401.09
946.881	6395.89
947.187	6328.77
947.493	6292.84
947.799	6276.12
948.105	6289
948.41	6212.85
948.716	6208.1
949.022	6179.4
949.327	6226.18
949.633	6107.54
949.938	6110.7
950.244	6070.7
950.549	6043.36
950.854	6065.73
951.16	5972.17
951.465	5951.16
951.77	5910.48
952.075	5931.27
952.38	5899.18
952.685	5803.14
952.99	5820.77
953.294	5832.29
953.599	5741.9
953.904	5789.35
954.209	5730.6
954.513	5733.54
954.818	5663.03
955.122	5704.61
955.426	5638.85
955.731	5636.14
956.035	5632.52
956.339	5581
956.643	5554.11
956.948	5522.92
957.252	5457.38
957.556	5449.02
957.86	5448.35
958.163	5415.8
958.467	5434.11
958.771	5370.83
959.075	5368.8
959.378	5328.35
959.682	5323.38
959.985	5297.84
960.289	5258.75
960.592	5252.42
960.896	5164.96
961.199	5166.54
961.502	5201.8
961.805	5095.13
962.108	5102.37
962.411	5105.98
962.714	5048.58
963.017	5023.5
963.32	5003.39
963.623	4985.31
963.926	4964.06
964.228	4948.25
964.531	4908.25
964.833	4931.3
965.136	4874.8
965.438	4845.65
965.741	4816.5
966.043	4776.27
966.345	4741.92
966.648	4757.29
966.95	4760.45
967.252	4699.89
967.554	4685.43
967.856	4693.56
968.158	4631.64
968.46	4658.99
968.761	4647.01
969.063	4609.5
969.365	4548.48
969.666	4550.06
969.968	4506.9
970.269	4468.48
970.571	4506.22
970.872	4458.09
971.174	4423.97
971.475	4379.22
971.776	4411.76
972.077	4394.14
972.378	4369.5
972.679	4342.39
972.98	4321.82
973.281	4317.53
973.582	4277.75
973.883	4281.82
974.183	4228.94
974.484	4237.53
974.785	4190.07
975.085	4155.05
975.386	4202.73
975.686	4165.22
975.986	4125.22
976.287	4122.5
976.587	4050.42
976.887	4068.04
977.187	4074.82
977.487	4058.55
977.787	4031.21
978.087	4001.15
978.387	3943.53
978.687	4009.29
978.987	3953.02
979.286	3933.58
979.586	3920.7
979.885	3889.97
980.185	3869.63
980.484	3868.5
980.784	3842.51
981.083	3834.83
981.382	3771.55
981.682	3779.46
981.981	3780.14
982.28	3725.45
982.579	3730.88
982.878	3734.27
983.177	3678
983.475	3691.78
983.774	3660.6
984.073	3666.25
984.372	3638.45
984.67	3585.8
984.969	3620.37
985.267	3572.91
985.566	3548.96
985.864	3542.86
986.162	3523.42
986.461	3542.63
986.759	3483.43
987.057	3450.43
987.355	3452.01
987.653	3463.76
987.951	3432.35
988.249	3441.84
988.547	3400.04
988.844	3402.3
989.142	3378.12
989.44	3341.51
989.737	3320.49
990.035	3337.89
990.332	3321.85
990.63	3280.27
990.927	3236.88
991.224	3242.08
991.521	3256.09
991.819	3249.08
992.116	3224
992.413	3214.96
992.71	3154.85
993.006	3162.3
993.303	3139.93
993.6	3175.18
993.897	3113.27
994.193	3086.6
994.49	3075.53
994.787	3101.97
995.083	3019.48
995.379	3019.26
995.676	2982.42
995.972	3000.73
996.268	2969.31
996.565	2983.78
996.861	2984.46
997.157	2944
997.453	2951.01
997.749	2927.96
998.044	2896.32
998.34	2830.56
998.636	2880.73
998.932	2832.82
999.227	2837.57
999.523	2822.2
999.818	2801.64
1000.114	2803.44
1000.409	2758.02
1000.704	2762.31
1001	2740.85
1001.295	2725.71
1001.59	2720.96
1001.885	2735.87
1002.18	2662.66
1002.475	2654.07
1002.77	2671.24
1003.065	2655.65
1003.359	2632.6
1003.654	2621.75
1003.949	2581.75
1004.243	2553.05
1004.538	2557.35
1004.832	2535.65
1005.127	2514.86
1005.421	2531.13
1005.715	2485.94
1006.009	2479.61
1006.304	2505.15
1006.598	2445.71
1006.892	2452.27
1007.186	2399.39
1007.48	2402.78
1007.773	2397.35
1008.067	2400.97
1008.361	2368.65
1008.655	2344.92
1008.948	2345.6
1009.242	2346.96
1009.535	2304.7
1009.829	2276.68
1010.122	2286.17
1010.415	2310.12
1010.708	2249.33
1011.001	2232.84
1011.295	2221.31
1011.588	2225.15
1011.881	2149
1012.173	2196.45
1012.466	2199.17
1012.759	2159.17
1013.052	2173.4
1013.344	2146.51
1013.637	2053.63
1013.93	2099.28
1014.222	2078.72
1014.514	2089.56
1014.807	2057.02
1015.099	2071.71
1015.391	2037.59
1015.683	2048.21
1015.976	2012.05
1016.268	2001.88
1016.56	2004.59
1016.851	1968.66
1017.143	1963.01
1017.435	1973.18
1017.727	1946.74
1018.018	1903.81
1018.31	1913.3
1018.602	1914.43
1018.893	1880.3
1019.185	1878.5
1019.476	1862.9
1019.767	1856.35
1020.058	1831.04
1020.35	1838.95
1020.641	1835.79
1020.932	1760.98
1021.223	1808.44
1021.514	1787.65
1021.804	1764.83
1022.095	1735.22
1022.386	1754.88
1022.677	1753.98
1022.967	1738.84
1023.258	1700.65
1023.548	1669.91
1023.839	1649.35
1024.129	1665.17
1024.419	1668.11
1024.709	1647.09
1025	1636.69
1025.29	1645.06
1025.58	1614.32
1025.87	1579.07
1026.16	1590.82
1026.449	1573.65
1026.739	1574.55
1027.029	1565.74
1027.319	1527.09
1027.608	1544.95
1027.898	1536.81
1028.187	1525.06
1028.477	1518.05
1028.766	1496.58
1029.055	1514.89
1029.344	1464.27
1029.634	1467.43
1029.923	1441.67
1030.212	1466.08
1030.501	1436.47
1030.79	1431.28
1031.078	1377.04
1031.367	1419.07
1031.656	1391.5
1031.945	1373.65
1032.233	1345.18
1032.522	1349.92
1032.81	1346.31
1033.099	1334.1
1033.387	1349.24
1033.675	1323.26
1033.963	1301.79
1034.251	1311.51
1034.54	1310.38
1034.828	1248
1035.116	1282.13
1035.403	1264.73
1035.691	1267.66
1035.979	1269.25
1036.267	1228.34
1036.554	1250.94
1036.842	1238.06
1037.129	1218.4
1037.417	1218.85
1037.704	1200.55
1037.992	1189.47
1038.279	1171.17
1038.566	1164.84
1038.853	1164.84
1039.14	1164.84
