Data from white_wall_FLMS001491_087.txt Node
Date: Tue Feb 07 11:06:03 GMT 2017
User: dcchb
Spectrometer: FLMS00149
Trigger mode: 0
Integration Time (sec): 2.000000E-2
Scans to average: 10
Electric dark correction enabled: true
Nonlinearity correction enabled: false
Boxcar width: 0
XAxis mode: Wavelengths
Number of Pixels in Spectrum: 2048
>>>>>Begin Spectral Data<<<<<
341.393	9.14
341.776	9.14
342.16	9.14
342.543	-55.72
342.927	-42.16
343.31	-67.02
343.693	-69.5
344.077	-72.44
344.46	-56.62
344.843	-55.27
345.226	-19.11
345.61	-31.09
345.993	-26.79
346.376	-3.97
346.759	6.43
347.142	17.95
347.525	50.94
347.908	59.31
348.291	77.38
348.674	95.24
349.057	94.56
349.44	110.83
349.823	153.09
350.206	186.99
350.588	225.86
350.971	237.61
351.354	249.81
351.737	258.62
352.119	273.76
352.502	289.81
352.884	316.93
353.267	289.58
353.65	319.19
354.032	334.33
354.414	333.65
354.797	342.01
355.179	357.6
355.562	362.58
355.944	351.05
356.326	351.28
356.709	334.33
357.091	363.48
357.473	380.65
357.855	373.87
358.238	369.81
358.62	393.99
359.002	362.8
359.384	348.11
359.766	355.34
360.148	379.52
360.53	358.06
360.912	381.33
361.294	376.13
361.676	357.6
362.057	353.54
362.439	341.11
362.821	363.71
363.203	339.3
363.584	349.69
363.966	358.51
364.348	373.42
364.729	351.73
365.111	375
365.493	336.14
365.874	356.25
366.256	356.93
366.637	354.89
367.019	323.48
367.4	342.01
367.781	341.33
368.163	347.43
368.544	345.85
368.925	351.28
369.306	352.41
369.688	335.68
370.069	355.8
370.45	349.24
370.831	360.54
371.212	351.95
371.593	354.67
371.974	340.43
372.355	337.04
372.736	361.45
373.117	352.86
373.498	345.17
373.879	354.67
374.26	351.73
374.641	359.86
375.021	357.83
375.402	361.45
375.783	365.29
376.163	382.46
376.544	386.53
376.925	382.24
377.305	369.35
377.686	368.45
378.066	368.22
378.447	386.08
378.827	386.98
379.208	362.58
379.588	379.07
379.968	396.02
380.349	379.52
380.729	386.08
381.109	383.37
381.489	396.7
381.87	389.24
382.25	391.95
382.63	404.83
383.01	386.76
383.39	399.64
383.77	424.27
384.15	395.57
384.53	412.52
384.91	420.2
385.29	418.39
385.67	402.8
386.049	411.39
386.429	409.58
386.809	449.8
387.189	430.82
387.568	446.87
387.948	445.06
388.328	467.43
388.707	460.43
389.087	462.69
389.466	469.24
389.846	455.68
390.225	466.98
390.605	467.43
390.984	472.85
391.363	492.52
391.743	501.33
392.122	499.52
392.501	512.4
392.881	506.53
393.26	526.64
393.639	526.41
394.018	511.05
394.397	521.44
394.776	561.67
395.155	559.63
395.534	548.79
395.913	562.57
396.292	591.5
396.671	594.43
397.05	578.61
397.429	592.17
397.808	633.75
398.186	624.94
398.565	631.72
398.944	633.75
399.323	616.58
399.701	633.08
400.08	673.08
400.458	680.31
400.837	683.92
401.215	719.4
401.594	685.28
401.972	746.29
402.351	755.33
402.729	753.3
403.107	763.47
403.486	767.31
403.864	795.33
404.242	797.82
404.62	851.38
404.999	863.8
405.377	870.36
405.755	880.3
406.133	892.28
406.511	912.39
406.889	916.91
407.267	942.9
407.645	949
408.023	979.51
408.401	983.58
408.779	1005.72
409.156	1020.86
409.534	1066.06
409.912	1060.41
410.29	1077.58
410.667	1101.31
411.045	1111.71
411.422	1163.46
411.8	1154.64
412.178	1197.81
412.555	1204.14
412.933	1221.76
413.31	1240.97
413.687	1283
414.065	1279.16
414.442	1280.97
414.819	1322.1
415.197	1307.64
415.574	1356.9
415.951	1369.1
416.328	1345.83
416.705	1407.97
417.082	1434.41
417.46	1422.21
417.837	1444.81
418.214	1465.37
418.591	1488.65
418.967	1477.57
419.344	1515.31
419.721	1545.37
420.098	1504.69
420.475	1546.5
420.852	1582.88
421.228	1581.3
421.605	1617.46
421.982	1616.55
422.358	1633.05
422.735	1621.98
423.111	1651.81
423.488	1688.64
423.864	1702.65
424.241	1741.52
424.617	1737.68
424.994	1781.29
425.37	1768.41
425.746	1786.27
426.123	1835.76
426.499	1834.85
426.875	1868.52
427.251	1880.05
427.627	1927.96
428.003	1934.29
428.379	1992.36
428.756	2008.63
429.132	2025.36
429.507	2074.39
429.883	2091.8
430.259	2127.73
430.635	2119.14
431.011	2191.23
431.387	2220.61
431.763	2274.84
432.138	2269.64
432.514	2308.51
432.89	2313.03
433.265	2373.37
433.641	2440.03
434.016	2429.19
434.392	2491.56
434.767	2508.06
435.143	2515.29
435.518	2558.68
435.894	2576.3
436.269	2600.03
436.644	2666.47
437.02	2665.57
437.395	2667.37
437.77	2679.58
438.145	2772
438.52	2772.68
438.895	2804.54
439.271	2825.34
439.646	2891.55
440.021	2934.94
440.395	2906.92
440.77	2956.63
441.145	2982.39
441.52	3019.91
441.895	3002.96
442.27	3069.85
442.645	3043.41
443.019	3126.12
443.394	3135.16
443.769	3158.66
444.143	3110.07
444.518	3207.92
444.892	3238.66
445.267	3246.34
445.641	3271.88
446.016	3299
446.39	3380.12
446.764	3358.65
447.139	3343.97
447.513	3374.02
447.887	3414.7
448.262	3420.8
448.636	3468.71
449.01	3500.12
449.384	3566.56
449.758	3556.62
450.132	3621.92
450.506	3644.07
450.88	3661.47
451.254	3660.34
451.628	3752.54
452.002	3820.56
452.376	3840.68
452.75	3825.08
453.123	3868.02
453.497	3975.81
453.871	4004.74
454.244	4026.89
454.618	4088.13
454.992	4150.5
455.365	4139.43
455.739	4263.26
456.112	4291.51
456.486	4363.83
456.859	4436.82
457.232	4510.71
457.606	4481.11
457.979	4552.52
458.352	4641.56
458.725	4680.43
459.099	4744.38
459.472	4831.61
459.845	4879.52
460.218	4949.12
460.591	4980.31
460.964	5019.85
461.337	5122.68
461.71	5236.12
462.083	5235.44
462.456	5273.41
462.829	5332.16
463.201	5450.13
463.574	5476.11
463.947	5573.06
464.32	5688.54
464.692	5700.51
465.065	5749.55
465.438	5854.86
465.81	5942.32
466.183	6036.1
466.555	6139.37
466.928	6195.64
467.3	6204.91
467.672	6338.69
468.045	6478.35
468.417	6481.28
468.789	6535.07
469.161	6629.76
469.534	6787.27
469.906	6920.14
470.278	6984.77
470.65	7076.75
471.022	7172.57
471.394	7288.04
471.766	7402.16
472.138	7488.72
472.51	7655.72
472.882	7778.2
473.253	7849.16
473.625	7988.59
473.997	8158.53
474.369	8234.01
474.74	8328.69
475.112	8543.83
475.484	8681.23
475.855	8775.01
476.227	8904.5
476.598	9207.31
476.97	9245.28
477.341	9395.11
477.713	9533.41
478.084	9641.88
478.455	9958.03
478.827	10001.87
479.198	10304.23
479.569	10310.34
479.94	10586.94
480.311	10745.81
480.682	10978.12
481.053	11243.19
481.424	11403.41
481.795	11526.8
482.166	11694.48
482.537	11882.95
482.908	12111.64
483.279	12272.54
483.65	12509.83
484.021	12755.7
484.391	12923.6
484.762	13016.71
485.133	13228.9
485.503	13320.65
485.874	13650.59
486.244	13809.68
486.615	14136
486.985	14237.69
487.356	14526.5
487.726	14592.03
488.097	14926.94
488.467	15018.46
488.837	15453.93
489.207	15527.83
489.578	15664.32
489.948	15962.17
490.318	16231.31
490.688	16226.11
491.058	16492.32
491.428	16729.15
491.798	16867.9
492.168	17234.9
492.538	17342.24
492.908	17443.93
493.278	17787.65
493.648	17861.1
494.017	18019.29
494.387	18332.27
494.757	18415.43
495.126	18621.08
495.496	18697.46
495.866	18795.54
496.235	19061.29
496.605	19233.27
496.974	19473.03
497.344	19696.08
497.713	19736.98
498.082	19916.19
498.452	20028.27
498.821	20138.78
499.19	20391.43
499.559	20629.84
499.928	20644.08
500.298	20798.2
500.667	21169.03
501.036	21063.27
501.405	21365.86
501.774	21304.4
502.143	21542.58
502.512	21733.31
502.88	22040.88
503.249	21975.34
503.618	22163.58
503.987	22266.63
504.356	22524.25
504.724	22711.59
505.093	22724.93
505.462	22813.74
505.83	23060.06
506.199	23236.32
506.567	23623.43
506.936	23596.77
507.304	23843.77
507.672	23992.24
508.041	24023.87
508.409	24329.4
508.777	24524.2
509.145	24714.7
509.514	24854.13
509.882	24981.81
510.25	25046.45
510.618	25333.67
510.986	25464.06
511.354	25753.32
511.722	25932.07
512.09	26250.93
512.458	26215.68
512.826	26421.78
513.193	26580.19
513.561	26701.54
513.929	27083.23
514.297	27157.58
514.664	27410.68
515.032	27527.28
515.4	27710.56
515.767	27901.74
516.135	28049.98
516.502	27976.54
516.869	28473.93
517.237	28735.39
517.604	28606.8
517.972	28974.48
518.339	29233.68
518.706	29357.52
519.073	29498.08
519.44	29744.4
519.808	30201.34
520.175	30049.93
520.542	30429.58
520.909	30561.33
521.276	30682
521.643	31123.8
522.009	31252.84
522.376	31456.22
522.743	31743.9
523.11	31937.11
523.477	32263.43
523.843	32361.06
524.21	32765.11
524.577	32946.8
524.943	33026.12
525.31	33324.65
525.676	33697.97
526.043	33927.57
526.409	34003.95
526.776	34499.98
527.142	34621.79
527.508	34738.62
527.874	34925.73
528.241	35291.83
528.607	35332.5
528.973	35748.99
529.339	35521.65
529.705	35965.25
530.071	36389.2
530.437	36382.87
530.803	36572.24
531.169	36895.85
531.535	36849.3
531.901	37168.61
532.267	37280.02
532.632	37560.24
532.998	37579
533.364	37785.77
533.73	38054.69
534.095	38361.8
534.461	38597.5
534.826	38654.22
535.192	38806.31
535.557	39160.88
535.923	39078.85
536.288	39187.09
536.653	39200.88
537.019	39322.68
537.384	39576.23
537.749	39789.34
538.114	39813.06
538.479	39843.8
538.845	40164.01
539.21	40135.99
539.575	40441.07
539.94	40487.4
540.305	40777.78
540.67	40920.15
541.034	40955.41
541.399	41163.76
541.764	41365.34
542.129	41559.23
542.494	41540.7
542.858	41889.84
543.223	41921.48
543.587	42237.41
543.952	42008.26
544.316	42272.21
544.681	42376.16
545.045	42581.8
545.41	42901.57
545.774	43079.19
546.138	42939.53
546.503	43298.4
546.867	43259.98
547.231	43546.75
547.595	43663.81
547.959	43693.64
548.324	43842.11
548.688	44031.03
549.052	44269.44
549.416	44231.25
549.779	44477.57
550.143	44578.36
550.507	44901.52
550.871	45043.21
551.235	45063.09
551.599	45439.58
551.962	45554.61
552.326	45655.85
552.689	46022.39
553.053	45800.48
553.417	45854.03
553.78	46417.64
554.143	46409.05
554.507	46710.28
554.87	46774.01
555.234	47209.03
555.597	46961.8
555.96	47225.75
556.323	47448.12
556.686	47529.02
557.05	47922.45
557.413	47945.5
557.776	48125.39
558.139	48401.31
558.502	48441.76
558.865	48637.24
559.228	48795.88
559.59	49009.66
559.953	49098.24
560.316	49485.58
560.679	49380.27
561.041	49686.02
561.404	49754.95
561.767	50127.37
562.129	50062.29
562.492	50421.6
562.854	50411.65
563.217	50479.22
563.579	50715.38
563.941	50932.32
564.304	51073.11
564.666	51190.62
565.028	51216.61
565.39	51414.11
565.753	51661.34
566.115	51614.33
566.477	51909.69
566.839	51956.92
567.201	52132.06
567.563	52145.39
567.925	52417.25
568.287	52437.59
568.648	52529.34
569.01	52623.57
569.372	52897.69
569.734	52960.06
570.095	53055.65
570.457	53200.51
570.819	53223.11
571.18	53153.28
571.542	53432.37
571.903	53420.62
572.265	53541.29
572.626	53645.02
572.987	53753.71
573.349	53830.77
573.71	54026.02
574.071	53976.98
574.432	54050.43
574.794	54319.12
575.155	54258.33
575.516	54314.83
575.877	54303.53
576.238	54386.01
576.599	54506.91
576.96	54478.44
577.32	54508.04
577.681	54609.74
578.042	54709.62
578.403	54673.01
578.763	54625.1
579.124	54785.55
579.485	54798.66
579.845	54906.68
580.206	54877.98
580.566	54873.46
580.927	54919.78
581.287	55033.45
581.648	54964.53
582.008	55096.96
582.368	55008.37
582.728	55104.41
583.089	55073.68
583.449	55126.33
583.809	55176.73
584.169	55195.71
584.529	55134.47
584.889	55291.75
585.249	55162.04
585.609	55090.85
585.969	55207.91
586.329	55181.47
586.688	55226.67
587.048	55175.6
587.408	55153.45
587.768	55195.94
588.127	55157.74
588.487	55147.35
588.846	55337.4
589.206	55212.66
589.565	55213.79
589.925	55277.74
590.284	55202.49
590.643	55302.83
591.003	55325.42
591.362	55469.83
591.721	55327.91
592.08	55392.54
592.44	55458.53
592.799	55445.65
593.158	55318.64
593.517	55387.8
593.876	55341.69
594.235	55379.43
594.593	55373.33
594.952	55488.13
595.311	55410.17
595.67	55523.61
596.029	55597.06
596.387	55529.26
596.746	55664.17
597.104	55479.09
597.463	55468.47
597.822	55552.08
598.18	55545.98
598.538	55490.17
598.897	55696.94
599.255	55464.18
599.613	55871.85
599.972	55718.63
600.33	55711.63
600.688	55585.3
601.046	55887.22
601.404	55894.9
601.762	55700.78
602.12	55923.83
602.478	55832.76
602.836	55863.04
603.194	55786.65
603.552	55857.84
603.91	55694.45
604.268	55907.56
604.625	55821.91
604.983	56050.15
605.341	55868.23
605.698	56001.79
606.056	56070.49
606.413	56098.06
606.771	56139.41
607.128	56187.55
607.485	56065.74
607.843	56144.61
608.2	56315.68
608.557	56380.09
608.914	56236.81
609.272	56440.87
609.629	56350.03
609.986	56443.81
610.343	56358.17
610.7	56578.95
611.057	56538.5
611.414	56448.56
611.771	56506.64
612.127	56624.82
612.484	56604.49
612.841	56646.29
613.198	56628.67
613.554	56607.42
613.911	56818.94
614.267	56776.69
614.624	56659.17
614.98	56782.33
615.337	56832.73
615.693	56811.49
616.05	56792.5
616.406	56916.34
616.762	56878.15
617.118	56891.71
617.475	56914.99
617.831	56936
618.187	56971.26
618.543	57013.97
618.899	57127.86
619.255	57098.26
619.611	57095.09
619.967	57212.15
620.323	57149.78
620.678	57169.22
621.034	57082.67
621.39	57071.82
621.746	57074.3
622.101	57348.87
622.457	57125.6
622.812	57237.01
623.168	57204.47
623.523	57203.11
623.879	57278.82
624.234	57157.47
624.589	57243.11
624.945	57237.69
625.3	57273.62
625.655	57262.77
626.01	57271.81
626.365	57270.46
626.72	57168.09
627.075	57160.63
627.43	57195.66
627.785	57219.61
628.14	57202.66
628.495	57169.67
628.85	57206.5
629.205	57108.43
629.559	57308.42
629.914	57114.53
630.269	57136.22
630.623	57137.13
630.978	57034.76
631.332	57157.69
631.687	57197.01
632.041	57074.76
632.396	57066.85
632.75	56920.64
633.104	57040.86
633.459	56883.35
633.813	56868.89
634.167	56974.87
634.521	56823.24
634.875	56936.45
635.229	56809.23
635.583	56746.18
635.937	56815.78
636.291	56710.7
636.645	56743.92
636.999	56630.25
637.352	56809
637.706	56593.19
638.06	56685.39
638.413	56661.66
638.767	56619.85
639.121	56581.89
639.474	56373.08
639.828	56520.87
640.181	56512.51
640.534	56481.55
640.888	56413.53
641.241	56334.89
641.594	56357.26
641.947	56347.09
642.301	56287.43
642.654	56278.17
643.007	56237.04
643.36	56255.57
643.713	56172.63
644.066	56255.34
644.419	56025.29
644.771	55905.3
645.124	55656.26
645.477	55700.56
645.83	55446.32
646.182	55397.06
646.535	55264.63
646.888	55356.84
647.24	55132.89
647.593	55315.71
647.945	55183.96
648.298	55130.4
648.65	55024.41
649.002	54944.64
649.355	55071.65
649.707	55041.82
650.059	55096.5
650.411	55469.83
650.763	55471.41
651.115	55774.23
651.467	55629.6
651.819	55611.97
652.171	55538.3
652.523	55517.51
652.875	55487.68
653.227	55436.16
653.578	55550.05
653.93	55452.43
654.282	55328.59
654.633	55301.24
654.985	55358.87
655.337	55317.51
655.688	55336.27
656.039	55400.45
656.391	55187.12
656.742	55269.38
657.094	55277.74
657.445	55383.28
657.796	55184.18
658.147	55195.94
658.498	55067.8
658.849	55246.33
659.2	55136.95
659.551	55087.46
659.902	55179.66
660.253	55143.06
660.604	55149.84
660.955	54964.98
661.306	55138.54
661.656	55046.34
662.007	55063.06
662.358	54953
662.708	54987.13
663.059	54962.04
663.409	54733.35
663.76	54981.25
664.11	54973.79
664.461	54928.82
664.811	54966.56
665.161	54891.31
665.511	54832.33
665.862	54852.44
666.212	54890.86
666.562	54895.6
666.912	54837.3
667.262	54816.06
667.612	54745.1
667.962	54818.77
668.312	54759.79
668.662	54856.06
669.011	54756.17
669.361	54695.16
669.711	54702.39
670.06	54664.2
670.41	54636.4
670.76	54608.15
671.109	54700.13
671.459	54595.73
671.808	54500.36
672.157	54581.04
672.507	54341.95
672.856	54425.11
673.205	54426.92
673.554	54492
673.904	54290.65
674.253	54514.82
674.602	54391.66
674.951	53894.5
675.3	53791.68
675.649	54303.3
675.998	54229.41
676.346	54204.1
676.695	54293.59
677.044	54064.67
677.393	54211.1
677.741	54089.3
678.09	54012.24
678.438	53957.78
678.787	54036.87
679.135	53952.58
679.484	53865.12
679.832	54006.59
680.181	53794.16
680.529	53926.14
680.877	53845.01
681.225	53781.28
681.573	53933.82
681.922	53651.34
682.27	53649.76
682.618	53703.77
682.966	53523.66
683.314	53545.58
683.661	53462.2
684.009	53295.19
684.357	53236.89
684.705	53200.73
685.053	53247.29
685.4	53154.41
685.748	53050.46
686.095	52959.38
686.443	52876.9
686.79	52886.39
687.138	52868.31
687.485	52810.91
687.832	52645.72
688.18	52796
688.527	52534.99
688.874	52529.11
689.221	52468.32
689.568	52390.81
689.915	52353.07
690.262	52293.41
690.609	52221.32
690.956	52109.69
691.303	52027.88
691.65	51810.94
691.997	51846.42
692.344	51621.57
692.69	51701.34
693.037	51776.14
693.383	51237.4
693.73	51362.82
694.077	51253.44
694.423	51298.64
694.769	51107.23
695.116	51110.17
695.462	51049.38
695.808	50923.96
696.155	51015.93
696.501	50716.96
696.847	50741.82
697.193	50570.52
697.539	50680.12
697.885	50386.12
698.231	50188.16
698.577	50320.36
698.923	50175.73
699.269	50005.11
699.614	49894.15
699.96	49865.91
700.306	49763.08
700.651	49570.55
700.997	49489.87
701.342	49394.51
701.688	49359.03
702.033	49204.91
702.379	49255.98
702.724	49127.85
703.069	49063.89
703.415	48758.82
703.76	48729.44
704.105	48617.35
704.45	48676.79
704.795	48405.83
705.14	48318.6
705.485	48515.43
705.83	48092.85
706.175	48231.15
706.52	48198.38
706.865	47903.92
707.209	47920.19
707.554	47784.38
707.899	47919.06
708.243	47541.45
708.588	47542.8
708.932	47330.15
709.277	47281.12
709.621	47411.06
709.966	47063.95
710.31	47098.75
710.654	46833.67
710.998	46932.65
711.342	46847
711.687	46828.25
712.031	46650.4
712.375	46672.77
712.719	46604.52
713.063	46412.89
713.407	46564.52
713.75	46281.59
714.094	46328.15
714.438	46076.18
714.782	46127.25
715.125	45976.29
715.469	46060.58
715.812	45725.45
716.156	45595.51
716.499	45739.91
716.843	45685.23
717.186	45371.79
717.53	45509.86
717.873	45440.94
718.216	45239.81
718.559	45109.2
718.902	44904.68
719.246	45016.32
719.589	44676.21
719.932	44693.39
720.275	44616.33
720.617	44657.68
720.96	44640.96
721.303	44693.39
721.646	44582.66
721.989	44270.8
722.331	44527.06
722.674	44409.55
723.016	44348.09
723.359	44297.24
723.701	44211.59
724.044	44079.62
724.386	43888.66
724.729	43955.55
725.071	43835.33
725.413	43850.92
725.755	43788.78
726.097	43582
726.439	43489.8
726.782	43549.91
727.124	43670.82
727.465	43414.32
727.807	43368.45
728.149	43165.97
728.491	43151.51
728.833	43281.45
729.175	43108.12
729.516	43006.43
729.858	42956.26
730.199	42983.83
730.541	42824.74
730.882	42851.18
731.224	42903.38
731.565	42536.83
731.906	42576.15
732.248	42529.83
732.589	42339.1
732.93	42203.51
733.271	42159.89
733.612	42145.66
733.953	42261.13
734.294	42048.03
734.635	42029.95
734.976	41975.49
735.317	41811.2
735.658	41770.3
735.999	41889.84
736.339	41734.82
736.68	41777.08
737.021	41643.75
737.361	41246.25
737.702	41749.51
738.042	41392
738.383	41393.59
738.723	41337.77
739.063	41236.98
739.404	41366.92
739.744	41163.08
740.084	41058.23
740.424	41096.65
740.764	41075.4
741.104	41043.54
741.444	40782.08
741.784	40819.14
742.124	40816.2
742.464	40735.75
742.804	40647.17
743.143	40542.99
743.483	40475.64
743.823	40238.59
744.162	40140.96
744.502	40365.37
744.841	40131.02
745.181	40339.83
745.52	40136.44
745.86	40219.15
746.199	40036.56
746.538	40050.12
746.877	40078.14
747.216	40018.71
747.556	39843.35
747.895	39870.24
748.234	39621.2
748.573	39648.55
748.911	39555.67
749.25	39350.93
749.589	39392.96
749.928	39325.84
750.267	39473.64
750.605	39332.17
750.944	39067.32
751.283	39109.58
751.621	39073.65
751.96	38896.25
752.298	38886.31
752.636	38873.65
752.975	38587.78
753.313	38648.57
753.651	38716.37
753.989	38412.65
754.327	38334.01
754.666	38132.66
755.004	38345.98
755.342	38186.21
755.679	38002.94
756.017	37913.23
756.355	37931.3
756.693	37846.34
757.031	37857.41
757.368	37591.2
757.706	37628.26
758.044	37526.12
758.381	37599.56
758.719	37231.89
759.056	37387.59
759.394	37220.14
759.731	36949.18
760.068	36860.37
760.405	36597.78
760.743	36654.05
761.08	36716.87
761.417	36618.57
761.754	36471.91
762.091	36428.29
762.428	36191.46
762.765	35893.84
763.102	36120.73
763.438	35845.26
763.775	35757.35
764.112	35778.37
764.449	35709.67
764.785	35575.89
765.122	35345.38
765.458	35236.69
765.795	35252.73
766.131	35261.54
766.467	35156.46
766.804	35043.02
767.14	34798.96
767.476	34773.65
767.812	34524.84
768.148	34647.78
768.485	34354.22
768.821	34190.39
769.157	34160.56
769.492	34046.44
769.828	34034.46
770.164	33911.52
770.5	33704.75
770.836	33535.49
771.171	33294.14
771.507	33298.43
771.842	33140.92
772.178	33052.56
772.513	32967.82
772.849	32935.05
773.184	32814.15
773.519	32783.19
773.855	32516.53
774.19	32351.79
774.525	32291.45
774.86	32269.08
775.195	32127.39
775.53	32034.74
775.865	31866.83
776.2	31817.12
776.535	31361.53
776.87	31528.76
777.205	31356.11
777.539	31176.23
777.874	31390.46
778.209	31007.65
778.543	31023.46
778.878	30852.17
779.212	30668.67
779.547	30395.46
779.881	30511.61
780.215	30299.19
780.55	30523.82
780.884	30145.52
781.218	30135.35
781.552	30093.77
781.886	29960.44
782.22	29802.03
782.554	29672.76
782.888	29381.47
783.222	29235.04
783.556	29200.91
783.889	29028.26
784.223	29016.29
784.557	28857.19
784.89	28953.91
785.224	28809.28
785.557	28712.56
785.891	28735.61
786.224	28421.05
786.558	28515.51
786.891	28259.92
787.224	28130.21
787.557	28060.15
787.891	28090.21
788.224	27861.51
788.557	27907.39
788.89	27696.77
789.223	27737.45
789.556	27456.78
789.888	27376.33
790.221	27280.29
790.554	27141.76
790.887	27082.78
791.219	27171.14
791.552	27003.23
791.884	26713.29
792.217	26866.96
792.549	26547.65
792.882	26498.39
793.214	26418.39
793.546	26501.55
793.879	26368.22
794.211	26225.62
794.543	26198.51
794.875	26075.57
795.207	26125.29
795.539	25974.78
795.871	25956.93
796.203	25704.51
796.535	25566.21
796.867	25587.22
797.198	25518.52
797.53	25449.15
797.862	25203.05
798.193	25264.75
798.525	25100.68
798.856	25107.01
799.188	24848.49
799.519	24798.99
799.85	24631.32
800.182	24703.4
800.513	24671.77
800.844	24354.71
801.175	24567.59
801.506	24511.77
801.837	24409.17
802.168	24239.69
802.499	24250.76
802.83	24091.22
803.161	23976.64
803.491	23961.5
803.822	23984.1
804.153	23867.49
804.483	23694.62
804.814	23674.05
805.145	23637.9
805.475	23601.96
805.805	23461.63
806.136	23457.79
806.466	23345.02
806.796	23347.06
807.126	23155.87
807.457	23066.61
807.787	23115.65
808.117	23055.31
808.447	22873.85
808.777	22983
809.107	22847.63
809.436	22778.48
809.766	22688.54
810.096	22630.69
810.426	22701.87
810.755	22562.22
811.085	22549.56
811.414	22398.83
811.744	22357.7
812.073	22291.94
812.403	22177.14
812.732	22107.09
813.061	22149.57
813.39	22110.48
813.719	21973.08
814.049	22043.59
814.378	21950.26
814.707	21840.43
815.036	21851.73
815.365	21673.43
815.693	21504.84
816.022	21638.17
816.351	21472.3
816.68	21308.47
817.008	21438.86
817.337	21249.71
817.665	21277.51
817.994	21264.4
818.322	21258.97
818.651	21071.86
818.979	21134.68
819.307	21095.14
819.636	21060.11
819.964	20924.07
820.292	21001.13
820.62	20985.54
820.948	20856.27
821.276	20949.83
821.604	20680.01
821.932	20863.05
822.259	20915.93
822.587	20857.63
822.915	20763.62
823.243	20810.63
823.57	20831.19
823.898	20754.58
824.225	20736.73
824.553	20639.78
824.88	20657.86
825.207	20811.76
825.535	20695.37
825.862	20772.43
826.189	20694.7
826.516	20765.43
826.843	20814.47
827.17	20696.96
827.497	20823.51
827.824	20789.61
828.151	20863.73
828.478	20690.4
828.805	20697.41
829.131	20704.19
829.458	20724.07
829.785	20562.72
830.111	20616.51
830.438	20784.64
830.764	20669.16
831.09	20671.19
831.417	20528.15
831.743	20641.59
832.069	20646.79
832.395	20504.42
832.722	20603.85
833.048	20449.96
833.374	20559.11
833.7	20454.7
834.026	20480.01
834.351	20480.92
834.677	20455.83
835.003	20482.72
835.329	20462.84
835.654	20379.45
835.98	20385.55
836.306	20318.66
836.631	20229.4
836.956	20363.86
837.282	20301.94
837.607	20161.83
837.932	20103.3
838.258	20154.15
838.583	20125.45
838.908	19968.39
839.233	19986.01
839.558	20007.03
839.883	19932.91
840.208	19866.92
840.533	19873.93
840.858	19876.64
841.182	19839.8
841.507	19902.4
841.832	19636.87
842.156	19703.54
842.481	19604.1
842.805	19690.88
843.13	19515.07
843.454	19598.23
843.778	19445.01
844.103	19511.9
844.427	19399.81
844.751	19321.4
845.075	19260.84
845.399	19288.63
845.723	19084.57
846.047	19065.59
846.371	18896.33
846.695	18955.98
847.019	18765.03
847.343	18672.38
847.666	18535.43
847.99	18548.99
848.313	18542.89
848.637	18442.1
848.96	18355.55
849.284	18396.68
849.607	18182.67
849.931	18290.47
850.254	18044.37
850.577	18031.72
850.9	17836.92
851.223	17884.83
851.546	17601.9
851.869	17604.38
852.192	17717.37
852.515	17564.38
852.838	17551.28
853.161	17528.23
853.483	17287.78
853.806	17332.3
854.129	17195.13
854.451	17170.95
854.774	17076.94
855.096	17127.78
855.419	17060.22
855.741	17019.99
856.063	16938.86
856.385	16873.1
856.708	16767.57
857.03	16772.09
857.352	16824.29
857.674	16702.48
857.996	16721.24
858.318	16510.85
858.64	16550.62
858.961	16386.79
859.283	16406.67
859.605	16348.6
859.926	16350.18
860.248	16314.47
860.57	16206.68
860.891	16148.6
861.212	16111.77
861.534	16086.23
861.855	16063.41
862.176	16100.92
862.498	16048.49
862.819	15993.8
863.14	16053.01
863.461	15966.68
863.782	15896.4
864.103	15769.63
864.424	15823.41
864.745	15943.18
865.065	15771.66
865.386	15640.14
865.707	15643.98
866.027	15702.74
866.348	15563.76
866.668	15561.27
866.989	15470.88
867.309	15502.06
867.63	15526.92
867.95	15550.42
868.27	15412.35
868.59	15441.27
868.91	15425
869.23	15332.58
869.55	15259.58
869.87	15396.3
870.19	15312.69
870.51	15337.55
870.83	15313.82
871.15	15133.26
871.469	15058.23
871.789	15181.39
872.109	15172.81
872.428	15120.83
872.748	15048.29
873.067	15119.48
873.386	15130.55
873.706	15013.94
874.025	14995.41
874.344	14919.25
874.663	15006.71
874.982	14928.97
875.301	14954.51
875.62	14874.96
875.939	14908.86
876.258	14855.98
876.577	14726.94
876.896	14851.46
877.214	14756.77
877.533	14768.3
877.852	14752.48
878.17	14641.52
878.489	14774.85
878.807	14676.32
879.125	14709.09
879.444	14607.4
879.762	14508.87
880.08	14578.25
880.398	14516.1
880.716	14555.65
881.034	14427.97
881.352	14385.94
881.67	14340.06
881.988	14413.28
882.306	14387.97
882.624	14265.26
882.941	14264.81
883.259	14190.01
883.577	14212.83
883.894	14185.49
884.212	14183
884.529	14152.72
884.846	13972.16
885.164	14117.24
885.481	13948.88
885.798	14030.24
886.115	13877.02
886.432	13946.17
886.75	13806.06
887.067	13909.56
887.383	13753.86
887.7	13761.32
888.017	13809.68
888.334	13657.59
888.651	13630.93
888.967	13737.36
889.284	13627.09
889.6	13564.71
889.917	13438.62
890.233	13421.67
890.55	13366.98
890.866	13380.76
891.182	13355.91
891.498	13340.77
891.815	13193.42
892.131	13173.76
892.447	13206.53
892.763	13148.91
893.079	13047.67
893.395	13076.82
893.71	13067.78
894.026	13014.9
894.342	12943.71
894.657	12876.6
894.973	12907.78
895.289	12848.12
895.604	12919.76
895.92	12745.07
896.235	12650.39
896.55	12701.01
896.865	12653.33
897.181	12603.84
897.496	12611.97
897.811	12547.11
898.126	12488.58
898.441	12434.57
898.756	12449.26
899.071	12304.41
899.386	12338.76
899.7	12207.91
900.015	12227.12
900.33	12124.07
900.644	12139.67
900.959	12119.78
901.273	12040.23
901.588	12045.43
901.902	11922.05
902.216	11865.78
902.531	11856.28
902.845	11800.01
903.159	11741.49
903.473	11704.65
903.787	11640.92
904.101	11529.74
904.415	11516.63
904.729	11497.65
905.042	11474.6
905.356	11479.35
905.67	11468.5
905.984	11353.25
906.297	11302.85
906.611	11217.88
906.924	11234.61
907.237	11230.99
907.551	11099.92
907.864	11075.29
908.177	11025.57
908.491	11015.18
908.804	10951.9
909.117	10922.75
909.43	10852.47
909.743	10765.47
910.056	10749.19
910.368	10723.21
910.681	10682.3
910.994	10619.25
911.307	10644.34
911.619	10577
911.932	10568.41
912.244	10423.1
912.557	10454.29
912.869	10471.91
913.181	10310.56
913.494	10291.13
913.806	10213.39
914.118	10203.22
914.43	10068.08
914.742	10158.7
915.054	10016.78
915.366	10061.53
915.678	9953.74
915.99	9930.46
916.302	9932.49
916.613	9902.44
916.925	9814.98
917.236	9796.45
917.548	9714.65
917.859	9723.01
918.171	9586.51
918.482	9629.68
918.794	9537.25
919.105	9515.55
919.416	9443.69
919.727	9450.47
920.038	9434.88
920.349	9384.71
920.66	9241.44
920.971	9295
921.282	9225.84
921.593	9144.27
921.903	9175.68
922.214	9111.05
922.525	9105.62
922.835	9066.08
923.146	8982.24
923.456	8979.52
923.767	8886.42
924.077	8939.98
924.387	8856.14
924.697	8787.44
925.008	8771.17
925.318	8731.17
925.628	8700.44
925.938	8657.95
926.248	8628.35
926.558	8611.85
926.867	8550.16
927.177	8520.33
927.487	8442.14
927.796	8384.29
928.106	8398.75
928.416	8356.94
928.725	8384.06
929.034	8249.37
929.344	8279.43
929.653	8250.5
929.962	8142.26
930.271	8145.87
930.581	8151.52
930.89	8036.72
931.199	8050.51
931.508	7990.85
931.817	7991.08
932.125	7994.24
932.434	7921.47
932.743	7911.53
933.051	7747.92
933.36	7785.66
933.669	7735.71
933.977	7660.46
934.286	7731.65
934.594	7711.53
934.902	7606.68
935.21	7575.72
935.519	7629.95
935.827	7533.69
936.135	7463.18
936.443	7379.57
936.751	7347.25
937.059	7304.99
937.367	7364.43
937.674	7355.61
937.982	7283.98
938.29	7303.18
938.597	7264.54
938.905	7183.41
939.213	7180.7
939.52	7053.47
939.827	7155.62
940.135	7073.13
940.442	7016.41
940.749	7013.02
941.056	6992.23
941.363	6893.7
941.67	6905.68
941.977	6888.96
942.284	6800.6
942.591	6811.9
942.898	6786.81
943.205	6756.53
943.511	6689.87
943.818	6720.37
944.125	6667.27
944.431	6639.7
944.738	6632.47
945.044	6526.71
945.35	6542.98
945.657	6513.15
945.963	6438.8
946.269	6385.02
946.575	6451.68
946.881	6362.87
947.187	6378.69
947.493	6359.03
947.799	6348.86
948.105	6279.48
948.41	6268.18
948.716	6220.27
949.022	6208.3
949.327	6173.27
949.633	6161.29
949.938	6054.85
950.244	6041.97
950.549	6039.26
950.854	6014.18
951.16	5994.97
951.465	5997
951.77	5926.72
952.075	5931.69
952.38	5930.79
952.685	5902.99
952.99	5858.7
953.294	5763.11
953.599	5816.44
953.904	5782.09
954.209	5726.05
954.513	5699.84
954.818	5690.57
955.122	5670.91
955.426	5634.53
955.731	5519.28
956.035	5588.2
956.339	5551.82
956.643	5551.37
956.948	5544.59
957.252	5489.67
957.556	5484.25
957.86	5416
958.163	5453.29
958.467	5432.5
958.771	5392.05
959.075	5334.87
959.378	5310.02
959.682	5321.31
959.985	5256.91
960.289	5261.2
960.592	5197.48
960.896	5222.11
961.199	5218.94
961.502	5169.45
961.805	5124.48
962.108	5071.83
962.411	5092.85
962.714	5065.73
963.017	5048.55
963.32	5028.67
963.623	4953.87
963.926	4974.66
964.228	4972.85
964.531	4982.79
964.833	4915.45
965.136	4860.76
965.438	4858.28
965.741	4855.11
966.043	4811.27
966.345	4786.19
966.648	4779.41
966.95	4714.1
967.252	4720.88
967.554	4710.03
967.856	4687.21
968.158	4654.44
968.46	4663.93
968.761	4581
969.063	4664.16
969.365	4628.23
969.666	4581.9
969.968	4544.16
970.269	4486.53
970.571	4503.71
970.872	4475.69
971.174	4463.71
971.475	4402.69
971.776	4465.97
972.077	4466.2
972.378	4413.77
972.679	4382.58
972.98	4348.23
973.281	4294.45
973.582	4300.1
973.883	4274.11
974.183	4233.43
974.484	4218.07
974.785	4272.98
975.085	4216.03
975.386	4217.39
975.686	4177.39
975.986	4128.8
976.287	4085.42
976.587	4107.34
976.887	4090.61
977.187	4078.18
977.487	4066.21
977.787	4016.49
978.087	4042.25
978.387	4053.1
978.687	3994.8
978.987	3937.4
979.286	3948.24
979.586	3910.5
979.885	3924.06
980.185	3875.03
980.484	3868.47
980.784	3830.51
981.083	3868.7
981.382	3861.01
981.682	3823.05
981.981	3822.6
982.28	3812.65
982.579	3734.24
982.878	3784.41
983.177	3770.4
983.475	3773.33
983.774	3690.4
984.073	3694.47
984.372	3657.86
984.67	3646.78
984.969	3632.09
985.267	3616.27
985.566	3615.82
985.864	3530.85
986.162	3548.25
986.461	3541.93
986.759	3545.77
987.057	3506.9
987.355	3483.4
987.653	3472.1
987.951	3404.08
988.249	3418.54
988.547	3444.98
988.844	3431.87
989.142	3361.59
989.44	3367.02
989.737	3377.41
990.035	3370.63
990.332	3362.72
990.63	3338.77
990.927	3359.78
991.224	3310.52
991.521	3290.41
991.819	3276.4
992.116	3284.76
992.413	3195.5
992.71	3234.14
993.006	3180.35
993.303	3179.22
993.6	3168.6
993.897	3164.99
994.193	3134.03
994.49	3091.32
994.787	3068.27
995.083	3098.77
995.379	3054.71
995.676	3020.13
995.972	3042.5
996.268	3016.29
996.565	3032.34
996.861	2969.29
997.157	2976.97
997.453	2968.16
997.749	2914.15
998.044	2921.6
998.34	2887.93
998.636	2914.82
998.932	2877.31
999.227	2837.31
999.523	2798.22
999.818	2806.35
1000.114	2796.41
1000.409	2785.11
1000.704	2804.54
1001	2747.6
1001.295	2756.18
1001.59	2738.11
1001.885	2753.47
1002.18	2717.99
1002.475	2712.57
1002.77	2708.28
1003.065	2655.4
1003.359	2649.52
1003.654	2616.98
1003.949	2574.04
1004.243	2607.94
1004.538	2588.28
1004.832	2561.61
1005.127	2528.17
1005.421	2485.46
1005.715	2541.5
1006.009	2516.19
1006.304	2530.2
1006.598	2480.71
1006.892	2442.97
1007.186	2452.01
1007.48	2454.27
1007.773	2453.37
1008.067	2416.31
1008.361	2353.03
1008.655	2402.07
1008.948	2358.68
1009.242	2363.43
1009.535	2343.31
1009.829	2332.92
1010.122	2344.9
1010.415	2276.65
1010.708	2282.98
1011.001	2273.26
1011.295	2273.71
1011.588	2221.28
1011.881	2242.07
1012.173	2202.75
1012.466	2218.57
1012.759	2191.23
1013.052	2170.21
1013.344	2106.26
1013.637	2151.91
1013.93	2134.96
1014.222	2149.65
1014.514	2111.23
1014.807	2113.04
1015.099	2086.15
1015.391	2049.54
1015.683	2067.39
1015.976	2042.98
1016.268	2044.79
1016.56	2021.29
1016.851	2015.19
1017.143	1991.23
1017.435	1974.06
1017.727	1953.27
1018.018	1977.22
1018.31	1958.92
1018.602	1922.76
1018.893	1920.05
1019.185	1913.95
1019.476	1869.43
1019.767	1875.08
1020.058	1853.61
1020.35	1835.08
1020.641	1842.76
1020.932	1820.62
1021.223	1803.22
1021.514	1823.1
1021.804	1790.56
1022.095	1770.9
1022.386	1744.46
1022.677	1777.91
1022.967	1735.65
1023.258	1735.42
1023.548	1717.79
1023.839	1717.34
1024.129	1697.68
1024.419	1672.37
1024.709	1656.33
1025	1660.85
1025.29	1644.12
1025.58	1597.12
1025.87	1642.09
1026.16	1613.39
1026.449	1607.51
1026.739	1554.86
1027.029	1602.99
1027.319	1561.19
1027.608	1522.09
1027.898	1555.99
1028.187	1500.4
1028.477	1519.83
1028.766	1510.12
1029.055	1489.78
1029.344	1475.77
1029.634	1472.15
1029.923	1470.34
1030.212	1455.65
1030.501	1442.55
1030.79	1425.82
1031.078	1425.6
1031.367	1408.2
1031.656	1412.72
1031.945	1372.72
1032.233	1390.57
1032.522	1373.62
1032.81	1354.19
1033.099	1353.74
1033.387	1335.66
1033.675	1349.44
1033.963	1309.22
1034.251	1299.5
1034.54	1311.93
1034.828	1304.02
1035.116	1302.44
1035.403	1292.04
1035.691	1263.57
1035.979	1261.53
1036.267	1298.6
1036.554	1221.54
1036.842	1243.68
1037.129	1231.93
1037.417	1220.18
1037.704	1219.05
1037.992	1205.94
1038.279	1215.89
1038.566	1188.32
1038.853	1188.32
1039.14	1188.32
