Data from White_paper_FLMS001491_098.txt Node
Date: Tue Feb 07 10:35:50 GMT 2017
User: dcchb
Spectrometer: FLMS00149
Trigger mode: 0
Integration Time (sec): 2.000000E-2
Scans to average: 10
Electric dark correction enabled: true
Nonlinearity correction enabled: false
Boxcar width: 0
XAxis mode: Wavelengths
Number of Pixels in Spectrum: 2048
>>>>>Begin Spectral Data<<<<<
341.393	-18.81
341.776	-18.81
342.16	-18.81
342.543	-54.52
342.927	-39.6
343.31	-59.94
343.693	-63.33
344.077	-60.39
344.46	-57.91
344.843	-60.85
345.226	-56.78
345.61	-40.73
345.993	-5.48
346.376	-3.22
346.759	24.8
347.142	29.32
347.525	22.54
347.908	68.42
348.291	86.95
348.674	85.82
349.057	90.79
349.44	124.01
349.823	132.37
350.206	181.18
350.588	211.24
350.971	246.94
351.354	254.4
351.737	259.15
352.119	276.09
352.502	285.81
352.884	286.04
353.267	304.57
353.65	317
354.032	326.04
354.414	328.97
354.797	343.44
355.179	328.75
355.562	338.69
355.944	357.67
356.326	344.79
356.709	362.42
357.091	368.52
357.473	365.58
357.855	364.91
358.238	354.06
358.62	382.08
359.002	352.7
359.384	371.46
359.766	362.19
360.148	366.71
360.53	363.78
360.912	366.49
361.294	366.94
361.676	365.36
362.057	367.17
362.439	372.82
362.821	364
363.203	366.49
363.584	350.44
363.966	365.13
364.348	357.9
364.729	376.43
365.111	352.93
365.493	356.32
365.874	363.55
366.256	361.06
366.637	343.21
367.019	352.48
367.4	347.73
367.781	353.38
368.163	347.28
368.544	349.99
368.925	338.24
369.306	357
369.688	364.68
370.069	347.96
370.45	350.67
370.831	356.32
371.212	371.23
371.593	359.26
371.974	357.45
372.355	370.56
372.736	368.52
373.117	367.39
373.498	352.25
373.879	369.2
374.26	357
374.641	385.7
375.021	387.96
375.402	366.49
375.783	384.11
376.163	375.98
376.544	385.47
376.925	385.7
377.305	401.29
377.686	383.66
378.066	412.14
378.447	408.52
378.827	378.01
379.208	384.11
379.588	391.8
379.968	403.77
380.349	400.84
380.729	402.19
381.109	410.33
381.489	400.16
381.87	399.48
382.25	395.87
382.63	421.85
383.01	417.33
383.39	422.98
383.77	416.43
384.15	421.18
384.53	427.5
384.91	411.46
385.29	439.71
385.67	443.55
386.049	434.51
386.429	476.77
386.809	441.29
387.189	461.85
387.568	455.75
387.948	459.82
388.328	459.37
388.707	467.05
389.087	485.58
389.466	460.04
389.846	465.02
390.225	465.24
390.605	466.6
390.984	483.77
391.363	504.34
391.743	514.51
392.122	496.43
392.501	513.83
392.881	534.39
393.26	527.16
393.639	516.31
394.018	531.45
394.397	545.24
394.776	571.45
395.155	559.25
395.534	538.69
395.913	545.47
396.292	562.41
396.671	547.27
397.05	547.95
397.429	578.23
397.808	564
398.186	590.21
398.565	598.57
398.944	591.57
399.323	601.96
399.701	605.13
400.08	606.71
400.458	641.51
400.837	649.19
401.215	632.92
401.594	615.75
401.972	629.53
402.351	659.36
402.729	658.68
403.107	679.02
403.486	673.82
403.864	696.42
404.242	719.02
404.62	710.21
404.999	730.09
405.377	736.65
405.755	748.62
406.133	773.48
406.511	811.67
406.889	803.31
407.267	821.84
407.645	813.71
408.023	851.45
408.401	874.04
408.779	902.52
409.156	907.94
409.534	939.35
409.912	975.06
410.29	977.54
410.667	1001.5
411.045	1033.81
411.422	1031.33
411.8	1057.32
412.178	1106.36
412.555	1118.11
412.933	1144.32
413.31	1175.51
413.687	1188.39
414.065	1234.04
414.442	1231.78
414.819	1308.16
415.197	1295.95
415.574	1314.49
415.951	1382.96
416.328	1366.24
416.705	1405.56
417.082	1422.73
417.46	1443.75
417.837	1500.92
418.214	1492.79
418.591	1515.16
418.967	1551.09
419.344	1590.64
419.721	1608.26
420.098	1613.46
420.475	1617.08
420.852	1697.3
421.228	1690.29
421.605	1735.72
421.982	1730.52
422.358	1780.69
422.735	1806.9
423.111	1813.91
423.488	1850.06
423.864	1883.51
424.241	1899.55
424.617	1905.43
424.994	1918.54
425.37	1940.46
425.746	1971.42
426.123	2054.35
426.499	2034.47
426.875	2071.98
427.251	2102.71
427.627	2144.52
428.003	2179.55
428.379	2229.72
428.756	2245.76
429.132	2269.04
429.507	2283.95
429.883	2337.96
430.259	2351.07
430.635	2400.11
431.011	2425.64
431.387	2502.02
431.763	2499.31
432.138	2533.21
432.514	2615.02
432.89	2610.04
433.265	2651.17
433.641	2702.25
434.016	2700.66
434.392	2791.28
434.767	2818.17
435.143	2859.98
435.518	2876.93
435.894	2908.79
436.269	2956.93
436.644	3008.45
437.02	3012.97
437.395	3057.72
437.77	3093.42
438.145	3156.7
438.52	3128.9
438.895	3206.41
439.271	3170.26
439.646	3281.44
440.021	3303.36
440.395	3318.05
440.77	3316.24
441.145	3360.53
441.52	3407.54
441.895	3398.5
442.27	3462.45
442.645	3456.8
443.019	3528.44
443.394	3493.64
443.769	3557.82
444.143	3533.86
444.518	3624.71
444.892	3594.65
445.267	3631.94
445.641	3647.08
446.016	3667.42
446.39	3690.92
446.764	3723.24
447.139	3705.38
447.513	3774.08
447.887	3809.11
448.262	3799.62
448.636	3812.5
449.01	3885.72
449.384	3917.58
449.758	3929.56
450.132	3984.7
450.506	3954.64
450.88	4024.47
451.254	4059.05
451.628	4074.64
452.002	4137.69
452.376	4184.01
452.75	4217.91
453.123	4250.23
453.497	4280.28
453.871	4370
454.244	4384.69
454.618	4473.95
454.992	4521.86
455.365	4535.19
455.739	4635.98
456.112	4667.17
456.486	4699.03
456.859	4747.62
457.232	4849.08
457.606	4855.64
457.979	4954.62
458.352	5011.11
458.725	5028.29
459.099	5050.43
459.472	5184.44
459.845	5215.63
460.218	5286.58
460.591	5329.07
460.964	5358.67
461.337	5473.47
461.71	5516.86
462.083	5644.54
462.456	5620.59
462.829	5677.53
463.201	5800.69
463.574	5796.63
463.947	5875.95
464.32	6057.19
464.692	6075.72
465.065	6137.86
465.438	6244.3
465.81	6279.55
466.183	6294.24
466.555	6511.41
466.928	6458.3
467.3	6522.48
467.672	6679.09
468.045	6804.28
468.417	6851.74
468.789	6890.38
469.161	6991.85
469.534	7115.69
469.906	7276.59
470.278	7314.55
470.65	7408.11
471.022	7498.05
471.394	7677.48
471.766	7731.27
472.138	7800.19
472.51	7984.82
472.882	8056.23
473.253	8190.91
473.625	8342.1
473.997	8522.88
474.369	8570.34
474.74	8636.78
475.112	8751.8
475.484	8977.11
475.855	9099.14
476.227	9183.43
476.598	9478.11
476.97	9473.14
477.341	9710.65
477.713	9812.79
478.084	9902.51
478.455	10203.29
478.827	10309.5
479.198	10572.09
479.569	10588.37
479.94	10883.5
480.311	10898.64
480.682	11252.75
481.053	11435.8
481.424	11614.55
481.795	11756.02
482.166	11895.68
482.537	12093.64
482.908	12318.04
483.279	12387.87
483.65	12627.18
484.021	12862.2
484.391	13036.66
484.762	13200.95
485.133	13287.73
485.503	13451.79
485.874	13756.87
486.244	13855.17
486.615	14080.7
486.985	14256.52
487.356	14603.4
487.726	14593.68
488.097	15000
488.467	15066.21
488.837	15328.13
489.207	15444.74
489.578	15701
489.948	15843.14
490.318	16122.01
490.688	16112.74
491.058	16388.67
491.428	16613.97
491.798	16728.54
492.168	17016.67
492.538	17103.22
492.908	17320.17
493.278	17594.51
493.648	17495.53
494.017	17727.16
494.387	17917.21
494.757	18038.34
495.126	18278.78
495.496	18283.76
495.866	18499.57
496.235	18687.14
496.605	18890.07
496.974	19017.52
497.344	19131.87
497.713	19171.87
498.082	19458.87
498.452	19656.38
498.821	19709.03
499.19	19732.98
499.559	19865.64
499.928	20081.22
500.298	20178.4
500.667	20299.97
501.036	20423.14
501.405	20595.56
501.774	20554.66
502.143	20732.51
502.512	20861.09
502.88	21134.53
503.249	21178.14
503.618	21272.83
503.987	21400.51
504.356	21513.5
504.724	21580.39
505.093	21820.61
505.462	21789.88
505.83	21974.51
506.199	22279.58
506.567	22479.35
506.936	22534.49
507.304	22668.73
507.672	22867.82
508.041	22965.67
508.409	23088.6
508.777	23177.41
509.145	23489.5
509.514	23394.81
509.882	23599.77
510.25	23719.09
510.618	23832.09
510.986	24067.33
511.354	24260.32
511.722	24409.92
512.09	24672.74
512.458	24640.43
512.826	24889.68
513.193	25112.5
513.561	25005.84
513.929	25343.23
514.297	25486.73
514.664	25655.77
515.032	25878.36
515.4	25983.22
515.767	26112.7
516.135	26248.97
516.502	26192.48
516.869	26578.91
517.237	26722.63
517.604	26665.01
517.972	27054.6
518.339	27130.3
518.706	27210.08
519.073	27467.7
519.44	27562.16
519.808	28043.05
520.175	27894.35
520.542	28213.66
520.909	28469.25
521.276	28392.19
521.643	28830.37
522.009	28913.53
522.376	29009.12
522.743	29311.04
523.11	29525.72
523.477	29811.59
523.843	29992.6
524.21	30337
524.577	30534.06
524.943	30579.03
525.31	30841.84
525.676	31120.03
526.043	31246.13
526.409	31361.15
526.776	31733.12
527.142	31842.04
527.508	32046.56
527.874	32280.9
528.241	32383.05
528.607	32596.15
528.973	32749.59
529.339	32864.16
529.705	33250.59
530.071	33427.09
530.437	33567.65
530.803	33805.61
531.169	33935.77
531.535	33899.62
531.901	34089.22
532.267	34404.24
532.632	34492.6
532.998	34628.64
533.364	34807.39
533.73	34809.88
534.095	35313.59
534.461	35276.53
534.826	35548.39
535.192	35589.97
535.557	35911.77
535.923	35889.85
536.288	35995.61
536.653	36330.97
537.019	36174.13
537.384	36295.49
537.749	36603.05
538.114	36631.07
538.479	36553.11
538.845	36853.89
539.21	36898.86
539.575	37055.69
539.94	37291.62
540.305	37476.47
540.67	37397.15
541.034	37547.43
541.399	37676.47
541.764	37821.1
542.129	38080.3
542.494	38088.66
542.858	38306.96
543.223	38329.33
543.587	38548.99
543.952	38510.57
544.316	38608.19
544.681	38676.89
545.045	38882.76
545.41	39259.02
545.774	39261.51
546.138	39388.06
546.503	39474.84
546.867	39454.05
547.231	39890.42
547.595	39870.76
547.959	40040.92
548.324	40150.98
548.688	40152.11
549.052	40461.93
549.416	40454.92
549.779	40613.79
550.143	40516.62
550.507	40840.23
550.871	40910.28
551.235	41057.62
551.599	41396.37
551.962	41334
552.326	41513.2
552.689	41674.1
553.053	41531.96
553.417	41767.21
553.78	42224.37
554.143	42098.05
554.507	42375.78
554.87	42476.79
555.234	42762.66
555.597	42608.77
555.96	42824.13
556.323	43070
556.686	43020.28
557.05	43361.97
557.413	43454.62
557.776	43512.47
558.139	43718.34
558.502	43807.61
558.865	44048.28
559.228	44324.43
559.59	44427.7
559.953	44616.62
560.316	44705.43
560.679	44884.19
561.041	45103.16
561.404	45170.06
561.767	45457.28
562.129	45315.36
562.492	45704.05
562.854	45787.67
563.217	45819.76
563.579	46175.9
563.941	46364.83
564.304	46403.02
564.666	46686.63
565.028	46692.73
565.39	46839.16
565.753	47113.51
566.115	47213.62
566.477	47337.68
566.839	47386.72
567.201	47820.83
567.563	47749.42
567.925	48130.2
568.287	48063.99
568.648	48116.42
569.01	48361.61
569.372	48669.62
569.734	48527.26
570.095	48813.58
570.457	49028.71
570.819	49135.6
571.18	49014.47
571.542	49287.46
571.903	49394.58
572.265	49642.93
572.626	49593.89
572.987	49616.72
573.349	49744.4
573.71	49989.59
574.071	49971.96
574.432	50115.01
574.794	50421.67
575.155	50300.54
575.516	50296.25
575.877	50470.71
576.238	50490.14
576.599	50708.44
576.96	50758.61
577.32	50900.53
577.681	51026.17
578.042	51009.45
578.403	50983.46
578.763	51095.32
579.124	51201.31
579.485	51315.66
579.845	51437.01
580.206	51297.58
580.566	51358.37
580.927	51385.71
581.287	51515.88
581.648	51415.54
582.008	51686.95
582.368	51625.03
582.728	51715.87
583.089	51762.42
583.449	51634.52
583.809	51678.13
584.169	51848.07
584.529	51738.02
584.889	52019.14
585.249	51860.05
585.609	51772.37
585.969	51921.52
586.329	51899.6
586.688	51918.8
587.048	51999.93
587.408	51926.04
587.768	51944.11
588.127	51935.08
588.487	51961.06
588.846	52245.8
589.206	52018.69
589.565	52062.76
589.925	52231.79
590.284	52157.67
590.643	52202.86
591.003	52269.08
591.362	52290.77
591.721	52274.73
592.08	52314.05
592.44	52283.09
592.799	52364.67
593.158	52318.57
593.517	52399.7
593.876	52492.8
594.235	52342.07
594.593	52405.12
594.952	52500.26
595.311	52406.25
595.67	52428.62
596.029	52670.65
596.387	52716.3
596.746	52670.2
597.104	52587.71
597.463	52591.33
597.822	52764.43
598.18	52665.68
598.538	52662.74
598.897	52814.37
599.255	52555.85
599.613	53006.23
599.972	52766.01
600.33	52909.96
600.688	52781.15
601.046	52886.46
601.404	53043.75
601.762	52989.74
602.12	53090.3
602.478	53012.11
602.836	53180.01
603.194	52913.13
603.552	53023.86
603.91	52898.67
604.268	53135.95
604.625	53023.18
604.983	53188.6
605.341	52962.62
605.698	53185.89
606.056	53344.53
606.413	53201.93
606.771	53218.88
607.128	53327.13
607.485	53247.13
607.843	53302.72
608.2	53414.13
608.557	53549.95
608.914	53374.81
609.272	53557.18
609.629	53524.41
609.986	53681.47
610.343	53528.25
610.7	53731.64
611.057	53679.66
611.414	53629.95
611.771	53694.35
612.127	53761.47
612.484	53766.21
612.841	53847.12
613.198	53778.42
613.554	53882.59
613.911	54040.33
614.267	53989.48
614.624	53903.38
614.98	53948.81
615.337	54071.97
615.693	53997.17
616.05	53991.74
616.406	54169.59
616.762	54066.77
617.118	54014.79
617.475	54051.4
617.831	54183.38
618.187	54181.8
618.543	54165.3
618.899	54262.7
619.255	54345.86
619.611	54257.5
619.967	54407.78
620.323	54462.24
620.678	54280.32
621.034	54228.12
621.39	54293.21
621.746	54189.71
622.101	54455.69
622.457	54292.08
622.812	54301.34
623.168	54399.87
623.523	54426.99
623.879	54429.92
624.234	54290.72
624.589	54360.77
624.945	54394.67
625.3	54413.43
625.655	54410.04
626.01	54436.48
626.365	54424.5
626.72	54390.38
627.075	54350.83
627.43	54390.6
627.785	54307.44
628.14	54479.87
628.495	54431.96
628.85	54351.51
629.205	54292.53
629.559	54449.13
629.914	54412.52
630.269	54330.27
630.623	54249.59
630.978	54289.14
631.332	54471.73
631.687	54453.65
632.041	54343.83
632.396	54368.23
632.75	54273.54
633.104	54349.25
633.459	54202.59
633.813	54184.28
634.167	54218.18
634.521	54170.27
634.875	54182.93
635.229	54194.45
635.583	54069.03
635.937	54118.29
636.291	54163.94
636.645	54059.09
636.999	54020.22
637.352	54094.57
637.706	53868.13
638.06	54046.43
638.413	53969.6
638.767	53957.62
639.121	53975.25
639.474	53707.46
639.828	53904.74
640.181	53856.38
640.534	53914.91
640.888	53767.34
641.241	53730.51
641.594	53708.36
641.947	53845.08
642.301	53782.03
642.654	53738.87
643.007	53777.51
643.36	53769.15
643.713	53654.35
644.066	53721.92
644.419	53577.07
644.771	53402.61
645.124	53133.46
645.477	53019.11
645.83	52932.11
646.182	52863.64
646.535	52758.1
646.888	52795.84
647.24	52613.02
647.593	52853.92
647.945	52690.76
648.298	52577.32
648.65	52570.99
649.002	52451.45
649.355	52705.22
649.707	52495.96
650.059	52740.48
650.411	53232.89
650.763	53151.09
651.115	53358.99
651.467	53361.93
651.819	53290.52
652.171	53231.31
652.523	53252.1
652.875	53168.94
653.227	53150.64
653.578	53292.78
653.93	53225.44
654.282	53071.09
654.633	53137.98
654.985	53062.5
655.337	53060.47
655.688	53124.87
656.039	53226.79
656.391	52938.89
656.742	52869.97
657.094	52995.84
657.445	53077.64
657.796	52963.97
658.147	53006.46
658.498	52925.11
658.849	52997.42
659.2	52924.2
659.551	52886.24
659.902	53029.51
660.253	52891.43
660.604	52969.17
660.955	52785
661.306	52990.87
661.656	52810.98
662.007	52895.05
662.358	52808.05
662.708	52760.14
663.059	52851.89
663.409	52732.34
663.76	52840.14
664.11	52787.93
664.461	52794.26
664.811	52882.85
665.161	52745
665.511	52643.76
665.862	52766.47
666.212	52704.09
666.562	52733.25
666.912	52650.54
667.262	52644.66
667.612	52648.28
667.962	52719.91
668.312	52587.49
668.662	52717.43
669.011	52656.41
669.361	52514.49
669.711	52521.05
670.06	52427.94
670.41	52423.88
670.76	52386.81
671.109	52404.44
671.459	52477.43
671.808	52403.09
672.157	52410.99
672.507	52231.79
672.856	52349.98
673.205	52328.74
673.554	52359.24
673.904	52259.81
674.253	52460.71
674.602	52284.67
674.951	51725.59
675.3	51571.69
675.649	52130.55
675.998	52079.03
676.346	52108.63
676.695	52109.31
677.044	51915.41
677.393	52001.74
677.741	52009.42
678.09	51955.19
678.438	51822.54
678.787	51947.28
679.135	51891.46
679.484	51588.87
679.832	51709.77
680.181	51431.81
680.529	51590
680.877	51514.3
681.225	51528.31
681.573	51551.13
681.922	51356.11
682.27	51226.39
682.618	51342.1
682.966	51160.41
683.314	51201.54
683.661	51155.89
684.009	50947.53
684.357	51048.77
684.705	50798.83
685.053	50842
685.4	50830.92
685.748	50519.97
686.095	50560.87
686.443	50459.18
686.79	50425.96
687.138	50477.49
687.485	50498.05
687.832	50292.63
688.18	50394.1
688.527	50117.5
688.874	50080.89
689.221	49990.72
689.568	49875.02
689.915	49695.59
690.262	49784.85
690.609	49683.38
690.956	49630.5
691.303	49458.3
691.65	49286.56
691.997	49367.46
692.344	49026.23
692.69	48968.6
693.037	49089.05
693.383	48654.71
693.73	48845.44
694.077	48818.55
694.423	48659.68
694.769	48441.16
695.116	48403.42
695.462	48385.79
695.808	48254.49
696.155	48256.08
696.501	47984.67
696.847	48087.72
697.193	47714.85
697.539	47833.71
697.885	47592.82
698.231	47445.25
698.577	47414.52
698.923	47413.39
699.269	47137.46
699.614	47046.62
699.96	46919.16
700.306	46890.01
700.651	46864.93
700.997	46709.9
701.342	46646.4
701.688	46655.44
702.033	46406.63
702.379	46479.17
702.724	46363.47
703.069	46407.08
703.415	45931.62
703.76	45874.67
704.105	45901.56
704.45	45785.18
704.795	45506.09
705.14	45604.85
705.485	45493.21
705.83	45270.17
706.175	45322.59
706.52	45188.59
706.865	45132.54
707.209	44913.79
707.554	44886.45
707.899	44976.84
708.243	44723.51
708.588	44757.86
708.932	44312.68
709.277	44367.14
709.621	44428.83
709.966	44096.64
710.31	44157.65
710.654	43983.19
710.998	44020.03
711.342	44014.15
711.687	43893.03
712.031	43657.78
712.375	43573.04
712.719	43651.23
713.063	43697.1
713.407	43583.2
713.75	43406.26
714.094	43238.81
714.438	43252.59
714.782	43167.62
715.125	43050.56
715.469	43232.25
715.812	42958.59
716.156	42705.71
716.499	42735.09
716.843	42884.24
717.186	42482.22
717.53	42707.75
717.873	42635.66
718.216	42583
718.559	42482.89
718.902	42144.82
719.246	42107.76
719.589	42094.2
719.932	41934.43
720.275	41939.86
720.617	41834.55
720.96	41842.01
721.303	41931.27
721.646	41832.74
721.989	41656.25
722.331	41647.89
722.674	41520.21
723.016	41587.78
723.359	41384.62
723.701	41533.54
724.044	41198.18
724.386	41021.69
724.729	41258.97
725.071	40998.64
725.413	41107.34
725.755	40845.65
726.097	40926.33
726.439	40623.28
726.782	40724.75
727.124	40910.28
727.465	40663.28
727.807	40527.69
728.149	40468.03
728.491	40530.86
728.833	40466.45
729.175	40345.78
729.516	40221.94
729.858	40206.12
730.199	40336.51
730.541	40137.65
730.882	40132.67
731.224	40322.5
731.565	39863.08
731.906	39902.85
732.248	39920.7
732.589	39746.7
732.93	39593.93
733.271	39657.66
733.612	39580.15
733.953	39653.36
734.294	39575.85
734.635	39390.55
734.976	39505.35
735.317	39235.75
735.658	39136.99
735.999	39299.48
736.339	39089.99
736.68	39368.85
737.021	39131.57
737.361	38826.27
737.702	39164.11
738.042	39017.67
738.383	38828.3
738.723	38926.15
739.063	38658.81
739.404	38779.49
739.744	38691.58
740.084	38696.33
740.424	38647.06
740.764	38463.79
741.104	38516.9
741.444	38356
741.784	38280.74
742.124	38307.64
742.464	38348.31
742.804	38299.05
743.143	38071.03
743.483	38104.7
743.823	38003.92
744.162	38045.27
744.502	38116
744.841	37870.13
745.181	37948.1
745.52	37736.58
745.86	37940.64
746.199	37749.01
746.538	37757.37
746.877	37685.05
747.216	37715.34
747.556	37554.89
747.895	37643.93
748.234	37502.91
748.573	37294.56
748.911	37408.9
749.25	37306.31
749.589	37195.12
749.928	37121.45
750.267	37192.19
750.605	37099.98
750.944	36833.55
751.283	36825.42
751.621	36898.18
751.96	36559.21
752.298	36623.39
752.636	36702.03
752.975	36478.98
753.313	36281.7
753.651	36520.57
753.989	36334.13
754.327	36256.62
754.666	36030.63
755.004	36200.35
755.342	36210.29
755.679	36089.16
756.017	35928.26
756.355	35955.83
756.693	35687.82
757.031	35794.03
757.368	35581.61
757.706	35471.1
758.044	35400.14
758.381	35391.33
758.719	35247.38
759.056	35319.69
759.394	35220.94
759.731	34922.64
760.068	34894.17
760.405	34740.27
760.743	34547.96
761.08	34651.24
761.417	34519.26
761.754	34395.88
762.091	34431.35
762.428	34242.88
762.765	34008.09
763.102	34191.13
763.438	33920.18
763.775	33783.24
764.112	33752.95
764.449	33835.21
764.785	33626.86
765.122	33425.05
765.458	33305.28
765.795	33266.64
766.131	33266.64
766.467	33013.54
766.804	32975.12
767.14	32711.85
767.476	32847.44
767.812	32654
768.148	32779.87
768.485	32371.52
768.821	32397.51
769.157	32192.54
769.492	32219.21
769.828	32073.22
770.164	31914.81
770.5	31801.14
770.836	31801.82
771.171	31573.35
771.507	31495.16
771.842	31290.19
772.178	31382.4
772.513	31104.66
772.849	31072.12
773.184	31200.71
773.519	30884.56
773.855	30809.53
774.19	30579.7
774.525	30589.87
774.86	30647.73
775.195	30541.97
775.53	30345.81
775.865	30124.58
776.2	29921.87
776.535	29767.3
776.87	29759.84
777.205	29773.62
777.539	29571.6
777.874	29634.19
778.209	29367.76
778.543	29301.32
778.878	29125.73
779.212	29051.61
779.547	29008.45
779.881	29079.63
780.215	28705.63
780.55	28858.62
780.884	28589.7
781.218	28498.86
781.552	28525.52
781.886	28386.77
782.22	28209.6
782.554	28148.81
782.888	27867.46
783.222	27824.3
783.556	27773.9
783.889	27653.23
784.223	27598.54
784.557	27486
784.89	27453.46
785.224	27470.18
785.557	27151.55
785.891	27042.17
786.224	27010.98
786.558	26900.03
786.891	26719.47
787.224	26668.85
787.557	26557.89
787.891	26520.38
788.224	26533.26
788.557	26504.11
788.89	26330.32
789.223	26322.19
789.556	26038.35
789.888	26074.29
790.221	25890.56
790.554	25796.33
790.887	25763.79
791.219	25564.24
791.552	25718.14
791.884	25538.93
792.217	25439.95
792.549	25211.71
792.882	25082.45
793.214	25051.71
793.546	25063.47
793.879	24952.96
794.211	24810.36
794.543	25049.45
794.875	24656.24
795.207	24785.28
795.539	24694.21
795.871	24635.45
796.203	24421.45
796.535	24248.57
796.867	24269.59
797.198	24275.92
797.53	24194.79
797.862	24055.81
798.193	23927.68
798.525	23903.27
798.856	23950.73
799.188	23677.06
799.519	23598.19
799.85	23563.62
800.182	23485.2
800.513	23506.9
800.844	23206.34
801.175	23334.92
801.506	23253.8
801.837	23157.07
802.168	23128.37
802.499	23011.77
802.83	22922.96
803.161	22812.68
803.491	22817.65
803.822	22805.45
804.153	22747.82
804.483	22602.97
804.814	22409.07
805.145	22452.91
805.475	22407.49
805.805	22330.88
806.136	22169.76
806.466	22295.4
806.796	22200.72
807.126	22045.47
807.457	22002.08
807.787	21961.63
808.117	21887.73
808.447	21747.17
808.777	21758.69
809.107	21761.41
809.436	21624.01
809.766	21615.65
810.096	21610.45
810.426	21417.23
810.755	21448.42
811.085	21516.44
811.414	21494.97
811.744	21208.65
812.073	21191.48
812.403	21185.83
812.732	21016.34
813.061	21097.92
813.39	20952.61
813.719	20816.35
814.049	20916.68
814.378	20838.49
814.707	20694.31
815.036	20737.7
815.365	20573.19
815.693	20436.69
816.022	20428.11
816.351	20417.03
816.68	20416.13
817.008	20364.61
817.337	20214.78
817.665	20201.45
817.994	20181.33
818.322	20222.91
818.651	20013.2
818.979	20031.96
819.307	20169.58
819.636	19946.31
819.964	19834
820.292	19877.61
820.62	19988.8
820.948	19854.34
821.276	19858.63
821.604	19965.97
821.932	19837.84
822.259	19805.3
822.587	19781.34
822.915	19833.32
823.243	19815.69
823.57	19722.81
823.898	19823.6
824.225	19599.88
824.553	19673.55
824.88	19776.82
825.207	19788.8
825.535	19795.36
825.862	19777.05
826.189	19672.19
826.516	19778.63
826.843	19719.43
827.17	19800.78
827.497	19746.54
827.824	19812.08
828.151	19752.42
828.478	19658.86
828.805	19769.37
829.131	19620.67
829.458	19649.82
829.785	19667.67
830.111	19623.61
830.438	19696.83
830.764	19630.16
831.09	19676.71
831.417	19525.31
831.743	19610.5
832.069	19645.53
832.395	19565.76
832.722	19594.46
833.048	19421.35
833.374	19563.04
833.7	19478.98
834.026	19515.36
834.351	19421.81
834.677	19495.25
835.003	19508.81
835.329	19424.29
835.654	19386.33
835.98	19365.76
836.306	19235.14
836.631	19158.54
836.956	19275.59
837.282	19315.59
837.607	19167.12
837.932	19065.88
838.258	19172.77
838.583	19136.62
838.908	19010.52
839.233	18966
839.558	18966.68
839.883	19008.26
840.208	18909.5
840.533	18840.35
840.858	18937.3
841.182	18848.94
841.507	18759.22
841.832	18760.81
842.156	18710.86
842.481	18695.95
842.805	18695.27
843.13	18597.42
843.454	18628.61
843.778	18527.59
844.103	18390.87
844.427	18421.38
844.751	18489.63
845.075	18367.14
845.399	18330.08
845.723	18340.25
846.047	18196.53
846.371	18151.33
846.695	18083.76
847.019	17916.99
847.343	17705.92
847.666	17727.84
847.99	17650.33
848.313	17575.75
848.637	17552.02
848.96	17546.15
849.284	17393.38
849.607	17307.74
849.931	17239.04
850.254	17094.41
850.577	17046.05
850.9	16931.25
851.223	16921.76
851.546	16889.44
851.869	16754.08
852.192	16927.41
852.515	16647.42
852.838	16727.64
853.161	16619.62
853.483	16629.11
853.806	16482.22
854.129	16492.17
854.451	16380.98
854.774	16321.32
855.096	16270.02
855.419	16203.59
855.741	16241.1
856.063	16131.95
856.385	16190.7
856.708	16029.8
857.03	15967.43
857.352	15920.43
857.674	15757.5
857.996	15911.62
858.318	15733.99
858.64	15742.81
858.961	15708.68
859.283	15655.58
859.605	15597.73
859.926	15573.77
860.248	15525.64
860.57	15538.52
860.891	15404.06
861.212	15486.32
861.534	15343.49
861.855	15295.59
862.176	15295.81
862.498	15339.65
862.819	15303.95
863.14	15246.1
863.461	15219.88
863.782	15098.3
864.103	15137.85
864.424	15046.55
864.745	15104.63
865.065	14970.85
865.386	14903.51
865.707	15026.44
866.027	15002.71
866.348	14920.23
866.668	14900.12
866.989	14853.34
867.309	14767.92
867.63	14786.22
867.95	14712.78
868.27	14691.76
868.59	14686.11
868.91	14674.59
869.23	14645.89
869.55	14584.42
869.87	14632.78
870.19	14590.07
870.51	14668.71
870.83	14500.58
871.15	14510.3
871.469	14552.33
871.789	14484.76
872.109	14537.87
872.428	14370.19
872.748	14397.08
873.067	14344.43
873.386	14414.71
873.706	14386.01
874.025	14341.26
874.344	14232.56
874.663	14337.42
874.982	14263.75
875.301	14153.24
875.62	14158.67
875.939	14103.98
876.258	14065.56
876.577	14083.87
876.896	13999.58
877.214	13949.86
877.533	14004.55
877.852	14030.31
878.17	13988.28
878.489	13936.75
878.807	14033.25
879.125	13885
879.444	13908.96
879.762	13882.74
880.08	13736.31
880.398	13704.89
880.716	13733.82
881.034	13701.96
881.352	13648.62
881.67	13712.13
881.988	13688.17
882.306	13621.28
882.624	13658.34
882.941	13619.92
883.259	13460.61
883.577	13520.94
883.894	13527.5
884.212	13415.41
884.529	13367.73
884.846	13354.39
885.164	13368.86
885.481	13300.16
885.798	13310.78
886.115	13190.56
886.432	13242.99
886.75	13174.06
887.067	13247.28
887.383	13101.97
887.7	13106.49
888.017	13038.47
888.334	13066.27
888.651	12936.33
888.967	12905.37
889.284	12918.47
889.6	12886.61
889.917	12841.41
890.233	12733.17
890.55	12740.63
890.866	12735.88
891.182	12674.64
891.498	12656.11
891.815	12578.82
892.131	12456.34
892.447	12521.2
892.763	12505.83
893.079	12447.07
893.395	12412.72
893.71	12369.79
894.026	12335.89
894.342	12275.55
894.657	12240.53
894.973	12223.12
895.289	12180.64
895.604	12138.83
895.92	12096.8
896.235	11986.3
896.55	12080.3
896.865	12002.34
897.181	11927.99
897.496	11968.22
897.811	11855.9
898.126	11790.82
898.441	11678.51
898.756	11766.41
899.071	11661.78
899.386	11684.61
899.7	11534.1
900.015	11587.89
900.33	11416.37
900.644	11481.9
900.959	11578.17
901.273	11436.03
901.588	11355.8
901.902	11256.6
902.216	11165.98
902.531	11235.13
902.845	11184.73
903.159	11151.06
903.473	11108.8
903.787	10989.26
904.101	10962.59
904.415	11020.9
904.729	10960.33
905.042	10855.25
905.356	10827
905.67	10805.76
905.984	10769.38
906.297	10749.49
906.611	10692.77
906.924	10674.92
907.237	10585.88
907.551	10549.27
907.864	10540.23
908.177	10530.74
908.491	10456.84
908.804	10419.1
909.117	10349.95
909.43	10320.8
909.743	10271.54
910.056	10271.54
910.368	10155.61
910.681	10117.19
910.994	10091.66
911.307	10069.28
911.619	9937.54
911.932	9941.83
912.244	9937.54
912.557	9885.56
912.869	9812.79
913.181	9801.27
913.494	9800.14
913.806	9705.23
914.118	9678.56
914.43	9559.47
914.742	9571.9
915.054	9530.31
915.366	9542.74
915.678	9476.08
915.99	9466.59
916.302	9374.84
916.613	9369.64
916.925	9330.77
917.236	9298.23
917.548	9191.57
917.859	9235.63
918.171	9180.49
918.482	9161.28
918.794	9078.57
919.105	9096.2
919.416	8991.12
919.727	8963.78
920.038	8911.35
920.349	8869.99
920.66	8878.13
920.971	8790.22
921.282	8855.76
921.593	8723.1
921.903	8618.7
922.214	8671.13
922.525	8607.85
922.835	8526.05
923.146	8494.64
923.456	8500.51
923.767	8444.02
924.077	8437.24
924.387	8451.92
924.697	8369.89
925.008	8396.56
925.318	8340.29
925.628	8308.88
925.938	8196.79
926.248	8204.93
926.558	8172.61
926.867	8112.95
927.177	8026.63
927.487	8070.24
927.796	7943.01
928.106	7945.5
928.416	7917.25
928.725	7945.05
929.034	7902.56
929.344	7889.68
929.653	7835.9
929.962	7763.81
930.271	7689.68
930.581	7700.98
930.89	7682.23
931.199	7596.13
931.508	7569.69
931.817	7566.07
932.125	7555.23
932.434	7541.67
932.743	7387.09
933.051	7395.46
933.36	7391.84
933.669	7345.29
933.977	7311.39
934.286	7287.44
934.594	7251.05
934.902	7231.84
935.21	7160.43
935.519	7189.81
935.827	7161.11
936.135	7143.94
936.443	7055.58
936.751	7027.78
937.059	6972.42
937.367	7012.19
937.674	6923.15
937.982	6902.13
938.29	6901
938.597	6849.71
938.905	6807.45
939.213	6782.36
939.52	6733.55
939.827	6712.54
940.135	6742.37
940.442	6660.56
940.749	6623.27
941.056	6645.42
941.363	6570.17
941.67	6561.35
941.977	6503.05
942.284	6449.94
942.591	6483.84
942.898	6448.14
943.205	6388.25
943.511	6374.69
943.818	6393.9
944.125	6310.96
944.431	6307.12
944.738	6247.01
945.044	6232.77
945.35	6168.82
945.657	6151.19
945.963	6191.87
946.269	6142.83
946.575	6085.89
946.881	6028.26
947.187	6031.42
947.493	6029.16
947.799	6018.32
948.105	5923.63
948.41	5902.39
948.716	5913.69
949.022	5906
949.327	5870.98
949.633	5796.85
949.938	5801.37
950.244	5742.17
950.549	5703.97
950.854	5685.44
951.16	5719.57
951.465	5655.61
951.77	5614.94
952.075	5644.77
952.38	5610.42
952.685	5578.55
952.99	5509.4
953.294	5540.14
953.599	5473.92
953.904	5475.51
954.209	5423.53
954.513	5434.15
954.818	5404.55
955.122	5419.01
955.426	5348.5
955.731	5332.91
956.035	5295.17
956.339	5298.79
956.643	5255.4
956.948	5221.73
957.252	5202.07
957.556	5218.79
957.86	5168.85
958.163	5158.9
958.467	5076.19
958.771	5118.45
959.075	5056.76
959.378	5031.22
959.682	5002.75
959.985	5014.5
960.289	4986.03
960.592	4940.6
960.896	4955.52
961.199	4887.72
961.502	4898.12
961.805	4868.74
962.108	4812.02
962.411	4858.57
962.714	4800.04
963.017	4773.38
963.32	4774.51
963.623	4728.41
963.926	4758.01
964.228	4708.75
964.531	4676.66
964.833	4655.64
965.136	4627.17
965.438	4624.45
965.741	4625.58
966.043	4598.69
966.345	4536.1
966.648	4588.3
966.95	4533.38
967.252	4464.01
967.554	4496.1
967.856	4477.57
968.158	4392.37
968.46	4429.43
968.761	4448.19
969.063	4374.52
969.365	4344.46
969.666	4358.25
969.968	4245.03
970.269	4270.57
970.571	4289.77
970.872	4304.92
971.174	4202.77
971.475	4231.24
971.776	4175.2
972.077	4163.9
972.378	4216.33
972.679	4183.11
972.98	4107.86
973.281	4090.23
973.582	4058.14
973.883	4072.6
974.183	4049.78
974.484	4021.98
974.785	3995.77
975.085	3930.24
975.386	4024.92
975.686	3972.72
975.986	3951.7
976.287	3936.34
976.587	3870.58
976.887	3863.8
977.187	3867.86
977.487	3846.62
977.787	3801.65
978.087	3786.06
978.387	3832.39
978.687	3795.32
978.987	3729.79
979.286	3764.36
979.586	3738.83
979.885	3718.04
980.185	3703.8
980.484	3640.75
980.784	3631.94
981.083	3667.42
981.382	3617.25
981.682	3593.97
981.981	3623.8
982.28	3562.56
982.579	3577.25
982.878	3529.57
983.177	3526.86
983.475	3489.12
983.774	3462.9
984.073	3496.12
984.372	3484.6
984.67	3456.8
984.969	3430.81
985.267	3464.94
985.566	3391.94
985.864	3329.12
986.162	3371.38
986.461	3342.91
986.759	3367.31
987.057	3303.59
987.355	3282.57
987.653	3288.9
987.951	3262
988.249	3275.11
988.547	3226.07
988.844	3210.03
989.142	3201.44
989.44	3200.76
989.737	3152.18
990.035	3157.6
990.332	3165.51
990.63	3107.43
990.927	3112.86
991.224	3092.74
991.521	3106.3
991.819	3070.15
992.116	3089.58
992.413	3040.99
992.71	3017.04
993.006	3009.13
993.303	3008.68
993.6	3026.08
993.897	2967.55
994.193	2943.59
994.49	2951.05
994.787	2889.36
995.083	2913.54
995.379	2904.5
995.676	2862.02
995.972	2877.83
996.268	2845.74
996.565	2833.54
996.861	2793.32
997.157	2805.97
997.453	2782.47
997.749	2783.83
998.044	2751.96
998.34	2760.55
998.636	2730.49
998.932	2672.87
999.227	2720.32
999.523	2679.87
999.818	2669.7
1000.114	2701.57
1000.409	2641
1000.704	2624.28
1001	2623.38
1001.295	2562.36
1001.59	2586.54
1001.885	2599.88
1002.18	2587.45
1002.475	2524.4
1002.77	2505.87
1003.065	2519.88
1003.359	2475.13
1003.654	2499.09
1003.949	2455.25
1004.243	2469.71
1004.538	2433.78
1004.832	2447.79
1005.127	2434
1005.421	2401.46
1005.715	2407.79
1006.009	2388.36
1006.304	2326.44
1006.598	2338.41
1006.892	2318.75
1007.186	2295.48
1007.48	2301.13
1007.773	2281.69
1008.067	2266.55
1008.361	2254.57
1008.655	2250.73
1008.948	2233.11
1009.242	2252.77
1009.535	2215.03
1009.829	2191.3
1010.122	2151.53
1010.415	2156.05
1010.708	2149.27
1011.001	2144.07
1011.295	2123.28
1011.588	2089.15
1011.881	2113.79
1012.173	2069.04
1012.466	2081.47
1012.759	2038.99
1013.052	2069.95
1013.344	2079.21
1013.637	2022.49
1013.93	1980.46
1014.222	2019.1
1014.514	1979.78
1014.807	1993.34
1015.099	1955.15
1015.391	1966.22
1015.683	1951.76
1015.976	1944.98
1016.268	1953.79
1016.56	1897.97
1016.851	1900.01
1017.143	1858.65
1017.435	1867.01
1017.727	1875.15
1018.018	1855.94
1018.31	1838.31
1018.602	1843.28
1018.893	1804.42
1019.185	1785.66
1019.476	1761.93
1019.767	1758.32
1020.058	1740.46
1020.35	1746.11
1020.641	1776.39
1020.932	1737.75
1021.223	1710.63
1021.514	1712.89
1021.804	1687.36
1022.095	1694.59
1022.386	1659.11
1022.677	1647.36
1022.967	1667.92
1023.258	1645.1
1023.548	1619.79
1023.839	1619.79
1024.129	1607.36
1024.419	1596.06
1024.709	1543.41
1025	1575.5
1025.29	1540.92
1025.58	1539.34
1025.87	1507.47
1026.16	1504.76
1026.449	1515.16
1026.739	1487.14
1027.029	1497.08
1027.319	1472.67
1027.608	1496.4
1027.898	1450.3
1028.187	1441.26
1028.477	1443.52
1028.766	1440.58
1029.055	1420.92
1029.344	1406.69
1029.634	1395.84
1029.923	1381.38
1030.212	1398.78
1030.501	1395.16
1030.79	1373.47
1031.078	1365.56
1031.367	1334.6
1031.656	1337.54
1031.945	1316.75
1032.233	1337.76
1032.522	1290.53
1032.81	1306.12
1033.099	1286.01
1033.387	1285.56
1033.675	1269.74
1033.963	1243.75
1034.251	1258.67
1034.54	1267.25
1034.828	1222.28
1035.116	1231.1
1035.403	1216.41
1035.691	1225.67
1035.979	1196.52
1036.267	1189.06
1036.554	1199.46
1036.842	1180.93
1037.129	1189.06
1037.417	1125.79
1037.704	1176.64
1037.992	1138.44
1038.279	1126.02
1038.566	1158.11
1038.853	1158.11
1039.14	1158.11
