Data from white_wall_FLMS001491_041.txt Node
Date: Tue Feb 07 11:04:34 GMT 2017
User: dcchb
Spectrometer: FLMS00149
Trigger mode: 0
Integration Time (sec): 2.000000E-2
Scans to average: 10
Electric dark correction enabled: true
Nonlinearity correction enabled: false
Boxcar width: 0
XAxis mode: Wavelengths
Number of Pixels in Spectrum: 2048
>>>>>Begin Spectral Data<<<<<
341.393	-29.65
341.776	-29.65
342.16	-29.65
342.543	-52.7
342.927	-70.1
343.31	-79.59
343.693	-55.18
344.077	-77.33
344.46	-55.18
344.843	-71.45
345.226	-33.71
345.61	-37.33
345.993	-12.7
346.376	2.9
346.759	17.13
347.142	29.79
347.525	45.38
347.908	53.74
348.291	83.12
348.674	93.74
349.057	96.68
349.44	109.56
349.823	124.7
350.206	166.28
350.588	206.28
350.971	229.56
351.354	229.33
351.737	248.31
352.119	257.8
352.502	263.91
352.884	283.79
353.267	303.23
353.65	297.12
354.032	320.63
354.414	301.87
354.797	336.22
355.179	317.46
355.562	342.1
355.944	351.13
356.326	344.36
356.709	357.91
357.091	366.05
357.473	346.16
357.855	331.02
358.238	359.5
358.62	340.74
359.002	359.27
359.384	337.58
359.766	330.57
360.148	340.29
360.53	348.2
360.912	341.42
361.294	342.32
361.676	347.75
362.057	344.58
362.439	332.83
362.821	336.22
363.203	306.16
363.584	312.27
363.966	347.07
364.348	333.96
364.729	331.02
365.111	343
365.493	323.56
365.874	312.27
366.256	344.58
366.637	343.68
367.019	346.62
367.4	331.93
367.781	297.12
368.163	328.31
368.544	331.25
368.925	326.5
369.306	339.38
369.688	320.18
370.069	303.23
370.45	327.18
370.831	328.08
371.212	333.73
371.593	313.62
371.974	352.26
372.355	328.54
372.736	339.61
373.117	334.19
373.498	311.36
373.879	319.05
374.26	307.07
374.641	332.83
375.021	328.76
375.402	360.17
375.783	349.33
376.163	345.71
376.544	322.44
376.925	333.28
377.305	367.86
377.686	346.84
378.066	324.69
378.447	331.47
378.827	355.65
379.208	352.72
379.588	359.5
379.968	349.78
380.349	346.39
380.729	347.75
381.109	359.04
381.489	361.98
381.87	344.81
382.25	355.88
382.63	378.7
383.01	378.48
383.39	372.15
383.77	359.95
384.15	361.76
384.53	384.35
384.91	392.94
385.29	386.61
385.67	376.9
386.049	383.68
386.429	394.52
386.809	409.21
387.189	394.75
387.568	389.55
387.948	430.23
388.328	402.21
388.707	414.41
389.087	419.83
389.466	411.47
389.846	405.14
390.225	405.6
390.605	445.6
390.984	414.41
391.363	419.16
391.743	432.94
392.122	437.69
392.501	445.14
392.881	431.58
393.26	444.24
393.639	455.54
394.018	477.91
394.397	474.3
394.776	488.31
395.155	485.14
395.534	491.92
395.913	498.48
396.292	491.92
396.671	513.16
397.05	508.87
397.429	519.72
397.808	538.93
398.186	533.5
398.565	567.85
398.944	563.78
399.323	566.04
399.701	572.6
400.08	566.72
400.458	601.75
400.837	580.51
401.215	614.63
401.594	593.16
401.972	626.38
402.351	630.68
402.729	657.34
403.107	667.28
403.486	674.74
403.864	681.07
404.242	684.91
404.62	701.41
404.999	739.83
405.377	714.97
405.755	741.86
406.133	746.6
406.511	763.55
406.889	783.89
407.267	799.48
407.645	799.03
408.023	828.18
408.401	845.36
408.779	845.13
409.156	881.06
409.534	879.48
409.912	897.11
410.29	897.34
410.667	927.16
411.045	922.87
411.422	952.02
411.8	948.86
412.178	966.49
412.555	1000.16
412.933	983.43
413.31	1026.37
413.687	1035.18
414.065	1053.26
414.442	1066.14
414.819	1062.3
415.197	1095.07
415.574	1102.3
415.951	1128.74
416.328	1135.3
416.705	1145.01
417.082	1145.69
417.46	1155.63
417.837	1196.54
418.214	1176.42
418.591	1189.08
418.967	1223.65
419.344	1244.22
419.721	1238.34
420.098	1252.35
420.475	1281.51
420.852	1282.41
421.228	1304.56
421.605	1323.99
421.982	1305.91
422.358	1344.33
422.735	1352.24
423.111	1350.43
423.488	1415.29
423.864	1374.38
424.241	1397.89
424.617	1421.84
424.994	1441.05
425.37	1451.44
425.746	1459.81
426.123	1471.11
426.499	1480.14
426.875	1485.12
427.251	1556.07
427.627	1547.94
428.003	1565.57
428.379	1611.44
428.756	1631.33
429.132	1662.96
429.507	1682.85
429.883	1709.29
430.259	1702.06
430.635	1706.58
431.011	1716.3
431.387	1766.46
431.763	1844.88
432.138	1837.65
432.514	1832.23
432.89	1858.67
433.265	1914.26
433.641	1938.66
434.016	1966.91
434.392	1976.18
434.767	2006.91
435.143	2025.22
435.518	2034.71
435.894	2045.55
436.269	2051.88
436.644	2104.54
437.02	2167.81
437.395	2147.02
437.77	2180.69
438.145	2197.19
438.52	2228.83
438.895	2241.03
439.271	2267.24
439.646	2300.69
440.021	2352.89
440.395	2355.83
440.77	2334.13
441.145	2368.03
441.52	2435.37
441.895	2407.35
442.27	2464.3
442.645	2445.09
443.019	2439.22
443.394	2500.23
443.769	2513.11
444.143	2496.84
444.518	2563.51
444.892	2554.24
445.267	2555.14
445.641	2594.47
446.016	2594.01
446.39	2648.48
446.764	2650.28
447.139	2650.06
447.513	2716.27
447.887	2714.46
448.262	2689.83
448.636	2765.53
449.01	2763.73
449.384	2831.3
449.758	2840.56
450.132	2889.37
450.506	2892.54
450.88	2919.88
451.254	2884.63
451.628	2961.46
452.002	2956.94
452.376	3008.01
452.75	3020.44
453.123	3079.2
453.497	3114.9
453.871	3136.37
454.244	3212.53
454.618	3248.01
454.992	3320.32
455.365	3292.53
455.739	3381.11
456.112	3391.51
456.486	3434.44
456.859	3465.63
457.232	3539.75
457.606	3556.93
457.979	3601.67
458.352	3676.7
458.725	3734.77
459.099	3723.93
459.472	3793.98
459.845	3850.93
460.218	3858.84
460.591	3904.94
460.964	3939.52
461.337	4081.43
461.71	4101.32
462.083	4142
462.456	4175.67
462.829	4177.25
463.201	4274.2
463.574	4299.51
463.947	4340.41
464.32	4462.44
464.692	4479.84
465.065	4504.25
465.438	4586.5
465.81	4657.01
466.183	4679.61
466.555	4808.42
466.928	4838.02
467.3	4834.41
467.672	4966.38
468.045	5039.83
468.417	5122.31
468.789	5102.42
469.161	5142.87
469.534	5262.87
469.906	5411.11
470.278	5395.97
470.65	5539.02
471.022	5584.9
471.394	5709.41
471.766	5708.73
472.138	5830.76
472.51	5966.13
472.882	6023.75
473.253	6127.03
473.625	6219.68
473.997	6315.27
474.369	6404.76
474.74	6405.66
475.112	6503.06
475.484	6709.16
475.855	6849.27
476.227	6894.92
476.598	7069.6
476.97	7140.56
477.341	7362.48
477.713	7389.14
478.084	7505.3
478.455	7729.92
478.827	7795.91
479.198	8030.71
479.569	7990.93
479.94	8202.91
480.311	8305.73
480.682	8532.16
481.053	8734.64
481.424	8888.99
481.795	8940.74
482.166	9079.49
482.537	9177.8
482.908	9387.06
483.279	9527.62
483.65	9662.3
484.021	9883.77
484.391	9976.64
484.762	10107.04
485.133	10157.66
485.503	10457.31
485.874	10584.99
486.244	10636.06
486.615	10876.51
486.985	11051.87
487.356	11269.04
487.726	11387
488.097	11547.45
488.467	11637.84
488.837	11853.88
489.207	12044.16
489.578	12205.06
489.948	12282.57
490.318	12472.4
490.688	12603.02
491.058	12820.64
491.428	12991.03
491.798	13136.79
492.168	13368.65
492.538	13355.31
492.908	13587.4
493.278	13721.18
493.648	13766.6
494.017	13946.48
494.387	14065.35
494.757	14280.49
495.126	14373.82
495.496	14501.05
495.866	14600.48
496.235	14795.27
496.605	14873.69
496.974	15005.21
497.344	15230.74
497.713	15235.72
498.082	15319.55
498.452	15588.47
498.821	15610.62
499.19	15711.86
499.559	15908.01
499.928	16026.2
500.298	16109.14
500.667	16243.6
501.036	16243.6
501.405	16501.67
501.774	16485.85
502.143	16718.84
502.512	16770.36
502.88	16998.38
503.249	17026.18
503.618	17145.27
503.987	17307.07
504.356	17327.19
504.724	17423.91
505.093	17613.28
505.462	17714.52
505.83	17893.72
506.199	18094.17
506.567	18293.49
506.936	18247.84
507.304	18612.8
507.672	18560.83
508.041	18576.87
508.409	18790.88
508.777	19033.36
509.145	19227.02
509.514	19220.47
509.882	19318.77
510.25	19505.66
510.618	19603.28
510.986	19708.82
511.354	19981.35
511.722	20115.36
512.09	20417.95
512.458	20289.14
512.826	20556.48
513.193	20616.59
513.561	20706.76
513.929	20841.22
514.297	21038.5
514.664	21242.79
515.032	21310.36
515.4	21592.84
515.767	21655.21
516.135	21821.76
516.502	21818.14
516.869	22070.56
517.237	22285.7
517.604	22203.89
517.972	22521.17
518.339	22695.63
518.706	22727.04
519.073	22933.59
519.44	23091.55
519.808	23225.56
520.175	23403.18
520.542	23563.63
520.909	23773.34
521.276	23675.04
521.643	24061.7
522.009	24316.15
522.376	24451.52
522.743	24564.28
523.11	24765.41
523.477	25004.72
523.843	25211.72
524.21	25502.34
524.577	25636.57
524.943	25703.24
525.31	25946.17
525.676	26124.24
526.043	26362.65
526.409	26506.38
526.776	26789.08
527.142	26775.07
527.508	26971.9
527.874	27183.88
528.241	27329.86
528.607	27357.66
528.973	27621.38
529.339	27642.85
529.705	27957.64
530.071	28236.5
530.437	28257.29
530.803	28501.81
531.169	28669.49
531.535	28677.17
531.901	28794
532.267	28940.89
532.632	29137.72
532.998	29227.44
533.364	29437.38
533.73	29628.56
534.095	29790.36
534.461	29834.43
534.826	30117.13
535.192	30095.66
535.557	30466.05
535.923	30406.16
536.288	30557.57
536.653	30769.54
537.019	30651.81
537.384	30996.88
537.749	31039.82
538.114	31160.27
538.479	31169.53
538.845	31407.49
539.21	31246.14
539.575	31609.07
539.94	31702.85
540.305	31901.27
540.67	31839.12
541.034	31884.32
541.399	32096.51
541.764	32215.16
542.129	32430.07
542.494	32357.75
542.858	32595.26
543.223	32690.85
543.587	32877.06
543.952	32859.88
544.316	32978.98
544.681	33103.95
545.045	33194.79
545.41	33442.24
545.774	33554.33
546.138	33558.4
546.503	33645.17
546.867	33693.31
547.231	34030.25
547.595	34178.72
547.959	34307.98
548.324	34318.83
548.688	34630.01
549.052	34652.38
549.416	34737.12
549.779	34817.12
550.143	34831.81
550.507	35216.21
550.871	35227.51
551.235	35290.33
551.599	35714.72
551.962	35720.83
552.326	35754.27
552.689	36086.24
553.053	36158.1
553.417	36083.53
553.78	36700.24
554.143	36502.27
554.507	36740.69
554.87	36846.22
555.234	37338.18
555.597	37063.16
555.96	37287.56
556.323	37601
556.686	37649.36
557.05	37939.75
557.413	37972.52
557.776	38082.57
558.139	38438.27
558.502	38410.25
558.865	38680.97
559.228	38961.87
559.59	39080.06
559.953	39224.91
560.316	39542.65
560.679	39600.27
561.041	39815.63
561.404	39785.8
561.767	40134.72
562.129	40121.61
562.492	40454.94
562.854	40577.42
563.217	40627.36
563.579	40708.72
563.941	41103.74
564.304	41158.42
564.666	41527.91
565.028	41409.94
565.39	41625.08
565.753	41949.36
566.115	42102.35
566.477	42317.71
566.839	42253.76
567.201	42451.95
567.563	42520.42
567.925	42937.81
568.287	42796.12
568.648	42907.76
569.01	43294.19
569.372	43468.65
569.734	43355.43
570.095	43750.22
570.457	43847.62
570.819	43864.79
571.18	43994.73
571.542	44252.58
571.903	44243.54
572.265	44394.27
572.626	44516.53
572.987	44639.91
573.349	44712.23
573.71	44994.25
574.071	44916.29
574.432	45161.03
574.794	45364.41
575.155	45242.84
575.516	45167.36
575.877	45559.21
576.238	45517.18
576.599	45699.55
576.96	45740.9
577.32	45712.2
577.681	45867
578.042	46038.97
578.403	46005.75
578.763	45930.5
579.124	46072.87
579.485	46238.74
579.845	46311.51
580.206	46318.29
580.566	46222.02
580.927	46271.74
581.287	46469.02
581.648	46443.48
582.008	46500.66
582.368	46534.33
582.728	46610.71
583.089	46445.97
583.449	46531.16
583.809	46671.72
584.169	46702.91
584.529	46606.87
584.889	46898.16
585.249	46638.96
585.609	46614.55
585.969	46892.06
586.329	46741.55
586.688	46735.23
587.048	46855.67
587.408	46684.15
587.768	46768.45
588.127	46745.4
588.487	46753.98
588.846	46906.75
589.206	46672.4
589.565	46720.09
589.925	47041.66
590.284	46809.8
590.643	46882.79
591.003	46955.11
591.362	47070.36
591.721	46912.62
592.08	46920.08
592.44	46941.77
592.799	47104.71
593.158	46928.22
593.517	47010.25
593.876	46967.54
594.235	46995.33
594.593	46887.76
594.952	47001.89
595.311	47016.57
595.67	47072.39
596.029	47379.5
596.387	47311.48
596.746	47388.99
597.104	47178.6
597.463	47226.29
597.822	47356.68
598.18	47106.06
598.538	47213.63
598.897	47358.03
599.255	47097.7
599.613	47604.58
599.972	47363.46
600.33	47518.48
600.688	47304.48
601.046	47453.63
601.404	47594.86
601.762	47541.08
602.12	47729.55
602.478	47657.46
602.836	47806.61
603.194	47552.15
603.552	47751.24
603.91	47579.95
604.268	47862.88
604.625	47648.2
604.983	47777.91
605.341	47720.96
605.698	47853.39
606.056	47870.56
606.413	47882.99
606.771	48128.86
607.128	48200.5
607.485	48082.76
607.843	47928.19
608.2	48368.4
608.557	48359.36
608.914	48134.96
609.272	48352.13
609.629	48371.34
609.986	48641.62
610.343	48412.92
610.7	48482.98
611.057	48475.29
611.414	48506.48
611.771	48516.42
612.127	48751.44
612.484	48762.97
612.841	48761.61
613.198	48754.83
613.554	48661.28
613.911	48904.89
614.267	48984.21
614.624	48854.94
614.98	48879.12
615.337	49150.76
615.693	49044.54
616.05	49078.67
616.406	49259.23
616.762	49072.34
617.118	49121.83
617.475	49231.43
617.831	49294.48
618.187	49287.48
618.543	49242.5
618.899	49499.67
619.255	49442.73
619.611	49497.87
619.967	49546.23
620.323	49586.22
620.678	49454.25
621.034	49268.04
621.39	49324.31
621.746	49336.06
622.101	49731.31
622.457	49385.55
622.812	49594.13
623.168	49633.23
623.523	49512.55
623.879	49754.36
624.234	49380.35
624.589	49592.55
624.945	49589.39
625.3	49585.77
625.655	49590.29
626.01	49607.01
626.365	49740.34
626.72	49645.21
627.075	49579.9
627.43	49648.37
627.785	49658.31
628.14	49647.24
628.495	49611.99
628.85	49563.17
629.205	49447.02
629.559	49655.38
629.914	49515.04
630.269	49520.69
630.623	49383.52
630.978	49291.77
631.332	49489.73
631.687	49546
632.041	49359.34
632.396	49392.11
632.75	49181.49
633.104	49282.96
633.459	49072.57
633.813	49303.52
634.167	49082.51
634.521	49180.81
634.875	49176.07
635.229	49146.01
635.583	48904.43
635.937	48868.28
636.291	48799.35
636.645	48868.96
636.999	48880.03
637.352	48945.56
637.706	48695.4
638.06	48776.53
638.413	48730.2
638.767	48517.55
639.121	48652.46
639.474	48502.86
639.828	48491.56
640.181	48566.82
640.534	48481.62
640.888	48355.75
641.241	48229.65
641.594	48266.26
641.947	48495.63
642.301	48162.99
642.654	48251.8
643.007	48228.97
643.36	48225.81
643.713	48171.35
644.066	48320.95
644.419	48050.45
644.771	47860.85
645.124	47417.24
645.477	47231.26
645.83	47057.7
646.182	46861.78
646.535	46766.86
646.888	46915.56
647.24	46711.95
647.593	46866.75
647.945	46788.11
648.298	46485.52
648.65	46550.37
649.002	46390.6
649.355	46497.94
649.707	46331.17
650.059	46580.65
650.411	47027.42
650.763	46974.09
651.115	47483
651.467	47329.79
651.819	47257.7
652.171	47078.04
652.523	47178.83
652.875	47201.65
653.227	47062.45
653.578	47314.42
653.93	47150.81
654.282	46884.37
654.633	46736.13
654.985	46913.75
655.337	46797.37
655.688	46725.06
656.039	46969.57
656.391	46608.9
656.742	46798.5
657.094	46775.45
657.445	46838.5
657.796	46652.52
658.147	46676.47
658.498	46731.61
658.849	46574.78
659.2	46656.36
659.551	46466.76
659.902	46702.01
660.253	46481.9
660.604	46515.34
660.955	46400.77
661.306	46476.93
661.656	46314.45
662.007	46473.76
662.358	46318.97
662.708	46283.26
663.059	46371.85
663.409	45994.45
663.76	46276.93
664.11	46319.19
664.461	46373.2
664.811	46389.02
665.161	46253.2
665.511	46156.48
665.862	46252.75
666.212	46299.98
666.562	46277.61
666.912	46133.66
667.262	46107.67
667.612	46158.97
667.962	46118.97
668.312	46101.12
668.662	46194.68
669.011	46066.09
669.361	45903.16
669.711	45875.59
670.06	45976.38
670.41	45778.64
670.76	45789.71
671.109	45966.66
671.459	45681.02
671.808	45849.83
672.157	45777.29
672.507	45690.06
672.856	45699.1
673.205	45536.16
673.554	45822.71
673.904	45413.23
674.253	45654.35
674.602	45617.97
674.951	44959
675.3	44775.96
675.649	45335.04
675.998	45391.98
676.346	45422.04
676.695	45475.37
677.044	45107.02
677.393	45264.76
677.741	45415.03
678.09	45170.07
678.438	45016.18
678.787	45164.65
679.135	45145.89
679.484	44905.9
679.832	44951.09
680.181	44723.75
680.529	44952.67
680.877	44833.81
681.225	44676.97
681.573	44882.17
681.922	44517.43
682.27	44498.22
682.618	44467.49
682.966	44387.27
683.314	44398.79
683.661	44280.83
684.009	44061.85
684.357	44055.07
684.705	43868.41
685.053	44045.35
685.4	43862.53
685.748	43662.76
686.095	43748.41
686.443	43574.41
686.79	43403.34
687.138	43468.19
687.485	43452.15
687.832	43313.62
688.18	43425.03
688.527	43053.97
688.874	43143.91
689.221	42953.86
689.568	42896.91
689.915	42728.55
690.262	42749.34
690.609	42687.65
690.956	42464.83
691.303	42458.05
691.65	42267.32
691.997	42338.96
692.344	42128.34
692.69	42146.87
693.037	42074.78
693.383	41858.74
693.73	41760.22
694.077	41725.19
694.423	41569.49
694.769	41359.77
695.116	41337.4
695.462	41343.73
695.808	41198.2
696.155	41195.71
696.501	40924.76
696.847	40961.37
697.193	40660.36
697.539	40851.31
697.885	40430.31
698.231	40399.35
698.577	40378.78
698.923	40308.73
699.269	40169.75
699.614	40061.05
699.96	40101.28
700.306	39911.9
700.651	39842.3
700.997	39616.77
701.342	39525.47
701.688	39404.8
702.033	39226.04
702.379	39370.67
702.724	39107.18
703.069	39295.87
703.415	38791.48
703.76	38906.28
704.105	38963.9
704.45	38672.84
704.795	38601.2
705.14	38598.49
705.485	38581.09
705.83	38254.54
706.175	38305.17
706.52	38298.61
706.865	38079.41
707.209	38141.33
707.554	37983.59
707.899	38073.76
708.243	37786.08
708.588	37647.78
708.932	37479.65
709.277	37435.81
709.621	37473.55
709.966	37228.58
710.31	37275.14
710.654	37013.45
710.998	37171.64
711.342	37111.07
711.687	37074.91
712.031	36934.35
712.375	36645.32
712.719	36864.3
713.063	36805.77
713.407	36766.45
713.75	36566.68
714.094	36539.11
714.438	36419.11
714.782	36406.01
715.125	36178.89
715.469	36126.24
715.812	36030.2
716.156	35869.3
716.499	35958.11
716.843	35991.33
717.186	35668.4
717.53	35789.98
717.873	35883.08
718.216	35716.98
718.559	35622.07
718.902	35473.83
719.246	35538.91
719.589	35253.27
719.932	35179.82
720.275	35284.45
720.617	35229.99
720.96	35161.52
721.303	35076.78
721.646	35159.71
721.989	34806.95
722.331	34988.19
722.674	34794.97
723.016	34902.09
723.359	34882.43
723.701	34827.97
724.044	34444.25
724.386	34434.31
724.729	34660.52
725.071	34397.25
725.413	34284.93
725.755	34306.17
726.097	34139.85
726.439	33997.48
726.782	33988.22
727.124	34216.46
727.465	34022.79
727.807	33975.56
728.149	34051.27
728.491	33860.99
728.833	33803.59
729.175	33588
729.516	33691.95
729.858	33677.26
730.199	33548.45
730.541	33406.31
730.882	33507.78
731.224	33582.35
731.565	33126.32
731.906	33383.26
732.248	33241.8
732.589	33149.37
732.93	33037.51
733.271	33143.49
733.612	33134.68
733.953	33180.55
734.294	32930.84
734.635	32862.14
734.976	32949.6
735.317	32682.49
735.658	32656.05
735.999	32847.91
736.339	32647.46
736.68	32634.13
737.021	32626.44
737.361	32445.43
737.702	32655.14
738.042	32529.72
738.383	32464.64
738.723	32454.25
739.063	32349.16
739.404	32406.56
739.744	32315.27
740.084	32201.6
740.424	32179
740.764	32080.24
741.104	32263.74
741.444	31969.96
741.784	31793.7
742.124	31954.37
742.464	31984.2
742.804	31798.22
743.143	31827.37
743.483	31741.5
743.823	31495.4
744.162	31536.08
744.502	31548.51
744.841	31488.85
745.181	31345.35
745.52	31270.55
745.86	31379.7
746.199	31300.15
746.538	31337.66
746.877	31343.54
747.216	31245.46
747.556	31121.17
747.895	31106.71
748.234	30937.9
748.573	30957.11
748.911	30810.22
749.25	30883.67
749.589	30797.57
749.928	30831.01
750.267	30748.08
750.605	30747.17
750.944	30612.49
751.283	30472.83
751.621	30603.22
751.96	30356.22
752.298	30392.15
752.636	30294.75
752.975	30299.73
753.313	30074.42
753.651	30170.01
753.989	29864.71
754.327	30014.08
754.666	29916.91
755.004	29933.18
755.342	29887.99
755.679	29760.31
756.017	29632.17
756.355	29663.81
756.693	29522.8
757.031	29695.45
757.368	29467.21
757.706	29392.63
758.044	29341.33
758.381	29171.85
758.719	29052.3
759.056	29161.45
759.394	28997.16
759.731	28816.15
760.068	28851.4
760.405	28760.33
760.743	28563.73
761.08	28608.02
761.417	28443.73
761.754	28488.93
762.091	28420.45
762.428	28310.85
762.765	28061.59
763.102	28259.33
763.438	28119.44
763.775	27985.21
764.112	27955.15
764.449	28058.43
764.785	27791.32
765.122	27612.34
765.458	27475.17
765.795	27577.31
766.131	27342.97
766.467	27283.76
766.804	27147.94
767.14	26937.33
767.476	27056.42
767.812	26790.21
768.148	26983.43
768.485	26821.63
768.821	26623.21
769.157	26694.62
769.492	26504.57
769.828	26496.44
770.164	26230.91
770.5	26166.73
770.836	26200.62
771.171	25983.91
771.507	25956.34
771.842	25758.83
772.178	25738.94
772.513	25644.26
772.849	25549.34
773.184	25464.37
773.519	25518.83
773.855	25345.05
774.19	25175.34
774.525	25190.03
774.86	25134.21
775.195	25084.27
775.53	25075.46
775.865	24789.14
776.2	24636.82
776.535	24456.26
776.87	24473.21
777.205	24480.44
777.539	24260.56
777.874	24282.03
778.209	24171.3
778.543	24122.49
778.878	23924.53
779.212	23961.14
779.547	23854.7
779.881	23755.94
780.215	23634.82
780.55	23760.01
780.884	23484.31
781.218	23528.83
781.552	23384.43
781.886	23170.2
782.22	23256.97
782.554	23098.79
782.888	22933.37
783.222	22865.57
783.556	22714.84
783.889	22676.42
784.223	22477.56
784.557	22511.91
784.89	22583.32
785.224	22465.81
785.557	22308.52
785.891	22226.04
786.224	22137.23
786.558	22154.86
786.891	21976.55
787.224	21895.88
787.557	21810.01
787.891	21747.41
788.224	21731.82
788.557	21698.6
788.89	21641.87
789.223	21549.22
789.556	21340.19
789.888	21428.09
790.221	21277.14
790.554	21115.79
790.887	21133.19
791.219	21030.59
791.552	21091.15
791.884	20889.35
792.217	20766.42
792.549	20714.89
792.882	20693.2
793.214	20528.01
793.546	20583.37
793.879	20338.86
794.211	20267
794.543	20283.27
794.875	20242.59
795.207	20376.37
795.539	20118.75
795.871	20206.66
796.203	19936.83
796.535	19950.62
796.867	19856.61
797.198	19848.02
797.53	19776.61
797.862	19594.7
798.193	19700.91
798.525	19582.49
798.856	19558.99
799.188	19329.39
799.519	19364.65
799.85	19243.52
800.182	19251.88
800.513	19206.46
800.844	19041.26
801.175	19161.49
801.506	19115.61
801.837	18940.93
802.168	18908.84
802.499	18812.57
802.83	18698.68
803.161	18689.41
803.491	18603.08
803.822	18643.54
804.153	18631.11
804.483	18376.2
804.814	18320.83
805.145	18354.05
805.475	18326.93
805.805	18184.56
806.136	18215.98
806.466	18241.74
806.796	18207.39
807.126	17969.65
807.457	18096.88
807.787	17889.2
808.117	17940.05
808.447	17891.01
808.777	17851.24
809.107	17740.96
809.436	17755.87
809.766	17741.64
810.096	17630.68
810.426	17531.93
810.755	17582.09
811.085	17529.44
811.414	17389.78
811.744	17305.72
812.073	17311.59
812.403	17287.19
812.732	17237.02
813.061	17216
813.39	17070.02
813.719	17072.28
814.049	17086.29
814.378	17067.08
814.707	17058.72
815.036	16932.39
815.365	16902.79
815.693	16748.67
816.022	16709.57
816.351	16594.55
816.68	16512.97
817.008	16691.27
817.337	16467.77
817.665	16487.43
817.994	16523.36
818.322	16552.29
818.651	16331.96
818.979	16349.58
819.307	16352.07
819.636	16352.52
819.964	16211.06
820.292	16265.07
820.62	16216.71
820.948	16178.74
821.276	16163.6
821.604	16156.14
821.932	16235.01
822.259	16192.75
822.587	16165.63
822.915	16055.13
823.243	16199.31
823.57	16159.53
823.898	16173.77
824.225	16057.61
824.553	16081.57
824.88	16132.64
825.207	16040.44
825.535	16018.07
825.862	16038.86
826.189	16028.24
826.516	16154.56
826.843	16187.33
827.17	16101.91
827.497	16134
827.824	16145.3
828.151	16101.46
828.478	16098.74
828.805	16133.77
829.131	16048.58
829.458	15970.84
829.785	16002.25
830.111	16034.34
830.438	16084.28
830.764	16103.71
831.09	16037.73
831.417	15936.94
831.743	16036.37
832.069	16061.46
832.395	15925.87
832.722	16053.09
833.048	15842.03
833.374	15933.55
833.7	15882.93
834.026	15876.38
834.351	15918.64
834.677	15876.38
835.003	15893.33
835.329	15891.52
835.654	15855.36
835.98	15829.82
836.306	15892.42
836.631	15709.38
836.956	15784.85
837.282	15721.35
837.607	15676.38
837.932	15668.92
838.258	15614.69
838.583	15628.93
838.908	15555.25
839.233	15540.57
839.558	15477.74
839.883	15476.16
840.208	15475.48
840.533	15491.08
840.858	15364.75
841.182	15450.4
841.507	15385.77
841.832	15281.14
842.156	15247.69
842.481	15223.96
842.805	15220.57
843.13	15174.93
843.454	15081.14
843.778	15100.13
844.103	15016.74
844.427	14970.64
844.751	14939.23
845.075	14946.23
845.399	14904.88
845.723	14836.63
846.047	14818.78
846.371	14688.84
846.695	14698.1
847.019	14608.39
847.343	14544.66
847.666	14510.08
847.99	14444.1
848.313	14393.93
848.637	14389.18
848.96	14297.43
849.284	14260.6
849.607	14243.65
849.931	14256.31
850.254	14108.51
850.577	13958.01
850.9	13838.01
851.223	13848.18
851.546	13728.64
851.869	13774.06
852.192	13822.87
852.515	13625.59
852.838	13585.59
853.161	13587.4
853.483	13523.22
853.806	13494.07
854.129	13457.91
854.451	13419.27
854.774	13363.22
855.096	13252.72
855.419	13287.52
855.741	13197.58
856.063	13212.49
856.385	13194.64
856.708	13023.8
857.03	13013.4
857.352	13021.31
857.674	13015.21
857.996	12930.92
858.318	12855.66
858.64	12826.06
858.961	12746.06
859.283	12778.38
859.605	12721.88
859.926	12767.08
860.248	12728.66
860.57	12566.18
860.891	12624.48
861.212	12610.47
861.534	12543.36
861.855	12526.86
862.176	12572.28
862.498	12487.09
862.819	12448.22
863.14	12395.56
863.461	12275.57
863.782	12390.37
864.103	12358.28
864.424	12286.87
864.745	12272.18
865.065	12198.73
865.386	12260.2
865.707	12146.3
866.027	12179.98
866.348	12097.72
866.668	12196.02
866.989	12080.32
867.309	12010.49
867.63	12079.41
867.95	12047.32
868.27	11975.46
868.59	11978.63
868.91	11933.2
869.23	11883.71
869.55	11856.6
869.87	11863.6
870.19	11853.66
870.51	11928.68
870.83	11855.92
871.15	11887.33
871.469	11821.57
871.789	11789.7
872.109	11806.2
872.428	11739.31
872.748	11697.05
873.067	11692.53
873.386	11734.11
873.706	11762.36
874.025	11705.19
874.344	11643.49
874.663	11578.41
874.982	11645.75
875.301	11656.83
875.62	11590.16
875.939	11583.16
876.258	11583.83
876.577	11555.81
876.896	11534.12
877.214	11436.72
877.533	11420
877.852	11420.22
878.17	11474.68
878.489	11398.08
878.807	11393.78
879.125	11379.32
879.444	11388.13
879.762	11229.94
880.08	11324.18
880.398	11262.71
880.716	11281.69
881.034	11296.38
881.352	11217.97
881.67	11168.93
881.988	11175.03
882.306	11131.19
882.624	11047.35
882.941	11071.08
883.259	11074.69
883.577	11006.67
883.894	11068.82
884.212	11030.85
884.529	10972.55
884.846	10938.88
885.164	10917.64
885.481	10895.26
885.798	10867.69
886.115	10773.01
886.432	10822.72
886.75	10731.2
887.067	10777.53
887.383	10714.93
887.7	10745.66
888.017	10642.62
888.334	10666.8
888.651	10597.42
888.967	10629.06
889.284	10552.45
889.6	10521.71
889.917	10513.58
890.233	10495.05
890.55	10434.94
890.866	10439.91
891.182	10340.48
891.498	10344.77
891.815	10331.66
892.131	10323.98
892.447	10307.94
892.763	10281.04
893.079	10268.16
893.395	10168.05
893.71	10117.21
894.026	10023.2
894.342	10055.51
894.657	10010.99
894.973	10008.51
895.289	9976.42
895.604	9929.64
895.92	9920.15
896.235	9839.25
896.55	9813.71
896.865	9823.2
897.181	9807.61
897.496	9797.21
897.811	9768.74
898.126	9681.51
898.441	9706.6
898.756	9644.22
899.071	9537.11
899.386	9581.85
899.7	9473.15
900.015	9455.75
900.33	9391.12
900.644	9358.13
900.959	9403.55
901.273	9309.54
901.588	9282.88
901.902	9283.56
902.216	9280.62
902.531	9166.27
902.845	9165.14
903.159	9146.61
903.473	9096.44
903.787	9046.73
904.101	8976.9
904.415	9064.8
904.729	8951.81
905.042	8927.63
905.356	8946.39
905.67	8880.4
905.984	8910.68
906.297	8877.92
906.611	8750.69
906.924	8764.47
907.237	8692.61
907.551	8736.68
907.864	8682.89
908.177	8643.12
908.491	8683.35
908.804	8537.81
909.117	8582.78
909.43	8448.1
909.743	8393.86
910.056	8359.29
910.368	8317.71
910.681	8251.04
910.994	8255.79
911.307	8288.1
911.619	8270.93
911.932	8197.26
912.244	8174.21
912.557	8121.78
912.869	8098.05
913.181	8068.67
913.494	8050.82
913.806	7978.73
914.118	7931.95
914.43	7931.95
914.742	7885.17
915.054	7853.54
915.366	7823.03
915.678	7806.31
915.99	7752.75
916.302	7699.87
916.613	7631.62
916.925	7682.69
917.236	7644.28
917.548	7606.99
917.859	7568.12
918.171	7547.1
918.482	7518.86
918.794	7482.47
919.105	7523.38
919.416	7428.91
919.727	7425.07
920.038	7369.48
920.349	7317.73
920.66	7278.86
920.971	7307.11
921.282	7253.1
921.593	7141.92
921.903	7179.66
922.214	7128.36
922.525	7082.48
922.835	7071.41
923.146	7020.56
923.456	7026.89
923.767	6968.36
924.077	6959.32
924.387	6952.77
924.697	6888.59
925.008	6863.05
925.318	6820.57
925.628	6854.69
925.938	6785.54
926.248	6742.83
926.558	6670.52
926.867	6704.19
927.177	6657.41
927.487	6639.11
927.796	6589.16
928.106	6509.62
928.416	6532.22
928.725	6534.02
929.034	6487.02
929.344	6488.6
929.653	6441.14
929.962	6370.19
930.271	6348.27
930.581	6345.1
930.89	6254.93
931.199	6293.13
931.508	6244.54
931.817	6214.94
932.125	6174.48
932.434	6176.07
932.743	6132.45
933.051	6083.87
933.36	6098.1
933.669	6058.56
933.977	6028.27
934.286	6015.84
934.594	5983.76
934.902	5944.21
935.21	5892.91
935.519	5979.01
935.827	5914.83
936.135	5878.45
936.443	5802.52
936.751	5820.6
937.059	5820.6
937.367	5806.58
937.674	5760.71
937.982	5757.09
938.29	5704.44
938.597	5694.05
938.905	5614.95
939.213	5626.25
939.52	5603.2
939.827	5602.3
940.135	5511
940.442	5560.72
940.749	5469.19
941.056	5470.55
941.363	5441.85
941.67	5423.09
941.977	5363.88
942.284	5388.97
942.591	5334.51
942.898	5348.52
943.205	5323.43
943.511	5322.08
943.818	5238.69
944.125	5259.03
944.431	5258.35
944.738	5209.09
945.044	5193.49
945.35	5155.75
945.657	5134.96
945.963	5126.15
946.269	5080.5
946.575	5087.73
946.881	5104.46
947.187	5038.02
947.493	4982.2
947.799	4992.14
948.105	4925.03
948.41	4952.14
948.716	4950.79
949.022	4854.52
949.327	4901.07
949.633	4822.88
949.938	4802.54
950.244	4737.69
950.549	4796.67
950.854	4776.1
951.16	4722.09
951.465	4762.09
951.77	4700.85
952.075	4652.94
952.38	4697.69
952.685	4667.41
952.99	4598.48
953.294	4588.54
953.599	4569.33
953.904	4541.76
954.209	4526.62
954.513	4458.82
954.818	4528.65
955.122	4488.65
955.426	4451.14
955.731	4486.17
956.035	4385.38
956.339	4417.02
956.643	4393.51
956.948	4341.76
957.252	4380.41
957.556	4347.64
957.86	4288.88
958.163	4256.34
958.467	4292.05
958.771	4266.96
959.075	4248.21
959.378	4202.78
959.682	4245.95
959.985	4168.66
960.289	4153.97
960.592	4109
960.896	4121.88
961.199	4090.92
961.502	4082.11
961.805	4083.92
962.108	4024.26
962.411	4052.28
962.714	3990.14
963.017	3990.14
963.32	4036.46
963.623	3948.1
963.926	3960.98
964.228	3901.55
964.531	3949.23
964.833	3913.3
965.136	3861.1
965.438	3869.91
965.741	3814.55
966.043	3822.91
966.345	3802.12
966.648	3803.25
966.95	3778.84
967.252	3786.07
967.554	3716.24
967.856	3727.54
968.158	3716.24
968.46	3678.05
968.761	3690.03
969.063	3656.36
969.365	3642.12
969.666	3624.95
969.968	3610.71
970.269	3626.08
970.571	3580.2
970.872	3552.18
971.174	3512.41
971.475	3510.15
971.776	3560.77
972.077	3505.63
972.378	3510.6
972.679	3461.79
972.98	3461.11
973.281	3429.92
973.582	3452.75
973.883	3437.83
974.183	3434.22
974.484	3403.48
974.785	3392.18
975.085	3335.69
975.386	3394.22
975.686	3334.79
975.986	3316.71
976.287	3304.28
976.587	3260.44
976.887	3281
977.187	3236.48
977.487	3234
977.787	3211.4
978.087	3187.22
978.387	3158.74
978.687	3196.71
978.987	3178.18
979.286	3156.94
979.586	3112.42
979.885	3113.32
980.185	3110.38
980.484	3079.42
980.784	3075.36
981.083	3077.39
981.382	3025.41
981.682	3042.14
981.981	3039.65
982.28	2982.03
982.579	2985.19
982.878	2972.99
983.177	2984.96
983.475	2960.33
983.774	2907.45
984.073	2913.1
984.372	2903.38
984.67	2903.84
984.969	2904.06
985.267	2893.21
985.566	2871.75
985.864	2836.95
986.162	2877.4
986.461	2824.52
986.759	2809.83
987.057	2789.49
987.355	2764.63
987.653	2742.03
987.951	2776.61
988.249	2754.01
988.547	2754.46
988.844	2708.14
989.142	2711.3
989.44	2694.8
989.737	2691.64
990.035	2694.12
990.332	2639.89
990.63	2614.58
990.927	2620
991.224	2611.87
991.521	2595.6
991.819	2592.21
992.116	2604.18
992.413	2570.96
992.71	2578.42
993.006	2567.8
993.303	2557.18
993.6	2528.48
993.897	2513.11
994.193	2496.62
994.49	2498.65
994.787	2482.83
995.083	2459.78
995.379	2443.96
995.676	2429.05
995.972	2425.66
996.268	2424.53
996.565	2391.76
996.861	2404.19
997.157	2370.29
997.453	2353.34
997.749	2355.6
998.044	2313.57
998.34	2309.73
998.636	2301.37
998.932	2303.4
999.227	2280.8
999.523	2281.71
999.818	2264.08
1000.114	2254.59
1000.409	2274.7
1000.704	2226.34
1001	2220.01
1001.295	2226.79
1001.59	2192.22
1001.885	2201.48
1002.18	2193.35
1002.475	2166.45
1002.77	2143.63
1003.065	2145.66
1003.359	2163.74
1003.654	2139.11
1003.949	2107.02
1004.243	2127.59
1004.538	2096.4
1004.832	2073.8
1005.127	2086.68
1005.421	2049.4
1005.715	2040.13
1006.009	2047.14
1006.304	2033.8
1006.598	2006.68
1006.892	1992
1007.186	1982.05
1007.48	1954.03
1007.773	1947.93
1008.067	1975.72
1008.361	1931.21
1008.655	1922.62
1008.948	1938.89
1009.242	1901.83
1009.535	1884.88
1009.829	1893.69
1010.122	1868.84
1010.415	1840.59
1010.708	1845.33
1011.001	1830.64
1011.295	1852.34
1011.588	1822.96
1011.881	1817.31
1012.173	1816.18
1012.466	1800.81
1012.759	1774.6
1013.052	1779.8
1013.344	1769.4
1013.637	1744.77
1013.93	1718.56
1014.222	1713.13
1014.514	1722.4
1014.807	1703.19
1015.099	1681.72
1015.391	1663.87
1015.683	1659.12
1015.976	1656.19
1016.268	1621.61
1016.56	1640.59
1016.851	1621.16
1017.143	1633.36
1017.435	1612.8
1017.727	1603.98
1018.018	1574.83
1018.31	1577.54
1018.602	1590.42
1018.893	1556.07
1019.185	1545.45
1019.476	1551.33
1019.767	1549.07
1020.058	1517.66
1020.35	1503.87
1020.641	1479.01
1020.932	1495.29
1021.223	1470.65
1021.514	1467.72
1021.804	1478.56
1022.095	1455.06
1022.386	1455.96
1022.677	1444.67
1022.967	1409.64
1023.258	1429.3
1023.548	1398.34
1023.839	1381.84
1024.129	1355.85
1024.419	1377.32
1024.709	1383.42
1025	1342.75
1025.29	1352.92
1025.58	1341.84
1025.87	1310.88
1026.16	1339.81
1026.449	1360.6
1026.739	1334.61
1027.029	1312.47
1027.319	1265.24
1027.608	1274.27
1027.898	1260.94
1028.187	1255.97
1028.477	1239.47
1028.766	1234.73
1029.055	1227.95
1029.344	1221.39
1029.634	1217.1
1029.923	1184.33
1030.212	1208.74
1030.501	1195.63
1030.79	1195.63
1031.078	1219.13
1031.367	1143.43
1031.656	1164.22
1031.945	1157.44
1032.233	1130.1
1032.522	1148.4
1032.81	1134.17
1033.099	1129.19
1033.387	1130.55
1033.675	1100.95
1033.963	1080.83
1034.251	1086.93
1034.54	1087.61
1034.828	1063.43
1035.116	1068.4
1035.403	1042.64
1035.691	1058.46
1035.979	1045.35
1036.267	1065.01
1036.554	1027.73
1036.842	1038.35
1037.129	1026.37
1037.417	1012.36
1037.704	1006.71
1037.992	999.48
1038.279	991.8
1038.566	980.5
1038.853	980.5
1039.14	980.5
