Data from White_reflection_standard_FLMS001491_079.txt Node
Date: Tue Feb 07 10:32:11 GMT 2017
User: dcchb
Spectrometer: FLMS00149
Trigger mode: 0
Integration Time (sec): 2.000000E-2
Scans to average: 10
Electric dark correction enabled: true
Nonlinearity correction enabled: false
Boxcar width: 0
XAxis mode: Wavelengths
Number of Pixels in Spectrum: 2048
>>>>>Begin Spectral Data<<<<<
341.393	-9.25
341.776	-9.25
342.16	-9.25
342.543	-47.89
342.927	-53.09
343.31	-50.61
343.693	-79.31
344.077	-68.46
344.46	-62.81
344.843	-50.61
345.226	-68.91
345.61	-19.65
345.993	-28.01
346.376	-6.99
346.759	13.12
347.142	27.36
347.525	61.48
347.908	59.45
348.291	72.1
348.674	88.15
349.057	113.68
349.44	123.85
349.823	132.89
350.206	164.08
350.588	239.1
350.971	248.14
351.354	244.53
351.737	282.49
352.119	301.93
352.502	300.8
352.884	309.38
353.267	339.89
353.65	347.35
354.032	328.59
354.414	368.59
354.797	364.98
355.179	371.53
355.562	354.81
355.944	369.27
356.326	390.51
356.709	404.3
357.091	393.45
357.473	411.08
357.855	414.92
358.238	396.61
358.62	397.74
359.002	402.04
359.384	380.8
359.766	396.61
360.148	408.36
360.53	393.45
360.912	410.4
361.294	413.56
361.676	406.56
362.057	410.62
362.439	387.35
362.821	409.95
363.203	418.31
363.584	393.9
363.966	414.92
364.348	416.27
364.729	406.11
365.111	420.34
365.493	396.39
365.874	407.24
366.256	419.89
366.637	429.61
367.019	401.81
367.4	413.56
367.781	419.21
368.163	400.46
368.544	431.42
368.925	415.14
369.306	438.87
369.688	420.34
370.069	423.73
370.45	441.58
370.831	428.7
371.212	442.49
371.593	443.17
371.974	428.48
372.355	440.45
372.736	440.68
373.117	455.37
373.498	424.64
373.879	465.76
374.26	451.98
374.641	425.54
375.021	433.9
375.402	463.05
375.783	469.83
376.163	510.06
376.544	510.51
376.925	496.72
377.305	478.87
377.686	463.5
378.066	464.63
378.447	525.42
378.827	504.18
379.208	506.22
379.588	509.38
379.968	514.8
380.349	516.61
380.729	541.47
381.109	515.71
381.489	521.13
381.87	548.47
382.25	542.82
382.63	572.2
383.01	554.8
383.39	564.07
383.77	560.45
384.15	576.5
384.53	578.98
384.91	579.21
385.29	628.25
385.67	600.45
386.049	595.93
386.429	610.39
386.809	612.2
387.189	632.99
387.568	609.94
387.948	651.3
388.328	644.97
388.707	661.01
389.087	667.79
389.466	683.16
389.846	692.2
390.225	679.32
390.605	684.97
390.984	683.61
391.363	700.33
391.743	710.28
392.122	730.16
392.501	741.01
392.881	713.44
393.26	745.31
393.639	748.47
394.018	775.59
394.397	761.35
394.776	767.45
395.155	797.06
395.534	778.98
395.913	808.81
396.292	808.13
396.671	820.78
397.05	844.06
397.429	816.26
397.808	832.53
398.186	874.79
398.565	871.4
398.944	868.01
399.323	873.89
399.701	868.69
400.08	883.83
400.458	910.05
400.837	906.43
401.215	910.05
401.594	923.38
401.972	934.23
402.351	952.76
402.729	965.41
403.107	984.62
403.486	996.6
403.864	996.82
404.242	995.69
404.62	1005.19
404.999	1015.13
405.377	1023.94
405.755	1076.37
406.133	1058.74
406.511	1084.96
406.889	1098.52
407.267	1100.1
407.645	1112.98
408.023	1137.84
408.401	1141.45
408.779	1156.82
409.156	1183.26
409.534	1197.95
409.912	1226.65
410.29	1219.87
410.667	1251.51
411.045	1286.53
411.422	1282.69
411.8	1314.1
412.178	1309.81
412.555	1357.27
412.933	1374.67
413.31	1397.04
413.687	1409.69
414.065	1375.35
414.442	1428.68
414.819	1442.91
415.197	1445.17
415.574	1482.91
415.951	1474.55
416.328	1507.55
416.705	1534.44
417.082	1521.1
417.46	1558.39
417.837	1574.89
418.214	1574.21
418.591	1597.03
418.967	1606.75
419.344	1640.2
419.721	1658.05
420.098	1655.11
420.475	1685.39
420.852	1686.98
421.228	1753.87
421.605	1705.51
421.982	1766.07
422.358	1782.11
422.735	1799.97
423.111	1802.45
423.488	1848.1
423.864	1894.43
424.241	1892.17
424.617	1896.69
424.994	1909.79
425.37	1916.57
425.746	1958.83
426.123	2000.87
426.499	2023.92
426.875	2033.41
427.251	2070.02
427.627	2118.6
428.003	2124.48
428.379	2161.99
428.756	2177.36
429.132	2200.41
429.507	2228.2
429.883	2270.24
430.259	2306.17
430.635	2309.56
431.011	2349.1
431.387	2390.01
431.763	2423.68
432.138	2505.48
432.514	2480.4
432.89	2515.2
433.265	2536.67
433.641	2613.05
434.016	2639.49
434.392	2669.77
434.767	2687.4
435.143	2728.3
435.518	2740.51
435.894	2787.74
436.269	2804.91
436.644	2857.79
437.02	2892.37
437.395	2918.13
437.77	2964.46
438.145	3021.4
438.52	2988.18
438.895	3081.29
439.271	3078.35
439.646	3184.11
440.021	3173.26
440.395	3156.77
440.77	3143.66
441.145	3190.44
441.52	3291.45
441.895	3304.33
442.27	3307.27
442.645	3356.31
443.019	3368.51
443.394	3349.53
443.769	3438.57
444.143	3411.22
444.518	3446.25
444.892	3458.91
445.267	3492.35
445.641	3528.51
446.016	3573.93
446.39	3591.33
446.764	3611.44
447.139	3610.31
447.513	3680.14
447.887	3655.06
448.262	3716.53
448.636	3720.14
449.01	3791.55
449.384	3842.85
449.758	3855.96
450.132	3871.1
450.506	3907.26
450.88	3938.89
451.254	3979.8
451.628	4012.56
452.002	4094.14
452.376	4119.23
452.75	4177.31
453.123	4170.98
453.497	4194.25
453.871	4283.52
454.244	4384.98
454.618	4421.37
454.992	4471.31
455.365	4429.73
455.739	4573
456.112	4642.15
456.486	4662.26
456.859	4699.1
457.232	4827.68
457.606	4810.74
457.979	4873.11
458.352	4967.34
458.725	5043.05
459.099	5077.85
459.472	5172.76
459.845	5262.47
460.218	5251.4
460.591	5325.98
460.964	5365.3
461.337	5489.81
461.71	5526.42
462.083	5617.72
462.456	5725.97
462.829	5677.6
463.201	5828.11
463.574	5814.32
463.947	5907.2
464.32	6056.13
464.692	6061.78
465.065	6104.94
465.438	6251.15
465.81	6296.8
466.183	6429
466.555	6504.02
466.928	6560.97
467.3	6558.26
467.672	6646.62
468.045	6865.82
468.417	6871.47
468.789	6928.42
469.161	7052.48
469.534	7155.08
469.906	7360.27
470.278	7437.11
470.65	7436.2
471.022	7597.55
471.394	7812.24
471.766	7866.47
472.138	7937.21
472.51	8109.18
472.882	8262.85
473.253	8318.44
473.625	8405.22
473.997	8600.69
474.369	8626
474.74	8819.67
475.112	8963.85
475.484	9049.04
475.855	9288.81
476.227	9410.84
476.598	9642.92
476.97	9616.03
477.341	9915.46
477.713	10061.22
478.084	10142.57
478.455	10371.49
478.827	10512.96
479.198	10789.11
479.569	10793.63
479.94	11125.82
480.311	11223.22
480.682	11467.96
481.053	11699.82
481.424	11936.42
481.795	11927.16
482.166	12219.35
482.537	12450.76
482.908	12699.12
483.279	12808.26
483.65	13082.83
484.021	13301.13
484.391	13412.32
484.762	13537.51
485.133	13674
485.503	13894.34
485.874	14194.9
486.244	14416.58
486.615	14607.31
486.985	14736.35
487.356	15134.98
487.726	15190.35
488.097	15470.57
488.467	15508.31
488.837	15988.52
489.207	16100.16
489.578	16338.34
489.948	16399.81
490.318	16770.19
490.688	16763.64
491.058	17095.84
491.428	17269.84
491.798	17364.98
492.168	17730.85
492.538	17911.41
492.908	18054.45
493.278	18316.14
493.648	18369.7
494.017	18660.31
494.387	18770.82
494.757	18875
495.126	19122
495.496	19163.8
495.866	19392.72
496.235	19636.56
496.605	19691.47
496.974	19876.33
497.344	20089.2
497.713	20175.75
498.082	20345.92
498.452	20590.66
498.821	20725.12
499.19	20674.95
499.559	21057.54
499.928	21104.54
500.298	21216.86
500.667	21509.96
501.036	21552.89
501.405	21726.22
501.774	21935.03
502.143	21971.41
502.512	22046.67
502.88	22403.27
503.249	22318.07
503.618	22511.06
503.987	22674.22
504.356	22847.32
504.724	22926.42
505.093	23079.41
505.462	23178.16
505.83	23310.14
506.199	23616.34
506.567	23914.41
506.936	23959.16
507.304	24254.97
507.672	24338.13
508.041	24414.29
508.409	24619.71
508.777	24805.01
509.145	25042.29
509.514	25096.53
509.882	25305.56
510.25	25331.55
510.618	25534.03
510.986	25553.47
511.354	25998.65
511.722	26133.56
512.09	26350.96
512.458	26385.08
512.826	26659.88
513.193	26936.26
513.561	26975.35
513.929	27120.88
514.297	27472.06
514.664	27622.56
515.032	27745.95
515.4	27929
515.767	28110.46
516.135	28366.95
516.502	28178.93
516.869	28776.88
517.237	28811.01
517.604	28813.95
517.972	29144.56
518.339	29388.85
518.706	29448.51
519.073	29718.55
519.44	29856.63
519.808	30327.8
520.175	30210.75
520.542	30723.05
520.909	30869.26
521.276	30885.76
521.643	31203.49
522.009	31520.77
522.376	31684.15
522.743	31932.06
523.11	32233.97
523.477	32586.05
523.843	32758.02
524.21	33038.02
524.577	33153.72
524.943	33427.84
525.31	33576.98
525.676	33898.11
526.043	34282.5
526.409	34229.62
526.776	34862.6
527.142	34742.83
527.508	35071.41
527.874	35268.24
528.241	35425.75
528.607	35602.02
528.973	35964.04
529.339	36013.53
529.705	36295.33
530.071	36663.91
530.437	36841.08
530.803	36975.54
531.169	37222.76
531.535	37289.88
531.901	37469.31
532.267	37615.52
532.632	37836.99
532.998	38063.87
533.364	38221.38
533.73	38301.15
534.095	38669.05
534.461	38832.67
534.826	38975.03
535.192	38991.53
535.557	39213.9
535.923	39276.72
536.288	39573.89
536.653	39601.91
537.019	39618.86
537.384	39902.24
537.749	40169.58
538.114	40262.01
538.479	40379.74
538.845	40497.71
539.21	40463.58
539.575	40770.69
539.94	40742.9
540.305	41040.52
540.67	41193.96
541.034	41328.19
541.399	41477.34
541.764	41450.45
542.129	41683.66
542.494	41840.27
542.858	41932.24
543.223	42074.39
543.587	42336.08
543.952	42203.2
544.316	42502.4
544.681	42521.83
545.045	42833.46
545.41	42896.51
545.774	42981.71
546.138	43115.49
546.503	43305.54
546.867	43193.68
547.231	43677.28
547.595	43712.09
547.959	43860.56
548.324	43898.52
548.688	43939.2
549.052	44227.33
549.416	44249.7
549.779	44490.6
550.143	44590.03
550.507	44827.99
550.871	44989.34
551.235	44867.53
551.599	45241.99
551.962	45431.14
552.326	45533.96
552.689	45763.1
553.053	45676.1
553.417	45792.48
553.78	46209.42
554.143	46091.23
554.507	46323.54
554.87	46514.72
555.234	46761.5
555.597	46542.52
555.96	46914.94
556.323	47187.93
556.686	47216.4
557.05	47588.37
557.413	47566.45
557.776	47599.89
558.139	47986.55
558.502	48041.69
558.865	48176.37
559.228	48408.01
559.59	48549.47
559.953	48605.29
560.316	48975.9
560.679	49079.63
561.041	49329.11
561.404	49403.23
561.767	49671.48
562.129	49571.59
562.492	49975.42
562.854	49906.05
563.217	50032.37
563.579	50151.92
563.941	50486.37
564.304	50574.96
564.666	50850.43
565.028	50810.2
565.39	50989.86
565.753	51085.68
566.115	51234.6
566.477	51321.6
566.839	51443.63
567.201	51738.31
567.563	51707.58
567.925	52016.95
568.287	51994.13
568.648	52016.95
569.01	52239.09
569.372	52377.85
569.734	52304.63
570.095	52630.04
570.457	52713.43
570.819	52841.79
571.18	52833.43
571.542	52887.21
571.903	53017.15
572.265	53085.62
572.626	53218.5
572.987	53311.61
573.349	53385.05
573.71	53499.17
574.071	53547.76
574.432	53581.2
574.794	53851.03
575.155	53844.93
575.516	53735.32
575.877	53900.97
576.238	53906.62
576.599	54121.53
576.96	54085.82
577.32	54067.52
577.681	54312.26
578.042	54334.18
578.403	54305.03
578.763	54333.05
579.124	54359.04
579.485	54469.09
579.845	54611.23
580.206	54443.1
580.566	54523.55
580.927	54615.98
581.287	54689.65
581.648	54563.78
582.008	54707.28
582.368	54702.53
582.728	54717.22
583.089	54654.4
583.449	54663.21
583.809	54751.57
584.169	54778.23
584.529	54814.39
584.889	54963.77
585.249	54768.97
585.609	54705.24
585.969	54931.9
586.329	54659.82
586.688	54831.34
587.048	54826.82
587.408	54754.05
587.768	54846.48
588.127	54837.67
588.487	54699.59
588.846	54945.91
589.206	54714.96
589.565	54815.97
589.925	54920.38
590.284	54826.14
590.643	54831.11
591.003	54975.07
591.362	54976.87
591.721	54875.18
592.08	54961.05
592.44	54989.75
592.799	54993.82
593.158	54886.25
593.517	54940.04
593.876	54949.53
594.235	54947.72
594.593	55017.55
594.952	55105.91
595.311	54902.07
595.67	55059.36
596.029	55211.44
596.387	55210.77
596.746	55262.97
597.104	55063.43
597.463	55087.83
597.822	55215.74
598.18	55107.49
598.538	55042.18
598.897	55342.97
599.255	55034.05
599.613	55425.9
599.972	55290.09
600.33	55349.97
600.688	55289.41
601.046	55386.58
601.404	55378.67
601.762	55305.9
602.12	55501.61
602.478	55476.07
602.836	55538.21
603.194	55345.68
603.552	55407.82
603.91	55343.64
604.268	55553.13
604.625	55467.03
604.983	55624.77
605.341	55446.01
605.698	55563.3
606.056	55711.54
606.413	55616.86
606.771	55671.32
607.128	55786.12
607.485	55621.38
607.843	55679.68
608.2	55778.66
608.557	55875.38
608.914	55795.16
609.272	55967.81
609.629	55870.64
609.986	56013.46
610.343	55947.02
610.7	56125.77
611.057	56096.84
611.414	56084.19
611.771	56067.69
612.127	56148.37
612.484	56186.33
612.841	56181.81
613.198	56147.01
613.554	56139.78
613.911	56351.3
614.267	56260.46
614.624	56231.08
614.98	56296.61
615.337	56417.29
615.693	56373.22
616.05	56318.08
616.406	56490.51
616.762	56391.75
617.118	56389.04
617.475	56290.06
617.831	56449.38
618.187	56517.17
618.543	56551.3
618.899	56643.5
619.255	56587.9
619.611	56488.02
619.967	56587.68
620.323	56598.98
620.678	56496.16
621.034	56536.15
621.39	56544.29
621.746	56497.29
622.101	56821.34
622.457	56521.24
622.812	56574.12
623.168	56624.29
623.523	56636.27
623.879	56684.63
624.234	56487.34
624.589	56628.36
624.945	56631.52
625.3	56687.79
625.655	56657.06
626.01	56675.59
626.365	56666.32
626.72	56630.84
627.075	56563.05
627.43	56621.58
627.785	56557.62
628.14	56577.06
628.495	56598.53
628.85	56443.5
629.205	56479.21
629.559	56604.63
629.914	56472.43
630.269	56529.83
630.623	56450.28
630.978	56387.01
631.332	56474.91
631.687	56502.03
632.041	56335.48
632.396	56364.63
632.75	56329.38
633.104	56276.05
633.459	56191.53
633.813	56136.84
634.167	56143.17
634.521	56178.2
634.875	56213
635.229	56128.03
635.583	56025.89
635.937	55895.27
636.291	55980.69
636.645	55992.21
636.999	55886
637.352	55974.14
637.706	55850.97
638.06	55908.37
638.413	55827.7
638.767	55752.45
639.121	55809.17
639.474	55606.69
639.828	55657.99
640.181	55661.15
640.534	55675.61
640.888	55524.43
641.241	55434.26
641.594	55516.52
641.947	55538.21
642.301	55482.85
642.654	55497.31
643.007	55388.84
643.36	55295.51
643.713	55283.31
644.066	55432.91
644.419	55235.17
644.771	54986.59
645.124	54674.73
645.477	54728.97
645.83	54464.12
646.182	54411.01
646.535	54288.98
646.888	54348.87
647.24	54119.04
647.593	54366.27
647.945	54311.35
648.298	54159.49
648.65	54029.33
649.002	54063.9
649.355	54131.7
649.707	54030.68
650.059	54164.92
650.411	54497.11
650.763	54467.28
651.115	54819.36
651.467	54652.59
651.819	54663.44
652.171	54558.58
652.523	54548.18
652.875	54477.68
653.227	54351.81
653.578	54547.51
653.93	54473.16
654.282	54278.81
654.633	54224.35
654.985	54344.12
655.337	54289.89
655.688	54315.2
656.039	54280.17
656.391	54056.9
656.742	54069.1
657.094	54108.87
657.445	54297.57
657.796	54073.17
658.147	54049.21
658.498	54116.33
658.849	54083.79
659.2	54047.18
659.551	54040.4
659.902	54095.09
660.253	54043.11
660.604	54050.34
660.955	53880.18
661.306	53936.22
661.656	53854.64
662.007	53863
662.358	53855.1
662.708	53888.77
663.059	53884.7
663.409	53622.78
663.76	53872.95
664.11	53800.63
664.461	53756.34
664.811	53798.15
665.161	53787.07
665.511	53694.2
665.862	53696.46
666.212	53789.11
666.562	53748.21
666.912	53650.58
667.262	53603.35
667.612	53514.31
667.962	53674.76
668.312	53507.53
668.662	53733.74
669.011	53613.52
669.361	53525.16
669.711	53547.76
670.06	53446.74
670.41	53400.64
670.76	53316.35
671.109	53483.13
671.459	53433.41
671.808	53304.15
672.157	53397.03
672.507	53256.01
672.856	53213.76
673.205	53252.4
673.554	53301.89
673.904	53183.25
674.253	53324.71
674.602	53251.04
674.951	52724.73
675.3	52610.61
675.649	53053.53
675.998	52989.13
676.346	53140.31
676.695	53087.88
677.044	52832.3
677.393	53030.48
677.741	53087.66
678.09	52902.13
678.438	52863.93
678.787	52853.31
679.135	52894.89
679.484	52648.35
679.832	52750.27
680.181	52555.92
680.529	52608.57
680.877	52672.75
681.225	52565.41
681.573	52716.37
681.922	52439.54
682.27	52342.59
682.618	52344.85
682.966	52328.81
683.314	52275.02
683.661	52216.72
684.009	52104.18
684.357	52059.89
684.705	51965.43
685.053	51940.57
685.4	51910.06
685.748	51804.75
686.095	51749.16
686.443	51617.64
686.79	51599.34
687.138	51585.32
687.485	51494.48
687.832	51429.85
688.18	51444.31
688.527	51305.78
688.874	51240.93
689.221	51251.55
689.568	51122.96
689.915	50898.34
690.262	50941.27
690.609	50857.66
690.956	50794.61
691.303	50733.14
691.65	50454.05
691.997	50526.82
692.344	50226.26
692.69	50284.12
693.037	50224.68
693.383	50019.04
693.73	50144.68
694.077	49969.1
694.423	49943.11
694.769	49811.59
695.116	49703.57
695.462	49545.6
695.808	49428.09
696.155	49469
696.501	49108.55
696.847	49305.38
697.193	48925.73
697.539	49125.28
697.885	48895.9
698.231	48723.48
698.577	48703.82
698.923	48626.08
699.269	48450.04
699.614	48296.15
699.96	48118.07
700.306	48389.93
700.651	48023.61
700.997	47998.3
701.342	47858.19
701.688	47798.08
702.033	47661.81
702.379	47596.73
702.724	47322.16
703.069	47610.97
703.415	47042.84
703.76	47076.97
704.105	47181.37
704.45	46928.05
704.795	46820.25
705.14	46592.01
705.485	46658.9
705.83	46648.73
706.175	46542.07
706.52	46380.04
706.865	46214.62
707.209	46149.99
707.554	46037.9
707.899	46129.2
708.243	45939.82
708.588	45856.66
708.932	45523.34
709.277	45585.93
709.621	45710.9
709.966	45219.62
710.31	45434.07
710.654	45005.38
710.998	45006.74
711.342	45095.33
711.687	44875.67
712.031	44755.22
712.375	44544.15
712.719	44644.49
713.063	44532.18
713.407	44578.28
713.75	44211.28
714.094	44271.17
714.438	44159.76
714.782	44297.61
715.125	43934.9
715.469	44084.05
715.812	43981.46
716.156	43588.7
716.499	43658.53
716.843	43609.49
717.186	43284.75
717.53	43688.58
717.873	43569.26
718.216	43413.79
718.559	43323.39
718.902	43097.64
719.246	43170.18
719.589	42918.66
719.932	42802.05
720.275	42879.34
720.617	42735.16
720.96	42698.55
721.303	42704.88
721.646	42618.55
721.989	42317.77
722.331	42502.63
722.674	42434.83
723.016	42211.33
723.359	42191.9
723.701	42118
724.044	41918.91
724.386	41825.13
724.729	41903.55
725.071	41879.59
725.413	41818.35
725.755	41819.03
726.097	41609.09
726.439	41490.9
726.782	41470.79
727.124	41516.66
727.465	41316.22
727.807	41205.71
728.149	41352.83
728.491	41089.33
728.833	41180.63
729.175	41023.79
729.516	40929.11
729.858	40940.86
730.199	40761.43
730.541	40779.51
730.882	40548.1
731.224	40737.25
731.565	40564.6
731.906	40543.58
732.248	40506.07
732.589	40278.5
732.93	40077.83
733.271	40208.9
733.612	40259.29
733.953	40235.34
734.294	40134.1
734.635	39974.1
734.976	40023.82
735.317	39738.18
735.658	39896.82
735.999	39691.4
736.339	39789.7
736.68	39697.28
737.021	39485.98
737.361	39447.11
737.702	39550.16
738.042	39293.22
738.383	39249.38
738.723	39282.15
739.063	39120.79
739.404	39203.73
739.744	39093.68
740.084	39019.78
740.424	39078.31
740.764	38880.8
741.104	38924.19
741.444	38769.16
741.784	38585.21
742.124	38737.3
742.464	38656.85
742.804	38580.47
743.143	38453.47
743.483	38420.25
743.823	38184.55
744.162	38158.11
744.502	38327.14
744.841	38088.28
745.181	38149.07
745.52	38022.07
745.86	37984.55
746.199	37925.12
746.538	37878.34
746.877	37971.67
747.216	37913.37
747.556	37723.32
747.895	37735.97
748.234	37560.38
748.573	37396.54
748.911	37521.97
749.25	37393.61
749.589	37204.91
749.928	37329.2
750.267	37317
750.605	36925.37
750.944	37016.44
751.283	36827.29
751.621	36973.05
751.96	36678.15
752.298	36651.48
752.636	36629.79
752.975	36459.39
753.313	36436.57
753.651	36402.67
753.989	36334.65
754.327	36371.49
754.666	36049.46
755.004	35967.2
755.342	36048.33
755.679	35911.61
756.017	35844.72
756.355	35853.53
756.693	35619.19
757.031	35548.23
757.368	35491.06
757.706	35392.08
758.044	35223.49
758.381	35275.7
758.719	35035.93
759.056	35122.71
759.394	34948.7
759.731	34676.39
760.068	34682.04
760.405	34563.4
760.743	34394.59
761.08	34555.49
761.417	34296.74
761.754	34332.9
762.091	34253.12
762.428	34019.23
762.765	33753.02
763.102	33960.48
763.438	33798.22
763.775	33636.42
764.112	33566.36
764.449	33649.07
764.785	33374.28
765.122	33187.84
765.458	33147.17
765.795	32976.77
766.131	32944.91
766.467	32919.6
766.804	32625.6
767.14	32589.89
767.476	32529.55
767.812	32304.7
768.148	32345.38
768.485	32108.77
768.821	32032.39
769.157	31974.77
769.492	31913.98
769.828	31752.17
770.164	31483.25
770.5	31585.17
770.836	31415.46
771.171	31322.35
771.507	31193.09
771.842	30935.47
772.178	30898.86
772.513	30893.21
772.849	30660
773.184	30650.51
773.519	30617.51
773.855	30461.59
774.19	30368.71
774.525	30263.63
774.86	30237.64
775.195	30093.01
775.53	29979.56
775.865	29862.96
776.2	29544.55
776.535	29372.58
776.87	29467.94
777.205	29365.34
777.539	29109.76
777.874	29267.49
778.209	28932.36
778.543	28931
778.878	28679.94
779.212	28704.57
779.547	28480.85
779.881	28593.61
780.215	28407.85
780.55	28462.54
780.884	28358.82
781.218	28182.1
781.552	28245.6
781.886	27946.17
782.22	27867.3
782.554	27750.47
782.888	27441.55
783.222	27276.81
783.556	27276.59
783.889	27260.09
784.223	27054.9
784.557	27028.91
784.89	26968.8
785.224	26916.37
785.557	26690.16
785.891	26647
786.224	26696.49
786.558	26561.8
786.891	26272.54
787.224	26220.57
787.557	26058.54
787.891	26241.58
788.224	26171.08
788.557	26002.95
788.89	26025.32
789.223	25950.29
789.556	25619.23
789.888	25678.89
790.221	25554.6
790.554	25384.66
790.887	25282.06
791.219	25285.68
791.552	25155.28
791.884	25037.77
792.217	25046.14
792.549	24896.99
792.882	24715.75
793.214	24605.24
793.546	24748.74
793.879	24452.48
794.211	24392.14
794.543	24460.61
794.875	24239.38
795.207	24324.35
795.539	24198.7
795.871	24151.47
796.203	24031.47
796.535	23791.93
796.867	23827.86
797.198	23732.27
797.53	23746.28
797.862	23544.93
798.193	23662.89
798.525	23417.48
798.856	23436.69
799.188	23080.54
799.519	23201.89
799.85	23010.03
800.182	22980.2
800.513	22953.99
800.844	22699.76
801.175	22913.31
801.506	22882.12
801.837	22669.7
802.168	22639.87
802.499	22490.04
802.83	22487.56
803.161	22329.37
803.491	22453.44
803.822	22392.42
804.153	22287.11
804.483	22004.18
804.814	22073.33
805.145	21968.02
805.475	22041.47
805.805	21881.92
806.136	21853
806.466	21859.78
806.796	21752.44
807.126	21644.87
807.457	21528.71
807.787	21575.94
808.117	21403.75
808.447	21304.09
808.777	21472.67
809.107	21264.99
809.436	21252.11
809.766	21192.68
810.096	21071.78
810.426	21090.31
810.755	21070.42
811.085	20876.3
811.414	20912.91
811.744	20752.24
812.073	20750.88
812.403	20643.31
812.732	20569.87
813.061	20541.85
813.39	20369.65
813.719	20353.6
814.049	20504.33
814.378	20424.79
814.707	20251.69
815.036	20277.45
815.365	20171.69
815.693	19981.64
816.022	20032.03
816.351	19962.65
816.68	19797.69
817.008	19879.27
817.337	19733.28
817.665	19716.78
817.994	19759.95
818.322	19714.75
818.651	19599.5
818.979	19499.84
819.307	19669.55
819.636	19588.65
819.964	19469.33
820.292	19403.35
820.62	19379.84
820.948	19450.8
821.276	19427.53
821.604	19392.27
821.932	19490.58
822.259	19428.88
822.587	19372.39
822.915	19372.61
823.243	19342.56
823.57	19299.39
823.898	19366.06
824.225	19301.43
824.553	19270.92
824.88	19292.39
825.207	19338.49
825.535	19271.15
825.862	19377.13
826.189	19258.26
826.516	19296
826.843	19372.39
827.17	19285.83
827.497	19310.47
827.824	19237.25
828.151	19315.44
828.478	19232.5
828.805	19293.97
829.131	19269.34
829.458	19214.65
829.785	19063.24
830.111	19243.58
830.438	19285.61
830.764	19156.12
831.09	19173.75
831.417	19138.72
831.743	19114.77
832.069	19071.38
832.395	19054.65
832.722	19158.83
833.048	19035.45
833.374	19145.27
833.7	18984.15
834.026	18967.65
834.351	19039.74
834.677	18981.89
835.003	18980.98
835.329	18978.5
835.654	18917.93
835.98	18883.59
836.306	18928.1
836.631	18796.36
836.956	18853.76
837.282	18749.13
837.607	18743.25
837.932	18714.55
838.258	18711.39
838.583	18586.42
838.908	18514.33
839.233	18578.06
839.558	18594.1
839.883	18475.46
840.208	18389.14
840.533	18432.98
840.858	18388.68
841.182	18448.12
841.507	18329.93
841.832	18233.88
842.156	18258.52
842.481	18242.7
842.805	18152.31
843.13	18143.72
843.454	17993.21
843.778	18049.03
844.103	17952.31
844.427	17927.45
844.751	17910.5
845.075	17836.61
845.399	17855.36
845.723	17696.5
846.047	17748.02
846.371	17612.43
846.695	17626.44
847.019	17461.02
847.343	17428.93
847.666	17267.36
847.99	17153.69
848.313	17210.86
848.637	17108.49
848.96	17051.32
849.284	16973.13
849.607	16840.93
849.931	16802.74
850.254	16722.06
850.577	16600.48
850.9	16548.73
851.223	16517.55
851.546	16342.18
851.869	16311.45
852.192	16339.7
852.515	16227.84
852.838	16047.05
853.161	16260.6
853.483	16089.53
853.806	16068.07
854.129	15983.55
854.451	15906.71
854.774	15773.16
855.096	15824.91
855.419	15777.68
855.741	15702.65
856.063	15634.86
856.385	15650.45
856.708	15568.64
857.03	15468.31
857.352	15517.35
857.674	15405.94
857.996	15408.65
858.318	15297.69
858.64	15278.71
858.961	15282.55
859.283	15232.16
859.605	15135.21
859.926	15146.96
860.248	15024.48
860.57	15060.18
860.891	15067.64
861.212	14921.43
861.534	14843.92
861.855	14886.85
862.176	14857.7
862.498	14848.89
862.819	14887.53
863.14	14801.43
863.461	14737.71
863.782	14724.15
864.103	14704.71
864.424	14679.85
864.745	14650.25
865.065	14558.95
865.386	14537.26
865.707	14587.2
866.027	14556.69
866.348	14569.8
866.668	14429.92
866.989	14497.49
867.309	14334.1
867.63	14381.33
867.95	14334.55
868.27	14311.73
868.59	14231.96
868.91	14229.92
869.23	14213.2
869.55	14122.81
869.87	14254.55
870.19	14150.15
870.51	14228.57
870.83	14135.24
871.15	14030.61
871.469	14152.64
871.789	14040.77
872.109	14129.81
872.428	13990.15
872.748	14058.85
873.067	14054.56
873.386	14084.84
873.706	13954.68
874.025	13850.27
874.344	13815.24
874.663	13894.79
874.982	13812.08
875.301	13862.25
875.62	13823.83
875.939	13713.1
876.258	13771.63
876.577	13692.31
876.896	13729.82
877.214	13726.21
877.533	13676.72
877.852	13674
878.17	13582.93
878.489	13549.71
878.807	13584.06
879.125	13561.24
879.444	13503.84
879.762	13362.15
880.08	13426.1
880.398	13335.71
880.716	13476.27
881.034	13349.04
881.352	13394.01
881.67	13285.54
881.988	13317.63
882.306	13260.91
882.624	13236.5
882.941	13122.15
883.259	13077.64
883.577	13063.4
883.894	13090.52
884.212	12991.31
884.529	13033.8
884.846	12990.41
885.164	12931.88
885.481	13009.16
885.798	12963.97
886.115	12839.68
886.432	12863.86
886.75	12859.56
887.067	12861.37
887.383	12747.02
887.7	12796.06
888.017	12650.08
888.334	12708.61
888.651	12586.12
888.967	12620.7
889.284	12493.7
889.6	12503.64
889.917	12436.75
890.233	12433.13
890.55	12398.56
890.866	12390.87
891.182	12408.5
891.498	12224.33
891.815	12255.51
892.131	12199.02
892.447	12209.86
892.763	12157.43
893.079	12104.33
893.395	12056.19
893.71	11960.6
894.026	12024.33
894.342	11988.4
894.657	11918.34
894.973	11911.57
895.289	11815.07
895.604	11912.02
895.92	11774.85
896.235	11778.69
896.55	11694.17
896.865	11690.78
897.181	11589.54
897.496	11648.52
897.811	11457.34
898.126	11519.71
898.441	11505.25
898.756	11395.87
899.071	11424.8
899.386	11376.21
899.7	11329.66
900.015	11283.79
900.33	11202.66
900.644	11196.1
900.959	11158.36
901.273	11106.84
901.588	11041.53
901.902	10894.64
902.216	10933.06
902.531	10945.49
902.845	10868.43
903.159	10827.75
903.473	10794.53
903.787	10730.35
904.101	10681.77
904.415	10695.55
904.729	10682.67
905.042	10578.27
905.356	10569.91
905.67	10445.62
905.984	10497.59
906.297	10442.23
906.611	10440.87
906.924	10383.7
907.237	10394.09
907.551	10339.18
907.864	10234.32
908.177	10213.76
908.491	10221.89
908.804	10122.69
909.117	10154.32
909.43	10056.7
909.743	9955.23
910.056	9993.2
910.368	10031.16
910.681	9804.95
910.994	9788.46
911.307	9705.3
911.619	9770.15
911.932	9728.8
912.244	9650.61
912.557	9642.25
912.869	9620.1
913.181	9583.49
913.494	9561.8
913.806	9514.11
914.118	9436.6
914.43	9339.66
914.742	9371.97
915.054	9310.28
915.366	9290.17
915.678	9249.26
915.99	9245.42
916.302	9154.12
916.613	9135.59
916.925	9079.1
917.236	9061.47
917.548	9017.18
917.859	9016.05
918.171	8907.58
918.482	8873.68
918.794	8837.07
919.105	8826.67
919.416	8668.03
919.727	8789.84
920.038	8721.59
920.349	8689.28
920.66	8598.66
920.971	8601.6
921.282	8584.2
921.593	8518.66
921.903	8508.26
922.214	8425.56
922.525	8427.36
922.835	8364.09
923.146	8314.15
923.456	8318.89
923.767	8260.36
924.077	8204.77
924.387	8287.03
924.697	8161.16
925.008	8196.86
925.318	8065.79
925.628	8023.08
925.938	8014.04
926.248	7939.01
926.558	7982.18
926.867	7870.09
927.177	7934.04
927.487	7838.23
927.796	7711.9
928.106	7793.26
928.416	7717.55
928.725	7720.04
929.034	7702.18
929.344	7707.61
929.653	7636.2
929.962	7519.82
930.271	7540.83
930.581	7485.02
930.89	7432.36
931.199	7420.84
931.508	7317.34
931.817	7393.27
932.125	7309.2
932.434	7307.39
932.743	7260.39
933.051	7213.84
933.36	7208.86
933.669	7140.17
933.977	7145.36
934.286	7092.71
934.594	7087.96
934.902	7057.91
935.21	6992.15
935.519	6946.95
935.827	6969.32
936.135	6934.3
936.443	6861.3
936.751	6801.19
937.059	6857.46
937.367	6772.72
937.674	6737.46
937.982	6800.74
938.29	6692.95
938.597	6703.11
938.905	6650.91
939.213	6653.62
939.52	6524.81
939.827	6536.57
940.135	6488.66
940.442	6492.27
940.749	6512.84
941.056	6477.81
941.363	6384.93
941.67	6388.09
941.977	6351.49
942.284	6298.83
942.591	6265.39
942.898	6176.8
943.205	6289.11
943.511	6193.07
943.818	6208.89
944.125	6133.86
944.431	6087.76
944.738	6116.92
945.044	6069.91
945.35	6062.91
945.657	6017.03
945.963	5972.06
946.269	5960.99
946.575	5920.08
946.881	5925.96
947.187	5872.63
947.493	5887.32
947.799	5840.99
948.105	5779.75
948.41	5774.1
948.716	5772.07
949.022	5721.9
949.327	5763.03
949.633	5664.05
949.938	5657.72
950.244	5676.93
950.549	5576.59
950.854	5569.59
951.16	5505.18
951.465	5521.22
951.77	5504.95
952.075	5496.59
952.38	5476.71
952.685	5433.54
952.99	5437.61
953.294	5326.88
953.599	5319.42
953.904	5344.05
954.209	5312.87
954.513	5249.37
954.818	5330.5
955.122	5249.59
955.426	5231.06
955.731	5179.31
956.035	5218.41
956.339	5167.56
956.643	5154
956.948	5096.38
957.252	5104.51
957.556	5043.72
957.86	5044.18
958.163	5030.84
958.467	4992.2
958.771	4961.92
959.075	4951.75
959.378	4875.14
959.682	4928.7
959.985	4871.3
960.289	4937.29
960.592	4818.19
960.896	4801.02
961.199	4784.75
961.502	4760.79
961.805	4708.82
962.108	4683.73
962.411	4714.01
962.714	4624.75
963.017	4667.46
963.32	4646.45
963.623	4646.9
963.926	4610.51
964.228	4579.1
964.531	4558.99
964.833	4552.89
965.136	4494.59
965.438	4509.05
965.741	4445.32
966.043	4452.55
966.345	4436.51
966.648	4418.2
966.95	4398.54
967.252	4403.06
967.554	4318.09
967.856	4366.9
968.158	4316.96
968.46	4291.65
968.761	4278.77
969.063	4253.46
969.365	4208.04
969.666	4221.6
969.968	4159.45
970.269	4160.13
970.571	4193.12
970.872	4140.24
971.174	4102.05
971.475	4087.59
971.776	4054.82
972.077	4060.47
972.378	4048.5
972.679	4048.95
972.98	4036.52
973.281	3983.41
973.582	3973.69
973.883	3962.17
974.183	3959.68
974.484	3923.75
974.785	3917.2
975.085	3904.54
975.386	3907.48
975.686	3857.54
975.986	3827.94
976.287	3846.69
976.587	3759.69
976.887	3799.91
977.187	3772.8
977.487	3747.26
977.787	3732.35
978.087	3756.75
978.387	3738.45
978.687	3684.21
978.987	3664.55
979.286	3608.28
979.586	3644.44
979.885	3611.9
980.185	3604.89
980.484	3597.21
980.784	3564.21
981.083	3557.89
981.382	3595.85
981.682	3530.54
981.981	3484.44
982.28	3460.94
982.579	3458.91
982.878	3465.23
983.177	3462.52
983.475	3465.01
983.774	3398.79
984.073	3363.09
984.372	3386.14
984.67	3338.23
984.969	3372.13
985.267	3343.2
985.566	3275.18
985.864	3311.34
986.162	3276.09
986.461	3258.69
986.759	3248.29
987.057	3230.66
987.355	3218.01
987.653	3193.83
987.951	3210.55
988.249	3157.9
988.547	3172.36
988.844	3135.3
989.142	3171.46
989.44	3141.17
989.737	3089.65
990.035	3104.57
990.332	3085.36
990.63	3054.62
990.927	3026.38
991.224	3046.94
991.521	3019.82
991.819	2974.63
992.116	2964.46
992.413	2968.07
992.71	2964
993.006	2967.62
993.303	2985.7
993.6	2895.76
993.897	2887.85
994.193	2879.03
994.49	2885.81
994.787	2838.58
995.083	2845.59
995.379	2841.97
995.676	2829.09
995.972	2786.16
996.268	2748.19
996.565	2733.28
996.861	2754.29
997.157	2766.95
997.453	2718.81
997.749	2702.54
998.044	2679.49
998.34	2675.65
998.636	2673.84
998.932	2661.19
999.227	2620.51
999.523	2611.24
999.818	2615.76
1000.114	2627.06
1000.409	2571.7
1000.704	2571.02
1001	2576.44
1001.295	2535.77
1001.59	2529.44
1001.885	2520.4
1002.18	2480.17
1002.475	2469.1
1002.77	2477.24
1003.065	2416.9
1003.359	2464.13
1003.654	2420.74
1003.949	2401.53
1004.243	2393.62
1004.538	2383.68
1004.832	2375.09
1005.127	2347.97
1005.421	2314.08
1005.715	2353.17
1006.009	2336.22
1006.304	2328.54
1006.598	2285.6
1006.892	2267.98
1007.186	2216.68
1007.48	2271.82
1007.773	2237.7
1008.067	2252.38
1008.361	2213.97
1008.655	2181.43
1008.948	2172.61
1009.242	2183.01
1009.535	2171.48
1009.829	2151.6
1010.122	2140.3
1010.415	2143.01
1010.708	2121.77
1011.001	2087.87
1011.295	2070.47
1011.588	2076.57
1011.881	2070.24
1012.173	2035.67
1012.466	2039.51
1012.759	2019.62
1013.052	2007.19
1013.344	2028.21
1013.637	2006.74
1013.93	1954.31
1014.222	1992.96
1014.514	1944.6
1014.807	1943.69
1015.099	1914.99
1015.391	1891.94
1015.683	1878.38
1015.976	1862.79
1016.268	1865.28
1016.56	1849.46
1016.851	1836.58
1017.143	1842.45
1017.435	1839.74
1017.727	1824.6
1018.018	1775.11
1018.31	1799.97
1018.602	1807.65
1018.893	1785.96
1019.185	1766.52
1019.476	1747.54
1019.767	1729.91
1020.058	1723.81
1020.35	1744.83
1020.641	1722.68
1020.932	1696.24
1021.223	1676.35
1021.514	1648.33
1021.804	1645.62
1022.095	1617.6
1022.386	1631.61
1022.677	1623.7
1022.967	1605.17
1023.258	1597.03
1023.548	1599.97
1023.839	1591.84
1024.129	1562.91
1024.419	1585.74
1024.709	1563.14
1025	1532.18
1025.29	1497.6
1025.58	1513.42
1025.87	1504.38
1026.16	1487.21
1026.449	1487.43
1026.739	1503.03
1027.029	1468.68
1027.319	1466.42
1027.608	1443.59
1027.898	1442.24
1028.187	1429.81
1028.477	1419.86
1028.766	1411.73
1029.055	1373.54
1029.344	1341.45
1029.634	1357.72
1029.923	1364.5
1030.212	1357.27
1030.501	1341
1030.79	1345.06
1031.078	1329.24
1031.367	1323.6
1031.656	1308.23
1031.945	1282.01
1032.233	1294.44
1032.522	1285.18
1032.81	1255.12
1033.099	1289.7
1033.387	1272.98
1033.675	1233.88
1033.963	1240.21
1034.251	1228.46
1034.54	1215.12
1034.828	1211.28
1035.116	1210.38
1035.403	1162.92
1035.691	1178.74
1035.979	1185.97
1036.267	1164.96
1036.554	1172.64
1036.842	1164.96
1037.129	1156.37
1037.417	1136.03
1037.704	1109.14
1037.992	1119.98
1038.279	1108.23
1038.566	1103.26
1038.853	1103.26
1039.14	1103.26
