Data from whiteboard_FLMS001491_00066.txt Node
Date: Wed Feb 08 11:27:29 GMT 2017
User: dcchb
Spectrometer: FLMS00149
Trigger mode: 0
Integration Time (sec): 2.000000E-2
Scans to average: 10
Electric dark correction enabled: true
Nonlinearity correction enabled: false
Boxcar width: 0
XAxis mode: Wavelengths
Number of Pixels in Spectrum: 2048
>>>>>Begin Spectral Data<<<<<
341.393	-18.83
341.776	-18.83
342.16	-18.83
342.543	-64.7
342.927	-84.14
343.31	-53.85
343.693	-61.54
344.077	-79.16
344.46	-64.7
344.843	-55.66
345.226	-47.75
345.61	-31.26
345.993	-22.22
346.376	-0.75
346.759	10.55
347.142	23.66
347.525	44.9
347.908	47.61
348.291	60.04
348.674	101.85
349.057	128.29
349.44	119.02
349.823	144.33
350.206	175.07
350.588	222.07
350.971	238.79
351.354	268.85
351.737	269.07
352.119	284.22
352.502	283.31
352.884	287.38
353.267	328.51
353.65	332.35
354.032	338
354.414	331.67
354.797	362.41
355.179	340.03
355.562	354.95
355.944	371.45
356.326	379.58
356.709	368.51
357.091	374.16
357.473	373.03
357.855	384.78
358.238	365.12
358.62	373.93
359.002	372.35
359.384	384.1
359.766	380.26
360.148	367.83
360.53	368.06
360.912	387.26
361.294	384.33
361.676	379.13
362.057	370.77
362.439	368.73
362.821	379.13
363.203	373.93
363.584	367.6
363.966	364.44
364.348	367.83
364.729	376.19
365.111	358.34
365.493	371.9
365.874	357.21
366.256	356.98
366.637	369.19
367.019	371.45
367.4	365.8
367.781	393.14
368.163	367.38
368.544	378.68
368.925	356.76
369.306	370.77
369.688	361.28
370.069	387.94
370.45	375.74
370.831	378
371.212	380.03
371.593	374.16
371.974	372.12
372.355	370.32
372.736	363.99
373.117	397.21
373.498	382.52
373.879	367.38
374.26	382.29
374.641	388.17
375.021	391.78
375.402	384.78
375.783	370.32
376.163	410.77
376.544	397.21
376.925	389.75
377.305	399.69
377.686	425.91
378.066	387.94
378.447	403.08
378.827	433.82
379.208	427.94
379.588	419.13
379.968	432.23
380.349	427.04
380.729	424.1
381.109	434.95
381.489	430.43
381.87	425.23
382.25	439.01
382.63	458.22
383.01	467.94
383.39	441.95
383.77	467.94
384.15	453.93
384.53	471.78
384.91	461.61
385.29	483.08
385.67	455.28
386.049	473.82
386.429	469.07
386.809	496.87
387.189	505.9
387.568	518.56
387.948	503.19
388.328	516.3
388.707	521.5
389.087	540.93
389.466	532.8
389.846	541.16
390.225	533.02
390.605	534.15
390.984	554.27
391.363	553.81
391.743	563.76
392.122	563.76
392.501	585.22
392.881	598.33
393.26	587.94
393.639	607.6
394.018	617.09
394.397	603.3
394.776	638.1
395.155	622.29
395.534	674.71
395.913	645.11
396.292	655.28
396.671	676.52
397.05	680.36
397.429	704.77
397.808	723.75
398.186	715.62
398.565	722.85
398.944	725.79
399.323	743.41
399.701	767.82
400.08	763.07
400.458	789.51
400.837	802.85
401.215	792
401.594	815.5
401.972	824.99
402.351	848.04
402.729	860.92
403.107	845.33
403.486	873.35
403.864	893.01
404.242	891.43
404.62	916.52
404.999	921.04
405.377	953.58
405.755	964.2
406.133	980.02
406.511	1007.81
406.889	1034.48
407.267	1034.25
407.645	1067.25
408.023	1116.96
408.401	1093.01
408.779	1137.53
409.156	1130.07
409.534	1174.14
409.912	1202.84
410.29	1213.46
410.667	1264.08
411.045	1257.52
411.422	1305.21
411.8	1285.77
412.178	1326.45
412.555	1344.98
412.933	1374.13
413.31	1371.19
413.687	1428.37
414.065	1464.07
414.442	1477.18
414.819	1506.33
415.197	1516.05
415.574	1531.19
415.951	1621.36
416.328	1593.79
416.705	1606.21
417.082	1617.29
417.46	1663.16
417.837	1678.76
418.214	1695.93
418.591	1710.39
418.967	1753.1
419.344	1752.2
419.721	1777.06
420.098	1819.54
420.475	1828.81
420.852	1854.8
421.228	1879.88
421.605	1891.86
421.982	1896.15
422.358	1936.6
422.735	1956.26
423.111	1966.66
423.488	2025.19
423.864	2036.71
424.241	2064.28
424.617	2064.51
424.994	2101.57
425.37	2119.65
425.746	2174.56
426.123	2184.05
426.499	2204.62
426.875	2227.44
427.251	2297.5
427.627	2343.6
428.003	2344.95
428.379	2389.02
428.756	2409.58
429.132	2498.39
429.507	2483.71
429.883	2508.56
430.259	2601.22
430.635	2578.62
431.011	2659.97
431.387	2677.83
431.763	2730.25
432.138	2772.74
432.514	2806.64
432.89	2825.62
433.265	2919.4
433.641	2937.93
434.016	2942
434.392	3012.05
434.767	3067.42
435.143	3082.33
435.518	3092.73
435.894	3144.48
436.269	3179.96
436.644	3248.88
437.02	3284.36
437.395	3318.94
437.77	3341.99
438.145	3406.39
438.52	3435.55
438.895	3495.88
439.271	3532.04
439.646	3591.93
440.021	3605.03
440.395	3693.17
440.77	3626.5
441.145	3662.21
441.52	3745.59
441.895	3746.95
442.27	3791.24
442.645	3783.33
443.019	3859.94
443.394	3852.71
443.769	3908.3
444.143	3898.36
444.518	3967.28
444.892	3984.23
445.267	4018.58
445.641	4035.3
446.016	4094.29
446.39	4120.05
446.764	4140.84
447.139	4088.18
447.513	4197.79
447.887	4217.67
448.262	4219.71
448.636	4286.14
449.01	4327.27
449.384	4411.34
449.758	4377.67
450.132	4503.09
450.506	4508.06
450.88	4541.96
451.254	4572.46
451.628	4627.6
452.002	4669.86
452.376	4732.01
452.75	4781.95
453.123	4813.81
453.497	4892.91
453.871	4980.82
454.244	5042.73
454.618	5068.5
454.992	5214.48
455.365	5195.05
455.739	5314.14
456.112	5368.83
456.486	5439.33
456.859	5459.9
457.232	5617.63
457.606	5564.08
457.979	5705.77
458.352	5806.33
458.725	5873.67
459.099	5828.25
459.472	6015.82
459.845	6041.58
460.218	6113.21
460.591	6217.62
460.964	6206.09
461.337	6375.58
461.71	6451.29
462.083	6560.66
462.456	6531.96
462.829	6627.78
463.201	6816.02
463.574	6769.02
463.947	6940.54
464.32	7105.96
464.692	7143.02
465.065	7289.46
465.438	7304.37
465.81	7409.9
466.183	7538.26
466.555	7700.29
466.928	7817.12
467.3	7775.09
467.672	7951.58
468.045	8201.52
468.417	8181.18
468.789	8189.77
469.161	8349.09
469.534	8511.57
469.906	8669.08
470.278	8690.55
470.65	8856.19
471.022	9022.29
471.394	9165.34
471.766	9222.51
472.138	9373.69
472.51	9549.28
472.882	9727.81
473.253	9780.01
473.625	9960.8
473.997	10240.79
474.369	10267
474.74	10348.13
475.112	10534.79
475.484	10779.31
475.855	10969.58
476.227	11015.46
476.598	11352.63
476.97	11427.43
477.341	11726.85
477.713	11890.69
478.084	11940.63
478.455	12355.99
478.827	12442.77
479.198	12847.28
479.569	12858.12
479.94	13295.62
480.311	13419.46
480.682	13711.89
481.053	13974.25
481.424	14202.04
481.795	14302.15
482.166	14656.72
482.537	14884.28
482.908	15247.44
483.279	15290.15
483.65	15536.02
484.021	15841.32
484.391	16029.56
484.762	16178.71
485.133	16406.28
485.503	16667.97
485.874	16943.89
486.244	17173.94
486.615	17536.19
486.985	17703.19
487.356	17939.8
487.726	18220.92
488.097	18570.29
488.467	18564.86
488.837	19015.02
489.207	19215.92
489.578	19465.41
489.948	19626.08
490.318	19891.38
490.688	20073.3
491.058	20459.73
491.428	20603.46
491.798	20825.14
492.168	21289.31
492.538	21198.92
492.908	21635.97
493.278	21830.32
493.648	21972.46
494.017	22323.86
494.387	22467.81
494.757	22659.67
495.126	22934.92
495.496	23010.17
495.866	23145.99
496.235	23479.76
496.605	23683.83
496.974	23844.73
497.344	23989.58
497.713	24194.77
498.082	24413.75
498.452	24683.8
498.821	24810.58
499.19	24844.25
499.559	25110
499.928	25381.18
500.298	25536.21
500.667	25875.18
501.036	25714.06
501.405	26175.51
501.774	26196.08
502.143	26417.31
502.512	26579.8
502.88	26740.7
503.249	26696.63
503.618	27013.46
503.987	27152.21
504.356	27382.94
504.724	27544.74
505.093	27644.85
505.462	27768.69
505.83	28177.95
506.199	28294.33
506.567	28629.69
506.936	28484.83
507.304	28946.74
507.672	29138.15
508.041	29197.58
508.409	29534.52
508.777	29765.93
509.145	30035.07
509.514	30119.59
509.882	30403.2
510.25	30419.92
510.618	30680.03
510.986	30724.09
511.354	30955.05
511.722	31259.45
512.09	31594.8
512.458	31631.41
512.826	31889.94
513.193	31934
513.561	32183.72
513.929	32346.65
514.297	32819.41
514.664	32842.91
515.032	33078.38
515.4	33375.1
515.767	33519.95
516.135	33763.56
516.502	33592.94
516.869	34233.61
517.237	34349.76
517.604	34316.09
517.972	34839.69
518.339	35133.24
518.706	35270.87
519.073	35469.28
519.44	35756.28
519.808	36290.95
520.175	36010.51
520.542	36612.07
520.909	36778.62
521.276	36976.81
521.643	37241.44
522.009	37650.24
522.376	37906.28
522.743	38031.7
523.11	38461.29
523.477	38849.76
523.843	39076.42
524.21	39399.57
524.577	39762.5
524.943	39842.95
525.31	40044.98
525.676	40502.82
526.043	40684.06
526.409	41039.08
526.776	41322.01
527.142	41470.03
527.508	41651.04
527.874	41931.93
528.241	42110.69
528.607	42178.93
528.973	42530.79
529.339	42679.49
529.705	43061.17
530.071	43272.69
530.437	43506.36
530.803	43706.58
531.169	43936.18
531.535	43988.6
531.901	44243.06
532.267	44263.17
532.632	44649.83
532.998	44799.2
533.364	45013.44
533.73	45043.26
534.095	45392.18
534.461	45525.29
534.826	45756.24
535.192	45916.46
535.557	46266.28
535.923	46154.87
536.288	46431.48
536.653	46565.94
537.019	46507.63
537.384	46736.55
537.749	47035.08
538.114	47108.97
538.479	47173.15
538.845	47404.33
539.21	47432.35
539.575	47669.64
539.94	47830.08
540.305	47955.96
540.67	47998.22
541.034	48294.48
541.399	48583.06
541.764	48534.47
542.129	48699.21
542.494	48891.07
542.858	49029.83
543.223	49161.12
543.587	49381
543.952	49374.9
544.316	49390.5
544.681	49525.86
545.045	49681.56
545.41	49902.8
545.774	50046.52
546.138	50054.88
546.503	50161.32
546.867	50268.44
547.231	50457.13
547.595	50559.28
547.959	50675.21
548.324	50846.73
548.688	50843.79
549.052	50922.21
549.416	50877.01
549.779	50953.84
550.143	51030.23
550.507	51266.15
550.871	51317.45
551.235	51303.44
551.599	51624.79
551.962	51667.5
552.326	51770.09
552.689	51970.31
553.053	51830.66
553.417	51956.76
553.78	52307.71
554.143	52183.87
554.507	52350.19
554.87	52376.86
555.234	52772.33
555.597	52609.85
555.96	52738.88
556.323	52870.86
556.686	52920.8
557.05	53047.35
557.413	53091.41
557.776	53152.66
558.139	53458.86
558.502	53477.85
558.865	53605.53
559.228	53821.57
559.59	53877.16
559.953	53998.74
560.316	54274.43
560.679	54263.14
561.041	54486.63
561.404	54610.92
561.767	54748.55
562.129	54691.15
562.492	55018.82
562.854	55012.27
563.217	55121.19
563.579	55269.66
563.941	55437.57
564.304	55571.8
564.666	55855.18
565.028	55804.34
565.39	55950.1
565.753	56145.35
566.115	56240.48
566.477	56300.37
566.839	56380.82
567.201	56555.5
567.563	56529.29
567.925	56771.32
568.287	56791.66
568.648	56898.77
569.01	56939.68
569.372	57182.38
569.734	57092.67
570.095	57211.31
570.457	57274.58
570.819	57326.11
571.18	57427.8
571.542	57483.16
571.903	57554.12
572.265	57644.97
572.626	57647
572.987	57715.7
573.349	57816.71
573.71	57851.06
574.071	57931.97
574.432	57943.26
574.794	58042.25
575.155	58025.52
575.516	57913.21
575.877	58124.05
576.238	58158.17
576.599	58209.25
576.96	58261.22
577.32	58264.84
577.681	58336.93
578.042	58261.45
578.403	58325.63
578.763	58360.65
579.124	58408.79
579.485	58458.73
579.845	58498.5
580.206	58469.58
580.566	58466.87
580.927	58463.25
581.287	58594.55
581.648	58487.21
582.008	58644.49
582.368	58631.16
582.728	58644.26
583.089	58612.63
583.449	58659.86
583.809	58712.51
584.169	58827.08
584.529	58759.97
584.889	58972.16
585.249	58831.38
585.609	58880.42
585.969	59022.33
586.329	58934.2
586.688	59033.63
587.048	59082.67
587.408	59032.73
587.768	59084.93
588.127	59082.44
588.487	59107.08
588.846	59270.24
589.206	59141.65
589.565	59205.15
589.925	59282.89
590.284	59241.31
590.643	59313.4
591.003	59332.38
591.362	59399.72
591.721	59343.91
592.08	59407.41
592.44	59422.32
592.799	59397.92
593.158	59375.32
593.517	59424.13
593.876	59459.61
594.235	59344.58
594.593	59382.32
594.952	59410.12
595.311	59343.91
595.67	59376.22
596.029	59497.35
596.387	59445.37
596.746	59415.77
597.104	59243.12
597.463	59234.53
597.822	59389.1
598.18	59236.56
598.538	59176.9
598.897	59366.28
599.255	59105.49
599.613	59374.87
599.972	59195.21
600.33	59257.13
600.688	59091.03
601.046	59178.94
601.404	59309.56
601.762	59209.45
602.12	59231.82
602.478	59248.77
602.836	59230.24
603.194	59154.31
603.552	59183.68
603.91	59111.6
604.268	59289.44
604.625	59279.05
604.983	59306.62
605.341	59237.47
605.698	59272.5
606.056	59394.75
606.413	59334.19
606.771	59446.28
607.128	59514.3
607.485	59430.68
607.843	59494.18
608.2	59584.13
608.557	59688.76
608.914	59609.21
609.272	59743.44
609.629	59790
609.986	59831.58
610.343	59880.16
610.7	60000.16
611.057	60006.26
611.414	60038.12
611.771	60046.03
612.127	60089.2
612.484	60147.05
612.841	60271.56
613.198	60211.68
613.554	60326.25
613.911	60392.47
614.267	60404.22
614.624	60407.61
614.98	60502.07
615.337	60621.84
615.693	60550.65
616.05	60530.09
616.406	60659.58
616.762	60572.57
617.118	60598.34
617.475	60568.28
617.831	60658.22
618.187	60619.13
618.543	60661.39
618.899	60831.55
619.255	60719.01
619.611	60663.87
619.967	60689.63
620.323	60729.18
620.678	60634.72
621.034	60599.92
621.39	60566.7
621.746	60584.33
622.101	60680.37
622.457	60534.83
622.812	60610.99
623.168	60591.1
623.523	60511.11
623.879	60571.9
624.234	60373.71
624.589	60432.92
624.945	60373.94
625.3	60427.27
625.655	60324.9
626.01	60308.4
626.365	60307.04
626.72	60295.97
627.075	60259.59
627.43	60276.54
627.785	60168.29
628.14	60103.43
628.495	60198.8
628.85	60155.41
629.205	60074.96
629.559	60212.81
629.914	60081.06
630.269	60047.84
630.623	60031.35
630.978	59987.73
631.332	60097.11
631.687	60133.26
632.041	59957.22
632.396	60036.77
632.75	59909.31
633.104	59968.75
633.459	59814.4
633.813	59940.95
634.167	59854.63
634.521	59827.96
634.875	59907.96
635.229	59879.71
635.583	59816.44
635.937	59858.92
636.291	59879.03
636.645	59901.86
636.999	59880.84
637.352	59874.06
637.706	59756.32
638.06	59939.14
638.413	59891.01
638.767	59793.39
639.121	59857.79
639.474	59762.2
639.828	59729.21
640.181	59868.41
640.534	59823.67
640.888	59722.43
641.241	59654.86
641.594	59754.74
641.947	59848.07
642.301	59785.93
642.654	59750.22
643.007	59741.41
643.36	59666.38
643.713	59668.19
644.066	59724.69
644.419	59643.11
644.771	59545.71
645.124	59293.29
645.477	59202.89
645.83	59067.3
646.182	58891.71
646.535	58762.23
646.888	58806.07
647.24	58616.24
647.593	58739.18
647.945	58637.71
648.298	58488.79
648.65	58465.28
649.002	58435.68
649.355	58522.01
649.707	58495.57
650.059	58502.8
650.411	58740.08
650.763	58735.56
651.115	58893.52
651.467	58833.86
651.819	58761.77
652.171	58710.48
652.523	58623.02
652.875	58602.46
653.227	58477.94
653.578	58645.39
653.93	58549.58
654.282	58412.4
654.633	58331.95
654.985	58364.27
655.337	58385.29
655.688	58277.95
656.039	58380.32
656.391	58185.07
656.742	58195.46
657.094	58169.93
657.445	58191.39
657.796	58200.66
658.147	58060.1
658.498	58054.9
658.849	58176.25
659.2	58115.24
659.551	58001.57
659.902	57993.43
660.253	57934
660.604	58058.74
660.955	57953.43
661.306	57975.58
661.656	57978.52
662.007	58058.06
662.358	58000.44
662.708	58049.93
663.059	57995.24
663.409	57844.51
663.76	58040.21
664.11	58034.56
664.461	58042.92
664.811	58096.71
665.161	58003.38
665.511	58011.74
665.862	58067.56
666.212	58051.28
666.562	58095.58
666.912	58028.69
667.262	58079.31
667.612	58005.41
667.962	58043.6
668.312	58036.14
668.662	58141.45
669.011	58046.31
669.361	58072.3
669.711	57999.99
670.06	58007.44
670.41	58010.16
670.76	57912.98
671.109	58000.21
671.459	57924.06
671.808	57929.25
672.157	57993.88
672.507	57863.27
672.856	57813.55
673.205	57760.22
673.554	57852.19
673.904	57828.01
674.253	57961.57
674.602	57757.05
674.951	57372.43
675.3	57247.01
675.649	57724.51
675.998	57666.44
676.346	57634.12
676.695	57716.38
677.044	57494.01
677.393	57532.88
677.741	57668.47
678.09	57458.08
678.438	57383.05
678.787	57443.39
679.135	57431.41
679.484	57171.31
679.832	57235.49
680.181	57044.08
680.529	57116.17
680.877	57023.97
681.225	56975.83
681.573	57065.1
681.922	56874.59
682.27	56758.44
682.618	56809.74
682.966	56633.47
683.314	56649.74
683.661	56537.43
684.009	56437.09
684.357	56322.97
684.705	56325.91
685.053	56353.25
685.4	56277.77
685.748	56183.08
686.095	56155.06
686.443	56044.11
686.79	55977.21
687.138	56072.35
687.485	56012.92
687.832	55850.21
688.18	56040.49
688.527	55808.63
688.874	55817.22
689.221	55766.15
689.568	55727.5
689.915	55608.41
690.262	55638.69
690.609	55473.95
690.956	55408.87
691.303	55383.56
691.65	55253.39
691.997	55231.92
692.344	55144.24
692.69	55139.5
693.037	55101.76
693.383	54856.79
693.73	54918.03
694.077	54767.75
694.423	54760.3
694.769	54780.41
695.116	54638.49
695.462	54707.19
695.808	54586.74
696.155	54651.15
696.501	54460.42
696.847	54461.32
697.193	54279.86
697.539	54406.18
697.885	54169.8
698.231	54016.14
698.577	54088.68
698.923	54066.98
699.269	53922.13
699.614	53731.62
699.96	53798.97
700.306	53672.19
700.651	53609.82
700.997	53406.43
701.342	53434.46
701.688	53394.23
702.033	53218.19
702.379	53201.02
702.724	53205.76
703.069	53315.36
703.415	52838.99
703.76	52897.52
704.105	52789.95
704.45	52745.89
704.795	52525.33
705.14	52485.78
705.485	52528.72
705.83	52307.03
706.175	52316.97
706.52	52316.52
706.865	52048.73
707.209	52090.76
707.554	51888.73
707.899	52036.53
708.243	51771
708.588	51636.31
708.932	51419.14
709.277	51391.57
709.621	51421.18
709.966	51253.5
710.31	51279.49
710.654	50834.75
710.998	50818.48
711.342	50951.36
711.687	50748.2
712.031	50587.07
712.375	50493.29
712.719	50408.1
713.063	50325.61
713.407	50437.02
713.75	50205.39
714.094	50170.59
714.438	50025.05
714.782	49992.97
715.125	49812.63
715.469	49923.14
715.812	49693.31
716.156	49513.88
716.499	49492.87
716.843	49360.21
717.186	49258.3
717.53	49354.79
717.873	49251.52
718.216	49253.1
718.559	49006.78
718.902	48870.06
719.246	48957.06
719.589	48757.52
719.932	48655.15
720.275	48476.17
720.617	48567.92
720.96	48408.83
721.303	48526.34
721.646	48554.58
721.989	48267.81
722.331	48427.58
722.674	48268.94
723.016	48164.31
723.359	48143.3
723.701	48144.65
724.044	47882.96
724.386	47800.25
724.729	47962.74
725.071	47823.98
725.413	47772.46
725.755	47689.75
726.097	47567.94
726.439	47468.06
726.782	47468.96
727.124	47643.2
727.465	47376.08
727.807	47418.8
728.149	47371.11
728.491	47236.2
728.833	47230.33
729.175	47214.28
729.516	47162.53
729.858	47163.21
730.199	47073.49
730.541	47031.01
730.882	47042.31
731.224	47108.75
731.565	46894.29
731.906	46919.37
732.248	46856.78
732.589	46759.6
732.93	46649.78
733.271	46662.21
733.612	46677.8
733.953	46771.81
734.294	46623.11
734.635	46395.32
734.976	46540.85
735.317	46354.87
735.658	46222.89
735.999	46172.05
736.339	46107.64
736.68	46127.53
737.021	46024.48
737.361	45891.38
737.702	46080.75
738.042	45803.02
738.383	45630.59
738.723	45768.22
739.063	45564.16
739.404	45559.86
739.744	45532.52
740.084	45322.58
740.424	45116.26
740.764	45083.26
741.104	45167.1
741.444	44810.95
741.784	44757.4
742.124	44773.44
742.464	44614.8
742.804	44578.42
743.143	44423.85
743.483	44481.47
743.823	44171.42
744.162	44139.79
744.502	44138.66
744.841	43713.81
745.181	43900.47
745.52	43729.85
745.86	43742.51
746.199	43504.1
746.538	43550.65
746.877	43491.89
747.216	43393.82
747.556	43169.19
747.895	43001.96
748.234	42782.53
748.573	42832.25
748.911	42712.7
749.25	42692.14
749.589	42541.18
749.928	42410.57
750.267	42457.57
750.605	42357.91
750.944	42106.39
751.283	42045.6
751.621	42148.2
751.96	41839.06
752.298	41825.5
752.636	41919.96
752.975	41618.04
753.313	41472.51
753.651	41522.91
753.989	41177.38
754.327	41226.64
754.666	41041.56
755.004	41136.93
755.342	41042.92
755.679	40986.2
756.017	40799.08
756.355	40940.77
756.693	40793.89
757.031	40774.45
757.368	40542.37
757.706	40327.91
758.044	40305.08
758.381	40305.31
758.719	40221.92
759.056	40311.64
759.394	40118.42
759.731	39934.25
760.068	39932.44
760.405	39831.2
760.743	39703.29
761.08	39874.81
761.417	39534.26
761.754	39594.37
762.091	39519.34
762.428	39433.24
762.765	39257.43
763.102	39467.59
763.438	39312.12
763.775	39142.4
764.112	39168.39
764.449	39320.7
764.785	38899.47
765.122	38859.47
765.458	38752.58
765.795	38676.65
766.131	38604.34
766.467	38417.22
766.804	38307.4
767.14	38198.92
767.476	38358.24
767.812	38149.66
768.148	38130.45
768.485	37854.98
768.821	37793.29
769.157	37658.6
769.492	37627.64
769.828	37501.54
770.164	37238.95
770.5	37185.62
770.836	37116.24
771.171	36862.91
771.507	36742.92
771.842	36539.08
772.178	36562.36
772.513	36468.35
772.849	36271.07
773.184	36163.05
773.519	36110.84
773.855	36026.1
774.19	35804.64
774.525	35871.98
774.86	35644.87
775.195	35555.15
775.53	35330.75
775.865	35241.71
776.2	34790.65
776.535	34594.73
776.87	34581.62
777.205	34372.13
777.539	34347.73
777.874	34401.74
778.209	34020.96
778.543	33804.69
778.878	33614.19
779.212	33448.99
779.547	33286.29
779.881	33528.77
780.215	33252.39
780.55	33249.9
780.884	32865.96
781.218	32820.31
781.552	32689.24
781.886	32459.87
782.22	32185.98
782.554	32167.22
782.888	31909.82
783.222	31700.79
783.556	31649.49
783.889	31436.62
784.223	31235.49
784.557	31102.84
784.89	31166.34
785.224	30888.16
785.557	30769.29
785.891	30705.34
786.224	30524.1
786.558	30499.69
786.891	30118.01
787.224	30040.72
787.557	29900.61
787.891	29849.77
788.224	29755.31
788.557	29635.31
788.89	29570
789.223	29440.74
789.556	29016.79
789.888	29143.12
790.221	29020.64
790.554	28681.44
790.887	28686.86
791.219	28617.03
791.552	28558.95
791.884	28280.99
792.217	28299.3
792.549	28175.23
792.882	28040.77
793.214	27984.28
793.546	27932.08
793.879	27639.65
794.211	27492.31
794.543	27652.76
794.875	27506.78
795.207	27617.06
795.539	27396.05
795.871	27374.58
796.203	27220.46
796.535	26999.9
796.867	27003.29
797.198	26935.04
797.53	26922.84
797.862	26739.57
798.193	26806.68
798.525	26693.01
798.856	26545.22
799.188	26438.1
799.519	26233.82
799.85	26228.84
800.182	26139.58
800.513	26184.55
800.844	25994.73
801.175	26113.37
801.506	26130.09
801.837	25954.95
802.168	26003.77
802.499	25935.97
802.83	25763.77
803.161	25749.99
803.491	25692.14
803.822	25759.48
804.153	25614.85
804.483	25547.51
804.814	25500.5
805.145	25457.11
805.475	25422.54
805.805	25373.95
806.136	25471.8
806.466	25479.71
806.796	25512.93
807.126	25241.3
807.457	25165.6
807.787	25204.69
808.117	25041.53
808.447	24949.33
808.777	25082.43
809.107	25007.18
809.436	25004.24
809.766	24959.95
810.096	24904.13
810.426	24838.82
810.755	24844.25
811.085	24756.57
811.414	24740.52
811.744	24496.91
812.073	24506.4
812.403	24650.13
812.732	24390.02
813.061	24448.55
813.39	24186.64
813.719	24265.73
814.049	24419.85
814.378	24242
814.707	24103.7
815.036	24150.71
815.365	24016.93
815.693	23779.42
816.022	23828.68
816.351	23716.82
816.68	23630.72
817.008	23675.24
817.337	23468.24
817.665	23408.58
817.994	23308.24
818.322	23425.98
818.651	23227.57
818.979	23219.43
819.307	23277.74
819.636	23253.56
819.964	22973.11
820.292	23205.65
820.62	23075.25
820.948	22855.83
821.276	22991.19
821.604	22969.04
821.932	22961.36
822.259	22822.61
822.587	22918.65
822.915	22662.61
823.243	22734.92
823.57	22689.95
823.898	22679.11
824.225	22517.98
824.553	22593.23
824.88	22566.34
825.207	22626.23
825.535	22512.11
825.862	22492.67
826.189	22432.56
826.516	22389.85
826.843	22426.23
827.17	22419.68
827.497	22427.14
827.824	22285.22
828.151	22345.78
828.478	22129.29
828.805	22112.34
829.131	22116.64
829.458	22034.15
829.785	21926.81
830.111	21977.66
830.438	21960.93
830.764	21932.46
831.09	21935.85
831.417	21775.63
831.743	21739.92
832.069	21813.37
832.395	21700.38
832.722	21566.14
833.048	21587.61
833.374	21699.47
833.7	21408.41
834.026	21423.09
834.351	21559.36
834.677	21360.5
835.003	21470.55
835.329	21417.45
835.654	21315.53
835.98	21214.06
836.306	21239.6
836.631	21084.8
836.956	21099.71
837.282	21080.28
837.607	20923.67
837.932	20998.47
838.258	20849.32
838.583	20887.97
838.908	20697.24
839.233	20819.72
839.558	20734.53
839.883	20648.65
840.208	20568.2
840.533	20585.15
840.858	20605.94
841.182	20529.56
841.507	20521.88
841.832	20402.1
842.156	20447.75
842.481	20365.95
842.805	20331.37
843.13	20328.66
843.454	20386.96
843.778	20196.69
844.103	20140.42
844.427	20183.58
844.751	20092.28
845.075	20086.18
845.399	20042.34
845.723	20054.54
846.047	20030.82
846.371	19916.92
846.695	19948.11
847.019	19742.46
847.343	19684.61
847.666	19636.7
847.99	19582.47
848.313	19501.11
848.637	19476.48
848.96	19460.66
849.284	19399.19
849.607	19372.53
849.931	19382.7
850.254	19261.57
850.577	19163.49
850.9	19125.3
851.223	19023.38
851.546	18972.54
851.869	18946.32
852.192	19008.24
852.515	18843.5
852.838	18805.08
853.161	18750.85
853.483	18715.14
853.806	18501.36
854.129	18563.06
854.451	18452.33
854.774	18498.88
855.096	18538.65
855.419	18420.69
855.741	18439.44
856.063	18436.28
856.385	18351.31
856.708	18297.75
857.03	18283.52
857.352	18274.03
857.674	18160.58
857.996	18133.92
858.318	18062.73
858.64	18053.47
858.961	18021.15
859.283	17905.22
859.605	17874.94
859.926	17946.35
860.248	17912.9
860.57	17892.79
860.891	17825
861.212	17782.29
861.534	17677.43
861.855	17761.5
862.176	17724.21
862.498	17708.84
862.819	17717.2
863.14	17682.85
863.461	17593.37
863.782	17511.56
864.103	17518.11
864.424	17480.6
864.745	17505.23
865.065	17429.08
865.386	17351.56
865.707	17358.57
866.027	17399.92
866.348	17320.83
866.668	17316.54
866.989	17248.06
867.309	17118.12
867.63	17022.08
867.95	17045.13
868.27	16994.74
868.59	16956.55
868.91	16922.2
869.23	16819.15
869.55	16808.75
869.87	16859.6
870.19	16832.26
870.51	16872.48
870.83	16799.04
871.15	16660.06
871.469	16602.2
871.789	16559.49
872.109	16566.73
872.428	16478.37
872.748	16485.6
873.067	16364.02
873.386	16371.48
873.706	16382.32
874.025	16223.68
874.344	16174.19
874.663	16236.56
874.982	16210.58
875.301	16109.79
875.62	16082.22
875.939	15916.35
876.258	16034.99
876.577	15905.05
876.896	15868.21
877.214	15786.63
877.533	15813.3
877.852	15823.69
878.17	15730.14
878.489	15587.77
878.807	15663.25
879.125	15491.27
879.444	15499.63
879.762	15416.7
880.08	15409.02
880.398	15283.37
880.716	15352.97
881.034	15201.11
881.352	15283.82
881.67	15200.66
881.988	15203.6
882.306	15100.32
882.624	15032.98
882.941	14943.27
883.259	14915.47
883.577	14861.91
883.894	14773.1
884.212	14749.6
884.529	14711.86
884.846	14615.36
885.164	14646.78
885.481	14551.41
885.798	14595.25
886.115	14400.68
886.432	14450.17
886.75	14321.13
887.067	14353.9
887.383	14292.66
887.7	14242.27
888.017	14173.57
888.334	14170.86
888.651	14141.48
888.967	14084.76
889.284	13876.17
889.6	13885.21
889.917	13790.3
890.233	13967.92
890.55	13823.07
890.866	13769.74
891.182	13745.56
891.498	13700.36
891.815	13610.42
892.131	13583.98
892.447	13571.55
892.763	13620.59
893.079	13559.57
893.395	13539.46
893.71	13476.86
894.026	13473.25
894.342	13373.36
894.657	13331.78
894.973	13322.97
895.289	13362.97
895.604	13368.17
895.92	13185.8
896.235	13145.35
896.55	13188.28
896.865	13103.09
897.181	13083.88
897.496	13030.77
897.811	12964.33
898.126	12931.11
898.441	12949.42
898.756	12925.92
899.071	12823.32
899.386	12832.59
899.7	12790.78
900.015	12771.57
900.33	12735.87
900.644	12673.04
900.959	12708.75
901.273	12668.75
901.588	12590.78
901.902	12534.97
902.216	12496.78
902.531	12515.53
902.845	12451.35
903.159	12427.4
903.473	12385.59
903.787	12339.94
904.101	12237.8
904.415	12265.6
904.729	12220.17
905.042	12222.88
905.356	12233.28
905.67	12138.82
905.984	12084.36
906.297	12108.31
906.611	11994.19
906.924	12037.35
907.237	12015.88
907.551	11976.79
907.864	11908.77
908.177	11863.35
908.491	11904.7
908.804	11765.27
909.117	11782.44
909.43	11695.67
909.743	11693.18
910.056	11618.38
910.368	11554.2
910.681	11548.78
910.994	11510.81
911.307	11570.02
911.619	11424.26
911.932	11403.92
912.244	11283.02
912.557	11351.04
912.869	11217.94
913.181	11220.2
913.494	11219.07
913.806	11157.15
914.118	11137.04
914.43	11092.29
914.742	11045.29
915.054	10953.54
915.366	10941.34
915.678	10858.17
915.99	10873.77
916.302	10799.42
916.613	10751.51
916.925	10794.67
917.236	10754.9
917.548	10647.56
917.859	10578.18
918.171	10626.09
918.482	10479.43
918.794	10464.96
919.105	10448.92
919.416	10344.97
919.727	10342.93
920.038	10327.34
920.349	10276.27
920.66	10198.31
920.971	10185.42
921.282	10154.92
921.593	10126.44
921.903	10059.78
922.214	10038.54
922.525	9949.95
922.835	9874.7
923.146	9835.15
923.456	9810.74
923.767	9717.19
924.077	9732.78
924.387	9726.68
924.697	9584.76
925.008	9610.98
925.318	9538.21
925.628	9513.13
925.938	9475.84
926.248	9398.33
926.558	9358.78
926.867	9318.1
927.177	9227.26
927.487	9184.77
927.796	9087.15
928.106	9147.03
928.416	9056.87
928.725	9074.49
929.034	8965.8
929.344	8961.73
929.653	8901.16
929.962	8886.02
930.271	8788.85
930.581	8743.43
930.89	8689.19
931.199	8667.27
931.508	8684.45
931.817	8632.24
932.125	8552.92
932.434	8570.33
932.743	8422.31
933.051	8394.96
933.36	8403.55
933.669	8242.42
933.977	8285.14
934.286	8274.06
934.594	8241.07
934.902	8173.95
935.21	8148.42
935.519	8150.68
935.827	8032.71
936.135	7951.58
936.443	7899.61
936.751	7805.6
937.059	7851.7
937.367	7807.63
937.674	7826.84
937.982	7760.63
938.29	7643.8
938.597	7707.3
938.905	7593.4
939.213	7587.3
939.52	7556.57
939.827	7615.77
940.135	7467.3
940.442	7439.73
940.749	7403.12
941.056	7395.22
941.363	7336.23
941.67	7291.94
941.977	7215.56
942.284	7168.1
942.591	7207.65
942.898	7107.77
943.205	7154.32
943.511	7072.06
943.818	7034.77
944.125	7029.12
944.431	6943.02
944.738	6937.37
945.044	6875
945.35	6886.3
945.657	6860.31
945.963	6788
946.269	6804.04
946.575	6730.83
946.881	6743.48
947.187	6653.99
947.493	6710.04
947.799	6650.38
948.105	6645.18
948.41	6571.51
948.716	6584.84
949.022	6488.8
949.327	6517.95
949.633	6366.09
949.938	6448.8
950.244	6378.07
950.549	6357.95
950.854	6327.45
951.16	6271.63
951.465	6256.71
951.77	6185.98
952.075	6221.01
952.38	6207.9
952.685	6146.43
952.99	6113.21
953.294	6084.97
953.599	6049.26
953.904	5997.96
954.209	5941.92
954.513	5974.91
954.818	5904.63
955.122	5967.91
955.426	5924.75
955.731	5861.02
956.035	5852.66
956.339	5806.33
956.643	5779.44
956.948	5798.87
957.252	5780.12
957.556	5759.55
957.86	5684.07
958.163	5691.53
958.467	5678.42
958.771	5647.69
959.075	5655.83
959.378	5590.06
959.682	5568.37
959.985	5536.06
960.289	5483.18
960.592	5509.39
960.896	5455.83
961.199	5454.93
961.502	5489.73
961.805	5389.84
962.108	5383.29
962.411	5397.53
962.714	5345.78
963.017	5322.73
963.32	5322.5
963.623	5291.99
963.926	5281.6
964.228	5215.16
964.531	5199.79
964.833	5216.06
965.136	5152.11
965.438	5197.31
965.741	5099.91
966.043	5129.96
966.345	5045.45
966.648	5078.67
966.95	5105.56
967.252	5024.2
967.554	5034.15
967.856	5028.27
968.158	4962.74
968.46	4954.38
968.761	4896.3
969.063	4912.79
969.365	4889.52
969.666	4900.59
969.968	4868.5
970.269	4810.2
970.571	4848.62
970.872	4817.66
971.174	4786.24
971.475	4827.83
971.776	4792.35
972.077	4753.93
972.378	4783.08
972.679	4761.39
972.98	4716.64
973.281	4662.41
973.582	4677.77
973.883	4678.22
974.183	4638.68
974.484	4627.6
974.785	4588.74
975.085	4565.91
975.386	4555.29
975.686	4536.08
975.986	4467.83
976.287	4548.28
976.587	4477.55
976.887	4477.33
977.187	4457.67
977.487	4434.84
977.787	4398.01
978.087	4377.67
978.387	4331.11
978.687	4317.33
978.987	4332.02
979.286	4296.54
979.586	4245.02
979.885	4257.44
980.185	4235.3
980.484	4178.35
980.784	4185.81
981.083	4168.41
981.382	4120.5
981.682	4136.32
981.981	4078.01
982.28	4108.52
982.579	4035.53
982.878	4082.76
983.177	4020.39
983.475	4008.41
983.774	3932.71
984.073	3989.2
984.372	3944.01
984.67	3938.36
984.969	3867.62
985.267	3928.19
985.566	3867.4
985.864	3845.93
986.162	3860.17
986.461	3839.38
986.759	3799.83
987.057	3786.72
987.355	3758.7
987.653	3733.16
987.951	3742.66
988.249	3732.03
988.547	3666.27
988.844	3656.1
989.142	3650
989.44	3623.11
989.737	3628.76
990.035	3609.33
990.332	3559.16
990.63	3548.76
990.927	3561.19
991.224	3552.15
991.521	3514.41
991.819	3523.45
992.116	3458.82
992.413	3468.76
992.71	3441.87
993.006	3428.54
993.303	3428.09
993.6	3371.82
993.897	3372.72
994.193	3394.87
994.49	3321.2
994.787	3328.2
995.083	3289.79
995.379	3291.37
995.676	3284.14
995.972	3269.67
996.268	3239.84
996.565	3236.45
996.861	3178.83
997.157	3175.89
997.453	3189.22
997.749	3162.56
998.044	3094.54
998.34	3144.03
998.636	3116.46
998.932	3091.83
999.227	3033.75
999.523	3019.06
999.818	3016.8
1000.114	3009.57
1000.409	2994.88
1000.704	2953.75
1001	2931.83
1001.295	2914.88
1001.59	2969.12
1001.885	2914.2
1002.18	2882.79
1002.475	2881.89
1002.77	2880.31
1003.065	2833.53
1003.359	2823.81
1003.654	2787.88
1003.949	2766.64
1004.243	2796.24
1004.538	2748.78
1004.832	2692.29
1005.127	2728.45
1005.421	2669.24
1005.715	2669.24
1006.009	2665.85
1006.304	2639.41
1006.598	2628.33
1006.892	2600.76
1007.186	2579.97
1007.48	2556.25
1007.773	2563.93
1008.067	2563.48
1008.361	2582.91
1008.655	2537.26
1008.948	2539.52
1009.242	2506.08
1009.535	2439.64
1009.829	2451.16
1010.122	2475.12
1010.415	2423.82
1010.708	2406.19
1011.001	2424.5
1011.295	2401
1011.588	2346.53
1011.881	2333.43
1012.173	2353.31
1012.466	2320.55
1012.759	2336.59
1013.052	2288.91
1013.344	2267.89
1013.637	2285.74
1013.93	2250.49
1014.222	2228.8
1014.514	2250.49
1014.807	2208.23
1015.099	2165.75
1015.391	2180.21
1015.683	2175.69
1015.976	2158.52
1016.268	2125.3
1016.56	2125.75
1016.851	2115.58
1017.143	2091.85
1017.435	2107.44
1017.727	2066.99
1018.018	2084.39
1018.31	2062.93
1018.602	2033.55
1018.893	2045.3
1019.185	1984.06
1019.476	1986.09
1019.767	2001.46
1020.058	1922.82
1020.35	1938.41
1020.641	1930.95
1020.932	1945.19
1021.223	1911.07
1021.514	1888.02
1021.804	1890.28
1022.095	1867.45
1022.386	1843.95
1022.677	1842.37
1022.967	1824.74
1023.258	1836.72
1023.548	1815.93
1023.839	1800.33
1024.129	1823.84
1024.419	1767.34
1024.709	1758.75
1025	1763.05
1025.29	1729.83
1025.58	1748.81
1025.87	1738.19
1026.16	1715.59
1026.449	1708.13
1026.739	1664.29
1027.029	1653.22
1027.319	1626.33
1027.608	1653.45
1027.898	1646.89
1028.187	1628.59
1028.477	1611.41
1028.766	1611.41
1029.055	1615.71
1029.344	1584.29
1029.634	1560.57
1029.923	1554.46
1030.212	1537.06
1030.501	1525.99
1030.79	1516.05
1031.078	1514.01
1031.367	1501.13
1031.656	1491.87
1031.945	1472.89
1032.233	1476.95
1032.522	1458.65
1032.81	1436.28
1033.099	1422.49
1033.387	1450.74
1033.675	1416.39
1033.963	1405.99
1034.251	1398.76
1034.54	1368.03
1034.828	1385.2
1035.116	1387.24
1035.403	1357.41
1035.691	1339.1
1035.979	1337.07
1036.267	1318.99
1036.554	1337.52
1036.842	1311.76
1037.129	1282.61
1037.417	1298.88
1037.704	1285.32
1037.992	1267.92
1038.279	1252.78
1038.566	1253
1038.853	1253
1039.14	1253
