Data from White_reflection_standard_FLMS001491_086.txt Node
Date: Tue Feb 07 10:32:12 GMT 2017
User: dcchb
Spectrometer: FLMS00149
Trigger mode: 0
Integration Time (sec): 2.000000E-2
Scans to average: 10
Electric dark correction enabled: true
Nonlinearity correction enabled: false
Boxcar width: 0
XAxis mode: Wavelengths
Number of Pixels in Spectrum: 2048
>>>>>Begin Spectral Data<<<<<
341.393	-16.04
341.776	-16.04
342.16	-16.04
342.543	-32.77
342.927	-67.34
343.31	-78.87
343.693	-67.12
344.077	-64.18
344.46	-73.22
344.843	-44.07
345.226	-45.42
345.61	-37.97
345.993	-14.46
346.376	5.2
346.759	8.59
347.142	35.71
347.525	32.32
347.908	75.25
348.291	70.51
348.674	83.61
349.057	114.12
349.44	125.87
349.823	129.94
350.206	161.13
350.588	234.57
350.971	259.43
351.354	261.91
351.737	291.07
352.119	296.04
352.502	296.49
352.884	313.89
353.267	326.77
353.65	331.52
354.032	351.18
354.414	355.47
354.797	335.36
355.179	373.78
355.562	360.22
355.944	364.74
356.326	391.63
356.709	379.2
357.091	378.52
357.473	385.53
357.855	386.66
358.238	398.41
358.62	398.18
359.002	394.34
359.384	383.04
359.766	399.99
360.148	408.12
360.53	399.99
360.912	413.77
361.294	390.72
361.676	402.7
362.057	413.32
362.439	402.93
362.821	409.71
363.203	425.07
363.584	418.97
363.966	386.66
364.348	409.03
364.729	411.97
365.111	395.92
365.493	419.65
365.874	408.8
366.256	407.45
366.637	397.73
367.019	394.57
367.4	410.84
367.781	410.84
368.163	423.04
368.544	412.87
368.925	395.24
369.306	421.46
369.688	401.57
370.069	423.49
370.45	408.58
370.831	441.57
371.212	432.31
371.593	443.38
371.974	439.54
372.355	441.57
372.736	413.77
373.117	439.54
373.498	460.78
373.879	428.69
374.26	450.61
374.641	439.54
375.021	418.29
375.402	444.06
375.783	469.37
376.163	485.41
376.544	503.49
376.925	477.95
377.305	491.51
377.686	473.43
378.066	492.64
378.447	483.83
378.827	501
379.208	496.94
379.588	510.95
379.968	511.62
380.349	510.5
380.729	522.25
381.109	533.55
381.489	546.43
381.87	528.12
382.25	555.01
382.63	548.46
383.01	559.53
383.39	545.07
383.77	562.92
384.15	583.49
384.53	587.33
384.91	593.2
385.29	597.95
385.67	589.14
386.049	605.86
386.429	624.84
386.809	624.16
387.189	625.52
387.568	635.24
387.948	606.99
388.328	651.96
388.707	647.21
389.087	653.54
389.466	651.51
389.846	663.26
390.225	682.02
390.605	673.2
390.984	696.25
391.363	674.11
391.743	694.67
392.122	710.49
392.501	738.96
392.881	743.26
393.26	755.69
393.639	756.14
394.018	738.51
394.397	750.26
394.776	781.67
395.155	788.91
395.534	790.71
395.913	770.6
396.292	797.27
396.671	822.8
397.05	837.72
397.429	832.07
397.808	829.81
398.186	852.18
398.565	846.53
398.944	879.52
399.323	884.04
399.701	896.02
400.08	895.57
400.458	923.14
400.837	919.07
401.215	931.27
401.594	927.89
401.972	920.2
402.351	925.85
402.729	950.94
403.107	977.83
403.486	959.75
403.864	980.54
404.242	993.65
404.62	1008.11
404.999	1015.11
405.377	1041.1
405.755	1071.16
406.133	1091.27
406.511	1095.11
406.889	1093.76
407.267	1094.66
407.645	1128.78
408.023	1140.99
408.401	1137.82
408.779	1143.25
409.156	1193.64
409.534	1217.6
409.912	1216.47
410.29	1249.91
410.667	1265.5
411.045	1292.17
411.422	1306.41
411.8	1304.37
412.178	1322.23
412.555	1349.57
412.933	1345.5
413.31	1369.23
413.687	1400.64
414.065	1402.22
414.442	1447.42
414.819	1446.06
415.197	1445.84
415.574	1488.1
415.951	1504.37
416.328	1480.41
416.705	1517.02
417.082	1538.49
417.46	1552.28
417.837	1569
418.214	1586.4
418.591	1590.69
418.967	1655.1
419.344	1614.19
419.721	1620.75
420.098	1613.52
420.475	1698.71
420.852	1706.4
421.228	1744.13
421.605	1733.29
421.982	1772.16
422.358	1775.55
422.735	1815.55
423.111	1756.11
423.488	1832.95
423.864	1862.1
424.241	1857.58
424.617	1884.02
424.994	1938.03
425.37	1931.02
425.746	1949.33
426.123	1964.24
426.499	1976.9
426.875	2015.77
427.251	2060.74
427.627	2130.34
428.003	2139.38
428.379	2149.1
428.756	2170.79
429.132	2217.12
429.507	2234.97
429.883	2251.01
430.259	2307.96
430.635	2329.2
431.011	2360.62
431.387	2389.32
431.763	2419.82
432.138	2419.82
432.514	2484.68
432.89	2510.67
433.265	2543.21
433.641	2591.8
434.016	2599.93
434.392	2667.5
434.767	2711.12
435.143	2719.02
435.518	2760.38
435.894	2772.13
436.269	2795.63
436.644	2874.27
437.02	2881.96
437.395	2925.57
437.77	2965.8
438.145	3015.29
438.52	3034.5
438.895	3062.29
439.271	3087.6
439.646	3142.52
440.021	3116.53
440.395	3195.85
440.77	3169.18
441.145	3225.68
441.52	3249.18
441.895	3232.91
442.27	3275.17
442.645	3312.46
443.019	3329.18
443.394	3392.68
443.769	3417.09
444.143	3383.41
444.518	3467.25
444.892	3436.75
445.267	3491.43
445.641	3497.08
446.016	3517.87
446.39	3558.78
446.764	3627.48
447.139	3639.45
447.513	3672.22
447.887	3669.06
448.262	3700.24
448.636	3710.41
449.01	3761.71
449.384	3838.32
449.758	3835.38
450.132	3899.11
450.506	3884.42
450.88	3985.43
451.254	3965.55
451.628	4011.65
452.002	4070.18
452.376	4074.92
452.75	4154.47
453.123	4184.97
453.497	4199.66
453.871	4281.92
454.244	4371.18
454.618	4402.14
454.992	4430.84
455.365	4502.93
455.739	4619.09
456.112	4638.52
456.486	4715.58
456.859	4772.53
457.232	4817.05
457.606	4817.27
457.979	4867.89
458.352	5006.87
458.725	5034.44
459.099	5076.48
459.472	5177.72
459.845	5198.73
460.218	5271.95
460.591	5323.7
460.964	5325.96
461.337	5517.6
461.71	5556.01
462.083	5626.97
462.456	5648.21
462.829	5671.72
463.201	5828.32
463.574	5859.96
463.947	5910.35
464.32	6068.77
464.692	6080.52
465.065	6142.44
465.438	6257.46
465.81	6320.74
466.183	6341.08
466.555	6505.14
466.928	6566.83
467.3	6591.24
467.672	6649.32
468.045	6842.08
468.417	6884.11
468.789	6932.25
469.161	7026.03
469.534	7134.5
469.906	7296.08
470.278	7308.28
470.65	7492.23
471.022	7589.86
471.394	7743.3
471.766	7846.35
472.138	7927.02
472.51	8129.5
472.882	8201.37
473.253	8315.49
473.625	8429.83
473.997	8590.73
474.369	8686.1
474.74	8815.14
475.112	8940.1
475.484	9123.6
475.855	9285.63
476.227	9345.74
476.598	9595.68
476.97	9679.75
477.341	9938.27
477.713	10056.68
478.084	10061.66
478.455	10357.92
478.827	10511.14
479.198	10764.91
479.569	10810.79
479.94	11077.9
480.311	11169.88
480.682	11486.03
481.053	11787.94
481.424	11966.01
481.795	12022.96
482.166	12230.41
482.537	12391.09
482.908	12672.44
483.279	12736.39
483.65	13014.8
484.021	13208.24
484.391	13462.92
484.762	13592.18
485.133	13663.82
485.503	13924.61
485.874	14206.18
486.244	14402.79
486.615	14619.05
486.985	14779.95
487.356	15032.37
487.726	15191.01
488.097	15487.95
488.467	15544.9
488.837	15865.8
489.207	16052.46
489.578	16390.76
489.948	16416.74
490.318	16708.71
490.688	16772.21
491.058	17110.96
491.428	17248.59
491.798	17371.29
492.168	17693.77
492.538	17806.76
492.908	18086.98
493.278	18322.23
493.648	18348.22
494.017	18584.6
494.387	18780.98
494.757	18902.78
495.126	19028.43
495.496	19197.69
495.866	19404.46
496.235	19479.04
496.605	19706.15
496.974	19876.54
497.344	20056.87
497.713	20216.19
498.082	20428.84
498.452	20517.88
498.821	20719.91
499.19	20776.4
499.559	20963.29
499.928	21098.88
500.298	21208.71
500.667	21485.08
501.036	21466.78
501.405	21689.6
501.774	21830.39
502.143	21968.69
502.512	22049.14
502.88	22372.75
503.249	22345.63
503.618	22559.86
503.987	22671.04
504.356	22812.06
504.724	23016.8
505.093	23175.21
505.462	23167.98
505.83	23434.19
506.199	23603.45
506.567	23932.48
506.936	23844.12
507.304	24180.16
507.672	24260.83
508.041	24385.12
508.409	24591.22
508.777	24828.5
509.145	24932.68
509.514	25044.31
509.882	25320.01
510.25	25378.09
510.618	25573.79
510.986	25738.53
511.354	26043.16
511.722	26085.19
512.09	26412.86
512.458	26448.57
512.826	26698.96
513.193	26808.56
513.561	26887.65
513.929	27123.13
514.297	27434.08
514.664	27646.5
515.032	27810.79
515.4	28005.14
515.767	28153.16
516.135	28267.28
516.502	28125.59
516.869	28872.91
517.237	28847.38
517.604	28878.56
517.972	29175.05
518.339	29383.41
518.706	29519
519.073	29608.71
519.44	29891.42
519.808	30314.46
520.175	30319.65
520.542	30626.99
520.909	30821.34
521.276	30852.3
521.643	31271.72
522.009	31374.77
522.376	31700.41
522.743	31937.24
523.11	32220.85
523.477	32507.85
523.843	32664
524.21	33020.15
524.577	33183.99
524.943	33395.96
525.31	33572.22
525.676	33932.22
526.043	34055.83
526.409	34308.25
526.776	34708.24
527.142	34705.75
527.508	34955.92
527.874	35268.23
528.241	35469.8
528.607	35611.49
528.973	35997.92
529.339	35939.62
529.705	36364.92
530.071	36575.08
530.437	36833.61
530.803	36952.93
531.169	37274.95
531.535	37241.73
531.901	37353.14
532.267	37488.05
532.632	37854.37
532.998	37951.32
533.364	38231.99
533.73	38329.61
534.095	38661.13
534.461	38665.42
534.826	38919.65
535.192	39018.64
535.557	39295.24
535.923	39298.85
536.288	39630.37
536.653	39747.88
537.019	39664.72
537.384	39903.36
537.749	40085.73
538.114	40216.34
538.479	40181.54
538.845	40569.33
539.21	40448.88
539.575	40747.4
539.94	40926.61
540.305	41139.94
540.67	41084.8
541.034	41225.81
541.399	41529.76
541.764	41693.59
542.129	41821.05
542.494	41814.49
542.858	42171.32
543.223	42053.58
543.587	42280.7
543.952	42401.6
544.316	42459.67
544.681	42458.32
545.045	42657.64
545.41	43015.37
545.774	43102.37
546.138	43138.98
546.503	43293.1
546.867	43427.11
547.231	43746.42
547.595	43774.22
547.959	43889.24
548.324	43901.67
548.688	44083.13
549.052	44181.44
549.416	44298.72
549.779	44511.82
550.143	44510.02
550.507	44835.43
550.871	45041.53
551.235	45059.83
551.599	45307.51
551.962	45352.71
552.326	45458.47
552.689	45743.88
553.053	45591.34
553.417	45758.12
553.78	46321.95
554.143	46118.11
554.507	46284.21
554.87	46535.95
555.234	46935.26
555.597	46700.02
555.96	46927.35
556.323	47075.6
556.686	47227.46
557.05	47468.81
557.413	47559.65
557.776	47673.55
558.139	47882.13
558.502	48025.18
558.865	48185.85
559.228	48379.97
559.59	48407.54
559.953	48713.52
560.316	48992.61
560.679	49044.36
561.041	49190.57
561.404	49443.67
561.767	49595.53
562.129	49586.72
562.492	49892.47
562.854	49992.58
563.217	50054.73
563.579	50145.57
563.941	50409.07
564.304	50474.38
564.666	50682.06
565.028	50749.85
565.39	50908.04
565.753	51216.28
566.115	51266.67
566.477	51387.12
566.839	51487.69
567.201	51741.24
567.563	51764.06
567.925	51879.99
568.287	51992.08
568.648	52033.89
569.01	52201.34
569.372	52389.58
569.734	52313.88
570.095	52599.07
570.457	52695.56
570.819	52784.37
571.18	52728.78
571.542	52919.74
571.903	53074.54
572.265	53185.72
572.626	53270.46
572.987	53293.97
573.349	53431.59
573.71	53529.44
574.071	53550.46
574.432	53670
574.794	53826.61
575.155	53843.1
575.516	53810.11
575.877	53914.97
576.238	53878.81
576.599	54101.63
576.96	54148.18
577.32	54158.8
577.681	54164.23
578.042	54258.46
578.403	54237.67
578.763	54356.08
579.124	54327.61
579.485	54526.02
579.845	54563.09
580.206	54512.92
580.566	54515.63
580.927	54537.55
581.287	54592.91
581.648	54607.38
582.008	54690.77
582.368	54660.94
582.728	54643.76
583.089	54719.69
583.449	54711.33
583.809	54738.22
584.169	54772.35
584.529	54785.9
584.889	54895.73
585.249	54733.25
585.609	54652.35
585.969	54876.3
586.329	54733.25
586.688	54766.7
587.048	54819.35
587.408	54716.3
587.768	54784.1
588.127	54826.13
588.487	54822.06
588.846	55043.3
589.206	54676.98
589.565	54765.57
589.925	54907.93
590.284	54801.95
590.643	54909.06
591.003	54887.6
591.362	54994.49
591.721	54923.3
592.08	54952.91
592.44	55088.27
592.799	55032.9
593.158	54943.87
593.517	54971.89
593.876	54979.35
594.235	54914.26
594.593	55023.64
594.952	55080.59
595.311	54882.85
595.67	55027.48
596.029	55122.62
596.387	55203.07
596.746	55250.75
597.104	55099.12
597.463	55146.57
597.822	55169.85
598.18	55114.71
598.538	55098.89
598.897	55252.33
599.255	54954.04
599.613	55432.44
599.972	55290.52
600.33	55327.58
600.688	55191.09
601.046	55434.02
601.404	55433.8
601.762	55372.33
602.12	55555.83
602.478	55432.44
602.836	55488.26
603.194	55397.19
603.552	55468.6
603.91	55356.28
604.268	55499.78
604.625	55420.01
604.983	55558.77
605.341	55463.85
605.698	55582.27
606.056	55686.45
606.413	55629.95
606.771	55669.72
607.128	55748.36
607.485	55613.9
607.843	55644.41
608.2	55780
608.557	55897.74
608.914	55707.24
609.272	55923.05
609.629	55994.01
609.986	55996.49
610.343	55965.53
610.7	56108.13
611.057	56078.07
611.414	56024.29
611.771	56101.58
612.127	56153.1
612.484	56038.53
612.841	56191.97
613.198	56188.13
613.554	56206.43
613.911	56325.52
614.267	56272.64
614.624	56230.61
614.98	56268.35
615.337	56396.94
615.693	56333.43
616.05	56279.2
616.406	56444.62
616.762	56361
617.118	56337.73
617.475	56361
617.831	56405.75
618.187	56535.91
618.543	56460.66
618.899	56616.59
619.255	56586.53
619.611	56482.81
619.967	56568
620.323	56686.65
620.678	56598.74
621.034	56462.02
621.39	56512.64
621.746	56487.33
622.101	56788.11
622.457	56503.6
622.812	56615.69
623.168	56661.56
623.523	56594.44
623.879	56710.37
624.234	56494.11
624.589	56606.42
624.945	56619.3
625.3	56643.03
625.655	56591.51
626.01	56606.65
626.365	56612.07
626.72	56596.25
627.075	56631.28
627.43	56535.91
627.785	56556.03
628.14	56577.72
628.495	56572.3
628.85	56533.88
629.205	56464.5
629.559	56598.96
629.914	56480.55
630.269	56492.07
630.623	56489.81
630.978	56328.01
631.332	56415.69
631.687	56508.12
632.041	56366.65
632.396	56393.32
632.75	56348.12
633.104	56316.94
633.459	56147.68
633.813	56198.3
634.167	56156.94
634.521	56160.56
634.875	56218.41
635.229	56123.04
635.583	55994.01
635.937	55971.18
636.291	55936.38
636.645	55905.42
636.999	55922.37
637.352	56022.03
637.706	55748.59
638.06	55861.13
638.413	55794.01
638.767	55660.23
639.121	55773.9
639.474	55596.96
639.828	55634.47
640.181	55706.33
640.534	55684.41
640.888	55556.51
641.241	55463.63
641.594	55480.8
641.947	55584.53
642.301	55415.72
642.654	55442.38
643.007	55423.63
643.36	55385.89
643.713	55295.72
644.066	55373.01
644.419	55161.49
644.771	54955.84
645.124	54705.23
645.477	54665.68
645.83	54442.64
646.182	54493.71
646.535	54279.02
646.888	54396.76
647.24	54234.96
647.593	54418
647.945	54191.8
648.298	54051.69
648.65	54038.13
649.002	53954.74
649.355	54056.21
649.707	54044.68
650.059	54166.71
650.411	54402.64
650.763	54492.58
651.115	54816.64
651.467	54595.4
651.819	54705.91
652.171	54618.45
652.523	54500.71
652.875	54502.3
653.227	54324
653.578	54565.57
653.93	54447.83
654.282	54298.46
654.633	54249.2
654.985	54296.65
655.337	54226.14
655.688	54298.91
656.039	54418.23
656.391	54134.85
656.742	54113.15
657.094	54099.82
657.445	54167.39
657.796	54135.07
658.147	54075.19
658.498	54157.22
658.849	54102.08
659.2	54039.48
659.551	54006.72
659.902	54068.86
660.253	53961.29
660.604	54064.34
660.955	53813.95
661.306	53945.02
661.656	53923.33
662.007	53902.99
662.358	53869.32
662.708	53861.86
663.059	53806.04
663.409	53694.86
663.76	53873.39
664.11	53792.94
664.461	53785.25
664.811	53701.86
665.161	53783.44
665.511	53716.33
665.862	53723.56
666.212	53743.9
666.562	53667.74
666.912	53706.61
667.262	53600.4
667.612	53564.02
667.962	53639.27
668.312	53588.42
668.662	53691.24
669.011	53590
669.361	53518.14
669.711	53507.75
670.06	53424.36
670.41	53396.56
670.76	53367.86
671.109	53368.99
671.459	53348.88
671.808	53381.65
672.157	53422.78
672.507	53116.12
672.856	53217.13
673.205	53171.71
673.554	53280.41
673.904	53216.45
674.253	53389.1
674.602	53201.54
674.951	52733.3
675.3	52492.86
675.649	53096.46
675.998	53043.8
676.346	53097.13
676.695	53211.71
677.044	52884.71
677.393	53013.75
677.741	53054.65
678.09	52920.64
678.438	52837.71
678.787	52941.21
679.135	52949.79
679.484	52662.34
679.832	52757.48
680.181	52649.01
680.529	52592.97
680.877	52657.82
681.225	52551.16
681.573	52728.33
681.922	52543.25
682.27	52416.47
682.618	52456.47
682.966	52279.76
683.314	52340.09
683.661	52202.47
684.009	52110.72
684.357	51979.65
684.705	51891.97
685.053	51979.88
685.4	51978.52
685.748	51773.33
686.095	51752.09
686.443	51546.67
686.79	51524.75
687.138	51573.79
687.485	51641.35
687.832	51361.59
688.18	51438.42
688.527	51221.48
688.874	51243.62
689.221	51228.26
689.568	51022.16
689.915	50905.78
690.262	50994.14
690.609	50828.95
690.956	50735.39
691.303	50616.97
691.65	50473.25
691.997	50467.6
692.344	50309.19
692.69	50302.18
693.037	50306.7
693.383	49982.64
693.73	50094.5
694.077	49929.76
694.423	49995.52
694.769	49770.67
695.116	49614.74
695.462	49569.77
695.808	49449.32
696.155	49581.97
696.501	49287.74
696.847	49170.68
697.193	49045.04
697.539	49171.36
697.885	48755.33
698.231	48677.36
698.577	48657.25
698.923	48669.23
699.269	48344.04
699.614	48318.5
699.96	48174.55
700.306	48276.92
700.651	48130.71
700.997	47752.64
701.342	47778.86
701.688	47835.58
702.033	47733.66
702.379	47681.68
702.724	47504.74
703.069	47634.45
703.415	47189.27
703.76	47107.24
704.105	47245.76
704.45	46910.18
704.795	46713.35
705.14	46750.18
705.485	46720.58
705.83	46414.82
706.175	46477.2
706.52	46328.5
706.865	46209.63
707.209	46065.91
707.554	45986.36
707.899	46049.64
708.243	45798.34
708.588	45768.06
708.932	45549.08
709.277	45601.96
709.621	45397.22
709.966	45312.71
710.31	45478.58
710.654	45122.2
710.998	45133.5
711.342	44962.66
711.687	44878.82
712.031	44737.58
712.375	44584.82
712.719	44728.09
713.063	44552.73
713.407	44587.08
713.75	44312.06
714.094	44278.84
714.438	44124.04
714.782	44248.78
715.125	43970.82
715.469	44015.57
715.812	43797.72
716.156	43602.47
716.499	43754.56
716.843	43644.73
717.186	43354.57
717.53	43693.31
717.873	43498.52
718.216	43392.08
718.559	43204.06
718.902	42988.93
719.246	43188.24
719.589	42883.39
719.932	42929.49
720.275	42921.58
720.617	42807.46
720.96	42742.83
721.303	42667.58
721.646	42647.92
721.989	42395.04
722.331	42460.8
722.674	42461.93
723.016	42238.44
723.359	42219
723.701	42279.57
724.044	41935.39
724.386	41755.06
724.729	41986.92
725.071	41802.52
725.413	41879.35
725.755	41804.55
726.097	41522.75
726.439	41367.73
726.782	41478.23
727.124	41576.08
727.465	41461.28
727.807	41321.4
728.149	41212.02
728.491	41074.63
728.833	41245.47
729.175	40973.84
729.516	40913.5
729.858	40868.76
730.199	40855.65
730.541	40691.59
730.882	40613.62
731.224	40787.85
731.565	40481.87
731.906	40521.19
732.248	40495.43
732.589	40280.97
732.93	40256.57
733.271	40189.9
733.612	40142.67
733.953	40312.61
734.294	40127.31
734.635	39852.96
734.976	40025.61
735.317	39803.25
735.658	39758.28
735.999	39751.5
736.339	39612.07
736.68	39612.52
737.021	39565.74
737.361	39349.7
737.702	39603.25
738.042	39393.77
738.383	39210.49
738.723	39297.5
739.063	39029.48
739.404	39222.25
739.744	39065.19
740.084	38962.37
740.424	38995.36
740.764	38794.01
741.104	39012.76
741.444	38791.75
741.784	38585.88
742.124	38765.53
742.464	38588.82
742.804	38562.6
743.143	38429.95
743.483	38424.07
743.823	38278.32
744.162	38288.03
744.502	38237.19
744.841	38120.35
745.181	38107.7
745.52	37906.57
745.86	38076.74
746.199	38001.94
746.538	37815.95
746.877	37944.31
747.216	37749.06
747.556	37645.34
747.895	37761.27
748.234	37497.77
748.573	37518.79
748.911	37330.77
749.25	37429.3
749.589	37175.52
749.928	37262.75
750.267	37217.78
750.605	37132.36
750.944	37071.79
751.283	36991.12
751.621	37064.79
751.96	36695.31
752.298	36735.98
752.636	36559.49
752.975	36570.11
753.313	36394.3
753.651	36552.71
753.989	36327.86
754.327	36178.48
754.666	35996.57
755.004	36058.03
755.342	36000.41
755.679	35914.54
756.017	35587.76
756.355	35790.02
756.693	35517.03
757.031	35626.86
757.368	35460.54
757.706	35461.21
758.044	35285.63
758.381	35205.18
758.719	35078.63
759.056	35117.95
759.394	34882.7
759.731	34664.17
760.068	34724.51
760.405	34423.5
760.743	34431.19
761.08	34446.1
761.417	34301.92
761.754	34134.02
762.091	34071.19
762.428	34134.7
762.765	33801.15
763.102	33953.23
763.438	33705.1
763.775	33569.06
764.112	33680.24
764.449	33606.12
764.785	33521.83
765.122	33059.24
765.458	33078.9
765.795	33009.75
766.131	32984.67
766.467	32833.94
766.804	32675.07
767.14	32504.91
767.476	32520.95
767.812	32436.66
768.148	32476.21
768.485	32168.65
768.821	32080.96
769.157	31982.21
769.492	31854.3
769.828	31866.28
770.164	31691.14
770.5	31432.85
770.836	31611.6
771.171	31269.01
771.507	31150.37
771.842	30980.43
772.178	31121.67
772.513	30902.24
772.849	30746.99
773.184	30500.44
773.519	30625.18
773.855	30456.6
774.19	30315.36
774.525	30156.27
774.86	30275.14
775.195	30174.8
775.53	29977.74
775.865	29863.4
776.2	29605.55
776.535	29443.29
776.87	29421.83
777.205	29327.59
777.539	29233.13
777.874	29218.44
778.209	28872.69
778.543	28985.9
778.878	28763.09
779.212	28712.24
779.547	28528.97
779.881	28582.75
780.215	28416.65
780.55	28491.23
780.884	28168.3
781.218	28162.65
781.552	28093.5
781.886	27980.06
782.22	27889.66
782.554	27857.35
782.888	27488.99
783.222	27361.99
783.556	27312.95
783.889	27366.74
784.223	27109.8
784.557	26944.83
784.89	27037.93
785.224	26806.07
785.557	26801.33
785.891	26703.93
786.224	26591.17
786.558	26606.76
786.891	26282.7
787.224	26235.69
787.557	26181.46
787.891	26143.27
788.224	26039.99
788.557	26098.3
788.89	25972.65
789.223	25903.27
789.556	25661.7
789.888	25607.69
790.221	25475.71
790.554	25251.99
790.887	25374.47
791.219	25284.98
791.552	25084.09
791.884	25041.38
792.217	25029.17
792.549	24773.13
792.882	24707.37
793.214	24561.61
793.546	24706.02
793.879	24489.53
794.211	24330.21
794.543	24419.47
794.875	24397.55
795.207	24325.01
795.539	24106.48
795.871	24128.63
796.203	23926.83
796.535	23823.78
796.867	23922.99
797.198	23777.68
797.53	23730.9
797.862	23495.65
798.193	23538.82
798.525	23342.66
798.856	23498.37
799.188	23172.27
799.519	23184.48
799.85	22962.56
800.182	22996.01
800.513	22971.37
800.844	22798.72
801.175	22886.63
801.506	22807.99
801.837	22649.35
802.168	22684.83
802.499	22687.54
802.83	22420.88
803.161	22390.37
803.491	22361.45
803.822	22410.48
804.153	22257.04
804.483	22108.8
804.814	21950.38
805.145	21946.32
805.475	21969.37
805.805	21848.01
806.136	21872.42
806.466	21952.42
806.796	21772.53
807.126	21622.71
807.457	21505.88
807.787	21558.98
808.117	21428.36
808.447	21306.56
808.777	21406.22
809.107	21244.41
809.436	21090.74
809.766	21206.9
810.096	21103.4
810.426	21039.67
810.755	20991.31
811.085	20906.57
811.414	20915.16
811.744	20694.6
812.073	20648.04
812.403	20699.79
812.732	20555.62
813.061	20610.31
813.39	20485.11
813.719	20388.84
814.049	20529.18
814.378	20358.56
814.707	20240.82
815.036	20269.07
815.365	20267.49
815.693	19933.94
816.022	20014.39
816.351	19932.58
816.68	19949.08
817.008	19855.3
817.337	19652.82
817.665	19730.1
817.994	19720.16
818.322	19694.62
818.651	19621.86
818.979	19473.16
819.307	19580.5
819.636	19409.43
819.964	19384.58
820.292	19459.15
820.62	19505.93
820.948	19315.65
821.276	19461.41
821.604	19450.34
821.932	19451.47
822.259	19388.19
822.587	19416.21
822.915	19307.06
823.243	19357.46
823.57	19331.02
823.898	19300.96
824.225	19291.24
824.553	19216.67
824.88	19236.78
825.207	19345.48
825.535	19200.17
825.862	19294.18
826.189	19269.78
826.516	19216.44
826.843	19259.15
827.17	19321.53
827.497	19410.34
827.824	19185.71
828.151	19320.85
828.478	19267.29
828.805	19285.37
829.131	19296.89
829.458	19151.13
829.785	19047.86
830.111	19134.64
830.438	19215.31
830.764	19204.69
831.09	19144.58
831.417	19137.8
831.743	19205.82
832.069	19146.62
832.395	19060.29
832.722	19068.65
833.048	18969.44
833.374	19171.25
833.7	19049.89
834.026	18901.88
834.351	19046.05
834.677	18985.26
835.003	19020.29
835.329	18980.97
835.654	18894.19
835.98	18945.26
836.306	18893.97
836.631	18781.88
836.956	18883.35
837.282	18750.24
837.607	18710.47
837.932	18680.19
838.258	18648.55
838.583	18719.73
838.908	18495.56
839.233	18617.14
839.558	18487.42
839.883	18494.2
840.208	18370.14
840.533	18362.68
840.858	18406.52
841.182	18449.01
841.507	18312.74
841.832	18282.46
842.156	18257.15
842.481	18199.3
842.805	18200.88
843.13	18159.97
843.454	18009.24
843.778	17991.62
844.103	17990.04
844.427	18020.32
844.751	18027.1
845.075	17798.18
845.399	17762.7
845.723	17762.02
846.047	17705.52
846.371	17534.68
846.695	17580.1
847.019	17435.02
847.343	17407.23
847.666	17269.6
847.99	17275.48
848.313	17222.37
848.637	17100.79
848.96	17134.24
849.284	16964.3
849.607	16820.8
849.931	16808.82
850.254	16702.84
850.577	16645.21
850.9	16529.28
851.223	16499
851.546	16434.14
851.869	16265.11
852.192	16489.74
852.515	16164.09
852.838	16115.51
853.161	16141.5
853.483	16176.98
853.806	16050.43
854.129	16048.62
854.451	15907.83
854.774	15833.26
855.096	15809.75
855.419	15816.08
855.741	15711.9
856.063	15608.86
856.385	15669.64
856.708	15634.62
857.03	15536.77
857.352	15506.26
857.674	15437.56
857.996	15353.95
858.318	15219.03
858.64	15338.35
858.961	15248.64
859.283	15205.7
859.605	15132.03
859.926	15139.49
860.248	15062.43
860.57	14967.06
860.891	15093.84
861.212	14967.97
861.534	14845.03
861.855	14909.21
862.176	14835.99
862.498	14900.85
862.819	14878.93
863.14	14723.91
863.461	14697.92
863.782	14716.45
864.103	14714.87
864.424	14689.56
864.745	14643.23
865.065	14567.53
865.386	14525.04
865.707	14544.93
866.027	14559.62
866.348	14488.43
866.668	14500.18
866.989	14370.92
867.309	14345.84
867.63	14423.58
867.95	14356.68
868.27	14272.17
868.59	14357.59
868.91	14316.23
869.23	14257.7
869.55	14222.22
869.87	14253.18
870.19	14129.8
870.51	14154.2
870.83	14230.36
871.15	14081.89
871.469	14097.03
871.789	14084.15
872.109	14032.17
872.428	13975.23
872.748	14005.28
873.067	13983.14
873.386	14011.38
873.706	13939.07
874.025	13932.06
874.344	13855.23
874.663	13885.51
874.982	13889.58
875.301	13866.3
875.62	13799.41
875.939	13589.47
876.258	13756.02
876.577	13629.7
876.896	13674.44
877.214	13601.9
877.533	13677.61
877.852	13626.53
878.17	13572.07
878.489	13603.48
878.807	13583.15
879.125	13540.43
879.444	13536.14
879.762	13417.73
880.08	13491.4
880.398	13386.77
880.716	13401
881.034	13403.04
881.352	13400.1
881.67	13310.16
881.988	13285.53
882.306	13219.77
882.624	13193.55
882.941	13145.87
883.259	13168.02
883.577	13117.17
883.894	13152.65
884.212	13081.24
884.529	13026.1
884.846	12927.12
885.164	12975.48
885.481	12933.9
885.798	12889.6
886.115	12830.85
886.432	12821.81
886.75	12811.41
887.067	12717.63
887.383	12736.61
887.7	12782.94
888.017	12641.25
888.334	12666.11
888.651	12658.2
888.967	12603.51
889.284	12588.6
889.6	12480.12
889.917	12474.7
890.233	12423.4
890.55	12403.29
890.866	12446.68
891.182	12366.23
891.498	12295.5
891.815	12278.1
892.131	12233.8
892.447	12204.42
892.763	12136.63
893.079	12106.35
893.395	12123.07
893.71	12001.94
894.026	11987.26
894.342	11973.7
894.657	11892.12
894.973	11847.37
895.289	11856.41
895.604	11817.54
895.92	11785.68
896.235	11736.87
896.55	11728.51
896.865	11682.86
897.181	11620.71
897.496	11599.24
897.811	11552.69
898.126	11535.74
898.441	11482.86
898.756	11357.89
899.071	11319.93
899.386	11353.15
899.7	11250.78
900.015	11190.21
900.33	11226.37
900.644	11189.31
900.959	11181.4
901.273	11172.81
901.588	11011.69
901.902	10938.24
902.216	10890.34
902.531	10910
902.845	10888.98
903.159	10852.37
903.473	10827.29
903.787	10727.18
904.101	10664.58
904.415	10687.63
904.729	10607.18
905.042	10565.6
905.356	10577.57
905.67	10547.52
905.984	10534.64
906.297	10451.7
906.611	10394.3
906.924	10384.81
907.237	10379.61
907.551	10298.49
907.864	10315.89
908.177	10289.67
908.491	10200.41
908.804	10112.28
909.117	9996.12
909.43	10012.39
909.743	10028.21
910.056	9968.1
910.368	10008.32
910.681	9894.88
910.994	9811.95
911.307	9759.29
911.619	9753.64
911.932	9788.22
912.244	9652.85
912.557	9655.34
912.869	9585.51
913.181	9591.39
913.494	9474.1
913.806	9466.19
914.118	9435.01
914.43	9362.92
914.742	9376.25
915.054	9264.39
915.366	9305.52
915.678	9274.56
915.99	9228.01
916.302	9171.74
916.613	9097.16
916.925	9136.48
917.236	9044.73
917.548	8938.52
917.859	9049.48
918.171	8853.55
918.482	8896.72
918.794	8824.4
919.105	8869.15
919.416	8743.05
919.727	8769.26
920.038	8648.36
920.349	8706.21
920.66	8640.68
920.971	8575.14
921.282	8568.81
921.593	8496.95
921.903	8421.25
922.214	8524.07
922.525	8413.34
922.835	8396.84
923.146	8313
923.456	8353.9
923.767	8228.26
924.077	8221.25
924.387	8250.18
924.697	8159.11
925.008	8140.8
925.318	8086.34
925.628	8039.11
925.938	8059.22
926.248	7972.22
926.558	7917.08
926.867	7901.04
927.177	7816.52
927.487	7764.99
927.796	7744.43
928.106	7741.72
928.416	7705.56
928.725	7768.16
929.034	7675.73
929.344	7706.01
929.653	7603.87
929.962	7504.89
930.271	7540.37
930.581	7472.8
930.89	7463.76
931.199	7421.5
931.508	7393.25
931.817	7387.83
932.125	7392.57
932.434	7316.64
932.743	7200.49
933.051	7205.46
933.36	7184.9
933.669	7136.54
933.977	7109.64
934.286	7126.37
934.594	7059.02
934.902	7037.33
935.21	7001.17
935.519	6946.94
935.827	6945.81
936.135	6850.89
936.443	6888.63
936.751	6870.78
937.059	6826.71
937.367	6785.81
937.674	6713.5
937.982	6759.6
938.29	6708.52
938.597	6730.67
938.905	6610.45
939.213	6587.17
939.52	6562.77
939.827	6606.38
940.135	6537
940.442	6483.22
940.749	6468.98
941.056	6480.96
941.363	6357.57
941.67	6380.85
941.977	6328.42
942.284	6354.64
942.591	6275.77
942.898	6259.95
943.205	6233.06
943.511	6200.06
943.818	6180.85
944.125	6146.05
944.431	6141.31
944.738	6104.02
945.044	6091.14
945.35	6019.73
945.657	5985.38
945.963	5941.76
946.269	5977.92
946.575	5939.73
946.881	5928.43
947.187	5900.41
947.493	5813.63
947.799	5800.07
948.105	5813.18
948.41	5771.15
948.716	5700.42
949.022	5710.81
949.327	5760.53
949.633	5658.83
949.938	5657.25
950.244	5618.16
950.549	5542.45
950.854	5533.19
951.16	5564.15
951.465	5511.27
951.77	5524.6
952.075	5496.8
952.38	5461.78
952.685	5456.81
952.99	5335.68
953.294	5417.71
953.599	5351.95
953.904	5366.41
954.209	5315.57
954.513	5263.59
954.818	5218.39
955.122	5251.84
955.426	5199.64
955.731	5183.82
956.035	5163.03
956.339	5131.62
956.643	5136.81
956.948	5060.66
957.252	5066.76
957.556	5079.41
957.86	5047.32
958.163	4998.74
958.467	5001.45
958.771	4933.66
959.075	4972.3
959.378	4951.28
959.682	4861.12
959.985	4876.93
960.289	4816.6
960.592	4817.5
960.896	4813.88
961.199	4801
961.502	4766.65
961.805	4739.76
962.108	4713.77
962.411	4678.97
962.714	4638.75
963.017	4673.1
963.32	4652.08
963.623	4636.49
963.926	4636.94
964.228	4548.58
964.531	4549.26
964.833	4472.42
965.136	4489.15
965.438	4484.63
965.741	4487.79
966.043	4433.33
966.345	4410.96
966.648	4425.65
966.95	4419.32
967.252	4407.34
967.554	4372.99
967.856	4316.04
968.158	4289.83
968.46	4295.93
968.761	4309.94
969.063	4262.49
969.365	4228.36
969.666	4229.95
969.968	4187.23
970.269	4140.91
970.571	4138.65
970.872	4157.63
971.174	4109.27
971.475	4108.37
971.776	4072.89
972.077	4079.89
972.378	4043.74
972.679	4023.62
972.98	4015.26
973.281	4015.94
973.582	4000.8
973.883	3949.27
974.183	3967.58
974.484	3954.02
974.785	3886.9
975.085	3847.81
975.386	3898.88
975.686	3853.23
975.986	3814.36
976.287	3823.18
976.587	3776.4
976.887	3777.75
977.187	3773.01
977.487	3745.66
977.787	3721.48
978.087	3689.39
978.387	3692.78
978.687	3675.84
978.987	3631.09
979.286	3640.58
979.586	3658.66
979.885	3642.16
980.185	3596.06
980.484	3594.03
980.784	3540.7
981.083	3575.73
981.382	3514.94
981.682	3518.1
981.981	3484.65
982.28	3468.61
982.579	3447.14
982.878	3469.97
983.177	3443.98
983.475	3421.38
983.774	3419.12
984.073	3367.14
984.372	3384.54
984.67	3333.25
984.969	3347.26
985.267	3340.48
985.566	3329.18
985.864	3294.15
986.162	3240.14
986.461	3268.39
986.759	3233.59
987.057	3228.39
987.355	3205.57
987.653	3227.94
987.951	3204.89
988.249	3168.73
988.547	3210.99
988.844	3108.84
989.142	3135.74
989.44	3088.05
989.737	3102.97
990.035	3093.7
990.332	3082.63
990.63	3063.42
990.927	3055.96
991.224	3029.52
991.521	3022.29
991.819	3054.16
992.116	2997.89
992.413	2981.84
992.71	2962.63
993.006	2958.34
993.303	2912.01
993.6	2903.88
993.897	2854.16
994.193	2898.68
994.49	2855.07
994.787	2872.92
995.083	2800.15
995.379	2807.84
995.676	2793.6
995.972	2803.99
996.268	2752.92
996.565	2754.73
996.861	2698.69
997.157	2736.88
997.453	2743.66
997.749	2714.73
998.044	2693.71
998.34	2709.99
998.636	2662.08
998.932	2700.27
999.227	2624.79
999.523	2631.57
999.818	2581.85
1000.114	2555.87
1000.409	2587.28
1000.704	2549.31
1001	2529.65
1001.295	2536.2
1001.59	2508.86
1001.885	2509.99
1002.18	2521.29
1002.475	2472.93
1002.77	2485.58
1003.065	2460.95
1003.359	2460.05
1003.654	2426.83
1003.949	2414.17
1004.243	2389.32
1004.538	2410.56
1004.832	2397.45
1005.127	2358.13
1005.421	2314.74
1005.715	2313.84
1006.009	2319.71
1006.304	2289.21
1006.598	2288.98
1006.892	2258.47
1007.186	2237.68
1007.48	2288.3
1007.773	2239.49
1008.067	2200.39
1008.361	2212.15
1008.655	2209.21
1008.948	2213.95
1009.242	2184.8
1009.535	2151.13
1009.829	2128.53
1010.122	2116.55
1010.415	2111.36
1010.708	2086.95
1011.001	2085.37
1011.295	2079.95
1011.588	2091.7
1011.881	2077.23
1012.173	2050.12
1012.466	2028.42
1012.759	2041.75
1013.052	2012.15
1013.344	2011.47
1013.637	1973.28
1013.93	1968.99
1014.222	1957.91
1014.514	1924.7
1014.807	1934.19
1015.099	1944.81
1015.391	1900.97
1015.683	1905.26
1015.976	1910.68
1016.268	1877.46
1016.56	1866.17
1016.851	1806.51
1017.143	1848.54
1017.435	1815.09
1017.727	1810.8
1018.018	1792.72
1018.31	1774.42
1018.602	1776.22
1018.893	1753.63
1019.185	1776.9
1019.476	1741.42
1019.767	1724.93
1020.058	1735.77
1020.35	1711.37
1020.641	1717.69
1020.932	1703.68
1021.223	1673.18
1021.514	1648.77
1021.804	1631.82
1022.095	1653.74
1022.386	1625.04
1022.677	1591.82
1022.967	1584.37
1023.258	1597.02
1023.548	1586.4
1023.839	1595.44
1024.129	1551.82
1024.419	1552.28
1024.709	1539.39
1025	1546.85
1025.29	1529.68
1025.58	1537.36
1025.87	1494.65
1026.16	1459.62
1026.449	1472.05
1026.739	1462.33
1027.029	1461.66
1027.319	1464.37
1027.608	1427.08
1027.898	1427.08
1028.187	1416.46
1028.477	1400.19
1028.766	1411.26
1029.055	1400.42
1029.344	1397.7
1029.634	1361.77
1029.923	1369.91
1030.212	1360.19
1030.501	1348.67
1030.79	1318.61
1031.078	1329.68
1031.367	1303.02
1031.656	1321.1
1031.945	1305.95
1032.233	1278.38
1032.522	1275.45
1032.81	1268.89
1033.099	1245.39
1033.387	1232.74
1033.675	1256.46
1033.963	1223.92
1034.251	1225.5
1034.54	1233.41
1034.828	1231.38
1035.116	1212.62
1035.403	1209.23
1035.691	1173.08
1035.979	1174.43
1036.267	1185.28
1036.554	1143.02
1036.842	1133.98
1037.129	1131.5
1037.417	1122.46
1037.704	1126.3
1037.992	1136.47
1038.279	1096.69
1038.566	1087.66
1038.853	1087.66
1039.14	1087.66
