Data from white_poster_card_FLMS001491_00039.txt Node
Date: Wed Feb 08 11:51:26 GMT 2017
User: dcchb
Spectrometer: FLMS00149
Trigger mode: 0
Integration Time (sec): 2.000000E-2
Scans to average: 10
Electric dark correction enabled: true
Nonlinearity correction enabled: false
Boxcar width: 0
XAxis mode: Wavelengths
Number of Pixels in Spectrum: 2048
>>>>>Begin Spectral Data<<<<<
341.393	-5.14
341.776	-5.14
342.16	-5.14
342.543	-72.48
342.927	-56.44
343.31	-68.64
343.693	-90.11
344.077	-79.26
344.46	-57.8
344.843	-62.31
345.226	-62.77
345.61	-22.99
345.993	-32.94
346.376	-4.46
346.759	15.42
347.142	34.18
347.525	51.58
347.908	68.98
348.291	80.28
348.674	97.91
349.057	132.93
349.44	99.49
349.823	129.77
350.206	155.08
350.588	207.06
350.971	209.32
351.354	242.31
351.737	233.04
352.119	258.58
352.502	264.68
352.884	277.11
353.267	266.49
353.65	301.29
354.032	296.09
354.414	306.04
354.797	297.9
355.179	316.43
355.562	327.05
355.944	312.36
356.326	340.16
356.709	312.82
357.091	327.96
357.473	336.54
357.855	351.01
358.238	337.45
358.62	348.07
359.002	351.23
359.384	344
359.766	353.95
360.148	352.36
360.53	332.7
360.912	355.53
361.294	327.51
361.676	332.93
362.057	352.14
362.439	335.87
362.821	328.86
363.203	310.78
363.584	311.91
363.966	326.15
364.348	333.16
364.729	332.03
365.111	323.89
365.493	305.81
365.874	325.92
366.256	317.56
366.637	313.27
367.019	315.75
367.4	300.39
367.781	343.32
368.163	331.35
368.544	304.91
368.925	318.69
369.306	326.15
369.688	303.33
370.069	314.4
370.45	299.94
370.831	307.62
371.212	293.83
371.593	288.18
371.974	324.12
372.355	297.9
372.736	301.29
373.117	320.27
373.498	329.09
373.879	322.53
374.26	311.23
374.641	318.69
375.021	317.11
375.402	322.08
375.783	330.44
376.163	348.75
376.544	318.01
376.925	326.83
377.305	328.41
377.686	332.03
378.066	329.77
378.447	337.45
378.827	327.28
379.208	346.94
379.588	308.97
379.968	337.67
380.349	327.05
380.729	331.8
381.109	345.81
381.489	352.82
381.87	358.92
382.25	340.84
382.63	351.23
383.01	345.81
383.39	355.75
383.77	345.36
384.15	351.23
384.53	357.56
384.91	344.45
385.29	324.12
385.67	354.4
386.049	363.89
386.429	352.82
386.809	358.47
387.189	342.87
387.568	349.43
387.948	341.29
388.328	382.87
388.707	354.4
389.087	370.89
389.466	375.19
389.846	373.83
390.225	374.28
390.605	398.24
390.984	380.39
391.363	386.94
391.743	384.68
392.122	404.57
392.501	404.57
392.881	404.11
393.26	386.04
393.639	391.46
394.018	400.5
394.397	433.49
394.776	418.8
395.155	400.05
395.534	418.8
395.913	400.27
396.292	421.74
396.671	424.68
397.05	425.36
397.429	429.65
397.808	428.97
398.186	428.07
398.565	433.27
398.944	410.44
399.323	416.54
399.701	415.41
400.08	449.31
400.458	434.17
400.837	431.23
401.215	450.67
401.594	456.09
401.972	436.2
402.351	440.27
402.729	473.72
403.107	472.13
403.486	449.31
403.864	457.67
404.242	466.03
404.62	488.63
404.999	489.08
405.377	481.63
405.755	490.67
406.133	494.73
406.511	506.71
406.889	509.42
407.267	508.52
407.645	529.08
408.023	523.66
408.401	540.61
408.779	541.06
409.156	546.48
409.534	545.13
409.912	567.5
410.29	564.11
410.667	604.79
411.045	611.57
411.422	593.26
411.8	619.25
412.178	620.83
412.555	637.55
412.933	623.77
413.31	652.47
413.687	691.79
414.065	684.56
414.442	720.72
414.819	739.7
415.197	730.66
415.574	724.78
415.951	785.8
416.328	776.31
416.705	773.82
417.082	785.35
417.46	822.86
417.837	823.09
418.214	834.16
418.591	853.37
418.967	872.35
419.344	875.29
419.721	883.88
420.098	890.43
420.475	921.84
420.852	943.76
421.228	969.97
421.605	965.91
421.982	969.97
422.358	981.5
422.735	996.64
423.111	1009.3
423.488	1047.26
423.864	1042.74
424.241	1049.97
424.617	1064.89
424.994	1075.96
425.37	1104.66
425.746	1103.76
426.123	1122.29
426.499	1125.45
426.875	1171.33
427.251	1186.92
427.627	1203.19
428.003	1212.45
428.379	1216.3
428.756	1229.4
429.132	1253.13
429.507	1292.68
429.883	1277.54
430.259	1332.9
430.635	1343.07
431.011	1323.41
431.387	1385.78
431.763	1396.86
432.138	1395.73
432.514	1447.25
432.89	1450.87
433.265	1475.05
433.641	1497.42
434.016	1532.67
434.392	1514.82
434.767	1553.91
435.143	1553.24
435.518	1547.59
435.894	1614.03
436.269	1633.46
436.644	1605.89
437.02	1668.71
437.395	1678.2
437.77	1695.83
438.145	1732.67
438.52	1733.57
438.895	1767.92
439.271	1738.09
439.646	1807.01
440.021	1812.44
440.395	1791.65
440.77	1810.18
441.145	1819.44
441.52	1879.56
441.895	1868.48
442.27	1895.6
442.645	1852.66
443.019	1912.32
443.394	1917.97
443.769	1912.1
444.143	1911.87
444.518	1934.69
444.892	1964.75
445.267	1951.64
445.641	1993.22
446.016	1973.79
446.39	2009.27
446.764	2039.1
447.139	2006.11
447.513	2015.37
447.887	2035.94
448.262	2026.9
448.636	2073
449.01	2148.7
449.384	2110.96
449.758	2157.97
450.132	2140.57
450.506	2145.76
450.88	2171.98
451.254	2204.29
451.628	2166.1
452.002	2244.74
452.376	2231.41
452.75	2291.52
453.123	2261.92
453.497	2303.27
453.871	2307.57
454.244	2360.67
454.618	2407.9
454.992	2466.66
455.365	2416.04
455.739	2483.83
456.112	2512.08
456.486	2502.14
456.859	2559.31
457.232	2593.66
457.606	2571.29
457.979	2605.19
458.352	2630.5
458.725	2686.99
459.099	2724.5
459.472	2763.37
459.845	2768.35
460.218	2792.75
460.591	2831.17
460.964	2866.65
461.337	2914.33
461.71	2999.75
462.083	2984.61
462.456	2997.72
462.829	2979.64
463.201	3091.95
463.574	3066.42
463.947	3112.74
464.32	3191.16
464.692	3178.96
465.065	3196.36
465.438	3272.06
465.81	3296.24
466.183	3360.19
466.555	3434.32
466.928	3449.01
467.3	3421.44
467.672	3481.09
468.045	3592.28
468.417	3582.34
468.789	3592.28
469.161	3685.61
469.534	3717.47
469.906	3797.47
470.278	3818.71
470.65	3822.1
471.022	3916.56
471.394	3984.36
471.766	3987.75
472.138	4086.5
472.51	4156.11
472.882	4172.6
473.253	4205.14
473.625	4314.97
473.997	4402.88
474.369	4445.36
474.74	4464.57
475.112	4562.2
475.484	4636.09
475.855	4663.21
476.227	4728.97
476.598	4893.04
476.97	4903.43
477.341	5026.14
477.713	5062.52
478.084	5084.22
478.455	5279.69
478.827	5283.76
479.198	5366.92
479.569	5424.32
479.94	5596.97
480.311	5592.23
480.682	5752.67
481.053	5861.15
481.424	5934.59
481.795	5991.09
482.166	6081.03
482.537	6238.31
482.908	6289.16
483.279	6405.99
483.65	6511.07
484.021	6625.19
484.391	6602.37
484.762	6783.83
485.133	6738.64
485.503	6892.3
485.874	7077.38
486.244	7099.98
486.615	7270.37
486.985	7340.2
487.356	7460.43
487.726	7482.35
488.097	7632.4
488.467	7663.36
488.837	7909.23
489.207	7967.53
489.578	8068.77
489.948	8148.77
490.318	8270.8
490.688	8259.73
491.058	8423.11
491.428	8553.05
491.798	8624.24
492.168	8792.37
492.538	8833.5
492.908	8880.05
493.278	9022.64
493.648	9035.53
494.017	9216.76
494.387	9329.75
494.757	9341.51
495.126	9501.05
495.496	9433.71
495.866	9603.87
496.235	9686.36
496.605	9758.9
496.974	9859.01
497.344	9943.07
497.713	10014.26
498.082	10107.81
498.452	10209.51
498.821	10257.19
499.19	10238.43
499.559	10427.13
499.928	10425.77
500.298	10494.24
500.667	10632.77
501.036	10642.49
501.405	10714.58
501.774	10773.11
502.143	10809.26
502.512	10958.19
502.88	11074.12
503.249	11023.95
503.618	11188.46
503.987	11228.01
504.356	11317.73
504.724	11366.76
505.093	11373.99
505.462	11460.09
505.83	11573.99
506.199	11635.68
506.567	11817.37
506.936	11776.24
507.304	11899.4
507.672	11992.74
508.041	12089.68
508.409	12129.91
508.777	12266.85
509.145	12401.31
509.514	12338.04
509.882	12508.88
510.25	12534.42
510.618	12666.39
510.986	12783.45
511.354	12842.2
511.722	12890.34
512.09	13106.38
512.458	13140.5
512.826	13203.55
513.193	13306.37
513.561	13325.36
513.929	13469.31
514.297	13604.22
514.664	13607.61
515.032	13783.87
515.4	13955.17
515.767	13921.95
516.135	14028.39
516.502	14095.05
516.869	14203.75
517.237	14259.34
517.604	14293.24
517.972	14469.05
518.339	14552.67
518.706	14640.8
519.073	14796.73
519.44	14871.53
519.808	14978.42
520.175	15001.92
520.542	15246.21
520.909	15280.11
521.276	15340.44
521.643	15471.29
522.009	15666.54
522.376	15792.18
522.743	15879.64
523.11	16051.16
523.477	16172.06
523.843	16209.12
524.21	16459.74
524.577	16600.07
524.943	16613.63
525.31	16795.1
525.676	16934.98
526.043	17037.35
526.409	17110.57
526.776	17351.46
527.142	17408.86
527.508	17540.16
527.874	17635.75
528.241	17664.22
528.607	17817.89
528.973	17998.91
529.339	18057.89
529.705	18264.44
530.071	18348.95
530.437	18379.46
530.803	18469.4
531.169	18674.37
531.535	18720.69
531.901	18740.81
532.267	18868.71
532.632	19010.18
532.998	19042.72
533.364	19157.97
533.73	19168.82
534.095	19413.56
534.461	19424.63
534.826	19572.65
535.192	19649.71
535.557	19829.82
535.923	19764.06
536.288	19885.64
536.653	19983.03
537.019	20016.93
537.384	20160.88
537.749	20182.12
538.114	20228.9
538.479	20323.82
538.845	20294.89
539.21	20329.47
539.575	20451.95
539.94	20632.51
540.305	20770.13
540.67	20747.76
541.034	20770.13
541.399	20945.04
541.764	21008.32
542.129	21061.88
542.494	21189.1
542.858	21210.57
543.223	21316.33
543.587	21373.28
543.952	21476.33
544.316	21521.3
544.681	21502.77
545.045	21522.43
545.41	21740.05
545.774	21824.79
546.138	21812.36
546.503	21916.54
546.867	21940.95
547.231	22189.08
547.595	22260.04
547.959	22239.47
548.324	22332.12
548.688	22316.98
549.052	22464.32
549.416	22545.9
549.779	22548.39
550.143	22669.06
550.507	22869.06
550.871	22893.69
551.235	22843.75
551.599	23047.36
551.962	23204.42
552.326	23183.4
552.689	23257.07
553.053	23251.42
553.417	23379.78
553.78	23616.84
554.143	23648.93
554.507	23663.84
554.87	23782.93
555.234	24048.46
555.597	23918.98
555.96	24101.34
556.323	24146.99
556.686	24145.86
557.05	24421.34
557.413	24435.57
557.776	24414.78
558.139	24693.64
558.502	24778.61
558.865	24787.2
559.228	24955.11
559.59	25137.7
559.953	25172.05
560.316	25509.22
560.679	25448.88
561.041	25560.51
561.404	25644.81
561.767	25818.59
562.129	25848.19
562.492	26142.42
562.854	26038.92
563.217	26070.78
563.579	26251.8
563.941	26431.23
564.304	26578.79
564.666	26674.61
565.028	26794.83
565.39	26722.74
565.753	26989.18
566.115	27157.08
566.477	27232.79
566.839	27219.68
567.201	27612.21
567.563	27555.72
567.925	27663.74
568.287	27642.72
568.648	27777.18
569.01	27910.96
569.372	28132.65
569.734	28050.84
570.095	28245.42
570.457	28391.17
570.819	28460.1
571.18	28541.45
571.542	28615.35
571.903	28640.21
572.265	28778.96
572.626	28801.79
572.987	28900.77
573.349	28906.19
573.71	29034.77
574.071	29082.91
574.432	29311.15
574.794	29662.1
575.155	29521.99
575.516	29391.6
575.877	29609.9
576.238	29630.69
576.599	29740.29
576.96	29832.04
577.32	29849.22
577.681	29912.26
578.042	30057.57
578.403	30026.84
578.763	29978.7
579.124	30077.91
579.485	30184.12
579.845	30258.02
580.206	30194.29
580.566	30122.43
580.927	30254.4
581.287	30455.98
581.648	30267.96
582.008	30468.41
582.368	30301.18
582.728	30528.52
583.089	30372.82
583.449	30363.1
583.809	30455.98
584.169	30566.71
584.529	30448.75
584.889	30772.35
585.249	30474.51
585.609	30377.79
585.969	30579.59
586.329	30663.21
586.688	30578.69
587.048	30535.3
587.408	30592.7
587.768	30574.62
588.127	30533.72
588.487	30575.3
588.846	30743.2
589.206	30586.37
589.565	30593.6
589.925	30788.63
590.284	30629.99
590.643	30639.93
591.003	30682.41
591.362	30795.63
591.721	30742.52
592.08	30676.31
592.44	30747.95
592.799	30712.02
593.158	30872.47
593.517	30729.64
593.876	30622.75
594.235	30739.81
594.593	30855.06
594.952	30780.72
595.311	30807.83
595.67	30844.44
596.029	31005.57
596.387	30991.56
596.746	31107.04
597.104	30923.31
597.463	30961.73
597.822	31033.14
598.18	30909.75
598.538	30972.58
598.897	31134.15
599.255	30847.38
599.613	31251.21
599.972	31107.71
600.33	31300.25
600.688	31101.84
601.046	31285.56
601.404	31203.53
601.762	31258.67
602.12	31427.7
602.478	31403.3
602.836	31429.06
603.194	31339.12
603.552	31374.37
603.91	31161.95
604.268	31488.72
604.625	31310.42
604.983	31555.38
605.341	31335.73
605.698	31654.59
606.056	31636.74
606.413	31477.19
606.771	31674.03
607.128	31711.31
607.485	31624.76
607.843	31496.4
608.2	31818.43
608.557	31858.43
608.914	31864.3
609.272	31880.35
609.629	31898.88
609.986	32016.62
610.343	31735.27
610.7	32149.72
611.057	32019.1
611.414	32053.45
611.771	32074.69
612.127	32179.1
612.484	31991.76
612.841	32195.59
613.198	32035.6
613.554	32158.98
613.911	32479.2
614.267	32281.69
614.624	32248.25
614.98	32348.58
615.337	32465.42
615.693	32458.86
616.05	32323.27
616.406	32535.25
616.762	32483.27
617.118	32427.68
617.475	32575.7
617.831	32700.21
618.187	32642.36
618.543	32582.7
618.899	32910.15
619.255	32698.86
619.611	32657.73
619.967	32731.85
620.323	32770.95
620.678	32727.11
621.034	32681.91
621.39	32749.03
621.746	32570.73
622.101	32904.73
622.457	32693.66
622.812	32872.86
623.168	33001.9
623.523	32786.99
623.879	32956.48
624.234	32765.97
624.589	32877.84
624.945	32802.81
625.3	33015.01
625.655	32894.11
626.01	32745.41
626.365	32794.9
626.72	32746.54
627.075	32939.3
627.43	32705.64
627.785	32700.44
628.14	32710.83
628.495	32878.06
628.85	32699.54
629.205	32711.74
629.559	32854.79
629.914	32506.32
630.269	32723.94
630.623	32534.12
630.978	32393.33
631.332	32645.75
631.687	32641.46
632.041	32523.04
632.396	32617.5
632.75	32413.22
633.104	32520.78
633.459	32356.27
633.813	32371.18
634.167	32370.73
634.521	32353.78
634.875	32319.66
635.229	32328.92
635.583	32131.19
635.937	32199.21
636.291	32020.68
636.645	32142.04
636.999	31941.82
637.352	32059.55
637.706	31890.52
638.06	31954.47
638.413	31918.99
638.767	31810.75
639.121	31937.75
639.474	31602.16
639.828	31553.58
640.181	31762.61
640.534	31629.51
640.888	31591.09
641.241	31429.74
641.594	31494.82
641.947	31477.65
642.301	31433.13
642.654	31436.97
643.007	31446.69
643.36	31391.55
643.713	31348.61
644.066	31392.23
644.419	31210.99
644.771	31123.08
645.124	30676.76
645.477	30739.36
645.83	30570.55
646.182	30316.55
646.535	30256.21
646.888	30347.73
647.24	30113.61
647.593	30348.64
647.945	30160.39
648.298	30017.12
648.65	29939.61
649.002	29977.35
649.355	30120.39
649.707	30087.85
650.059	29986.39
650.411	30421.86
650.763	30524.23
651.115	30698.01
651.467	30592.02
651.819	30712.24
652.171	30599.25
652.523	30531.23
652.875	30489.2
653.227	30360.16
653.578	30605.58
653.93	30486.03
654.282	30400.61
654.633	30160.17
654.985	30328.3
655.337	30349.31
655.688	30337.56
656.039	30395.42
656.391	30049.44
656.742	30224.8
657.094	30175.31
657.445	30064.8
657.796	30062.09
658.147	30029.1
658.498	30090.79
658.849	30092.15
659.2	30168.53
659.551	29998.82
659.902	29962.88
660.253	29932.15
660.604	30041.07
660.955	29775.54
661.306	29961.98
661.656	29944.58
662.007	29865.26
662.358	29749.56
662.708	29828.88
663.059	29919.95
663.409	29631.14
663.76	29852.6
664.11	29787.97
664.461	29857.58
664.811	29774.19
665.161	29803.57
665.511	29647.19
665.862	29770.8
666.212	29740.97
666.562	29739.16
666.912	29566.51
667.262	29687.64
667.612	29639.96
667.962	29657.13
668.312	29543.91
668.662	29787.07
669.011	29656.23
669.361	29498.26
669.711	29506.4
670.06	29525.61
670.41	29479.96
670.76	29353.41
671.109	29488.09
671.459	29379.4
671.808	29461.88
672.157	29412.62
672.507	29192.28
672.856	29297.14
673.205	29283.13
673.554	29344.14
673.904	29250.59
674.253	29392.5
674.602	29263.47
674.951	28840.88
675.3	28780.54
675.649	29248.78
675.998	29092.62
676.346	29114.09
676.695	29134.21
677.044	29012.63
677.393	29075.9
677.741	29072.29
678.09	28959.52
678.438	28798.17
678.787	28933.53
679.135	28945.06
679.484	28823.71
679.832	28921.78
680.181	28656.48
680.529	28664.84
680.877	28715.46
681.225	28604.5
681.573	28790.26
681.922	28694.9
682.27	28541.9
682.618	28368.35
682.966	28381.68
683.314	28498.52
683.661	28392.98
684.009	28170.16
684.357	28194.8
684.705	28049.94
685.053	28119.32
685.4	28125.42
685.748	27860.34
686.095	27914.58
686.443	27950.96
686.79	27817.18
687.138	27818.76
687.485	27880.91
687.832	27747.8
688.18	27691.76
688.527	27530.86
688.874	27562.72
689.221	27482.05
689.568	27430.52
689.915	27329.73
690.262	27261.49
690.609	27173.13
690.956	27107.14
691.303	27294.48
691.65	27042.06
691.997	27005.45
692.344	26847.26
692.69	26777.88
693.037	26809.97
693.383	26598.45
693.73	26799.35
694.077	26550.77
694.423	26597.55
694.769	26492.02
695.116	26420.6
695.462	26442.07
695.808	26277.78
696.155	26360.72
696.501	26066.04
696.847	26117.79
697.193	25934.74
697.539	26031.69
697.885	25825.37
698.231	25689.55
698.577	25857.23
698.923	25607.97
699.269	25520.74
699.614	25507.63
699.96	25296.79
700.306	25415.66
700.651	25319.84
700.997	25244.36
701.342	25230.81
701.688	25184.71
702.033	25060.64
702.379	25057.93
702.724	24851.83
703.069	24993.3
703.415	24717.6
703.76	24813.19
704.105	24718.95
704.45	24799.86
704.795	24481.9
705.14	24521.9
705.485	24385.86
705.83	24331.85
706.175	24315.8
706.52	24174.79
706.865	24143.83
707.209	24152.42
707.554	23970.73
707.899	24028.58
708.243	23994.23
708.588	23980.89
708.932	23701.13
709.277	23628.81
709.621	23737.51
709.966	23484.41
710.31	23586.1
710.654	23511.75
710.998	23420.46
711.342	23481.25
711.687	23485.99
712.031	23264.98
712.375	23227.02
712.719	23300.23
713.063	23249.16
713.407	23218.43
713.75	23060.24
714.094	23045.78
714.438	22871.77
714.782	22930.75
715.125	22900.02
715.469	22901.15
715.812	22749.29
716.156	22712.91
716.499	22777.08
716.843	22768.5
717.186	22536.64
717.53	22590.87
717.873	22712.45
718.216	22525.79
718.559	22447.6
718.902	22397.66
719.246	22335.74
719.589	22261.17
719.932	22185.91
720.275	22085.8
720.617	22195.18
720.96	22069.53
721.303	22094.84
721.646	22018.91
721.989	21990.44
722.331	22005.13
722.674	21941.4
723.016	21966.03
723.359	21889.42
723.701	21859.82
724.044	21813.95
724.386	21653.95
724.729	21827.28
725.071	21718.36
725.413	21673.16
725.755	21633.39
726.097	21566.04
726.439	21411.24
726.782	21394.52
727.124	21555.87
727.465	21395.88
727.807	21414.18
728.149	21251.02
728.491	21237.69
728.833	21332.38
729.175	21101.42
729.516	21154.75
729.858	21181.65
730.199	21197.01
730.541	20992.95
730.882	21086.96
731.224	21013.97
731.565	20985.04
731.906	20872.73
732.248	20898.49
732.589	20787.53
732.93	20792.05
733.271	20804.48
733.612	20772.84
733.953	20757.7
734.294	20681.77
734.635	20610.81
734.976	20643.58
735.317	20558.84
735.658	20571.49
735.999	20486.75
736.339	20468.67
736.68	20532.85
737.021	20461.21
737.361	20383.93
737.702	20483.81
738.042	20309.58
738.383	20281.33
738.723	20350.26
739.063	20339.63
739.404	20345.74
739.744	20252.41
740.084	20224.16
740.424	20214.89
740.764	20079.08
741.104	20239.3
741.444	20050.15
741.784	20063.03
742.124	19977.61
742.464	19942.36
742.804	19934
743.143	19935.8
743.483	19907.78
743.823	19699.65
744.162	19823.04
744.502	19696.94
744.841	19733.55
745.181	19694.23
745.52	19668.01
745.86	19610.84
746.199	19649.48
746.538	19684.28
746.877	19623.72
747.216	19524.74
747.556	19507.57
747.895	19498.98
748.234	19468.25
748.573	19386.44
748.911	19265.76
749.25	19311.41
749.589	19133.56
749.928	19372.43
750.267	19249.04
750.605	19123.85
750.944	19105.32
751.283	18981.48
751.621	19143.28
751.96	18930.86
752.298	18875.04
752.636	18919.79
752.975	18854.7
753.313	18805.21
753.651	18867.36
753.989	18681.15
754.327	18733.35
754.666	18621.04
755.004	18620.13
755.342	18621.94
755.679	18645.44
756.017	18499.01
756.355	18515.28
756.693	18400.48
757.031	18439.12
757.368	18321.38
757.706	18234.61
758.044	18211.78
758.381	18241.84
758.719	18248.62
759.056	18134.72
759.394	18050.2
759.731	17941.05
760.068	17882.3
760.405	17928.4
760.743	17846.59
761.08	17818.35
761.417	17760.49
761.754	17701.74
762.091	17626.26
762.428	17537.22
762.765	17437.11
763.102	17549.43
763.438	17378.58
763.775	17259.72
764.112	17450.45
764.449	17329.54
764.785	17271.47
765.122	17088.42
765.458	17015.65
765.795	17105.14
766.131	17051.81
766.467	17038.93
766.804	16907.63
767.14	16841.42
767.476	16845.49
767.812	16749.67
768.148	16773.85
768.485	16660.18
768.821	16607.76
769.157	16461.32
769.492	16571.82
769.828	16451.15
770.164	16330.25
770.5	16285.28
770.836	16284.83
771.171	16117.37
771.507	16067.43
771.842	15995.79
772.178	16031.27
772.513	15922.8
772.849	15909.47
773.184	15800.32
773.519	15855.46
773.855	15636.48
774.19	15569.82
774.525	15597.61
774.86	15662.02
775.195	15486.43
775.53	15466.99
775.865	15343.83
776.2	15305.87
776.535	15154.69
776.87	15185.87
777.205	15178.64
777.539	15076.72
777.874	15121.01
778.209	14954.24
778.543	14935.26
778.878	14884.64
779.212	14837.86
779.547	14761.93
779.881	14803.74
780.215	14662.27
780.55	14770.29
780.884	14575.04
781.218	14547.92
781.552	14523.06
781.886	14423.41
782.22	14377.31
782.554	14243.52
782.888	14168.27
783.222	14157.88
783.556	14162.62
783.889	14022.29
784.223	14070.42
784.557	14034.72
784.89	14000.37
785.224	13913.14
785.557	13815.96
785.891	13878.56
786.224	13790.43
786.558	13765.8
786.891	13613.94
787.224	13626.36
787.557	13611.22
787.891	13518.12
788.224	13483.54
788.557	13411.68
788.89	13365.58
789.223	13317.45
789.556	13253.27
789.888	13120.84
790.221	13200.84
790.554	12998.36
790.887	13104.8
791.219	13048.75
791.552	12948.19
791.884	13001.3
792.217	12876.33
792.549	12844.46
792.882	12811.92
793.214	12682.43
793.546	12672.49
793.879	12752.72
794.211	12571.25
794.543	12691.7
794.875	12585.04
795.207	12696.22
795.539	12469.79
795.871	12526.05
796.203	12417.58
796.535	12288.32
796.867	12341.65
797.198	12203.35
797.53	12289
797.862	12145.73
798.193	12272.95
798.525	12149.57
798.856	12089.23
799.188	11957.71
799.519	11985.96
799.85	11920.42
800.182	11985.28
800.513	11960.87
800.844	11826.41
801.175	11878.16
801.506	11791.84
801.837	11782.57
802.168	11618.28
802.499	11698.96
802.83	11672.07
803.161	11668.22
803.491	11576.48
803.822	11619.86
804.153	11559.53
804.483	11468.23
804.814	11397.5
805.145	11356.37
805.475	11321.79
805.805	11295.35
806.136	11352.53
806.466	11336.48
806.796	11263.94
807.126	11208.12
807.457	11142.36
807.787	11166.09
808.117	11065.98
808.447	11016.26
808.777	11009.48
809.107	11014.91
809.436	10958.41
809.766	10953.21
810.096	10921.58
810.426	10923.84
810.755	10870.73
811.085	10848.36
811.414	10795.03
811.744	10745.76
812.073	10686.78
812.403	10768.81
812.732	10663.28
813.061	10722.94
813.39	10640
813.719	10576.73
814.049	10596.61
814.378	10632.77
814.707	10475.94
815.036	10496.28
815.365	10479.1
815.693	10385.77
816.022	10387.35
816.351	10364.08
816.68	10269.62
817.008	10315.94
817.337	10217.41
817.665	10201.14
817.994	10202.5
818.322	10166.12
818.651	10157.08
818.979	10169.51
819.307	10179.9
819.636	10156.17
819.964	10136.97
820.292	10141.26
820.62	10065.33
820.948	10021.26
821.276	10057.42
821.604	10023.3
821.932	10078.89
822.259	10075.27
822.587	10024.2
822.915	10020.81
823.243	10090.19
823.57	10026.69
823.898	10091.99
824.225	9988.04
824.553	9993.24
824.88	10014.93
825.207	10006.57
825.535	10030.3
825.862	9988.72
826.189	9904.43
826.516	10015.39
826.843	10071.2
827.17	10032.34
827.497	10008.61
827.824	10021.94
828.151	10045.44
828.478	9966.12
828.805	10058.1
829.131	10022.62
829.458	9936.74
829.785	9897.65
830.111	9948.04
830.438	9964.99
830.764	9991.43
831.09	9929.51
831.417	9851.55
831.743	9942.85
832.069	9915.95
832.395	9931.09
832.722	9922.51
833.048	9856.52
833.374	9891.32
833.7	9871.89
834.026	9846.8
834.351	9842.96
834.677	9872.79
835.003	9876.41
835.329	9863.75
835.654	9812.68
835.98	9786.92
836.306	9793.92
836.631	9769.74
836.956	9763.42
837.282	9762.96
837.607	9745.11
837.932	9810.65
838.258	9719.57
838.583	9722.74
838.908	9649.29
839.233	9681.61
839.558	9653.59
839.883	9659.46
840.208	9541.73
840.533	9565.91
840.858	9578.11
841.182	9594.15
841.507	9541.95
841.832	9509.41
842.156	9438.68
842.481	9501.28
842.805	9470.54
843.13	9407.72
843.454	9439.58
843.778	9357.1
844.103	9345.8
844.427	9277.78
844.751	9307.16
845.075	9299.02
845.399	9296.54
845.723	9279.59
846.047	9308.29
846.371	9203.88
846.695	9160.95
847.019	9083.89
847.343	9087.05
847.666	8989.65
847.99	8963.44
848.313	9042.98
848.637	8938.58
848.96	8881.63
849.284	8856.77
849.607	8775.87
849.931	8783.55
850.254	8732.71
850.577	8694.74
850.9	8603.22
851.223	8643.9
851.546	8591.47
851.869	8511.7
852.192	8590.79
852.515	8527.97
852.838	8446.84
853.161	8480.06
853.483	8379.95
853.806	8390.12
854.129	8357.12
854.451	8392.83
854.774	8281.42
855.096	8216.11
855.419	8273.06
855.741	8227.64
856.063	8254.75
856.385	8204.59
856.708	8079.39
857.03	8179.28
857.352	8137.92
857.674	8062.44
857.996	8056.34
858.318	8038.04
858.64	8074.65
858.961	8021.31
859.283	7954.42
859.605	7901.54
859.926	7965.27
860.248	7930.7
860.57	7883.01
860.891	7876.69
861.212	7796.46
861.534	7864.48
861.855	7734.32
862.176	7796.46
862.498	7796.91
862.819	7793.3
863.14	7769.12
863.461	7735.67
863.782	7712.4
864.103	7734.99
864.424	7683.24
864.745	7693.64
865.065	7608.9
865.386	7538.39
865.707	7571.83
866.027	7633.08
866.348	7653.19
866.668	7603.47
866.989	7621.55
867.309	7544.94
867.63	7636.01
867.95	7515.34
868.27	7506.3
868.59	7517.15
868.91	7488.22
869.23	7467.88
869.55	7422.01
869.87	7434.66
870.19	7389.92
870.51	7470.82
870.83	7427.21
871.15	7349.69
871.469	7381.11
871.789	7404.83
872.109	7356.7
872.428	7322.58
872.748	7326.64
873.067	7362.8
873.386	7349.02
873.706	7287.55
874.025	7277.38
874.344	7280.54
874.663	7262.69
874.982	7224.73
875.301	7207.78
875.62	7180.88
875.939	7241.45
876.258	7220.21
876.577	7253.88
876.896	7178.85
877.214	7125.07
877.533	7086.88
877.852	7189.7
878.17	7169.59
878.489	7148.12
878.807	7090.27
879.125	7126.87
879.444	7093.43
879.762	7063.37
880.08	7064.96
880.398	7001.68
880.716	7011.17
881.034	6961.68
881.352	7009.36
881.67	6970.72
881.988	6997.16
882.306	6926.43
882.624	6959.42
882.941	6877.62
883.259	6855.7
883.577	6875.13
883.894	6887.33
884.212	6839.42
884.529	6909.03
884.846	6804.85
885.164	6823.15
885.481	6787
885.798	6784.96
886.115	6819.54
886.432	6744.74
886.75	6699.77
887.067	6695.02
887.383	6717.62
887.7	6703.38
888.017	6707.45
888.334	6690.5
888.651	6632.42
888.967	6629.71
889.284	6645.08
889.6	6604.18
889.917	6551.97
890.233	6511.75
890.55	6494.12
890.866	6513.11
891.182	6496.61
891.498	6497.51
891.815	6491.41
892.131	6433.33
892.447	6411.64
892.763	6377.29
893.079	6368.7
893.395	6365.31
893.71	6305.65
894.026	6356.27
894.342	6309.95
894.657	6270.63
894.973	6248.71
895.289	6236.28
895.604	6250.74
895.92	6124.64
896.235	6135.26
896.55	6151.08
896.865	6154.92
897.181	6086.68
897.496	6148.82
897.811	6111.08
898.126	6041.25
898.441	6002.84
898.756	6008.03
899.071	6017.53
899.386	5986.79
899.7	5947.24
900.015	5911.77
900.33	5893.01
900.644	5892.56
900.959	5856.85
901.273	5837.87
901.588	5822.95
901.902	5789.73
902.216	5753.13
902.531	5787.47
902.845	5792.67
903.159	5713.13
903.473	5705.44
903.787	5685.78
904.101	5612.34
904.415	5620.25
904.729	5595.84
905.042	5621.38
905.356	5568.27
905.67	5556.97
905.984	5555.39
906.297	5546.35
906.611	5470.42
906.924	5511.32
907.237	5529.18
907.551	5474.71
907.864	5435.17
908.177	5443.08
908.491	5355.85
908.804	5366.92
909.117	5335.74
909.43	5313.59
909.743	5230.43
910.056	5290.99
910.368	5261.16
910.681	5211.9
910.994	5177.32
911.307	5175.74
911.619	5179.58
911.932	5129.87
912.244	5130.32
912.557	5164.21
912.869	5084.67
913.181	5087.15
913.494	5066.36
913.806	5007.61
914.118	4981.17
914.43	4976.87
914.742	4974.16
915.054	4961.51
915.366	4937.33
915.678	4940.04
915.99	4899.14
916.302	4904.56
916.613	4806.71
916.925	4794.96
917.236	4819.82
917.548	4823.43
917.859	4782.53
918.171	4766.03
918.482	4743.66
918.794	4732.59
919.105	4726.49
919.416	4671.57
919.727	4711.35
920.038	4674.06
920.349	4613.49
920.66	4580.05
920.971	4618.47
921.282	4612.36
921.593	4537.34
921.903	4562.42
922.214	4515.87
922.525	4541.63
922.835	4473.61
923.146	4451.24
923.456	4435.19
923.767	4437.68
924.077	4478.36
924.387	4402.65
924.697	4451.24
925.008	4401.3
925.318	4322.88
925.628	4341.86
925.938	4308.42
926.248	4268.19
926.558	4300.96
926.867	4267.97
927.177	4230.23
927.487	4228.87
927.796	4178.03
928.106	4188.19
928.416	4180.06
928.725	4192.04
929.034	4131.25
929.344	4128.99
929.653	4095.54
929.962	4101.19
930.271	4088.31
930.581	4034.98
930.89	4021.19
931.199	3937.13
931.508	4005.83
931.817	3965.83
932.125	3972.16
932.434	3914.53
932.743	3949.56
933.051	3871.59
933.36	3891.25
933.669	3913.4
933.977	3884.25
934.286	3827.07
934.594	3852.16
934.902	3792.5
935.21	3792.5
935.519	3793.86
935.827	3778.04
936.135	3757.7
936.443	3718.15
936.751	3710.02
937.059	3747.3
937.367	3688.1
937.674	3698.49
937.982	3698.72
938.29	3672.05
938.597	3677.02
938.905	3662.56
939.213	3660.53
939.52	3585.05
939.827	3606.06
940.135	3584.37
940.442	3554.77
940.749	3563.35
941.056	3551.6
941.363	3492.17
941.67	3513.64
941.977	3493.98
942.284	3470.7
942.591	3458.04
942.898	3433.19
943.205	3460.98
943.511	3403.58
943.818	3430.93
944.125	3387.31
944.431	3391.38
944.738	3384.15
945.044	3338.95
945.35	3334.43
945.657	3343.25
945.963	3309.57
946.269	3304.15
946.575	3285.85
946.881	3282.46
947.187	3251.5
947.493	3259.86
947.799	3228.67
948.105	3222.8
948.41	3176.92
948.716	3161.33
949.022	3147.77
949.327	3124.95
949.633	3074.55
949.938	3085.85
950.244	3095.34
950.549	3109.13
950.854	3079.75
951.16	3065.74
951.465	3066.87
951.77	3021.9
952.075	3012.41
952.38	3046.53
952.685	3047.21
952.99	3003.82
953.294	2975.8
953.599	2983.03
953.904	2976.02
954.209	2961.11
954.513	2912.07
954.818	2924.95
955.122	2932.63
955.426	2910.26
955.731	2864.61
956.035	2857.83
956.339	2861.45
956.643	2826.65
956.948	2877.95
957.252	2843.15
957.556	2797.95
957.86	2791.62
958.163	2812.86
958.467	2789.59
958.771	2780.1
959.075	2724.5
959.378	2744.84
959.682	2736.26
959.985	2737.39
960.289	2722.24
960.592	2684.05
960.896	2677.73
961.199	2681.57
961.502	2654.9
961.805	2682.47
962.108	2640.89
962.411	2609.48
962.714	2616.26
963.017	2608.8
963.32	2600.21
963.623	2621.23
963.926	2566.99
964.228	2540.78
964.531	2553.21
964.833	2556.83
965.136	2551.18
965.438	2545.3
965.741	2502.36
966.043	2497.62
966.345	2469.14
966.648	2490.61
966.95	2491.29
967.252	2450.39
967.554	2438.41
967.856	2427.56
968.158	2416.94
968.46	2441.8
968.761	2436.15
969.063	2415.59
969.365	2410.16
969.666	2382.82
969.968	2354.12
970.269	2344.4
970.571	2355.47
970.872	2351.86
971.174	2332.42
971.475	2328.36
971.776	2294.23
972.077	2294.46
972.378	2295.82
972.679	2285.42
972.98	2283.61
973.281	2268.92
973.582	2254.91
973.883	2286.32
974.183	2234.8
974.484	2214.24
974.785	2197.96
975.085	2197.29
975.386	2230.05
975.686	2188.02
975.986	2195.7
976.287	2202.94
976.587	2153.22
976.887	2159.77
977.187	2162.94
977.487	2147.34
977.787	2109.61
978.087	2136.05
978.387	2119.55
978.687	2093.56
978.987	2102.6
979.286	2070.28
979.586	2087.23
979.885	2047.69
980.185	2043.17
980.484	2019.44
980.784	2061.25
981.083	2047.91
981.382	2014.24
981.682	2018.08
981.981	1996.84
982.28	2016.27
982.579	2002.94
982.878	2017.63
983.177	1986.44
983.475	1955.03
983.774	1968.59
984.073	1980.12
984.372	1937.18
984.67	1968.14
984.969	1938.31
985.267	1910.74
985.566	1929.5
985.864	1887.46
986.162	1875.26
986.461	1880.46
986.759	1891.53
987.057	1845.88
987.355	1865.77
987.653	1860.57
987.951	1847.92
988.249	1820.35
988.547	1830.52
988.844	1795.49
989.142	1842.49
989.44	1790.29
989.737	1811.99
990.035	1785.32
990.332	1791.42
990.63	1775.83
990.927	1771.54
991.224	1763.63
991.521	1747.58
991.819	1744.87
992.116	1728.15
992.413	1768.37
992.71	1715.04
993.006	1732.67
993.303	1686.34
993.6	1693.12
993.897	1719.11
994.193	1708.26
994.49	1697.41
994.787	1672.55
995.083	1663.97
995.379	1645.66
995.676	1649.73
995.972	1666.45
996.268	1646.79
996.565	1626.91
996.861	1614.25
997.157	1623.97
997.453	1621.93
997.749	1599.79
998.044	1590.3
998.34	1596.4
998.636	1559.11
998.932	1578.32
999.227	1573.8
999.523	1580.13
999.818	1566.34
1000.114	1541.94
1000.409	1545.78
1000.704	1527.93
1001	1518.89
1001.295	1514.14
1001.59	1515.95
1001.885	1517.53
1002.18	1498.1
1002.475	1487.25
1002.77	1458.78
1003.065	1482.28
1003.359	1433.01
1003.654	1449.74
1003.949	1444.09
1004.243	1466.23
1004.538	1459.23
1004.832	1392.34
1005.127	1401.6
1005.421	1415.84
1005.715	1405.22
1006.009	1396.86
1006.304	1389.17
1006.598	1382.39
1006.892	1368.61
1007.186	1369.96
1007.48	1354.15
1007.773	1355.5
1008.067	1368.38
1008.361	1353.24
1008.655	1316.86
1008.948	1315.05
1009.242	1314.37
1009.535	1326.58
1009.829	1289.97
1010.122	1283.64
1010.415	1282.51
1010.708	1272.57
1011.001	1284.99
1011.295	1271.66
1011.588	1237.99
1011.881	1251.55
1012.173	1253.13
1012.466	1266.69
1012.759	1220.82
1013.052	1226.92
1013.344	1242.28
1013.637	1221.49
1013.93	1198.44
1014.222	1210.42
1014.514	1195.73
1014.807	1204.09
1015.099	1200.7
1015.391	1190.08
1015.683	1164.77
1015.976	1144.21
1016.268	1165.45
1016.56	1151.21
1016.851	1160.93
1017.143	1132
1017.435	1130.87
1017.727	1151.66
1018.018	1094.49
1018.31	1124.55
1018.602	1128.16
1018.893	1121.61
1019.185	1087.03
1019.476	1083.42
1019.767	1089.29
1020.058	1089.97
1020.35	1064.89
1020.641	1061.95
1020.932	1054.49
1021.223	1055.17
1021.514	1041.61
1021.804	1041.61
1022.095	1034.61
1022.386	1021.95
1022.677	1031.22
1022.967	1013.82
1023.258	1016.53
1023.548	990.31
1023.839	999.35
1024.129	990.09
1024.419	992.12
1024.709	980.37
1025	950.09
1025.29	965.91
1025.58	979.01
1025.87	960.48
1026.16	933.59
1026.449	948.05
1026.739	948.28
1027.029	946.25
1027.319	930.88
1027.608	928.17
1027.898	927.49
1028.187	917.77
1028.477	900.15
1028.766	928.62
1029.055	916.64
1029.344	920.71
1029.634	892.69
1029.923	887.04
1030.212	884.1
1030.501	869.41
1030.79	883.65
1031.078	842.07
1031.367	849.07
1031.656	854.27
1031.945	855.63
1032.233	845.23
1032.522	831
1032.81	832.8
1033.099	842.97
1033.387	822.63
1033.675	811.79
1033.963	819.7
1034.251	831.45
1034.54	808.17
1034.828	827.15
1035.116	802.52
1035.403	790.32
1035.691	799.36
1035.979	792.13
1036.267	760.04
1036.554	767.04
1036.842	753.71
1037.129	758.23
1037.417	748.06
1037.704	762.97
1037.992	768.85
1038.279	718.23
1038.566	759.13
1038.853	759.13
1039.14	759.13
