Data from white_wall_FLMS001491_079.txt Node
Date: Tue Feb 07 11:05:46 GMT 2017
User: dcchb
Spectrometer: FLMS00149
Trigger mode: 0
Integration Time (sec): 2.000000E-2
Scans to average: 10
Electric dark correction enabled: true
Nonlinearity correction enabled: false
Boxcar width: 0
XAxis mode: Wavelengths
Number of Pixels in Spectrum: 2048
>>>>>Begin Spectral Data<<<<<
341.393	-18.95
341.776	-18.95
342.16	-18.95
342.543	-62.57
342.927	-62.12
343.31	-79.07
343.693	-63.02
344.077	-52.4
344.46	-73.42
344.843	-58.28
345.226	-42.91
345.61	-23.25
345.993	-11.95
346.376	-8.56
346.759	10.88
347.142	26.47
347.525	60.59
347.908	66.92
348.291	77.54
348.674	81.61
349.057	88.84
349.44	110.53
349.823	132.68
350.206	146.69
350.588	209.29
350.971	219.68
351.354	243.19
351.737	253.81
352.119	252.9
352.502	273.02
352.884	278.89
353.267	273.92
353.65	308.04
354.032	312.56
354.414	327.25
354.797	323.41
355.179	336.29
355.562	325.22
355.944	362.28
356.326	364.09
356.709	345.1
357.091	348.49
357.473	367.48
357.855	359.11
358.238	320.25
358.62	357.31
359.002	360.24
359.384	358.89
359.766	374.26
360.148	364.31
360.53	352.11
360.912	365.89
361.294	353.47
361.676	358.89
362.057	359.79
362.439	353.47
362.821	372.22
363.203	326.12
363.584	348.04
363.966	327.7
364.348	342.84
364.729	318.66
365.111	309.4
365.493	329.96
365.874	343.52
366.256	340.58
366.637	351.21
367.019	320.92
367.4	341.26
367.781	347.59
368.163	357.98
368.544	315.27
368.925	345.1
369.306	339.45
369.688	338.32
370.069	332.45
370.45	332.67
370.831	312.56
371.212	339.91
371.593	349.85
371.974	331.54
372.355	349.85
372.736	353.69
373.117	341.94
373.498	342.17
373.879	330.87
374.26	330.19
374.641	335.61
375.021	341.04
375.402	336.97
375.783	341.26
376.163	352.34
376.544	366.35
376.925	373.8
377.305	337.19
377.686	351.43
378.066	350.08
378.447	340.13
378.827	368.61
379.208	379.91
379.588	385.55
379.968	352.79
380.349	365.44
380.729	383.07
381.109	379.23
381.489	368.15
381.87	383.07
382.25	387.36
382.63	389.4
383.01	374.26
383.39	369.28
383.77	391.2
384.15	367.02
384.53	378.55
384.91	410.64
385.29	402.05
385.67	392.33
386.049	420.13
386.429	415.84
386.809	402.28
387.189	393.92
387.568	406.57
387.948	431.66
388.328	426.91
388.707	425.55
389.087	432.56
389.466	412.67
389.846	430.53
390.225	460.81
390.605	447.25
390.984	448.6
391.363	451.09
391.743	455.38
392.122	456.29
392.501	466.68
392.881	471.43
393.26	477.98
393.639	483.18
394.018	495.38
394.397	491.09
394.776	506.23
395.155	538.09
395.534	507.81
395.913	530.64
396.292	524.53
396.671	534.48
397.05	550.75
397.429	560.69
397.808	551.43
398.186	569.28
398.565	579
398.944	575.83
399.323	609.5
399.701	598.43
400.08	620.35
400.458	612.22
400.837	632.33
401.215	651.76
401.594	674.13
401.972	649.95
402.351	662.84
402.729	697.64
403.107	688.6
403.486	692.89
403.864	717.07
404.242	720.69
404.62	759.56
404.999	768.14
405.377	780.12
405.755	766.79
406.133	774.25
406.511	813.79
406.889	822.61
407.267	823.28
407.645	856.73
408.023	853.57
408.401	881.81
408.779	910.96
409.156	947.57
409.534	929.27
409.912	932.66
410.29	958.42
410.667	960
411.045	990.96
411.422	1009.72
411.8	992.09
412.178	1022.6
412.555	1065.99
412.933	1075.25
413.31	1096.72
413.687	1091.07
414.065	1131.98
414.442	1111.86
414.819	1150.73
415.197	1162.48
415.574	1149.38
415.951	1182.6
416.328	1192.31
416.705	1212.2
417.082	1235.48
417.46	1249.94
417.837	1246.78
418.214	1265.31
418.591	1273.44
418.967	1303.72
419.344	1290.62
419.721	1311.18
420.098	1300.11
420.475	1346.21
420.852	1365.42
421.228	1388.24
421.605	1388.69
421.982	1370.84
422.358	1402.93
422.735	1423.72
423.111	1454.68
423.488	1480.67
423.864	1478.63
424.241	1499.2
424.617	1515.69
424.994	1536.49
425.37	1559.99
425.746	1584.62
426.123	1571.96
426.499	1579.87
426.875	1622.81
427.251	1657.16
427.627	1671.62
428.003	1679.98
428.379	1674.33
428.756	1711.4
429.132	1766.54
429.507	1757.5
429.883	1790.94
430.259	1818.06
430.635	1844.05
431.011	1844.05
431.387	1924.5
431.763	1917.49
432.138	1941.22
432.514	1972.86
432.89	1984.16
433.265	2039.52
433.641	2022.57
434.016	2079.97
434.392	2092.18
434.767	2139.41
435.143	2128.79
435.518	2169.46
435.894	2224.38
436.269	2217.82
436.644	2249.23
437.02	2285.39
437.395	2274.77
437.77	2327.88
438.145	2349.57
438.52	2375.78
438.895	2439.74
439.271	2390.47
439.646	2452.39
440.021	2506.63
440.395	2518.61
440.77	2510.02
441.145	2508.89
441.52	2564.48
441.895	2564.25
442.27	2583.69
442.645	2601.99
443.019	2671.14
443.394	2651.94
443.769	2671.82
444.143	2692.16
444.518	2726.06
444.892	2729
445.267	2746.85
445.641	2797.92
446.016	2764.48
446.39	2820.52
446.764	2852.83
447.139	2854.19
447.513	2869.56
447.887	2887.18
448.262	2915.43
448.636	2924.7
449.01	2948.65
449.384	3055.09
449.758	3031.36
450.132	3065.03
450.506	3072.94
450.88	3052.83
451.254	3097.35
451.628	3160.85
452.002	3233.84
452.376	3229.32
452.75	3239.04
453.123	3359.94
453.497	3334.4
453.871	3360.17
454.244	3430.45
454.618	3457.34
454.992	3514.06
455.365	3539.82
455.739	3580.05
456.112	3652.14
456.486	3680.38
456.859	3715.86
457.232	3747.95
457.606	3779.59
457.979	3818.46
458.352	3903.2
458.725	3967.38
459.099	4026.14
459.472	4052.8
459.845	4107.04
460.218	4167.6
460.591	4188.17
460.964	4223.42
461.337	4301.61
461.71	4351.1
462.083	4439.91
462.456	4483.75
462.829	4471.55
463.201	4569.85
463.574	4580.02
463.947	4633.58
464.32	4728.04
464.692	4793.8
465.065	4771.43
465.438	4916.28
465.81	5011.87
466.183	5011.65
466.555	5107.69
466.928	5149.72
467.3	5153.34
467.672	5329.38
468.045	5441.02
468.417	5464.52
468.789	5500.9
469.161	5522.59
469.534	5650.95
469.906	5782.02
470.278	5834.68
470.65	5897.5
471.022	6030.15
471.394	6144.5
471.766	6143.82
472.138	6275.57
472.51	6395.11
472.882	6485.51
473.253	6502.23
473.625	6642.57
473.997	6820.64
474.369	6820.19
474.74	6925.95
475.112	7066.74
475.484	7184.02
475.855	7345.37
476.227	7407.74
476.598	7598.02
476.97	7667.17
477.341	7827.62
477.713	7948.29
478.084	7991
478.455	8295.4
478.827	8343.76
479.198	8583.08
479.569	8572.01
479.94	8832.56
480.311	8906.23
480.682	9120.69
481.053	9317.98
481.424	9444.75
481.795	9569.95
482.166	9738.98
482.537	9848.81
482.908	10074.11
483.279	10238.4
483.65	10409.92
484.021	10651.73
484.391	10709.35
484.762	10750.25
485.133	10944.15
485.503	11217.59
485.874	11379.84
486.244	11435.21
486.615	11674.98
486.985	11786.16
487.356	12056.89
487.726	12151.35
488.097	12396.99
488.467	12444.67
488.837	12770.54
489.207	12869.52
489.578	13093.02
489.948	13254.59
490.318	13384.08
490.688	13430.86
491.058	13619.56
491.428	13879.66
491.798	14057.06
492.168	14333.44
492.538	14349.71
492.908	14560.32
493.278	14692.3
493.648	14799.64
494.017	15047.09
494.387	15119.18
494.757	15309.68
495.126	15489.11
495.496	15565.27
495.866	15617.47
496.235	15837.8
496.605	15976.78
496.974	16026.05
497.344	16212.03
497.713	16343.1
498.082	16458.13
498.452	16714.62
498.821	16741.73
499.19	16861.96
499.559	16990.77
499.928	17211.78
500.298	17204.55
500.667	17467.37
501.036	17400.25
501.405	17609.73
501.774	17781.26
502.143	17830.29
502.512	17938.99
502.88	18200.68
503.249	18168.82
503.618	18346.89
503.987	18484.29
504.356	18655.81
504.724	18747.56
505.093	18872.07
505.462	18957.04
505.83	19174.67
506.199	19187.09
506.567	19547.31
506.936	19517.03
507.304	19833.18
507.672	19866.4
508.041	20039.5
508.409	20085.15
508.777	20436.55
509.145	20559.71
509.514	20555.87
509.882	20758.8
510.25	20899.82
510.618	20992.47
510.986	21088.51
511.354	21355.62
511.722	21477.88
512.09	21761.72
512.458	21778.44
512.826	22094.81
513.193	22054.36
513.561	22213.68
513.929	22374.36
514.297	22505.43
514.664	22794.23
515.032	22937.73
515.4	23134.79
515.767	23166.2
516.135	23344.27
516.502	23195.35
516.869	23788.78
517.237	23749.23
517.604	23800.53
517.972	24033.97
518.339	24268.77
518.706	24314.19
519.073	24520.97
519.44	24680.96
519.808	24972.25
520.175	25052.02
520.542	25343.99
520.909	25437.78
521.276	25430.77
521.643	25697.66
522.009	26050.87
522.376	26218.32
522.743	26449.95
523.11	26637.07
523.477	26870.73
523.843	26840.23
524.21	27319.54
524.577	27492.86
524.943	27611.96
525.31	27710.71
525.676	27979.18
526.043	28162
526.409	28317.48
526.776	28583.23
527.142	28734.64
527.508	29062.09
527.874	29171.46
528.241	29298.47
528.607	29395.64
528.973	29672.69
529.339	29769.87
529.705	29912.91
530.071	30310.19
530.437	30382.96
530.803	30590.41
531.169	30739.33
531.535	30775.72
531.901	30968.71
532.267	31110.85
532.632	31165.76
532.998	31390.84
533.364	31544.06
533.73	31623.83
534.095	31950.6
534.461	32053.42
534.826	32199.86
535.192	32329.35
535.557	32542
535.923	32554.2
536.288	32624.71
536.653	32874.87
537.019	32755.1
537.384	33036.67
537.749	33226.27
538.114	33287.74
538.479	33440.05
538.845	33537.45
539.21	33504.68
539.575	33777.45
539.94	33754.39
540.305	34059.02
540.67	33999.81
541.034	34174.27
541.399	34372.01
541.764	34586.69
542.129	34547.37
542.494	34635.73
542.858	34757.08
543.223	34911.43
543.587	35193
543.952	35161.82
544.316	35301.25
544.681	35354.13
545.045	35524.97
545.41	35726.55
545.774	35883.83
546.138	35921.8
546.503	36084.96
546.867	36159.53
547.231	36414.21
547.595	36519.75
547.959	36626.64
548.324	36729.01
548.688	36857.59
549.052	37041.09
549.416	37240.18
549.779	37250.12
550.143	37371.25
550.507	37672.71
550.871	37757.91
551.235	37725.14
551.599	38078.8
551.962	38215.97
552.326	38282.86
552.689	38584.78
553.053	38530.09
553.417	38615.74
553.78	39178.43
554.143	39125.1
554.507	39309.96
554.87	39465.88
555.234	39730.96
555.597	39649.83
555.96	39891.41
556.323	40094.34
556.686	40150.38
557.05	40334.56
557.413	40435.8
557.776	40538.17
558.139	41073.3
558.502	41059.06
558.865	41165.95
559.228	41563.91
559.59	41731.36
559.953	41730.91
560.316	42095.42
560.679	42156.66
561.041	42521.17
561.404	42688.17
561.767	42871.67
562.129	42827.83
562.492	43167.93
562.854	43186.92
563.217	43213.36
563.579	43521.82
563.941	43721.36
564.304	43875.71
564.666	44130.85
565.028	44220.79
565.39	44436.83
565.753	44558.63
566.115	44650.61
566.477	44873.65
566.839	44960.43
567.201	45321.77
567.563	45310.02
567.925	45520.41
568.287	45620.3
568.648	45714.31
569.01	46082.88
569.372	46152.94
569.734	46198.81
570.095	46342.76
570.457	46619.37
570.819	46633.83
571.18	46785.92
571.542	46823.43
571.903	47071.33
572.265	47197.43
572.626	47322.63
572.987	47211.67
573.349	47454.15
573.71	47629.96
574.071	47640.13
574.432	47679.23
574.794	48060.46
575.155	47980.46
575.516	47889.39
575.877	48149.5
576.238	48306.55
576.599	48430.85
576.96	48364.86
577.32	48336.38
577.681	48476.27
578.042	48666.55
578.403	48626.32
578.763	48603.95
579.124	48721.01
579.485	48789.25
579.845	49046.65
580.206	48851.63
580.566	48984.05
580.927	48908.57
581.287	49158.74
581.648	48952.64
582.008	49215.23
582.368	49069.25
582.728	49042.81
583.089	49065.63
583.449	49131.62
583.809	49180.43
584.169	49265.17
584.529	49239.64
584.889	49492.06
585.249	49219.75
585.609	49036.48
585.969	49464.04
586.329	49144.95
586.688	49323.03
587.048	49304.04
587.408	49291.84
587.768	49306.75
588.127	49240.54
588.487	49234.67
588.846	49520.99
589.206	49205.06
589.565	49323.03
589.925	49428.33
590.284	49378.84
590.643	49391.72
591.003	49568.22
591.362	49559.18
591.721	49528.22
592.08	49493.87
592.44	49545.62
592.799	49535
593.158	49509.69
593.517	49553.98
593.876	49613.41
594.235	49581.1
594.593	49473.76
594.952	49493.19
595.311	49542.45
595.67	49561.44
596.029	49697.25
596.387	49734.31
596.746	49810.02
597.104	49716.69
597.463	49667.87
597.822	49844.37
598.18	49614.54
598.538	49659.97
598.897	49892.05
599.255	49630.59
599.613	50168.43
599.972	49741.09
600.33	49904.93
600.688	49834.88
601.046	50035.55
601.404	50119.39
601.762	50049.79
602.12	50222.21
602.478	50149.22
602.836	50178.37
603.194	50053.4
603.552	50259.27
603.91	50057.47
604.268	50314.64
604.625	50091.59
604.983	50299.5
605.341	50068.99
605.698	50319.38
606.056	50503.79
606.413	50339.04
606.771	50511.69
607.128	50504.01
607.485	50340.17
607.843	50430.11
608.2	50554.41
608.557	50726.6
608.914	50532.94
609.272	50768.86
609.629	50845.25
609.986	50936.32
610.343	50796.66
610.7	50940.61
611.057	50919.82
611.414	50977.22
611.771	51009.31
612.127	51045.24
612.484	50961.63
612.841	51123.2
613.198	51050.89
613.554	51101.28
613.911	51192.58
614.267	51268.74
614.624	51199.59
614.98	51307.61
615.337	51357.77
615.693	51401.61
616.05	51360.94
616.406	51564.55
616.762	51396.64
617.118	51422.86
617.475	51533.14
617.831	51545.34
618.187	51557.54
618.543	51662.17
618.899	51779.46
619.255	51661.04
619.611	51745.33
619.967	51884.31
620.323	51860.81
620.678	51770.64
621.034	51696.75
621.39	51737.65
621.746	51693.13
622.101	52095.61
622.457	51802.06
622.812	51747.82
623.168	51954.14
623.523	51862.85
623.879	52055.38
624.234	51789.4
624.589	51925.22
624.945	51994.37
625.3	51946.68
625.655	51895.39
626.01	51927.93
626.365	51952.56
626.72	51871.43
627.075	51789.17
627.43	51887.7
627.785	51656.75
628.14	51876.4
628.495	51855.16
628.85	51869.62
629.205	51667.82
629.559	51907.36
629.914	51731.1
630.269	51783.07
630.623	51602.51
630.978	51574.94
631.332	51732.91
631.687	51839.57
632.041	51680.03
632.396	51749.85
632.75	51514.38
633.104	51526.13
633.459	51521.16
633.813	51412.69
634.167	51399.13
634.521	51350.32
634.875	51431.67
635.229	51239.36
635.583	51136.08
635.937	51200.72
636.291	51132.92
636.645	51309.19
636.999	51169.3
637.352	51216.76
637.706	51024.22
638.06	51191.22
638.413	50998.91
638.767	50973.6
639.121	51017.22
639.474	50811.8
639.828	50838.47
640.181	50854.28
640.534	50840.73
640.888	50849.76
641.241	50638.47
641.594	50683.22
641.947	50807.05
642.301	50596.44
642.654	50624.01
643.007	50594.4
643.36	50599.15
643.713	50520.96
644.066	50530.68
644.419	50420.62
644.771	50083.23
645.124	49845.5
645.477	49863.58
645.83	49565.73
646.182	49393.31
646.535	49213.42
646.888	49314.66
647.24	49161
647.593	49370.71
647.945	49219.53
648.298	48992.86
648.65	49046.2
649.002	49040.55
649.355	49135.46
649.707	48947.89
650.059	49359.86
650.411	49527.54
650.763	49605.5
651.115	49985.38
651.467	49851.6
651.819	49852.5
652.171	49750.36
652.523	49575.22
652.875	49618.38
653.227	49420.65
653.578	49757.59
653.93	49615.45
654.282	49466.3
654.633	49419.29
654.985	49455.68
655.337	49400.09
655.688	49368.67
656.039	49480.54
656.391	49211.62
656.742	49281.22
657.094	49316.7
657.445	49459.52
657.796	49307.21
658.147	49208.68
658.498	49206.19
658.849	49293.42
659.2	49095.01
659.551	49042.35
659.902	49258.62
660.253	49144.95
660.604	49205.74
660.955	48924.39
661.306	49033.77
661.656	48990.83
662.007	49001.9
662.358	48879.65
662.708	48966.42
663.059	48903.6
663.409	48579.32
663.76	48897.95
664.11	48772.76
664.461	48874.22
664.811	48858.86
665.161	48695.25
665.511	48637.39
665.862	48771.85
666.212	48786.09
666.562	48891.85
666.912	48657.28
667.262	48686.66
667.612	48660.67
667.962	48784.28
668.312	48646.88
668.662	48831.74
669.011	48686.88
669.361	48623.83
669.711	48616.15
670.06	48475.36
670.41	48427.91
670.76	48396.95
671.109	48477.4
671.459	48509.94
671.808	48297.97
672.157	48419.55
672.507	48083.74
672.856	48325.99
673.205	48231.75
673.554	48346.78
673.904	48166.22
674.253	48444.18
674.602	48131.19
674.951	47655.05
675.3	47499.8
675.649	47989.5
675.998	48060.46
676.346	47941.37
676.695	48057.52
677.044	47784.76
677.393	47997.64
677.741	48018.43
678.09	47978.43
678.438	47793.8
678.787	47933.23
679.135	47806.68
679.484	47528.04
679.832	47649.62
680.181	47421.38
680.529	47511.77
680.877	47464.54
681.225	47374.38
681.573	47610.08
681.922	47234.72
682.27	47089.19
682.618	47259.12
682.966	47203.31
683.314	47097.09
683.661	47004.22
684.009	46760.61
684.357	46660.04
684.705	46649.88
685.053	46613.94
685.4	46498.69
685.748	46344.57
686.095	46289.66
686.443	46284.01
686.79	46012.6
687.138	46303.22
687.485	46249.66
687.832	46005.6
688.18	46069.55
688.527	45823.46
688.874	45727.87
689.221	45699.17
689.568	45571.26
689.915	45520.87
690.262	45369.23
690.609	45223.7
690.956	45169.01
691.303	45176.47
691.65	45068.22
691.997	44954.55
692.344	44820.77
692.69	44789.36
693.037	44721.79
693.383	44397.96
693.73	44499.2
694.077	44276.15
694.423	44248.36
694.769	44143.27
695.116	44060.11
695.462	44142.14
695.808	43817.41
696.155	43971.08
696.501	43660.8
696.847	43566.79
697.193	43269.17
697.539	43484.76
697.885	43153.92
698.231	43040.03
698.577	42899.24
698.923	42925
699.269	42669.41
699.614	42577.89
699.96	42505.35
700.306	42433.04
700.651	42279.82
700.997	42099.71
701.342	42122.54
701.688	42089.54
702.033	41986.49
702.379	42042.31
702.724	41764.13
703.069	41763.68
703.415	41494.76
703.76	41474.42
704.105	41492.5
704.45	41259.51
704.795	41091.15
705.14	41008.67
705.485	40973.41
705.83	40891.38
706.175	40799.41
706.52	40568
706.865	40565.97
707.209	40473.31
707.554	40318.97
707.899	40522.58
708.243	40268.35
708.588	40284.17
708.932	39996.49
709.277	39940.9
709.621	39933.44
709.966	39620.23
710.31	39895.25
710.654	39487.13
710.998	39636.5
711.342	39614.58
711.687	39450.06
712.031	39260.46
712.375	39174.37
712.719	39203.97
713.063	39080.36
713.407	39213.23
713.75	39053.69
714.094	38921.72
714.438	38816.41
714.782	38831.1
715.125	38652.35
715.469	38711.1
715.812	38558.11
716.156	38383.88
716.499	38309.3
716.843	38345.23
717.186	38219.36
717.53	38266.14
717.873	38149.76
718.216	37977.79
718.559	37997.45
718.902	37710.9
719.246	37900.27
719.589	37740.73
719.932	37594.75
720.275	37486.05
720.617	37581.86
720.96	37434.75
721.303	37370.8
721.646	37448.31
721.989	37185.72
722.331	37295.32
722.674	37140.07
723.016	37244.92
723.359	37026.17
723.701	37151.82
724.044	36980.52
724.386	36863.92
724.729	36911.83
725.071	36859.62
725.413	36729.46
725.755	36646.75
726.097	36646.75
726.439	36548.45
726.782	36543.25
727.124	36660.99
727.465	36394.33
727.807	36406.3
728.149	36170.38
728.491	36122.24
728.833	36209.47
729.175	36176.7
729.516	35981.23
729.858	35991.62
730.199	35953.21
730.541	35884.06
730.882	35957.5
731.224	35779.65
731.565	35651.29
731.906	35716.83
732.248	35684.74
732.589	35403.39
732.93	35188.71
733.271	35379.44
733.612	35489.94
733.953	35421.92
734.294	35034.81
734.635	35215.37
734.976	35151.87
735.317	34966.57
735.658	34819
735.999	35045.21
736.339	35004.76
736.68	34992.78
737.021	34864.42
737.361	34797.53
737.702	34865.55
738.042	34812.9
738.383	34632.34
738.723	34662.85
739.063	34457.65
739.404	34701.49
739.744	34486.13
740.084	34320.93
740.424	34414.49
740.764	34273.93
741.104	34332.68
741.444	34158
741.784	34088.62
742.124	34207.94
742.464	34121.62
742.804	34128.17
743.143	33932.92
743.483	33958.68
743.823	33770.89
744.162	33759.14
744.502	33795.07
744.841	33618.13
745.181	33700.39
745.52	33629.65
745.86	33654.74
746.199	33699.03
746.538	33376.1
746.877	33437.57
747.216	33416.78
747.556	33387.62
747.895	33333.16
748.234	33002.55
748.573	33094.53
748.911	33113.28
749.25	33132.94
749.589	32841.88
749.928	32990.8
750.267	32999.84
750.605	32877.81
750.944	32743.12
751.283	32681.65
751.621	32651.37
751.96	32537.7
752.298	32560.3
752.636	32471.26
752.975	32344.71
753.313	32256.58
753.651	32340.19
753.989	32171.61
754.327	32126.64
754.666	31971.17
755.004	32039.41
755.342	31963.71
755.679	31919.19
756.017	31616.82
756.355	31873.99
756.693	31657.95
757.031	31559.2
757.368	31397.39
757.706	31399.88
758.044	31380.45
758.381	31343.16
758.719	31114.01
759.056	31184.52
759.394	31097.06
759.731	30732.78
760.068	30865.66
760.405	30803.06
760.743	30586.12
761.08	30695.49
761.417	30445.1
761.754	30414.6
762.091	30304.32
762.428	30260.02
762.765	30086.92
763.102	30126.02
763.438	29947.04
763.775	29925.57
764.112	29819.13
764.449	29772.35
764.785	29606.48
765.122	29459.37
765.458	29360.16
765.795	29317
766.131	29266.15
766.467	29119.71
766.804	29121.07
767.14	28981.41
767.476	28887.86
767.812	28930.79
768.148	28840.85
768.485	28686.28
768.821	28589.78
769.157	28451.71
769.492	28373.52
769.828	28253.75
770.164	27956.58
770.5	28076.58
770.836	27970.82
771.171	27816.92
771.507	27772.63
771.842	27515.69
772.178	27574.67
772.513	27479.31
772.849	27376.26
773.184	27329.48
773.519	27307.33
773.855	27088.36
774.19	26979.21
774.525	26959.55
774.86	26848.36
775.195	26748.48
775.53	26672.55
775.865	26581.25
776.2	26259.68
776.535	26206.57
776.87	26259.9
777.205	26177.87
777.539	25882.29
777.874	25962.06
778.209	25796.19
778.543	25744.66
778.878	25635.51
779.212	25682.29
779.547	25435.97
779.881	25571.56
780.215	25342.64
780.55	25227.84
780.884	25073.72
781.218	25111.91
781.552	25039.6
781.886	24912.82
782.22	24717.34
782.554	24657.91
782.888	24477.8
783.222	24372.49
783.556	24309.9
783.889	24237.36
784.223	24116.68
784.557	24122.56
784.89	24143.57
785.224	23926.86
785.557	23914.43
785.891	23795.56
786.224	23638.28
786.558	23827.42
786.891	23420.2
787.224	23423.14
787.557	23293.88
787.891	23226.54
788.224	23256.82
788.557	23225.63
788.89	23150.15
789.223	23128.69
789.556	22882.36
789.888	22817.96
790.221	22713.56
790.554	22661.81
790.887	22581.36
791.219	22580.9
791.552	22467.91
791.884	22266.11
792.217	22270.18
792.549	22208.48
792.882	22032.44
793.214	21940.92
793.546	22008.49
793.879	21865.67
794.211	21735.95
794.543	21865.44
794.875	21691.66
795.207	21779.34
795.539	21586.58
795.871	21517.88
796.203	21432.91
796.535	21306.59
796.867	21231.11
797.198	21178.91
797.53	21127.61
797.862	21060.94
798.193	21070.66
798.525	20893.94
798.856	20897.78
799.188	20683.33
799.519	20643.55
799.85	20465.25
800.182	20605.36
800.513	20550.9
800.844	20362.88
801.175	20426.84
801.506	20307.74
801.837	20256.22
802.168	20209.89
802.499	20139.84
802.83	20124.02
803.161	19993.17
803.491	19867.53
803.822	19909.56
804.153	19795.21
804.483	19659.85
804.814	19704.14
805.145	19586.41
805.475	19599.51
805.805	19493.53
806.136	19506.63
806.466	19505.28
806.796	19496.69
807.126	19382.34
807.457	19183.25
807.787	19248.56
808.117	19102.35
808.447	19085.4
808.777	19112.97
809.107	18924.95
809.436	18901
809.766	18884.5
810.096	18829.82
810.426	18809.03
810.755	18750.27
811.085	18789.14
811.414	18647.9
811.744	18503.5
812.073	18570.39
812.403	18457.17
812.732	18340.79
813.061	18331.98
813.39	18290.17
813.719	18189.83
814.049	18402.48
814.378	18212.66
814.707	18172.21
815.036	18086.11
815.365	18016.73
815.693	17907.81
816.022	17930.63
816.351	17813.8
816.68	17716.4
817.008	17722.05
817.337	17685.89
817.665	17629.4
817.994	17661.26
818.322	17672.56
818.651	17557.53
818.979	17508.95
819.307	17537.42
819.636	17529.28
819.964	17304.66
820.292	17507.36
820.62	17338.78
820.948	17342.17
821.276	17391.89
821.604	17318.89
821.932	17381.04
822.259	17293.81
822.587	17290.42
822.915	17285.22
823.243	17277.54
823.57	17241.83
823.898	17230.31
824.225	17216.3
824.553	17178.11
824.88	17219.46
825.207	17213.59
825.535	17247.94
825.862	17283.42
826.189	17097.66
826.516	17305.11
826.843	17238.9
827.17	17175.4
827.497	17280.48
827.824	17274.15
828.151	17281.16
828.478	17186.47
828.805	17316.86
829.131	17190.76
829.458	17141.05
829.785	17114.83
830.111	17086.81
830.438	17162.74
830.764	17118.67
831.09	17121.84
831.417	17083.42
831.743	17127.04
832.069	17090.88
832.395	16998.23
832.722	17112.8
833.048	17081.16
833.374	17051.33
833.7	16896.31
834.026	16969.53
834.351	17008.17
834.677	16871.9
835.003	17021.28
835.329	17092.69
835.654	16871.22
835.98	16866.03
836.306	16872.13
836.631	16890.43
836.956	16942.63
837.282	16792.58
837.607	16793.03
837.932	16675.75
838.258	16676.2
838.583	16789.19
838.908	16620.61
839.233	16631.91
839.558	16547.84
839.883	16567.73
840.208	16581.29
840.533	16557.33
840.858	16481.18
841.182	16539.03
841.507	16391.01
841.832	16255.19
842.156	16285.7
842.481	16384.46
842.805	16290.22
843.13	16226.04
843.454	16252.03
843.778	16170.9
844.103	16114.86
844.427	16092.49
844.751	16019.49
845.075	16078.25
845.399	15946.28
845.723	15791.7
846.047	15885.49
846.371	15844.81
846.695	15745.83
847.019	15605.72
847.343	15651.82
847.666	15528.89
847.99	15458.15
848.313	15396.23
848.637	15259.51
848.96	15243.24
849.284	15201.89
849.607	15173.87
849.931	15070.82
850.254	15010.03
850.577	15000.99
850.9	14819.75
851.223	14849.13
851.546	14684.61
851.869	14607.33
852.192	14710.83
852.515	14594.9
852.838	14454.11
853.161	14523.49
853.483	14450.27
853.806	14451.63
854.129	14337.5
854.451	14238.98
854.774	14266.09
855.096	14212.99
855.419	14156.49
855.741	14111.52
856.063	14083.73
856.385	13995.37
856.708	13994.69
857.03	13982.49
857.352	13963.05
857.674	13910.17
857.996	13868.59
858.318	13822.26
858.64	13758.54
858.961	13718.31
859.283	13687.13
859.605	13488.49
859.926	13636.51
860.248	13547.24
860.57	13458.88
860.891	13468.6
861.212	13400.35
861.534	13410.75
861.855	13431.54
862.176	13358.32
862.498	13300.02
862.819	13401.03
863.14	13238.32
863.461	13260.7
863.782	13152.68
864.103	13143.41
864.424	13132.34
864.745	13115.39
865.065	13043.98
865.386	12946.58
865.707	13051.44
866.027	13077.65
866.348	12950.42
866.668	12955.17
866.989	12972.57
867.309	12907.71
867.63	12933.02
867.95	12849.41
868.27	12830.65
868.59	12831.78
868.91	12814.83
869.23	12781.84
869.55	12720.37
869.87	12836.75
870.19	12740.48
870.51	12777.77
870.83	12664.1
871.15	12570.32
871.469	12653.03
871.789	12693.93
872.109	12542.75
872.428	12539.59
872.748	12556.08
873.067	12459.81
873.386	12463.43
873.706	12544.56
874.025	12420.49
874.344	12373.04
874.663	12446.93
874.982	12464.79
875.301	12422.75
875.62	12410.78
875.939	12329.65
876.258	12291.46
876.577	12241.06
876.896	12256.88
877.214	12238.35
877.533	12236.32
877.852	12218.69
878.17	12138.92
878.489	12144.57
878.807	12214.17
879.125	12145.47
879.444	12121.07
879.762	12150.9
880.08	12091.01
880.398	12037.68
880.716	12058.47
881.034	11906.38
881.352	12007.62
881.67	11940.28
881.988	11980.5
882.306	11952.03
882.624	11927.62
882.941	11854.41
883.259	11796.78
883.577	11733.51
883.894	11749.1
884.212	11737.12
884.529	11654.41
884.846	11680.17
885.164	11638.37
885.481	11533.96
885.798	11656.9
886.115	11526.5
886.432	11532.61
886.75	11486.51
887.067	11492.16
887.383	11471.82
887.7	11447.86
888.017	11391.82
888.334	11366.96
888.651	11337.13
888.967	11274.99
889.284	11269.56
889.6	11199.96
889.917	11091.94
890.233	11041.09
890.55	11129.68
890.866	11123.13
891.182	11028.66
891.498	11006.07
891.815	11000.42
892.131	10928.55
892.447	10910.48
892.763	10838.16
893.079	10884.71
893.395	10783.7
893.71	10812.63
894.026	10723.14
894.342	10723.36
894.657	10669.13
894.973	10671.16
895.289	10616.02
895.604	10632.74
895.92	10533.54
896.235	10478.85
896.55	10436.82
896.865	10458.74
897.181	10455.35
897.496	10419.64
897.811	10417.16
898.126	10370.38
898.441	10336.03
898.756	10272.75
899.071	10276.82
899.386	10209.03
899.7	10130.16
900.015	10079.09
900.33	10018.3
900.644	10071.63
900.959	9973.55
901.273	10001.12
901.588	9969.03
901.902	9857.17
902.216	9849.26
902.531	9810.84
902.845	9748.92
903.159	9757.51
903.473	9712.77
903.787	9729.49
904.101	9661.47
904.415	9675.03
904.729	9625.31
905.042	9507.35
905.356	9485.65
905.67	9477.75
905.984	9486.11
906.297	9383.51
906.611	9382.83
906.924	9329.5
907.237	9265.55
907.551	9232.78
907.864	9210.63
908.177	9183.29
908.491	9164.76
908.804	9117.08
909.117	9079.79
909.43	8994.82
909.743	9030.3
910.056	8935.16
910.368	8945.1
910.681	8954.6
910.994	8920.92
911.307	8877.99
911.619	8754.15
911.932	8823.98
912.244	8715.05
912.557	8689.07
912.869	8578.56
913.181	8630.54
913.494	8577.2
913.806	8535.4
914.118	8464.66
914.43	8460.14
914.742	8446.13
915.054	8353.93
915.366	8361.39
915.678	8324.1
915.99	8305.12
916.302	8189.87
916.613	8223.31
916.925	8134.28
917.236	8179.93
917.548	8116.88
917.859	8081.62
918.171	8014.28
918.482	8008.41
918.794	7997.11
919.105	7918.01
919.416	7896.54
919.727	7815.64
920.038	7835.08
920.349	7800.05
920.66	7687.51
920.971	7779.48
921.282	7690.9
921.593	7633.27
921.903	7602.77
922.214	7662.65
922.525	7553.5
922.835	7452.26
923.146	7436.22
923.456	7430.57
923.767	7434.18
924.077	7417.01
924.387	7389.66
924.697	7293.85
925.008	7292.94
925.318	7269.22
925.628	7303.11
925.938	7259.72
926.248	7139.73
926.558	7118.03
926.867	7127.52
927.177	7085.04
927.487	7080.07
927.796	6995.32
928.106	7032.61
928.416	6970.01
928.725	6977.25
929.034	6895.21
929.344	6857.7
929.653	6870.13
929.962	6851.15
930.271	6799.62
930.581	6829.45
930.89	6720.76
931.199	6679.63
931.508	6717.59
931.817	6688.67
932.125	6657.03
932.434	6590.14
932.743	6524.15
933.051	6498.39
933.36	6450.03
933.669	6440.99
933.977	6416.81
934.286	6402.8
934.594	6363.7
934.902	6325.96
935.21	6257.49
935.519	6357.6
935.827	6292.07
936.135	6270.15
936.443	6184.95
936.751	6172.07
937.059	6135.46
937.367	6130.71
937.674	6140.88
937.982	6081.22
938.29	6090.72
938.597	6091.39
938.905	5973.43
939.213	5968.46
939.52	5927.78
939.827	5892.98
940.135	5877.61
940.442	5858.18
940.749	5863.83
941.056	5844.39
941.363	5805.75
941.67	5809.37
941.977	5765.3
942.284	5678.97
942.591	5658.86
942.898	5662.48
943.205	5660.67
943.511	5656.38
943.818	5573.89
944.125	5542.71
944.431	5587
944.738	5584.74
945.044	5499.54
945.35	5467.91
945.657	5440.79
945.963	5439.43
946.269	5421.13
946.575	5347.01
946.881	5359.21
947.187	5304.52
947.493	5330.06
947.799	5288.02
948.105	5257.52
948.41	5202.6
948.716	5236.27
949.022	5176.39
949.327	5168.03
949.633	5085.54
949.938	5127.58
950.244	5122.61
950.549	5093.91
950.854	5066.34
951.16	5014.59
951.465	5022.95
951.77	4970.75
952.075	4977.52
952.38	4944.53
952.685	4885.1
952.99	4895.27
953.294	4879.9
953.599	4852.33
953.904	4807.36
954.209	4806.68
954.513	4856.4
954.818	4799.68
955.122	4743.18
955.426	4719.45
955.731	4717.64
956.035	4727.59
956.339	4659.79
956.643	4672.67
956.948	4648.95
957.252	4590.19
957.556	4619.57
957.86	4582.28
958.163	4559.68
958.467	4546.8
958.771	4504.09
959.075	4551.77
959.378	4491.21
959.682	4472.9
959.985	4419.57
960.289	4430.65
960.592	4390.87
960.896	4365.79
961.199	4334.6
961.502	4346.81
961.805	4341.61
962.108	4303.42
962.411	4312.68
962.714	4258
963.017	4230.65
963.32	4234.04
963.623	4215.28
963.926	4217.09
964.228	4170.77
964.531	4176.19
964.833	4130.54
965.136	4085.57
965.438	4128.51
965.741	4088.06
966.043	4075.18
966.345	4027.27
966.648	4007.61
966.95	4029.98
967.252	4005.35
967.554	4020.04
967.856	3986.82
968.158	3882.41
968.46	3932.13
968.761	3924.67
969.063	3920.38
969.365	3897.1
969.666	3841.06
969.968	3808.97
970.269	3817.78
970.571	3809.42
970.872	3770.55
971.174	3745.92
971.475	3748.18
971.776	3781.62
972.077	3699.82
972.378	3711.8
972.679	3665.24
972.98	3662.53
973.281	3634.06
973.582	3667.95
973.883	3636.09
974.183	3621.18
974.484	3623.89
974.785	3561.74
975.085	3554.29
975.386	3552.48
975.686	3503.44
975.986	3474.74
976.287	3499.82
976.587	3471.58
976.887	3442.2
977.187	3441.07
977.487	3460.95
977.787	3418.02
978.087	3403.78
978.387	3370.34
978.687	3394.06
978.987	3310.68
979.286	3335.99
979.586	3320.17
979.885	3264.35
980.185	3287.85
980.484	3253.73
980.784	3299.38
981.083	3241.98
981.382	3244.69
981.682	3216.89
981.981	3201.98
982.28	3215.08
982.579	3148.19
982.878	3180.51
983.177	3157.91
983.475	3159.95
983.774	3066.39
984.073	3118.14
984.372	3048.54
984.67	3047.18
984.969	3077.46
985.267	3026.16
985.566	3088.08
985.864	3027.52
986.162	3051.7
986.461	2989.78
986.759	2959.5
987.057	2935.32
987.355	2940.52
987.653	2944.58
987.951	2899.16
988.249	2932.83
988.547	2896.68
988.844	2912.04
989.142	2862.1
989.44	2859.16
989.737	2833.4
990.035	2812.84
990.332	2826.17
990.63	2801.54
990.927	2796.79
991.224	2802.67
991.521	2754.08
991.819	2733.06
992.116	2765.61
992.413	2730.35
992.71	2721.31
993.006	2697.36
993.303	2691.03
993.6	2717.24
993.897	2650.58
994.193	2688.55
994.49	2646.96
994.787	2615.33
995.083	2607.64
995.379	2578.49
995.676	2583.01
995.972	2544.82
996.268	2563.35
996.565	2525.39
996.861	2545.27
997.157	2532.39
997.453	2491.26
997.749	2471.15
998.044	2448.55
998.34	2462.56
998.636	2426.41
998.932	2447.42
999.227	2403.35
999.523	2419.17
999.818	2369.91
1000.114	2402
1000.409	2392.28
1000.704	2391.38
1001	2345.28
1001.295	2343.24
1001.59	2346.86
1001.885	2322.23
1002.18	2284.71
1002.475	2289.46
1002.77	2245.84
1003.065	2244.04
1003.359	2230.25
1003.654	2249.91
1003.949	2202.46
1004.243	2202.23
1004.538	2201.1
1004.832	2199.74
1005.127	2204.04
1005.421	2171.27
1005.715	2180.99
1006.009	2155.68
1006.304	2122.46
1006.598	2104.15
1006.892	2119.75
1007.186	2069.58
1007.48	2053.76
1007.773	2081.78
1008.067	2035.23
1008.361	2031.84
1008.655	2027.09
1008.948	2057.6
1009.242	2001.11
1009.535	1983.93
1009.829	2002.01
1010.122	1994.33
1010.415	1966.76
1010.708	1981.67
1011.001	1947.77
1011.295	1913.88
1011.588	1922.01
1011.881	1903.48
1012.173	1881.11
1012.466	1901.22
1012.759	1879.98
1013.052	1879.53
1013.344	1849.47
1013.637	1840.66
1013.93	1806.99
1014.222	1776.03
1014.514	1839.3
1014.807	1790.26
1015.099	1764.28
1015.391	1788
1015.683	1754.78
1015.976	1788.91
1016.268	1739.87
1016.56	1764.73
1016.851	1726.31
1017.143	1724.5
1017.435	1726.76
1017.727	1693.32
1018.018	1680.21
1018.31	1675.69
1018.602	1661.45
1018.893	1649.48
1019.185	1626.43
1019.476	1617.16
1019.767	1610.83
1020.058	1605.64
1020.35	1608.12
1020.641	1582.36
1020.932	1581.68
1021.223	1564.05
1021.514	1539.65
1021.804	1547.11
1022.095	1548.01
1022.386	1556.6
1022.677	1496.03
1022.967	1513.43
1023.258	1490.16
1023.548	1470.05
1023.839	1484.06
1024.129	1457.84
1024.419	1460.55
1024.709	1427.56
1025	1422.36
1025.29	1436.15
1025.58	1428.01
1025.87	1404.96
1026.16	1410.16
1026.449	1382.82
1026.739	1399.54
1027.029	1374.68
1027.319	1375.13
1027.608	1339.65
1027.898	1357.73
1028.187	1312.54
1028.477	1318.41
1028.766	1319.77
1029.055	1303.72
1029.344	1279.54
1029.634	1257.62
1029.923	1275.02
1030.212	1246.32
1030.501	1245.65
1030.79	1265.76
1031.078	1255.81
1031.367	1232.54
1031.656	1223.72
1031.945	1216.49
1032.233	1226.66
1032.522	1220.34
1032.81	1179.88
1033.099	1174.01
1033.387	1178.75
1033.675	1180.34
1033.963	1158.42
1034.251	1163.39
1034.54	1150.73
1034.828	1135.59
1035.116	1120.22
1035.403	1125.87
1035.691	1136.5
1035.979	1097.85
1036.267	1110.06
1036.554	1117.74
1036.842	1074.8
1037.129	1092.43
1037.417	1070.96
1037.704	1096.72
1037.992	1061.02
1038.279	1065.08
1038.566	1053.79
1038.853	1053.79
1039.14	1053.79
