Data from White_reflection_standard_FLMS001491_010.txt Node
Date: Tue Feb 07 10:31:57 GMT 2017
User: dcchb
Spectrometer: FLMS00149
Trigger mode: 0
Integration Time (sec): 2.000000E-2
Scans to average: 10
Electric dark correction enabled: true
Nonlinearity correction enabled: false
Boxcar width: 0
XAxis mode: Wavelengths
Number of Pixels in Spectrum: 2048
>>>>>Begin Spectral Data<<<<<
341.393	-0.08
341.776	-0.08
342.16	-0.08
342.543	-53.19
342.927	-77.6
343.31	-60.42
343.693	-67.2
344.077	-52.74
344.46	-65.39
344.843	-64.26
345.226	-31.72
345.61	-47.09
345.993	-30.14
346.376	5.79
346.759	-0.54
347.142	27.49
347.525	44.89
347.908	67.48
348.291	84.66
348.674	90.31
349.057	98.9
349.44	137.09
349.823	157.43
350.206	164.66
350.588	245.11
350.971	251.43
351.354	270.42
351.737	275.16
352.119	301.83
352.502	304.99
352.884	304.54
353.267	317.87
353.65	332.79
354.032	359.91
354.414	354.03
354.797	368.27
355.179	357.42
355.562	376.63
355.944	379.79
356.326	388.38
356.709	376.63
357.091	396.97
357.473	401.94
357.855	417.53
358.238	409.62
358.62	411.88
359.002	404.42
359.384	415.72
359.766	412.56
360.148	403.75
360.53	411.88
360.912	399.68
361.294	425.67
361.676	401.49
362.057	400.13
362.439	401.49
362.821	422.05
363.203	420.92
363.584	414.59
363.966	413.92
364.348	415.05
364.729	407.36
365.111	421.6
365.493	408.49
365.874	409.4
366.256	391.54
366.637	415.72
367.019	416.63
367.4	411.2
367.781	416.4
368.163	411.88
368.544	415.05
368.925	447.14
369.306	441.26
369.688	416.85
370.069	414.37
370.45	431.99
370.831	427.25
371.212	425.44
371.593	446.46
371.974	441.03
372.355	425.67
372.736	431.99
373.117	442.39
373.498	434.25
373.879	440.36
374.26	439
374.641	405.1
375.021	449.62
375.402	467.7
375.783	478.77
376.163	506.34
376.544	508.15
376.925	489.17
377.305	507.92
377.686	490.3
378.066	502.95
378.447	500.47
378.827	493.24
379.208	504.76
379.588	514.93
379.968	510.18
380.349	515.38
380.729	520.81
381.109	545.89
381.489	530.07
381.87	544.08
382.25	533.91
382.63	556.06
383.01	543.4
383.39	554.25
383.77	575.04
384.15	598.77
384.53	580.92
384.91	589.05
385.29	593.35
385.67	596.74
386.049	602.61
386.429	617.98
386.809	612.55
387.189	664.08
387.568	628.15
387.948	602.84
388.328	641.03
388.707	653.23
389.087	637.19
389.466	660.24
389.846	654.59
390.225	669.5
390.605	674.47
390.984	690.74
391.363	704.76
391.743	697.75
392.122	719.44
392.501	729.16
392.881	764.64
393.26	747.92
393.639	753.79
394.018	761.48
394.397	776.84
394.776	796.96
395.155	781.36
395.534	793.11
395.913	820.01
396.292	815.94
396.671	821.59
397.05	844.41
397.429	824.75
397.808	842.15
398.186	877.63
398.565	869.72
398.944	871.53
399.323	889.38
399.701	864.07
400.08	880.12
400.458	903.17
400.837	919.67
401.215	930.06
401.594	932.77
401.972	937.07
402.351	963.51
402.729	993.34
403.107	986.78
403.486	986.1
403.864	1007.8
404.242	1006.44
404.62	1019.32
404.999	1034.46
405.377	1041.7
405.755	1070.85
406.133	1101.58
406.511	1064.52
406.889	1090.73
407.267	1115.37
407.645	1140.68
408.023	1147.23
408.401	1145.2
408.779	1196.95
409.156	1207.57
409.534	1225.87
409.912	1212.31
410.29	1242.14
410.667	1255.48
411.045	1283.5
411.422	1287.57
411.8	1307
412.178	1324.17
412.555	1336.15
412.933	1349.26
413.31	1389.26
413.687	1404.62
414.065	1398.3
414.442	1394.91
414.819	1431.06
415.197	1461.57
415.574	1478.52
415.951	1515.13
416.328	1504.06
416.705	1531.63
417.082	1492.08
417.46	1577.05
417.837	1566.65
418.214	1608.46
418.591	1608.23
418.967	1616.37
419.344	1652.53
419.721	1669.25
420.098	1663.15
420.475	1720.55
420.852	1721.23
421.228	1761.9
421.605	1737.27
421.982	1774.56
422.358	1784.5
422.735	1801.22
423.111	1803.48
423.488	1833.09
423.864	1857.49
424.241	1881.45
424.617	1909.02
424.994	1937.72
425.37	1938.85
425.746	1963.93
426.123	1959.41
426.499	1988.79
426.875	2045.96
427.251	2066.3
427.627	2102.23
428.003	2141.78
428.379	2122.12
428.756	2171.84
429.132	2167.99
429.507	2247.31
429.883	2252.06
430.259	2291.83
430.635	2347.88
431.011	2352.17
431.387	2432.39
431.763	2452.51
432.138	2438.04
432.514	2510.81
432.89	2520.53
433.265	2560.07
433.641	2586.97
434.016	2599.39
434.392	2635.33
434.767	2741.31
435.143	2706.96
435.518	2742.22
435.894	2809.33
436.269	2841.42
436.644	2883.23
437.02	2872.16
437.395	2908.77
437.77	2942.21
438.145	2985.83
438.52	3034.41
438.895	3048.65
439.271	3058.59
439.646	3173.62
440.021	3155.76
440.395	3159.61
440.77	3152.6
441.145	3191.92
441.52	3260.39
441.895	3266.04
442.27	3332.03
442.645	3307.17
443.019	3325.7
443.394	3367.96
443.769	3446.38
444.143	3364.12
444.518	3465.36
444.892	3466.49
445.267	3514.4
445.641	3544.23
446.016	3541.74
446.39	3591.91
446.764	3594.85
447.139	3632.14
447.513	3648.18
447.887	3677.56
448.262	3712.36
448.636	3697.67
449.01	3801.62
449.384	3818.57
449.758	3849.31
450.132	3888.63
450.506	3923.88
450.88	3958
451.254	3957.78
451.628	4038
452.002	4122.74
452.376	4139.47
452.75	4137.89
453.123	4184.89
453.497	4248.62
453.871	4275.28
454.244	4355.73
454.618	4411.78
454.992	4467.14
455.365	4506.01
455.739	4551.43
456.112	4628.95
456.486	4686.57
456.859	4712.33
457.232	4841.14
457.606	4835.95
457.979	4904.87
458.352	4947.36
458.725	5020.35
459.099	5071.19
459.472	5159.55
459.845	5197.29
460.218	5253.34
460.591	5301.02
460.964	5352.09
461.337	5485.19
461.71	5596.38
462.083	5667.11
462.456	5711.4
462.829	5710.5
463.201	5808.35
463.574	5858.97
463.947	5881.34
464.32	6049.93
464.692	6077.72
465.065	6123.14
465.438	6229.58
465.81	6280.2
466.183	6378.96
466.555	6469.8
466.928	6577.82
467.3	6544.83
467.672	6685.16
468.045	6845.16
468.417	6881.99
468.789	6972.39
469.161	7009.67
469.534	7184.81
469.906	7312.94
470.278	7335.77
470.65	7449.89
471.022	7637
471.394	7811.01
471.766	7778.92
472.138	7932.81
472.51	8099.36
472.882	8218.91
473.253	8269.53
473.625	8459.58
473.997	8644.21
474.369	8677.2
474.74	8756.97
475.112	8949.06
475.484	9080.35
475.855	9256.85
476.227	9301.14
476.598	9651.19
476.97	9639.66
477.341	9910.62
477.713	10120.78
478.084	10089.37
478.455	10437.38
478.827	10500.66
479.198	10838.95
479.569	10809.35
479.94	11140.41
480.311	11222.9
480.682	11506.05
481.053	11751.24
481.424	11968.87
481.795	12116.66
482.166	12287.05
482.537	12416.31
482.908	12682.52
483.279	12793.93
483.65	13027.37
484.021	13340.58
484.391	13489.28
484.762	13576.96
485.133	13754.13
485.503	13865.99
485.874	14266.21
486.244	14384.17
486.615	14627.55
486.985	14741.9
487.356	15044.27
487.726	15147.99
488.097	15532.84
488.467	15549.11
488.837	15969.89
489.207	16056.22
489.578	16335.53
489.948	16507.5
490.318	16763.99
490.688	16741.17
491.058	17084.66
491.428	17195.62
491.798	17479.23
492.168	17820.92
492.538	17910.18
492.908	18079.44
493.278	18269.72
493.648	18329.6
494.017	18507
494.387	18859.08
494.757	18929.14
495.126	19110.15
495.496	19276.92
495.866	19395.34
496.235	19531.61
496.605	19650.92
496.974	19915.1
497.344	20051.37
497.713	20092.49
498.082	20430.79
498.452	20594.18
498.821	20664.91
499.19	20658.81
499.559	20950.78
499.928	21076.42
500.298	21287.94
500.667	21499.01
501.036	21484.1
501.405	21762.05
501.774	21816.74
502.143	21944.2
502.512	22064.42
502.88	22395.48
503.249	22323.17
503.618	22604.74
503.987	22637.74
504.356	22756.61
504.724	22915.7
505.093	23092.19
505.462	23178.06
505.83	23402.69
506.199	23536.02
506.567	23888.1
506.936	23762.23
507.304	24157.25
507.672	24311.14
508.041	24400.86
508.409	24598.59
508.777	24773.5
509.145	24997.22
509.514	24941.63
509.882	25123.77
510.25	25358.34
510.618	25532.8
510.986	25625.23
511.354	25982.73
511.722	26241.71
512.09	26453.91
512.458	26424.08
512.826	26672.21
513.193	26754.24
513.561	26910.17
513.929	27269.48
514.297	27407.56
514.664	27694.55
515.032	27671.28
515.4	27962.34
515.767	28156.46
516.135	28163.69
516.502	28186.97
516.869	28798.25
517.237	28844.58
517.604	28772.49
517.972	29189.66
518.339	29413.83
518.706	29575.18
519.073	29678.91
519.44	29875.97
519.808	30308.5
520.175	30289.51
520.542	30642.05
520.909	30819.67
521.276	30883.4
521.643	31237.29
522.009	31420.33
522.376	31891.73
522.743	31902.58
523.11	32323.59
523.477	32501.89
523.843	32662.56
524.21	33062.77
524.577	33290.79
524.943	33503.67
525.31	33628.18
525.676	34018.68
526.043	34079.47
526.409	34263.2
526.776	34756.52
527.142	34835.84
527.508	35089.84
527.874	35234.92
528.241	35554.69
528.607	35659.54
528.973	36006.65
529.339	36022.02
529.705	36323.48
530.071	36638.5
530.437	36776.35
530.803	37049.79
531.169	37295.43
531.535	37312.38
531.901	37375.43
532.267	37479.38
532.632	37756.44
532.998	38010.22
533.364	38153.04
533.73	38272.13
534.095	38668.73
534.461	38686.81
534.826	38943.3
535.192	39064.42
535.557	39324.98
535.923	39407.92
536.288	39617.63
536.653	39712.09
537.019	39690.85
537.384	40039.99
537.749	40078.86
538.114	40203.6
538.479	40406.08
538.845	40621.22
539.21	40482.24
539.575	40745.51
539.94	40840.2
540.305	41162.22
540.67	41084.71
541.034	41288.1
541.399	41460.75
541.764	41527.86
542.129	41764.24
542.494	41851.02
542.858	42048.98
543.223	42042.88
543.587	42198.58
543.952	42275.41
544.316	42443.09
544.681	42451.45
545.045	42905
545.41	42839.69
545.774	43115.84
546.138	43147.93
546.503	43287.82
546.867	43329.85
547.231	43918.99
547.595	43698.65
547.959	43865.2
548.324	43886.9
548.688	44132.77
549.052	44227
549.416	44414.79
549.779	44400.33
550.143	44535.02
550.507	44853.65
550.871	44965.96
551.235	44929.58
551.599	45362.34
551.962	45351.49
552.326	45549.23
552.689	45815.43
553.053	45543.12
553.417	45807.75
553.78	46355.31
554.143	46229.89
554.507	46407.06
554.87	46539.03
555.234	46873.71
555.597	46753.94
555.96	46967.49
556.323	47068.06
556.686	47202.06
557.05	47508.5
557.413	47567.48
557.776	47625.78
558.139	47905.77
558.502	48102.15
558.865	48138.08
559.228	48441.58
559.59	48542.59
559.953	48642.25
560.316	49040.43
560.679	48962.02
561.041	49125.86
561.404	49469.35
561.767	49549.57
562.129	49636.8
562.492	49966.51
562.854	49916.57
563.217	50006.06
563.579	50278.59
563.941	50428.87
564.304	50478.59
564.666	50700.28
565.028	50880.84
565.39	50957.22
565.753	51092.13
566.115	51204.44
566.477	51409.18
566.839	51568.95
567.201	51658.44
567.563	51743.41
567.925	51871.32
568.287	52019.34
568.648	52018.43
569.01	52205.1
569.372	52331.65
569.734	52321.25
570.095	52591.75
570.457	52682.37
570.819	52794.46
571.18	52807.57
571.542	52967.34
571.903	53052.31
572.265	53061.8
572.626	53213.88
572.987	53265.86
573.349	53419.98
573.71	53503.14
574.071	53509.92
574.432	53593.99
574.794	53870.59
575.155	53823.36
575.516	53836.47
575.877	53883.7
576.238	53965.28
576.599	54051.6
576.96	54171.37
577.32	54144.03
577.681	54269.22
578.042	54274.87
578.403	54327.07
578.763	54285.95
579.124	54400.07
579.485	54523.91
579.845	54525.71
580.206	54538.82
580.566	54512.61
580.927	54558.25
581.287	54721.87
581.648	54602.32
582.008	54730.23
582.368	54603.23
582.728	54772.71
583.089	54685.26
583.449	54669.89
583.809	54751.02
584.169	54798.93
584.529	54760.96
584.889	54965.02
585.249	54804.58
585.609	54660.85
585.969	54795.31
586.329	54817
586.688	54802.99
587.048	54837.34
587.408	54777.01
587.768	54819.49
588.127	54804.35
588.487	54715.76
588.846	55001.41
589.206	54753.28
589.565	54849.77
589.925	54952.82
590.284	54825.82
590.643	54869.43
591.003	54957.79
591.362	55064.91
591.721	54847.74
592.08	54966.83
592.44	54947.85
592.799	55005.7
593.158	54993.05
593.517	54861.98
593.876	54950.56
594.235	54929.32
594.593	54962.31
594.952	55074.63
595.311	54958.7
595.67	55030.11
596.029	55263.09
596.387	55191.01
596.746	55204.11
597.104	55039.82
597.463	55093.38
597.822	55263.32
598.18	55071.69
598.538	55068.07
598.897	55264.9
599.255	55028.98
599.613	55463.32
599.972	55247.28
600.33	55312.81
600.688	55188.75
601.046	55376.54
601.404	55425.35
601.762	55359.36
602.12	55519.36
602.478	55466.93
602.836	55497.89
603.194	55370.66
603.552	55435.29
603.91	55390.55
604.268	55573.6
604.625	55420.83
604.983	55577.66
605.341	55359.82
605.698	55550.09
606.056	55721.16
606.413	55532.92
606.771	55730.2
607.128	55720.26
607.485	55614.05
607.843	55694.72
608.2	55834.83
608.557	55938.11
608.914	55786.47
609.272	55904.43
609.629	56019.01
609.986	56061.27
610.343	55867.82
610.7	56099.01
611.057	56066.24
611.414	56015.17
611.771	55986.92
612.127	56113.24
612.484	56141.26
612.841	56281.83
613.198	56096.97
613.554	56180.13
613.911	56291.54
614.267	56340.13
614.624	56240.47
614.98	56286.34
615.337	56387.81
615.693	56337.64
616.05	56342.16
616.406	56460.8
616.762	56350.52
617.118	56419.67
617.475	56388.94
617.831	56451.76
618.187	56520.46
618.543	56460.8
618.899	56589.61
619.255	56526.79
619.611	56507.81
619.967	56614.92
620.323	56695.37
620.678	56526.11
621.034	56539.45
621.39	56499.22
621.746	56461.48
622.101	56753.23
622.457	56547.81
622.812	56649.5
623.168	56613.79
623.523	56623.96
623.879	56727.24
624.234	56496.28
624.589	56598.88
624.945	56664.41
625.3	56606.79
625.655	56601.36
626.01	56662.38
626.365	56692.66
626.72	56648.82
627.075	56597.75
627.43	56531.76
627.785	56509.62
628.14	56590.97
628.495	56616.51
628.85	56536.73
629.205	56453.57
629.559	56587.35
629.914	56475.72
630.269	56507.58
630.623	56359.56
630.978	56395.95
631.332	56450.63
631.687	56526.34
632.041	56315.72
632.396	56419.45
632.75	56340.13
633.104	56306.46
633.459	56257.65
633.813	56198.89
634.167	56192.34
634.521	56140.36
634.875	56159.34
635.229	56139.46
635.583	55983.08
635.937	55937.43
636.291	55948.95
636.645	55919.35
636.999	55896.3
637.352	55975.62
637.706	55816.3
638.06	55902.85
638.413	55810.43
638.767	55708.05
639.121	55785.57
639.474	55621.96
639.828	55716.64
640.181	55696.98
640.534	55655.4
640.888	55587.83
641.241	55399.59
641.594	55497.89
641.947	55487.04
642.301	55452.69
642.654	55466.25
643.007	55389.65
643.36	55372.02
643.713	55397.33
644.066	55429.19
644.419	55145.58
644.771	55023.1
645.124	54730.23
645.477	54667.4
645.83	54504.02
646.182	54361.2
646.535	54318.71
646.888	54339.96
647.24	54171.6
647.593	54407.07
647.945	54289.56
648.298	54142.67
648.65	54073.97
649.002	53994.43
649.355	54151.03
649.707	54067.19
650.059	54111.71
650.411	54453.62
650.763	54458.82
651.115	54751.7
651.467	54638.7
651.819	54605.71
652.171	54585.15
652.523	54524.13
652.875	54527.07
653.227	54407.07
653.578	54522.55
653.93	54493.62
654.282	54316.91
654.633	54215.89
654.985	54254.53
655.337	54283.01
655.688	54275.32
656.039	54372.72
656.391	53988.1
656.742	54158.04
657.094	54108.1
657.445	54193.29
657.796	54118.94
658.147	54074.2
658.498	54086.85
658.849	54119.17
659.2	54014.54
659.551	53895
659.902	54086.85
660.253	54045.27
660.604	54032.84
660.955	53919.85
661.306	53898.84
661.656	53875.56
662.007	53846.86
662.358	53906.07
662.708	53892.28
663.059	53844.38
663.409	53656.13
663.76	53801.66
664.11	53820.65
664.461	53837.37
664.811	53759.18
665.161	53736.36
665.511	53615
665.862	53627.88
666.212	53850.02
666.562	53756.47
666.912	53635.57
667.262	53596.47
667.612	53695
667.962	53622.46
668.312	53590.37
668.662	53676.02
669.011	53576.36
669.361	53457.94
669.711	53449.58
670.06	53389.25
670.41	53444.84
670.76	53311.28
671.109	53515.34
671.459	53416.14
671.808	53333.43
672.157	53363.03
672.507	53139.76
672.856	53195.13
673.205	53269.48
673.554	53271.06
673.904	53136.37
674.253	53368.46
674.602	53214.34
674.951	52776.83
675.3	52588.36
675.649	53114
675.998	53007.56
676.346	53006.43
676.695	53192.19
677.044	52822.93
677.393	52965.3
677.741	52962.14
678.09	52907.9
678.438	52764.63
678.787	52888.47
679.135	52885.98
679.484	52691.86
679.832	52819.32
680.181	52525.77
680.529	52711.75
680.877	52549.95
681.225	52576.84
681.573	52657.06
681.922	52458.65
682.27	52370.29
682.618	52332.32
682.966	52276.51
683.314	52329.84
683.661	52170.07
684.009	52078.09
684.357	51978.66
684.705	51878.55
685.053	51912.22
685.4	51962.84
685.748	51760.81
686.095	51726.92
686.443	51538
686.79	51553.59
687.138	51614.38
687.485	51608.05
687.832	51528.05
688.18	51409.64
688.527	51204.9
688.874	51361.28
689.221	51161.51
689.568	51011.91
689.915	50972.59
690.262	51021.17
690.609	50875.41
690.956	50673.16
691.303	50733.5
691.65	50545.93
691.997	50584.35
692.344	50404.47
692.69	50286.5
693.037	50380.51
693.383	49978.94
693.73	50117.92
694.077	49849.9
694.423	49846.06
694.769	49713.86
695.116	49594.09
695.462	49611.04
695.808	49452.17
696.155	49421.89
696.501	49287.21
696.847	49279.07
697.193	48927.44
697.539	49017.84
697.885	48776.71
698.231	48773.77
698.577	48616.72
698.923	48573.78
699.269	48387.8
699.614	48216.27
699.96	48141.47
700.306	48143.28
700.651	47983.74
700.997	47884.53
701.342	47899.67
701.688	47841.37
702.033	47736.51
702.379	47668.27
702.724	47473.92
703.069	47616.74
703.415	47139.01
703.76	47134.5
704.105	47142.4
704.45	46854.73
704.795	46730.89
705.14	46696.54
705.485	46684.11
705.83	46545.58
706.175	46411.58
706.52	46338.13
706.865	46236.44
707.209	46118.93
707.554	46019.72
707.899	46095.43
708.243	45839.84
708.588	45824.02
708.932	45555.78
709.277	45389.46
709.621	45523.92
709.966	45150.37
710.31	45314.88
710.654	44899.53
710.998	45076.24
711.342	45123.7
711.687	44904.72
712.031	44786.53
712.375	44674.9
712.719	44540.44
713.063	44571.62
713.407	44700.66
713.75	44460.44
714.094	44288.24
714.438	44193.56
714.782	44103.39
715.125	44014.8
715.469	44209.37
715.812	43857.52
716.156	43662.04
716.499	43740.23
716.843	43681.7
717.186	43525.1
717.53	43691.42
717.873	43488.94
718.216	43386.57
718.559	43196.97
718.902	42984.55
719.246	43169.18
719.589	42925.79
719.932	42722.41
720.275	42876.53
720.617	42821.61
720.96	42551.56
721.303	42580.04
721.646	42705.23
721.989	42263.66
722.331	42417.78
722.674	42364.9
723.016	42335.53
723.359	42209.88
723.701	42207.84
724.044	41926.95
724.386	41842.88
724.729	41985.7
725.071	41871.81
725.413	41721.53
725.755	41645.6
726.097	41608.31
726.439	41328.55
726.782	41465.04
727.124	41535.55
727.465	41254.88
727.807	41176.01
728.149	41157.03
728.491	41009.01
728.833	41166.74
729.175	41014.66
729.516	40867.99
729.858	40841.78
730.199	40872.06
730.541	40562.92
730.882	40711.61
731.224	40802.23
731.565	40572.86
731.906	40538.96
732.248	40519.75
732.589	40258.29
732.93	40099.88
733.271	40293.77
733.612	40322.47
733.953	40272.98
734.294	40056.94
734.635	40127.67
734.976	39941.46
735.317	39857.17
735.658	39627.57
735.999	39729.94
736.339	39648.36
736.68	39713.67
737.021	39588.48
737.361	39396.85
737.702	39510.97
738.042	39300.58
738.383	39180.35
738.723	39345.55
739.063	39217.42
739.404	39180.81
739.744	39148.72
740.084	38907.82
740.424	39074.37
740.764	38636.64
741.104	39012.67
741.444	38685.9
741.784	38667.37
742.124	38711.21
742.464	38677.99
742.804	38573.82
743.143	38554.16
743.483	38382.18
743.823	38262.86
744.162	38342.64
744.502	38134.51
744.841	38175.41
745.181	38223.32
745.52	38002.08
745.86	38020.61
746.199	37933.83
746.538	37879.6
746.877	37902.65
747.216	37802.09
747.556	37591.7
747.895	37720.28
748.234	37553.28
748.573	37462.89
748.911	37483.45
749.25	37374.75
749.589	37260.86
749.928	37294.53
750.267	37345.37
750.605	37115.1
750.944	37079.84
751.283	36845.05
751.621	36898.38
751.96	36613.64
752.298	36716.46
752.636	36591.95
752.975	36577.03
753.313	36399.64
753.651	36405.06
753.989	36223.6
754.327	36145.86
754.666	36122.13
755.004	36117.38
755.342	36076.48
755.679	35916.48
756.017	35658.19
756.355	35808.69
756.693	35606.21
757.031	35678.07
757.368	35369.38
757.706	35391.53
758.044	35249.84
758.381	35203.06
758.719	35148.37
759.056	35022.05
759.394	34837.64
759.731	34684.88
760.068	34735.27
760.405	34422.96
760.743	34576.63
761.08	34442.63
761.417	34262.07
761.754	34269.07
762.091	34083.54
762.428	34001.28
762.765	33873.6
763.102	33840.38
763.438	33701.63
763.775	33687.84
764.112	33606.04
764.449	33533.04
764.785	33397.46
765.122	33220.74
765.458	33060.97
765.795	32896.23
766.131	33035.43
766.467	32808.54
766.804	32677.25
767.14	32529.46
767.476	32448.55
767.812	32326.97
768.148	32368.1
768.485	32135.79
768.821	31963.37
769.157	31875.46
769.492	31924.73
769.828	31807.44
770.164	31382.59
770.5	31509.6
770.836	31463.49
771.171	31251.07
771.507	31218.76
771.842	30927.46
772.178	31065.54
772.513	30929.5
772.849	30775.83
773.184	30681.59
773.519	30615.16
773.855	30414.26
774.19	30295.84
774.525	30191.44
774.86	30157.99
775.195	29947.6
775.53	29887.49
775.865	29893.82
776.2	29565.47
776.535	29489.31
776.87	29514.62
777.205	29319.82
777.539	29259.03
777.874	29193.95
778.209	28915.31
778.543	28965.48
778.878	28691.36
779.212	28710.12
779.547	28653.4
779.881	28576.79
780.215	28360.07
780.55	28483.46
780.884	28269.68
781.218	28174.09
781.552	28197.82
781.886	28105.16
782.22	27892.97
782.554	27707.89
782.888	27515.35
783.222	27338.18
783.556	27325.07
783.889	27143.61
784.223	26925.31
784.557	27026.32
784.89	27011.86
785.224	26954.91
785.557	26872.43
785.891	26756.5
786.224	26547.01
786.558	26534.81
786.891	26295.95
787.224	26091.66
787.557	26155.84
787.891	26111.77
788.224	26022.96
788.557	25963.3
788.89	25920.14
789.223	25885.79
789.556	25608.73
789.888	25631.33
790.221	25436.99
790.554	25241.96
790.887	25262.08
791.219	25264.11
791.552	25115.87
791.884	25082.19
792.217	25002.87
792.549	24816.21
792.882	24658.48
793.214	24708.42
793.546	24687.4
793.879	24462.55
794.211	24345.04
794.543	24394.53
794.875	24363.79
795.207	24350.69
795.539	24152.5
795.871	24212.61
796.203	23969.45
796.535	23871.15
796.867	23690.37
797.198	23844.26
797.53	23715
797.862	23556.58
798.193	23611.5
798.525	23397.49
798.856	23468.22
799.188	23184.84
799.519	23087.22
799.85	22995.47
800.182	23066.2
800.513	23004.73
800.844	22767.68
801.175	22849.71
801.506	22832.76
801.837	22671.86
802.168	22635.48
802.499	22566.78
802.83	22418.99
803.161	22405.88
803.491	22338.99
803.822	22304.64
804.153	22264.41
804.483	22073.46
804.814	21937.64
805.145	21936.06
805.475	22006.12
805.805	21920.02
806.136	21830.98
806.466	21849.28
806.796	21797.99
807.126	21574.49
807.457	21431.44
807.787	21534.94
808.117	21469.18
808.447	21342.18
808.777	21520.93
809.107	21219.7
809.436	21291.11
809.766	21197.78
810.096	21102.86
810.426	20960.27
810.755	21053.37
811.085	20952.13
811.414	20869.42
811.744	20720.5
812.073	20645.7
812.403	20733.16
812.732	20557.11
813.061	20440.51
813.39	20443.9
813.719	20407.97
814.049	20531.8
814.378	20433.5
814.707	20320.96
815.036	20172.04
815.365	20016.11
815.693	19997.81
816.022	19992.61
816.351	19960.52
816.68	19774.31
817.008	19853.4
817.337	19759.17
817.665	19677.14
817.994	19794.42
818.322	19652.05
818.651	19548.33
818.979	19627.2
819.307	19632.39
819.636	19466.75
819.964	19396.24
820.292	19457.03
820.62	19422.68
820.948	19371.61
821.276	19462
821.604	19439.4
821.932	19343.81
822.259	19369.8
822.587	19317.15
822.915	19261.78
823.243	19347.66
823.57	19220.2
823.898	19281.89
824.225	19320.99
824.553	19288.67
824.88	19352.63
825.207	19393.98
825.535	19207.55
825.862	19322.8
826.189	19235.57
826.516	19291.84
826.843	19252.06
827.17	19293.42
827.497	19288.9
827.824	19185.17
828.151	19244.83
828.478	19183.14
828.805	19334.55
829.131	19262.46
829.458	19140.65
829.785	19148.11
830.111	19137.27
830.438	19286.19
830.764	19214.55
831.09	19181.56
831.417	19129.36
831.743	19213.2
832.069	19147.21
832.395	18980.43
832.722	19093.88
833.048	19104.05
833.374	19110.6
833.7	18999.87
834.026	18982.69
834.351	18957.61
834.677	18944.73
835.003	19022.69
835.329	18904.05
835.654	18859.98
835.98	18851.17
836.306	18816.14
836.631	18808.91
836.956	18760.78
837.282	18821.12
837.607	18751.51
837.932	18692.76
838.258	18722.13
838.583	18684.17
838.908	18503.38
839.233	18543.16
839.558	18477.85
839.883	18428.36
840.208	18415.02
840.533	18450.96
840.858	18334.35
841.182	18367.57
841.507	18377.96
841.832	18238.53
842.156	18179.1
842.481	18130.74
842.805	18156.95
843.13	18068.82
843.454	18070.17
843.778	18063.17
844.103	17998.99
844.427	17827.7
844.751	17961.93
845.075	17832.89
845.399	17813.23
845.723	17692.56
846.047	17752.22
846.371	17523.07
846.695	17594.71
847.019	17463.86
847.343	17464.09
847.666	17179.35
847.99	17258.22
848.313	17187.71
848.637	17054.16
848.96	17095.51
849.284	16992.46
849.607	16883.99
849.931	16792.02
850.254	16730.32
850.577	16562.64
850.9	16517.22
851.223	16618.91
851.546	16357.23
851.869	16394.96
852.192	16422.76
852.515	16270.67
852.838	16122.43
853.161	16127.17
853.483	16108.87
853.806	16091.92
854.129	15994.97
854.451	15900.74
854.774	15819.61
855.096	15794.3
855.419	15845.15
855.741	15702.55
856.063	15563.8
856.385	15618.94
856.708	15507.53
857.03	15413.52
857.352	15369
857.674	15463.01
857.996	15343.69
858.318	15256.69
858.64	15369.23
858.961	15318.16
859.283	15265.05
859.605	15089.46
859.926	15104.6
860.248	15010.59
860.57	15025.06
860.891	15101.21
861.212	14926.3
861.534	14936.25
861.855	14846.3
862.176	14881.78
862.498	14934.21
862.819	14846.53
863.14	14823.48
863.461	14788.45
863.782	14673.65
864.103	14714.78
864.424	14604.28
864.745	14626.65
865.065	14526.76
865.386	14519.08
865.707	14487.9
866.027	14623.49
866.348	14525.41
866.668	14418.52
866.989	14360.89
867.309	14282.03
867.63	14320.22
867.95	14432.3
868.27	14263.72
868.59	14330.16
868.91	14304.62
869.23	14243.38
869.55	14165.19
869.87	14314.79
870.19	14206.1
870.51	14223.95
870.83	14177.4
871.15	14031.86
871.469	14040.45
871.789	14055.59
872.109	14047.46
872.428	13991.64
872.748	14035.25
873.067	14004.97
873.386	13925.42
873.706	13983.5
874.025	13891.98
874.344	13880.91
874.663	13879.55
874.982	13807.01
875.301	13797.29
875.62	13712.55
875.939	13697.41
876.258	13802.94
876.577	13707.58
876.896	13737.63
877.214	13610.18
877.533	13652.89
877.852	13595.04
878.17	13637.3
878.489	13694.02
878.807	13577.19
879.125	13533.8
879.444	13556.62
879.762	13533.12
880.08	13560.69
880.398	13396.4
880.716	13386.91
881.034	13366.34
881.352	13344.88
881.67	13320.69
881.988	13289.51
882.306	13254.26
882.624	13183.98
882.941	13158.21
883.259	13176.29
883.577	13123.64
883.894	13076.63
884.212	13056.07
884.529	12988.05
884.846	12990.08
885.164	13028.73
885.481	12950.54
885.798	12958.9
886.115	12833.02
886.432	12919.8
886.75	12849.52
887.067	12882.51
887.383	12792.12
887.7	12777.21
888.017	12652.69
888.334	12689.75
888.651	12609.08
888.967	12620.15
889.284	12550.77
889.6	12434.62
889.917	12471.23
890.233	12436.42
890.55	12416.99
890.866	12453.6
891.182	12333.15
891.498	12307.84
891.815	12247.05
892.131	12259.25
892.447	12100.84
892.763	12158.69
893.079	12076.89
893.395	12032.59
893.71	11993.72
894.026	11984.91
894.342	12004.35
894.657	11945.82
894.973	11812.26
895.289	11887.74
895.604	11924.12
895.92	11731.13
896.235	11664.92
896.55	11751.92
896.865	11679.83
897.181	11623.11
897.496	11636.22
897.811	11544.92
898.126	11605.71
898.441	11476.45
898.756	11475.32
899.071	11336.34
899.386	11457.24
899.7	11326.4
900.015	11258.15
900.33	11179.73
900.644	11122.79
900.959	11165.95
901.273	11042.56
901.588	11036.01
901.902	10974.09
902.216	10944.71
902.531	10859.74
902.845	10869.46
903.159	10866.97
903.473	10776.13
903.787	10704.04
904.101	10723.48
904.415	10604.83
904.729	10609.58
905.042	10563.93
905.356	10538.62
905.67	10585.85
905.984	10530.26
906.297	10452.75
906.611	10381.34
906.924	10320.55
907.237	10316.03
907.551	10313.99
907.864	10304.73
908.177	10168.46
908.491	10151.06
908.804	10149.48
909.117	10066.77
909.43	10056.15
909.743	9960.11
910.056	9976.6
910.368	9910.16
910.681	9931.86
910.994	9793.33
911.307	9747.91
911.619	9693.22
911.932	9795.82
912.244	9596.73
912.557	9635.14
912.869	9576.39
913.181	9554.92
913.494	9524.41
913.806	9435.15
914.118	9402.38
914.43	9356.05
914.742	9318.99
915.054	9297.52
915.366	9363.96
915.678	9259.56
915.99	9153.12
916.302	9076.74
916.613	9147.7
916.925	9103.18
917.236	9036.51
917.548	8957.19
917.859	9018.66
918.171	9018.44
918.482	8912.68
918.794	8922.39
919.105	8804.43
919.416	8782.28
919.727	8719.46
920.038	8719.01
920.349	8679.01
920.66	8613.7
920.971	8603.76
921.282	8582.51
921.593	8492.8
921.903	8399.24
922.214	8434.72
922.525	8387.72
922.835	8349.75
923.146	8300.04
923.456	8265.69
923.767	8193.82
924.077	8293.93
924.387	8185.24
924.697	8124.9
925.008	8119.02
925.318	8081.74
925.628	8124
925.938	8018.46
926.248	7901.4
926.558	7897.11
926.867	7977.56
927.177	7891.91
927.487	7830.67
927.796	7737.11
928.106	7803.78
928.416	7681.3
928.725	7733.72
929.034	7621.86
929.344	7646.95
929.653	7655.53
929.962	7587.06
930.271	7556.33
930.581	7513.84
930.89	7423.67
931.199	7421.64
931.508	7409.21
931.817	7392.72
932.125	7383.68
932.434	7347.97
932.743	7202.66
933.051	7245.83
933.36	7166.73
933.669	7124.47
933.977	7096.68
934.286	7124.7
934.594	7061.42
934.902	7065.04
935.21	7005.15
935.519	6953.63
935.827	6966.29
936.135	6950.69
936.443	6884.25
936.751	6826.4
937.059	6827.53
937.367	6790.92
937.674	6741.21
937.982	6722.45
938.29	6699.17
938.597	6659.4
938.905	6633.41
939.213	6619.18
939.52	6536.01
939.827	6548.44
940.135	6499.18
940.442	6510.93
940.749	6469.35
941.056	6473.87
941.363	6406.3
941.67	6396.13
941.977	6318.17
942.284	6274.78
942.591	6304.16
942.898	6253.08
943.205	6262.12
943.511	6197.04
943.818	6241.33
944.125	6162.24
944.431	6110.26
944.738	6152.75
945.044	6052.19
945.35	6035.46
945.657	6007.44
945.963	5974
946.269	5941.45
946.575	5932.41
946.881	5865.75
947.187	5904.17
947.493	5848.8
947.799	5809.93
948.105	5788.92
948.41	5762.02
948.716	5732.87
949.022	5697.84
949.327	5728.35
949.633	5668.47
949.938	5651.74
950.244	5604.29
950.549	5607.45
950.854	5592.08
951.16	5565.42
951.465	5536.94
951.77	5475.25
952.075	5449.49
952.38	5415.59
952.685	5457.4
952.99	5376.5
953.294	5385.08
953.599	5358.19
953.904	5319.78
954.209	5296.5
954.513	5307.12
954.818	5251.3
955.122	5217.86
955.426	5228.93
955.731	5133.11
956.035	5150.29
956.339	5128.14
956.643	5149.61
956.948	5082.04
957.252	5103.96
957.556	5033.91
957.86	5052.44
958.163	5007.24
958.467	4960.01
958.771	4969.5
959.075	4960.01
959.378	4928.37
959.682	4925.66
959.985	4855.61
960.289	4876.85
960.592	4851.54
960.896	4814.7
961.199	4763.63
961.502	4771.09
961.805	4717.53
962.108	4711.66
962.411	4709.17
962.714	4735.38
963.017	4672.33
963.32	4686.12
963.623	4655.61
963.926	4624.65
964.228	4568.38
964.531	4582.17
964.833	4531.77
965.136	4532.9
965.438	4457.88
965.741	4469.18
966.043	4454.04
966.345	4449.52
966.648	4419.69
966.95	4429.63
967.252	4337.88
967.554	4344.43
967.856	4350.31
968.158	4302.18
968.46	4305.34
968.761	4283.64
969.063	4270.09
969.365	4212.01
969.666	4238.9
969.968	4179.24
970.269	4126.59
970.571	4126.13
970.872	4155.96
971.174	4105.8
971.475	4094.04
971.776	4063.76
972.077	4075.29
972.378	4040.71
972.679	4054.72
972.98	4000.04
973.281	4005.46
973.582	3953.26
973.883	3922.52
974.183	3965.23
974.484	3928.63
974.785	3913.03
975.085	3891.56
975.386	3903.77
975.686	3829.42
975.986	3894.28
976.287	3810.89
976.587	3766.6
976.887	3794.17
977.187	3774.05
977.487	3735.18
977.787	3702.87
978.087	3709.2
978.387	3729.99
978.687	3720.72
978.987	3674.85
979.286	3626.49
979.586	3647.5
979.885	3616.09
980.185	3570.67
980.484	3538.58
980.784	3554.62
981.083	3569.31
981.382	3565.47
981.682	3518.47
981.981	3501.29
982.28	3500.39
982.579	3463.33
982.878	3445.47
983.177	3473.27
983.475	3429.66
983.774	3424.68
984.073	3363.67
984.372	3354.86
984.67	3355.53
984.969	3351.01
985.267	3350.11
985.566	3326.38
985.864	3287.51
986.162	3275.76
986.461	3264.01
986.759	3234.86
987.057	3214.29
987.355	3245.03
987.653	3254.52
987.951	3155.76
988.249	3194.86
988.547	3177.46
988.844	3223.33
989.142	3164.13
989.44	3122.32
989.737	3102.21
990.035	3073.05
990.332	3099.49
990.63	3040.51
990.927	3035.99
991.224	3031.7
991.521	2994.64
991.819	3028.76
992.116	2965.04
992.413	2950.57
992.71	2946.5
993.006	2986.96
993.303	2937.92
993.6	2919.61
993.897	2864.92
994.193	2888.65
994.49	2872.38
994.787	2818.82
995.083	2833.06
995.379	2811.37
995.676	2796.23
995.972	2779.5
996.268	2787.19
996.565	2765.27
996.861	2711.93
997.157	2731.82
997.453	2734.31
997.749	2708.54
998.044	2700.18
998.34	2675.55
998.636	2671.26
998.932	2625.61
999.227	2667.42
999.523	2611.15
999.818	2605.04
1000.114	2591.26
1000.409	2574.76
1000.704	2563.92
1001	2569.11
1001.295	2535.89
1001.59	2524.14
1001.885	2537.25
1002.18	2494.31
1002.475	2492.28
1002.77	2475.56
1003.065	2499.96
1003.359	2438.04
1003.654	2462.45
1003.949	2417.7
1004.243	2429
1004.538	2346.52
1004.832	2372.28
1005.127	2400.98
1005.421	2337.93
1005.715	2346.97
1006.009	2335.22
1006.304	2306.07
1006.598	2254.55
1006.892	2288.44
1007.186	2265.62
1007.48	2271.04
1007.773	2227.2
1008.067	2215.9
1008.361	2220.65
1008.655	2176.13
1008.948	2216.58
1009.242	2166.41
1009.535	2152.85
1009.829	2150.37
1010.122	2088.9
1010.415	2132.29
1010.708	2098.84
1011.001	2099.97
1011.295	2099.52
1011.588	2091.16
1011.881	2066.75
1012.173	2028.34
1012.466	2057.94
1012.759	2033.53
1013.052	2023.14
1013.344	2027.66
1013.637	1995.12
1013.93	1952.18
1014.222	1956.25
1014.514	1961.45
1014.807	1938.17
1015.099	1926.19
1015.391	1897.49
1015.683	1866.98
1015.976	1866.31
1016.268	1853.2
1016.56	1894.78
1016.851	1861.79
1017.143	1835.8
1017.435	1821.11
1017.727	1805.29
1018.018	1800.09
1018.31	1799.42
1018.602	1784.5
1018.893	1779.98
1019.185	1794.9
1019.476	1741.11
1019.767	1747.67
1020.058	1728.23
1020.35	1685.75
1020.641	1698.4
1020.932	1714.45
1021.223	1673.09
1021.514	1669.25
1021.804	1699.98
1022.095	1634
1022.386	1609.59
1022.677	1615.69
1022.967	1614.56
1023.258	1566.43
1023.548	1569.82
1023.839	1584.96
1024.129	1567.33
1024.419	1553.32
1024.709	1537.05
1025	1546.09
1025.29	1517.84
1025.58	1531.17
1025.87	1469.71
1026.16	1485.75
1026.449	1495.24
1026.739	1467.67
1027.029	1464.28
1027.319	1428.35
1027.608	1421.35
1027.898	1462.7
1028.187	1457.05
1028.477	1439.65
1028.766	1406.88
1029.055	1389.94
1029.344	1395.58
1029.634	1395.36
1029.923	1359.65
1030.212	1336.6
1030.501	1358.98
1030.79	1337.06
1031.078	1321.01
1031.367	1318.75
1031.656	1305.87
1031.945	1292.99
1032.233	1283.95
1032.522	1260.9
1032.81	1245.31
1033.099	1269.26
1033.387	1260.67
1033.675	1255.48
1033.963	1220.45
1034.251	1238.07
1034.54	1213.22
1034.828	1238.53
1035.116	1206.89
1035.403	1196.95
1035.691	1179.77
1035.979	1162.6
1036.267	1163.27
1036.554	1185.19
1036.842	1160.34
1037.129	1155.59
1037.417	1141.35
1037.704	1091.41
1037.992	1158.75
1038.279	1104.52
1038.566	1106.33
1038.853	1106.33
1039.14	1106.33
