Data from whiteboard_FLMS001491_00020.txt Node
Date: Wed Feb 08 11:25:29 GMT 2017
User: dcchb
Spectrometer: FLMS00149
Trigger mode: 0
Integration Time (sec): 2.000000E-2
Scans to average: 10
Electric dark correction enabled: true
Nonlinearity correction enabled: false
Boxcar width: 0
XAxis mode: Wavelengths
Number of Pixels in Spectrum: 2048
>>>>>Begin Spectral Data<<<<<
341.393	1.85
341.776	1.85
342.16	1.85
342.543	-53.52
342.927	-65.72
343.31	-60.07
343.693	-70.24
344.077	-59.17
344.46	-62.33
344.843	-34.76
345.226	-49.67
345.61	-32.95
345.993	-3.12
346.376	-2.67
346.759	-8.32
347.142	24.67
347.525	32.81
347.908	40.72
348.291	58.8
348.674	97.89
349.057	128.4
349.44	121.62
349.823	155.97
350.206	167.04
350.588	210.66
350.971	236.87
351.354	228.51
351.737	278.23
352.119	310.32
352.502	312.35
352.884	297.66
353.267	312.8
353.65	325.23
354.032	346.47
354.414	329.3
354.797	330.66
355.179	341.28
355.562	336.76
355.944	366.59
356.326	381.95
356.709	374.27
357.091	370.43
357.473	363.65
357.855	388.51
358.238	375.17
358.62	387.83
359.002	398.45
359.384	403.87
359.766	412.91
360.148	389.64
360.53	389.18
360.912	405
361.294	368.17
361.676	380.15
362.057	373.82
362.439	367.72
362.821	365.23
363.203	383.99
363.584	364.33
363.966	377.43
364.348	369.3
364.729	359.13
365.111	370.43
365.493	386.47
365.874	379.69
366.256	360.26
366.637	385.12
367.019	367.94
367.4	363.2
367.781	398.22
368.163	376.53
368.544	386.02
368.925	385.57
369.306	378.79
369.688	384.67
370.069	402.07
370.45	360.03
370.831	383.99
371.212	399.35
371.593	389.64
371.974	380.6
372.355	410.2
372.736	380.15
373.117	386.02
373.498	390.09
373.879	388.51
374.26	395.51
374.641	365.23
375.021	403.87
375.402	399.35
375.783	426.25
376.163	422.86
376.544	396.64
376.925	417.66
377.305	411.56
377.686	416.53
378.066	414.72
378.447	428.05
378.827	415.4
379.208	415.4
379.588	411.56
379.968	417.21
380.349	409.52
380.729	436.87
381.109	445
381.489	423.31
381.87	436.19
382.25	458.34
382.63	443.65
383.01	466.7
383.39	460.37
383.77	466.92
384.15	457.66
384.53	478
384.91	458.11
385.29	482.06
385.67	491.55
386.049	493.36
386.429	503.98
386.809	494.94
387.189	508.5
387.568	508.96
387.948	511.67
388.328	502.4
388.707	529.97
389.087	520.93
389.466	533.36
389.846	536.07
390.225	531.1
390.605	546.47
390.984	528.62
391.363	560.48
391.743	580.37
392.122	550.08
392.501	584.21
392.881	596.41
393.26	593.93
393.639	596.41
394.018	615.39
394.397	628.95
394.776	612.91
395.155	626.92
395.534	638.22
395.913	664.21
396.292	652.91
396.671	663.53
397.05	661.27
397.429	682.06
397.808	684.32
398.186	668.95
398.565	706.01
398.944	708.5
399.323	732.23
399.701	732
400.08	724.77
400.458	757.99
400.837	746.69
401.215	781.49
401.594	786.69
401.972	788.04
402.351	791.66
402.729	804.54
403.107	825.78
403.486	844.77
403.864	839.79
404.242	856.52
404.62	862.84
404.999	892.45
405.377	911.66
405.755	920.24
406.133	928.15
406.511	947.14
406.889	968.38
407.267	996.17
407.645	1016.74
408.023	1044.53
408.401	1026.68
408.779	1070.07
409.156	1082.5
409.534	1108.26
409.912	1113.69
410.29	1135.83
410.667	1165.21
411.045	1169.73
411.422	1178.77
411.8	1209.95
412.178	1236.85
412.555	1252.66
412.933	1259.44
413.31	1297.18
413.687	1315.94
414.065	1338.99
414.442	1341.7
414.819	1364.98
415.197	1397.97
415.574	1400.23
415.951	1439.33
416.328	1456.28
416.705	1484.3
417.082	1492.66
417.46	1515.26
417.837	1541.24
418.214	1535.37
418.591	1549.15
418.967	1559.55
419.344	1611.07
419.721	1617.85
420.098	1617.4
420.475	1659.21
420.852	1665.54
421.228	1692.65
421.605	1711.18
421.982	1748.02
422.358	1743.5
422.735	1783.05
423.111	1783.5
423.488	1814.68
423.864	1806.1
424.241	1852.2
424.617	1911.18
424.994	1890.84
425.37	1958.18
425.746	1929.03
426.123	1932.42
426.499	1990.5
426.875	2008.35
427.251	2063.26
427.627	2085.86
428.003	2078.41
428.379	2162.47
428.756	2164.51
429.132	2185.75
429.507	2225.52
429.883	2270.94
430.259	2313.65
430.635	2339.87
431.011	2337.83
431.387	2403.59
431.763	2460.99
432.138	2468
432.514	2507.32
432.89	2508.45
433.265	2635.45
433.641	2622.8
434.016	2644.49
434.392	2682.68
434.767	2706.86
435.143	2730.37
435.518	2772.4
435.894	2789.35
436.269	2873.41
436.644	2882.68
437.02	2908.21
437.395	2913.86
437.77	2990.25
438.145	3029.12
438.52	2984.14
438.895	3091.71
439.271	3089.45
439.646	3180.3
440.021	3156.8
440.395	3167.64
440.77	3171.03
441.145	3251.71
441.52	3271.37
441.895	3311.14
442.27	3314.08
442.645	3319.28
443.019	3395.43
443.394	3408.09
443.769	3453.96
444.143	3435.88
444.518	3496
444.892	3471.36
445.267	3549.1
445.641	3590
446.016	3600.63
446.39	3606.73
446.764	3612.6
447.139	3625.26
447.513	3697.12
447.887	3683.79
448.262	3763.33
448.636	3737.57
449.01	3859.83
449.384	3847.85
449.758	3901.86
450.132	3971.69
450.506	3951.8
450.88	4011.01
451.254	4014.4
451.628	4073.83
452.002	4148.86
452.376	4183.44
452.75	4167.62
453.123	4219.59
453.497	4300.49
453.871	4312.47
454.244	4438.57
454.618	4460.04
454.992	4522.64
455.365	4538.68
455.739	4692.57
456.112	4677.43
456.486	4743.42
456.859	4748.84
457.232	4876.3
457.606	4873.81
457.979	4951.78
458.352	5058.44
458.725	5140.92
459.099	5163.3
459.472	5242.39
459.845	5298.66
460.218	5389.51
460.591	5421.59
460.964	5478.32
461.337	5561.48
461.71	5675.15
462.083	5714.69
462.456	5728.71
462.829	5781.81
463.201	5907.91
463.574	5936.16
463.947	6043.73
464.32	6160.78
464.692	6211.18
465.065	6280.1
465.438	6351.29
465.81	6472.64
466.183	6503.15
466.555	6730.49
466.928	6713.31
467.3	6692.52
467.672	6811.84
468.045	7031.5
468.417	6993.76
468.789	7105.39
469.161	7180.42
469.534	7372.96
469.906	7463.57
470.278	7538.15
470.65	7636.23
471.022	7793.06
471.394	7967.29
471.766	7968.42
472.138	8136.33
472.51	8299.49
472.882	8444.57
473.253	8518.01
473.625	8656.09
473.997	8855.4
474.369	8907.83
474.74	9019.24
475.112	9208.39
475.484	9286.8
475.855	9523.18
476.227	9564.76
476.598	9782.84
476.97	9957.29
477.341	10209.94
477.713	10401.35
478.084	10337.4
478.455	10655.13
478.827	10763.6
479.198	11046.31
479.569	11042.01
479.94	11447.2
480.311	11500.3
480.682	11739.62
481.053	12088.31
481.424	12248.76
481.795	12380.06
482.166	12614.17
482.537	12751.8
482.908	12938.46
483.279	13114.5
483.65	13368.28
484.021	13637.88
484.391	13811.2
484.762	13948.6
485.133	14043.51
485.503	14315.15
485.874	14663.61
486.244	14768.24
486.615	15037.61
486.985	15156.25
487.356	15513.76
487.726	15688.44
488.097	15999.62
488.467	16054.31
488.837	16450.68
489.207	16654.97
489.578	16786.27
489.948	17023.55
490.318	17215.41
490.688	17374.73
491.058	17544.44
491.428	17801.83
491.798	17942.85
492.168	18351.65
492.538	18354.81
492.908	18656.05
493.278	18873.67
493.648	18914.12
494.017	19267.56
494.387	19364.05
494.757	19559.75
495.126	19741.22
495.496	19812.85
495.866	20032.74
496.235	20181.88
496.605	20512.72
496.974	20592.04
497.344	20647.86
497.713	20950
498.082	21023.67
498.452	21408.97
498.821	21434.28
499.19	21448.97
499.559	21721.05
499.928	21932.35
500.298	21965.34
500.667	22199.23
501.036	22266.35
501.405	22372.56
501.774	22584.76
502.143	22701.59
502.512	22878.76
502.88	23007.8
503.249	23047.35
503.618	23248.02
503.987	23354.91
504.356	23450.5
504.724	23617.5
505.093	23721
505.462	23915.12
505.83	24041.9
506.199	24295.67
506.567	24541.54
506.936	24523.69
507.304	24899.5
507.672	25059.27
508.041	25184.24
508.409	25391.01
508.777	25604.11
509.145	25759.14
509.514	25916.42
509.882	26149.64
510.25	26174.04
510.618	26313.25
510.986	26490.42
511.354	26810.41
511.722	26993.46
512.09	27293.56
512.458	27319.32
512.826	27534.23
513.193	27702.59
513.561	27762.25
513.929	28146.42
514.297	28289.02
514.664	28531.5
515.032	28553.64
515.4	28933.74
515.767	29035.21
516.135	29221.87
516.502	29221.87
516.869	29635.87
517.237	29702.54
517.604	29632.26
517.972	30027.95
518.339	30273.82
518.706	30318.12
519.073	30553.14
519.44	30714.49
519.808	31082.39
520.175	31017.76
520.542	31471.98
520.909	31573
521.276	31597.63
521.643	31993.55
522.009	32323.71
522.376	32382.92
522.743	32623.14
523.11	33211.6
523.477	33315.32
523.843	33406.17
524.21	33823.33
524.577	34131.12
524.943	34146.72
525.31	34458.8
525.676	34872.57
526.043	35075.73
526.409	35177.65
526.776	35733.34
527.142	35809.95
527.508	36013.33
527.874	36278.18
528.241	36568.8
528.607	36802.92
528.973	37115.45
529.339	37187.54
529.705	37389.57
530.071	37672.05
530.437	37850.8
530.803	37912.49
531.169	38274.29
531.535	38148.87
531.901	38443.78
532.267	38584.79
532.632	38739.59
532.998	39004.21
533.364	39117.43
533.73	39288.05
534.095	39544.31
534.461	39707.02
534.826	39857.53
535.192	40071.31
535.557	40456.61
535.923	40403.95
536.288	40513.55
536.653	40789.25
537.019	40610.5
537.384	40819.53
537.749	41174.78
538.114	41143.37
538.479	41288
538.845	41557.14
539.21	41532.51
539.575	41828.55
539.94	41996.23
540.305	42132.49
540.67	42097.69
541.034	42190.8
541.399	42517.79
541.764	42652.03
542.129	42682.54
542.494	42893.83
542.858	43076.65
543.223	43133.15
543.587	43380.14
543.952	43277.32
544.316	43470.54
544.681	43544.43
545.045	43700.81
545.41	43955.72
545.774	44103.06
546.138	44164.53
546.503	44345.09
546.867	44375.6
547.231	44754.8
547.595	44848.81
547.959	45038.41
548.324	44963.83
548.688	44929.93
549.052	45341.68
549.416	45271.17
549.779	45403.14
550.143	45500.99
550.507	45808.33
550.871	45911.15
551.235	45944.82
551.599	46216
551.962	46317.24
552.326	46398.82
552.689	46772.6
553.053	46713.62
553.417	46793.84
553.78	47276.77
554.143	47102.76
554.507	47298.23
554.87	47503.2
555.234	47888.27
555.597	47587.04
555.96	47913.36
556.323	47997.88
556.686	48078.33
557.05	48327.13
557.413	48410.75
557.776	48434.25
558.139	48703.85
558.502	48768.48
558.865	48981.58
559.228	49119.43
559.59	49292.53
559.953	49310.84
560.316	49748.34
560.679	49652.52
561.041	50013.42
561.404	50211.83
561.767	50452.05
562.129	50257.93
562.492	50574.76
562.854	50663.34
563.217	50651.59
563.579	50818.37
563.941	51033.73
564.304	51223.1
564.666	51438.01
565.028	51380.84
565.39	51487.95
565.753	51832.35
566.115	51826.93
566.477	51953.93
566.839	52094.27
567.201	52135.62
567.563	52294.26
567.925	52511.2
568.287	52518.89
568.648	52620.13
569.01	52833.46
569.372	53002.49
569.734	53060.12
570.095	53182.6
570.457	53284.29
570.819	53319.77
571.18	53413.1
571.542	53545.53
571.903	53649.71
572.265	53818.29
572.626	53890.38
572.987	53920.21
573.349	53998.4
573.71	54171.27
574.071	54268.22
574.432	54412.85
574.794	54591.6
575.155	54519.06
575.516	54446.29
575.877	54586.18
576.238	54672.28
576.599	54803.35
576.96	54817.36
577.32	54795.66
577.681	54924.25
578.042	55033.17
578.403	55033.17
578.763	55063.91
579.124	55088.09
579.485	55192.94
579.845	55268.87
580.206	55158.82
580.566	55224.13
580.927	55243.79
581.287	55301.19
581.648	55170.12
582.008	55300.06
582.368	55241.75
582.728	55184.35
583.089	55263.9
583.449	55175.31
583.809	55287.85
584.169	55351.13
584.529	55206.5
584.889	55479.26
585.249	55318.14
585.609	55328.31
585.969	55433.61
586.329	55225.71
586.688	55378.7
587.048	55326.05
587.408	55290.79
587.768	55380.73
588.127	55342.77
588.487	55290.11
588.846	55551.12
589.206	55422.54
589.565	55310.68
589.925	55506.83
590.284	55514.06
590.643	55463.89
591.003	55591.58
591.362	55680.16
591.721	55595.19
592.08	55672.02
592.44	55799.93
592.799	55785.24
593.158	55735.75
593.517	55742.31
593.876	55862.75
594.235	55733.27
594.593	55787.95
594.952	55833.38
595.311	55884.45
595.67	55889.19
596.029	56061.62
596.387	55993.6
596.746	56110.88
597.104	56033.82
597.463	56005.35
597.822	56070.21
598.18	56006.25
598.538	56008.29
598.897	56139.58
599.255	55855.75
599.613	56190.66
599.972	56057.55
600.33	56102.3
600.688	56008.51
601.046	56172.8
601.404	56172.12
601.762	56074.5
602.12	56188.4
602.478	56173.25
602.836	56159.24
603.194	55951.57
603.552	56007.38
603.91	56029.98
604.268	56113.37
604.625	56101.17
604.983	56095.74
605.341	56025.91
605.698	56118.57
606.056	56231.11
606.413	56188.85
606.771	56273.36
607.128	56202.63
607.485	56140.04
607.843	56127.38
608.2	56386.36
608.557	56431.78
608.914	56302.06
609.272	56524.21
609.629	56467.94
609.986	56559.01
610.343	56434.72
610.7	56716.74
611.057	56556.52
611.414	56591.32
611.771	56656.41
612.127	56744.99
612.484	56770.98
612.841	56838.77
613.198	56779.11
613.554	56785.44
613.911	56996.06
614.267	56964.42
614.624	56979.79
614.98	57013.46
615.337	57141.82
615.693	57109.73
616.05	57100.46
616.406	57282.6
616.762	57108.15
617.118	57170.74
617.475	57203.74
617.831	57308.82
618.187	57249.38
618.543	57383.84
618.899	57434.92
619.255	57485.54
619.611	57394.24
619.967	57458.64
620.323	57569.15
620.678	57417.74
621.034	57343.17
621.39	57381.81
621.746	57346.56
622.101	57609.15
622.457	57272.89
622.812	57358.99
623.168	57431.3
623.523	57423.17
623.879	57520.34
624.234	57358.53
624.589	57405.99
624.945	57410.51
625.3	57373.45
625.655	57333
626.01	57348.36
626.365	57330.96
626.72	57287.8
627.075	57272.66
627.43	57258.42
627.785	57189.05
628.14	57251.19
628.495	57194.24
628.85	57174.58
629.205	57086.45
629.559	57221.59
629.914	57074.7
630.269	57147.69
630.623	57070.63
630.978	56949.96
631.332	57086.45
631.687	57129.61
632.041	56987.24
632.396	57013.91
632.75	56955.15
633.104	56978.66
633.459	56910.64
633.813	56912.9
634.167	56878.77
634.521	56852.56
634.875	56888.49
635.229	56825.21
635.583	56780.92
635.937	56722.17
636.291	56721.49
636.645	56742.73
636.999	56620.02
637.352	56773.24
637.706	56614.37
638.06	56790.87
638.413	56693.92
638.767	56558.78
639.121	56716.74
639.474	56471.33
639.828	56537.31
640.181	56507.48
640.534	56560.59
640.888	56422.29
641.241	56412.57
641.594	56424.77
641.947	56460.25
642.301	56476.3
642.654	56412.8
643.007	56343.42
643.36	56228.17
643.713	56175.97
644.066	56322.18
644.419	56127.38
644.771	55942.75
645.124	55665.02
645.477	55683.78
645.83	55549.99
646.182	55470.22
646.535	55394.97
646.888	55277.91
647.24	55193.62
647.593	55374.86
647.945	55234.07
648.298	55079.72
648.65	55014.64
649.002	54959.73
649.355	55116.79
649.707	55017.13
650.059	55122.89
650.411	55436.32
650.763	55432.26
651.115	55724
651.467	55567.17
651.819	55637.22
652.171	55519.71
652.523	55435.65
652.875	55391.81
653.227	55354.07
653.578	55509.77
653.93	55403.11
654.282	55321.3
654.633	55277.91
654.985	55327.18
655.337	55331.02
655.688	55278.81
656.039	55445.59
656.391	55146.39
656.742	55211.02
657.094	55125.6
657.445	55180.51
657.796	55107.52
658.147	55086.28
658.498	55028.65
658.849	55168.99
659.2	55031.36
659.551	54998.82
659.902	55056
660.253	55051.48
660.604	55061.87
660.955	54896.23
661.306	55065.04
661.656	54847.64
662.007	54899.84
662.358	54907.75
662.708	54795.21
663.059	54854.65
663.409	54684.93
663.76	54894.64
664.11	54811.26
664.461	54919.05
664.811	54848.54
665.161	54851.48
665.511	54784.82
665.862	54856.23
666.212	54931.71
666.562	54937.58
666.912	54841.09
667.262	54860.29
667.612	54735.55
667.962	54747.53
668.312	54641.32
668.662	54827.98
669.011	54623.46
669.361	54645.16
669.711	54762.67
670.06	54576.46
670.41	54599.96
670.76	54586.4
671.109	54602.22
671.459	54573.75
671.808	54464.82
672.157	54614.88
672.507	54417.82
672.856	54412.85
673.205	54443.58
673.554	54518.61
673.904	54395
674.253	54580.08
674.602	54481.77
674.951	54067.1
675.3	53934.22
675.649	54382.57
675.998	54392.74
676.346	54294.66
676.695	54385.05
677.044	54185.74
677.393	54279.75
677.741	54235.68
678.09	54162.91
678.438	54029.13
678.787	54159.75
679.135	54067.1
679.484	53834.33
679.832	53926.99
680.181	53665.3
680.529	53807.22
680.877	53729.93
681.225	53673.43
681.573	53797.05
681.922	53649.93
682.27	53564.28
682.618	53526.77
682.966	53477.28
683.314	53474.79
683.661	53312.09
684.009	53225.31
684.357	53104.63
684.705	53020.8
685.053	53156.84
685.4	52979.89
685.748	52903.96
686.095	52912.1
686.443	52712.1
686.79	52676.85
687.138	52720.69
687.485	52631.65
687.832	52468.04
688.18	52560.24
688.527	52370.42
688.874	52354.6
689.221	52221.95
689.568	52223.08
689.915	52098.11
690.262	52104.66
690.609	51904.89
690.956	51794.61
691.303	51749.42
691.65	51687.72
691.997	51617.89
692.344	51495.64
692.69	51314.4
693.037	51374.74
693.383	51079.83
693.73	51218.13
694.077	51054.52
694.423	51072.15
694.769	50925.71
695.116	50851.36
695.462	50906.05
695.808	50808.42
696.155	50813.85
696.501	50660.18
696.847	50584.48
697.193	50265.16
697.539	50524.82
697.885	50261.32
698.231	50096.13
698.577	50109.01
698.923	49983.59
699.269	49927.77
699.614	49852.97
699.96	49680.54
700.306	49859.75
700.651	49534.79
700.997	49514.9
701.342	49410.95
701.688	49490.27
702.033	49342.7
702.379	49245.98
702.724	49239.88
703.069	49117.85
703.415	48756.27
703.76	48864.07
704.105	48790.4
704.45	48725.09
704.795	48537.3
705.14	48383.85
705.485	48387.7
705.83	48168.49
706.175	48242.62
706.52	48106.8
706.865	48092.34
707.209	47908.84
707.554	47878.11
707.899	48076.52
708.243	47728.73
708.588	47665.68
708.932	47316.54
709.277	47393.15
709.621	47511.34
709.966	47175.53
710.31	47272.7
710.654	46860.28
710.998	47037.9
711.342	46964.23
711.687	46743.67
712.031	46706.38
712.375	46534.64
712.719	46655.09
713.063	46413.29
713.407	46410.8
713.75	46145.72
714.094	46075.22
714.438	45952.73
714.782	46076.57
715.125	45749.57
715.469	45738.73
715.812	45657.6
716.156	45351.39
716.499	45313.65
716.843	45393.65
717.186	45125.64
717.53	45314.33
717.873	45216.93
718.216	45022.14
718.559	44924.51
718.902	44596.84
719.246	44653.11
719.589	44519.55
719.932	44302.61
720.275	44223.74
720.617	44139.9
720.96	44096.74
721.303	44210.63
721.646	44068.71
721.989	43833.47
722.331	43903.29
722.674	43858.32
723.016	43626.01
723.359	43707.59
723.701	43716.63
724.044	43412.23
724.386	43085.24
724.729	43367.04
725.071	43059.7
725.413	43289.07
725.755	43095.18
726.097	43114.84
726.439	42788.3
726.782	42670.56
727.124	42846.15
727.465	42623.33
727.807	42677.11
728.149	42504.46
728.491	42332.04
728.833	42279.38
729.175	42153.06
729.516	42009.79
729.858	42029.45
730.199	42098.82
730.541	41995.55
730.882	41865.38
731.224	41934.31
731.565	41704.03
731.906	41779.96
732.248	41812.73
732.589	41703.58
732.93	41451.38
733.271	41625.61
733.612	41568.44
733.953	41646.63
734.294	41430.37
734.635	41321.89
734.976	41446.41
735.317	41429.91
735.658	41237.15
735.999	41245.51
736.339	41067.21
736.68	41178.62
737.021	41072.18
737.361	40881.91
737.702	41147.21
738.042	40959.42
738.383	40808.23
738.723	40969.59
739.063	40754.45
739.404	40746.32
739.744	40675.81
740.084	40579.09
740.424	40618.41
740.764	40519.43
741.104	40540.22
741.444	40381.13
741.784	40206.67
742.124	40363.27
742.464	40302.49
742.804	40177.29
743.143	40180.23
743.483	40173
743.823	39877.41
744.162	39891.87
744.502	39884.19
744.841	39735.27
745.181	39846.23
745.52	39545.67
745.86	39656.63
746.199	39674.71
746.538	39591.32
746.877	39552.67
747.216	39449.17
747.556	39325.79
747.895	39454.6
748.234	39224.1
748.573	39042.86
748.911	39069.07
749.25	39012.12
749.589	38812.58
749.928	38917.21
750.267	38778.91
750.605	38726.93
750.944	38570.33
751.283	38492.14
751.621	38578.69
751.96	38311.58
752.298	38332.59
752.636	38332.37
752.975	38100.51
753.313	38064.35
753.651	38130.11
753.989	37961.76
754.327	37787.75
754.666	37643.57
755.004	37630.69
755.342	37507.98
755.679	37508.43
756.017	37247.2
756.355	37460.53
756.693	37237.26
757.031	37406.97
757.368	36986.41
757.706	36903.7
758.044	36862.8
758.381	36906.19
758.719	36569.02
759.056	36784.84
759.394	36612.41
759.731	36248.81
760.068	36120
760.405	36132.2
760.743	36036.61
761.08	35959.77
761.417	35809.04
761.754	35743.51
762.091	35576.51
762.428	35512.78
762.765	35287.02
763.102	35468.71
763.438	35115.5
763.775	35006.81
764.112	35055.17
764.449	34993.02
764.785	34725.68
765.122	34564.33
765.458	34523.65
765.795	34401.85
766.131	34306.48
766.467	34293.38
766.804	34084.8
767.14	33801.19
767.476	33852.03
767.812	33708.53
768.148	33712.6
768.485	33502.44
768.821	33295.21
769.157	33187.42
769.492	33201.2
769.828	33118.27
770.164	32781.33
770.5	32777.94
770.836	32826.52
771.171	32401.22
771.507	32464.5
771.842	32250.27
772.178	32182.92
772.513	32119.65
772.849	31956.72
773.184	31761.47
773.519	31807.57
773.855	31679.21
774.19	31406.22
774.525	31373
774.86	31362.83
775.195	31135.49
775.53	31126.23
775.865	30958.78
776.2	30608.96
776.535	30432.91
776.87	30503.65
777.205	30339.58
777.539	30206.25
777.874	30353.59
778.209	30168.74
778.543	30006.71
778.878	29855.08
779.212	29816.43
779.547	29408.31
779.881	29682.2
780.215	29353.39
780.55	29528.76
780.884	29208.31
781.218	29081.54
781.552	29037.7
781.886	28816.46
782.22	28661.66
782.554	28718.16
782.888	28591.16
783.222	28414.44
783.556	28218.74
783.889	28235.46
784.223	28073.65
784.557	28045.63
784.89	28106.87
785.224	27857.61
785.557	27793.44
785.891	27555.48
786.224	27553.44
786.558	27630.5
786.891	27306.67
787.224	27318.19
787.557	27243.62
787.891	27180.34
788.224	27098.09
788.557	27063.29
788.89	26926.34
789.223	27019.67
789.556	26863.29
789.888	26660.81
790.221	26534.94
790.554	26398.67
790.887	26398.67
791.219	26280.71
791.552	26196.19
791.884	26289.75
792.217	26025.57
792.549	25986.03
792.882	25845.46
793.214	25746.94
793.546	25823.32
793.879	25705.13
794.211	25409.54
794.543	25571.8
794.875	25424.23
795.207	25534.29
795.539	25272.37
795.871	25228.08
796.203	25105.6
796.535	25065.15
796.867	24979.27
797.198	24869.44
797.53	25010.46
797.862	24703.35
798.193	24688.88
798.525	24635.78
798.856	24690.69
799.188	24351.72
799.519	24314.88
799.85	24222.91
800.182	24157.37
800.513	24036.47
800.844	23834.22
801.175	23965.97
801.506	23965.97
801.837	23852.07
802.168	23817.27
802.499	23655.69
802.83	23534.79
803.161	23610.5
803.491	23583.6
803.822	23441.69
804.153	23392.87
804.483	23321.92
804.814	23322.59
805.145	23104.52
805.475	23147
805.805	22951.98
806.136	22986.33
806.466	22910.85
806.796	22849.84
807.126	22622.05
807.457	22447.14
807.787	22566
808.117	22446.23
808.447	22399.91
808.777	22374.82
809.107	22342.96
809.436	22255.05
809.766	22208.72
810.096	22094.6
810.426	22017.09
810.755	22064.55
811.085	21975.28
811.414	21906.81
811.744	21771
812.073	21725.57
812.403	21654.39
812.732	21564
813.061	21575.75
813.39	21378.46
813.719	21302.99
814.049	21344.34
814.378	21253.04
814.707	21087.62
815.036	21217.34
815.365	21030.22
815.693	20775.54
816.022	20916.78
816.351	20803.11
816.68	20674.75
817.008	20726.73
817.337	20521.54
817.665	20568.99
817.994	20542.55
818.322	20482.44
818.651	20394.76
818.979	20248.55
819.307	20388.21
819.636	20228.21
819.964	20057.59
820.292	20090.81
820.62	20103.02
820.948	19982.79
821.276	20083.36
821.604	20003.58
821.932	20018.5
822.259	20158.83
822.587	20024.15
822.915	19987.31
823.243	20071.61
823.57	19996.8
823.898	20057.14
824.225	19899.63
824.553	19851.95
824.88	20025.05
825.207	20043.36
825.535	19950.25
825.862	20008.56
826.189	19953.42
826.516	20054.2
826.843	20060.98
827.17	20086.29
827.497	20055.79
827.824	20094.66
828.151	20097.14
828.478	20054.66
828.805	20074.32
829.131	19917.03
829.458	20024.15
829.785	19897.37
830.111	20067.99
830.438	20085.62
830.764	20041.1
831.09	20047.42
831.417	19968.78
831.743	20090.81
832.069	20124.03
832.395	19991.16
832.722	20072.73
833.048	19943.92
833.374	19976.69
833.7	19996.58
834.026	19907.09
834.351	19943.7
834.677	19973.3
835.003	20060.53
835.329	20094.66
835.654	20040.19
835.98	19945.96
836.306	20032.06
836.631	19891.95
836.956	19912.29
837.282	19982.12
837.607	19887.2
837.932	19783.7
838.258	19928.11
838.583	19868.9
838.908	19600.2
839.233	19759.07
839.558	19665.51
839.883	19638.62
840.208	19522.69
840.533	19546.87
840.858	19562.92
841.182	19620.77
841.507	19448.8
841.832	19376.26
842.156	19344.17
842.481	19470.04
842.805	19299.2
843.13	19283.6
843.454	19228.46
843.778	19138.3
844.103	19105.53
844.427	19003.84
844.751	19060.78
845.075	18977.62
845.399	18900.34
845.723	18823.95
846.047	18806.55
846.371	18594.58
846.695	18607.24
847.019	18519.1
847.343	18421.93
847.666	18306.91
847.99	18276.62
848.313	18162.95
848.637	18106.01
848.96	18039.57
849.284	17923.86
849.607	17812.23
849.931	17807.03
850.254	17623.76
850.577	17520.03
850.9	17413.14
851.223	17426.7
851.546	17358
851.869	17245.69
852.192	17297.89
852.515	17118.46
852.838	16964.79
853.161	16921.63
853.483	16894.06
853.806	16809.09
854.129	16784.46
854.451	16681.86
854.774	16669.89
855.096	16571.81
855.419	16479.38
855.741	16506.73
856.063	16346.73
856.385	16325.26
856.708	16213.63
857.03	16212.5
857.352	16210.92
857.674	16119.84
857.996	15990.13
858.318	15913.97
858.64	15949.45
858.961	15870.36
859.283	15737.26
859.605	15643.7
859.926	15743.36
860.248	15706.75
860.57	15549.46
860.891	15627.65
861.212	15444.61
861.534	15489.35
861.855	15410.48
862.176	15356.47
862.498	15357.15
862.819	15343.59
863.14	15332.75
863.461	15207.1
863.782	15078.52
864.103	15184.05
864.424	15055.24
864.745	15077.16
865.065	15076.03
865.386	14944.96
865.707	14977.95
866.027	14992.87
866.348	14941.34
866.668	14941.57
866.989	14875.36
867.309	14815.02
867.63	14886.88
867.95	14925.07
868.27	14772.31
868.59	14784.96
868.91	14746.77
869.23	14763.27
869.55	14702.93
869.87	14760.56
870.19	14766.21
870.51	14778.64
870.83	14775.25
871.15	14653.89
871.469	14684.18
871.789	14694.57
872.109	14519.66
872.428	14536.84
872.748	14576.38
873.067	14536.38
873.386	14596.95
873.706	14537.97
874.025	14507.46
874.344	14412.77
874.663	14483.5
874.982	14450.51
875.301	14484.18
875.62	14448.93
875.939	14441.7
876.258	14475.37
876.577	14428.14
876.896	14422.26
877.214	14406.44
877.533	14342.72
877.852	14293.45
878.17	14425.88
878.489	14365.09
878.807	14375.71
879.125	14306.78
879.444	14271.53
879.762	14373.9
880.08	14207.35
880.398	14173.46
880.716	14210.52
881.034	14195.15
881.352	14166.45
881.67	14118.99
881.988	14206
882.306	14041.48
882.624	14141.14
882.941	14017.3
883.259	14014.14
883.577	13994.93
883.894	13982.73
884.212	13904.76
884.529	13847.14
884.846	13832.22
885.164	13821.83
885.481	13777.76
885.798	13829.96
886.115	13773.69
886.432	13680.81
886.75	13669.51
887.067	13756.74
887.383	13613.92
887.7	13644.43
888.017	13579.12
888.334	13537.77
888.651	13576.18
888.967	13482.85
889.284	13488.5
889.6	13420.93
889.917	13306.81
890.233	13339.8
890.55	13317.21
890.866	13279.24
891.182	13318.34
891.498	13208.06
891.815	13219.81
892.131	13151.79
892.447	13129.64
892.763	13084.22
893.079	13074.5
893.395	13055.07
893.71	12931.91
894.026	12919.02
894.342	12833.38
894.657	12819.59
894.973	12815.3
895.289	12827.28
895.604	12782.76
895.92	12700.95
896.235	12611.01
896.55	12636.55
896.865	12586.38
897.181	12441.52
897.496	12396.55
897.811	12365.14
898.126	12321.07
898.441	12289.44
898.756	12261.87
899.071	12137.12
899.386	12143.45
899.7	12027.52
900.015	11992.72
900.33	11928.99
900.644	11873.4
900.959	11886.51
901.273	11799.51
901.588	11702.79
901.902	11644.93
902.216	11642.22
902.531	11672.05
902.845	11464.83
903.159	11506.63
903.473	11472.74
903.787	11412.17
904.101	11279.97
904.415	11261.89
904.729	11297.82
905.042	11150.94
905.356	11124.5
905.67	11109.81
905.984	11055.8
906.297	10994.78
906.611	10937.16
906.924	10975.12
907.237	10903.26
907.551	10770.15
907.864	10807.67
908.177	10563.83
908.491	10732.42
908.804	10623.94
909.117	10550.95
909.43	10476.83
909.743	10452.2
910.056	10406.77
910.368	10396.83
910.681	10290.85
910.994	10257.4
911.307	10193.22
911.619	10048.82
911.932	10166.1
912.244	10153.22
912.557	10092.66
912.869	10066.22
913.181	9954.36
913.494	9960.68
913.806	9922.95
914.118	9812.21
914.43	9744.87
914.742	9689.73
915.054	9632.11
915.366	9688.83
915.678	9604.76
915.99	9658.55
916.302	9562.28
916.613	9476.63
916.925	9516.85
917.236	9486.12
917.548	9464.88
917.859	9501.26
918.171	9316.86
918.482	9231.89
918.794	9324.32
919.105	9258.56
919.416	9161.61
919.727	9163.42
920.038	9141.72
920.349	8976.76
920.66	8979.02
920.971	9030.77
921.282	8995.96
921.593	8901.28
921.903	8868.06
922.214	8906.7
922.525	8816.31
922.835	8764.56
923.146	8714.62
923.456	8694.05
923.767	8680.94
924.077	8561.17
924.387	8588.52
924.697	8486.6
925.008	8519.59
925.318	8435.98
925.628	8468.97
925.938	8458.35
926.248	8342.87
926.558	8366.15
926.867	8336.09
927.177	8253.61
927.487	8267.62
927.796	8228.98
928.106	8169.77
928.416	8201.63
928.725	8087.74
929.034	8046.84
929.344	8047.97
929.653	7995.54
929.962	7975.2
930.271	7906.28
930.581	7837.35
930.89	7868.31
931.199	7818.14
931.508	7837.35
931.817	7798.48
932.125	7765.71
932.434	7691.82
932.743	7726.84
933.051	7605.04
933.36	7622.44
933.669	7563.23
933.977	7519.84
934.286	7487.08
934.594	7496.12
934.902	7417.25
935.21	7372.73
935.519	7419.96
935.827	7332.96
936.135	7299.06
936.443	7249.34
936.751	7244.6
937.059	7245.5
937.367	7153.53
937.674	7175.45
937.982	7134.54
938.29	7092.51
938.597	7093.64
938.905	7031.04
939.213	7026.52
939.52	6995.56
939.827	7033.53
940.135	6967.99
940.442	6918.5
940.749	6891.16
941.056	6923.7
941.363	6909.69
941.67	6864.72
941.977	6770.71
942.284	6687.32
942.591	6721.67
942.898	6728.23
943.205	6629.92
943.511	6629.47
943.818	6653.88
944.125	6542.47
944.431	6530.72
944.738	6471.28
945.044	6499.53
945.35	6453.43
945.657	6448.91
945.963	6405.07
946.269	6407.33
946.575	6399.87
946.881	6390.38
947.187	6380.44
947.493	6281.23
947.799	6321.91
948.105	6237.62
948.41	6208.24
948.716	6165.76
949.022	6174.12
949.327	6166.21
949.633	6068.81
949.938	6059.32
950.244	6039.43
950.549	6009.83
950.854	5887.35
951.16	5964.18
951.465	5983.84
951.77	5863.62
952.075	5889.83
952.38	5801.02
952.685	5809.38
952.99	5796.27
953.294	5783.85
953.599	5673.11
953.904	5721.02
954.209	5638.31
954.513	5663.62
954.818	5601.93
955.122	5594.92
955.426	5594.02
955.731	5510.86
956.035	5510.18
956.339	5453.91
956.643	5495.27
956.948	5442.61
957.252	5341.37
957.556	5398.77
957.86	5391.99
958.163	5396.51
958.467	5314.7
958.771	5323.29
959.075	5296.63
959.378	5299.56
959.682	5246.68
959.985	5232.22
960.289	5153.81
960.592	5133.01
960.896	5135.95
961.199	5134.6
961.502	5145.67
961.805	5106.57
962.108	5094.82
962.411	5042.17
962.714	4945.45
963.017	5015.73
963.32	4963.08
963.623	4955.84
963.926	4943.87
964.228	4900.25
964.531	4872
964.833	4884.66
965.136	4887.82
965.438	4802.4
965.741	4711.1
966.043	4774.15
966.345	4739.8
966.648	4744.78
966.95	4751.1
967.252	4670.2
967.554	4612.12
967.856	4686.02
968.158	4582.29
968.46	4597.21
968.761	4574.61
969.063	4550.21
969.365	4592.01
969.666	4591.79
969.968	4511.79
970.269	4493.26
970.571	4498.68
970.872	4468.85
971.174	4453.26
971.475	4438.57
971.776	4366.93
972.077	4346.37
972.378	4364
972.679	4319.93
972.98	4289.2
973.281	4234.96
973.582	4267.27
973.883	4233.38
974.183	4213.26
974.484	4196.77
974.785	4176.2
975.085	4168.29
975.386	4149.09
975.686	4125.81
975.986	4106.15
976.287	4064.34
976.587	4053.5
976.887	4036.09
977.187	4026.83
977.487	3993.38
977.787	3987.28
978.087	3938.7
978.387	3939.37
978.687	3931.24
978.987	3898.47
979.286	3872.71
979.586	3851.69
979.885	3846.27
980.185	3775.76
980.484	3801.98
980.784	3775.08
981.083	3775.08
981.382	3752.26
981.682	3733.73
981.981	3731.92
982.28	3705.26
982.579	3668.65
982.878	3687.63
983.177	3630
983.475	3641.75
983.774	3622.77
984.073	3568.08
984.372	3529.67
984.67	3531.93
984.969	3534.41
985.267	3554.07
985.566	3516.11
985.864	3496.9
986.162	3472.72
986.461	3425.94
986.759	3435.88
987.057	3405.83
987.355	3381.2
987.653	3406.05
987.951	3401.31
988.249	3362.67
988.547	3370.8
988.844	3342.1
989.142	3345.27
989.44	3267.08
989.737	3296.68
990.035	3292.61
990.332	3267.3
990.63	3230.01
990.927	3217.36
991.224	3220.07
991.521	3207.64
991.819	3154.08
992.116	3122.9
992.413	3118.38
992.71	3128.32
993.006	3083.8
993.303	3088.1
993.6	3095.33
993.897	3064.14
994.193	3062.33
994.49	3078.15
994.787	3051.94
995.083	3003.13
995.379	2998.61
995.676	2979.4
995.972	3006.97
996.268	2988.89
996.565	2930.59
996.861	2919.74
997.157	2903.02
997.453	2877.71
997.749	2909.8
998.044	2852.85
998.34	2797.03
998.636	2832.28
998.932	2782.34
999.227	2814.66
999.523	2833.41
999.818	2777.6
1000.114	2747.31
1000.409	2732.17
1000.704	2728.78
1001	2703.93
1001.295	2719.29
1001.59	2727.88
1001.885	2679.07
1002.18	2624.61
1002.475	2618.28
1002.77	2635.45
1003.065	2612.63
1003.359	2609.92
1003.654	2604.04
1003.949	2574.21
1004.243	2562.91
1004.538	2527.66
1004.832	2554.55
1005.127	2499.86
1005.421	2533.99
1005.715	2509.58
1006.009	2486.76
1006.304	2455.57
1006.598	2441.79
1006.892	2481.56
1007.186	2424.61
1007.48	2415.57
1007.773	2422.13
1008.067	2386.19
1008.361	2334.67
1008.655	2385.97
1008.948	2342.13
1009.242	2291.51
1009.535	2284.73
1009.829	2326.31
1010.122	2272.52
1010.415	2274.56
1010.708	2244.28
1011.001	2220.77
1011.295	2222.81
1011.588	2237.72
1011.881	2232.98
1012.173	2220.55
1012.466	2154.79
1012.759	2195.69
1013.052	2163.38
1013.344	2150.04
1013.637	2142.81
1013.93	2112.3
1014.222	2118.4
1014.514	2068.91
1014.807	2101.91
1015.099	2097.84
1015.391	2066.88
1015.683	2029.37
1015.976	2014.68
1016.268	2002.93
1016.56	2028.24
1016.851	1984.62
1017.143	1996.37
1017.435	1991.85
1017.727	1958.41
1018.018	1941.69
1018.31	1957.73
1018.602	1912.08
1018.893	1925.87
1019.185	1909.6
1019.476	1889.71
1019.767	1854
1020.058	1873.67
1020.35	1876.38
1020.641	1848.36
1020.932	1834.57
1021.223	1795.93
1021.514	1827.79
1021.804	1787.57
1022.095	1797.96
1022.386	1778.75
1022.677	1756.83
1022.967	1740.56
1023.258	1692.2
1023.548	1728.81
1023.839	1689.04
1024.129	1713.22
1024.419	1713.67
1024.709	1688.59
1025	1678.64
1025.29	1646.33
1025.58	1600.45
1025.87	1624.41
1026.16	1613.79
1026.449	1595.03
1026.739	1570.62
1027.029	1584.63
1027.319	1582.83
1027.608	1566.33
1027.898	1561.58
1028.187	1532.88
1028.477	1523.62
1028.766	1496.95
1029.055	1532.88
1029.344	1503.05
1029.634	1473
1029.923	1481.36
1030.212	1462.38
1030.501	1447.69
1030.79	1435.48
1031.078	1412.21
1031.367	1440.46
1031.656	1380.57
1031.945	1396.84
1032.233	1397.29
1032.522	1372.44
1032.81	1360.23
1033.099	1352.1
1033.387	1345.54
1033.675	1346.22
1033.963	1333.79
1034.251	1316.39
1034.54	1285.43
1034.828	1302.61
1035.116	1277.52
1035.403	1308.26
1035.691	1251.08
1035.979	1292.89
1036.267	1251.31
1036.554	1253.57
1036.842	1240.46
1037.129	1224.87
1037.417	1244.08
1037.704	1200.24
1037.992	1193.68
1038.279	1190.75
1038.566	1171.99
1038.853	1171.99
1039.14	1171.99
