Data from whiteboard_FLMS001491_00067.txt Node
Date: Wed Feb 08 11:27:29 GMT 2017
User: dcchb
Spectrometer: FLMS00149
Trigger mode: 0
Integration Time (sec): 2.000000E-2
Scans to average: 10
Electric dark correction enabled: true
Nonlinearity correction enabled: false
Boxcar width: 0
XAxis mode: Wavelengths
Number of Pixels in Spectrum: 2048
>>>>>Begin Spectral Data<<<<<
341.393	-18.04
341.776	-18.04
342.16	-18.04
342.543	-59.62
342.927	-51.71
343.31	-83.12
343.693	-68.2
344.077	-64.14
344.46	-85.83
344.843	-59.84
345.226	-27.75
345.61	-33.4
345.993	-5.38
346.376	3.43
346.759	5.92
347.142	33.26
347.525	44.79
347.908	85.24
348.291	67.84
348.674	73.71
349.057	113.49
349.44	125.91
349.823	150.32
350.206	162.98
350.588	233.71
350.971	231.67
351.354	259.24
351.737	284.78
352.119	292.69
352.502	305.12
352.884	310.32
353.267	312.8
353.65	299.24
354.032	333.37
354.414	353.03
354.797	338.34
355.179	344.21
355.562	378.34
355.944	369.3
356.326	374.27
356.709	356.19
357.091	408.39
357.473	370.2
357.855	370.2
358.238	372.46
358.62	366.13
359.002	374.72
359.384	379.02
359.766	362.29
360.148	392.57
360.53	388.96
360.912	362.97
361.294	387.83
361.676	381.5
362.057	361.84
362.439	382.18
362.821	359.13
363.203	375.17
363.584	406.13
363.966	354.61
364.348	381.05
364.729	352.12
365.111	368.62
365.493	377.43
365.874	361.39
366.256	359.58
366.637	346.7
367.019	365.91
367.4	378.11
367.781	374.72
368.163	374.27
368.544	356.64
368.925	388.05
369.306	384.21
369.688	345.8
370.069	368.39
370.45	388.28
370.831	385.12
371.212	365.68
371.593	391.44
371.974	387.6
372.355	381.73
372.736	386.25
373.117	397.77
373.498	376.3
373.879	380.37
374.26	384.21
374.641	362.29
375.021	396.19
375.402	398.45
375.783	410.2
376.163	413.82
376.544	414.95
376.925	422.63
377.305	414.49
377.686	409.75
378.066	436.42
378.447	427.6
378.827	400.71
379.208	433.25
379.588	421.95
379.968	437.77
380.349	436.19
380.729	416.75
381.109	436.19
381.489	438.9
381.87	414.27
382.25	463.98
382.63	446.81
383.01	462.63
383.39	454.04
383.77	473.25
384.15	474.83
384.53	479.35
384.91	486.81
385.29	483.19
385.67	516.64
386.049	478.22
386.429	480.93
386.809	515.96
387.189	496.53
387.568	489.75
387.948	498.11
388.328	529.52
388.707	512.57
389.087	512.57
389.466	540.59
389.846	543.08
390.225	570.87
390.605	569.07
390.984	561.84
391.363	569.74
391.743	570.65
392.122	579.91
392.501	596.86
392.881	600.48
393.26	607.26
393.639	597.09
394.018	619.24
394.397	600.03
394.776	616.75
395.155	630.53
395.534	628.27
395.913	645
396.292	663.98
396.671	648.39
397.05	721.83
397.429	697.65
397.808	718.67
398.186	682.06
398.565	713.92
398.944	729.29
399.323	734.94
399.701	771.1
400.08	763.41
400.458	798.44
400.837	797.54
401.215	799.8
401.594	809.51
401.972	831.21
402.351	801.83
402.729	849.51
403.107	877.76
403.486	876.63
403.864	900.81
404.242	919.34
404.62	910.98
404.999	960.47
405.377	967.93
405.755	973.12
406.133	989.39
406.511	1000.92
406.889	998.21
407.267	1065.33
407.645	1060.58
408.023	1085.21
408.401	1122.72
408.779	1124.08
409.156	1165.66
409.534	1171.99
409.912	1180.58
410.29	1217.19
410.667	1226.22
411.045	1251.53
411.422	1269.39
411.8	1305.32
412.178	1330.18
412.555	1339.44
412.933	1367.01
413.31	1416.73
413.687	1440.91
414.065	1456.28
414.442	1468.7
414.819	1506.67
415.197	1512.32
415.574	1579.89
415.951	1554.13
416.328	1622.15
416.705	1615.14
417.082	1614.01
417.46	1696.49
417.837	1694.24
418.214	1700.56
418.591	1727.23
418.967	1738.53
419.344	1723.16
419.721	1803.84
420.098	1812.65
420.475	1854.23
420.852	1850.16
421.228	1878.86
421.605	1898.75
421.982	1924.51
422.358	1944.85
422.735	1971.74
423.111	1969.26
423.488	2017.39
423.864	2025.07
424.241	2069.37
424.617	2099.2
424.994	2114.56
425.37	2108.01
425.746	2159.53
426.123	2207.67
426.499	2193.88
426.875	2245.18
427.251	2285.41
427.627	2372.18
428.003	2349.81
428.379	2400.66
428.756	2421
429.132	2459.64
429.507	2495.34
429.883	2534.66
430.259	2583.93
430.635	2618.05
431.011	2604.72
431.387	2665.51
431.763	2757.03
432.138	2782.57
432.514	2784.15
432.89	2787.09
433.265	2893.75
433.641	2939.63
434.016	2930.13
434.392	3010.81
434.767	3067.31
435.143	3052.17
435.518	3076.35
435.894	3141.65
436.269	3222.56
436.644	3227.75
437.02	3260.75
437.395	3300.97
437.77	3343.68
438.145	3432.72
438.52	3459.16
438.895	3476.11
439.271	3469.56
439.646	3572.38
440.021	3637.46
440.395	3658.7
440.77	3623
441.145	3665.48
441.52	3753.84
441.895	3766.5
442.27	3776.21
442.645	3799.04
443.019	3870.68
443.394	3865.93
443.769	3971.69
444.143	3929.43
444.518	3997
444.892	3987.51
445.267	3969.2
445.641	4056.88
446.016	4029.31
446.39	4087.62
446.764	4088.3
447.139	4120.84
447.513	4194.28
447.887	4208.29
448.262	4251
448.636	4241.29
449.01	4340.04
449.384	4415.07
449.758	4402.19
450.132	4461.39
450.506	4502.75
450.88	4531.67
451.254	4544.1
451.628	4620.94
452.002	4691.22
452.376	4743.19
452.75	4801.95
453.123	4817.32
453.497	4911.33
453.871	4960.36
454.244	5071.55
454.618	5119.68
454.992	5184.54
455.365	5190.41
455.739	5310.86
456.112	5454.81
456.486	5417.53
456.859	5472.21
457.232	5639.22
457.606	5603.74
457.979	5650.29
458.352	5816.84
458.725	5836.5
459.099	5890.96
459.472	6005.53
459.845	6051.41
460.218	6147.45
460.591	6191.52
460.964	6239.88
461.337	6336.37
461.71	6504.05
462.083	6599.19
462.456	6614.11
462.829	6705.63
463.201	6751.73
463.574	6806.87
463.947	6907.66
464.32	7128.22
464.692	7144.71
465.065	7232.17
465.438	7323.47
465.81	7445.95
466.183	7544.02
466.555	7684.13
466.928	7731.14
467.3	7730.91
467.672	7944.24
468.045	8165.25
468.417	8091.13
468.789	8251.12
469.161	8330.44
469.534	8499.93
469.906	8665.58
470.278	8708.29
470.65	8893.37
471.022	9037.77
471.394	9171.33
471.766	9322.28
472.138	9330.19
472.51	9521.37
472.882	9635.5
473.253	9768.15
473.625	9990.51
473.997	10174.24
474.369	10204.29
474.74	10348.47
475.112	10582.59
475.484	10727.44
475.855	10902.81
476.227	11024.84
476.598	11284.94
476.97	11478.38
477.341	11711.37
477.713	11832.95
478.084	11954.76
478.455	12360.17
478.827	12406.04
479.198	12837.67
479.569	12914.51
479.94	13238.79
480.311	13429.07
480.682	13645.33
481.053	14005.78
481.424	14203.28
481.795	14373.68
482.166	14536.84
482.537	14846.43
482.908	15168.23
483.279	15260.66
483.65	15507.43
484.021	15884.37
484.391	16147.41
484.762	16240.07
485.133	16377.92
485.503	16692.26
485.874	16972.7
486.244	17159.59
486.615	17564.33
486.985	17681.61
487.356	17989.17
487.726	18141.03
488.097	18596.16
488.467	18583.51
488.837	19042.93
489.207	19235.47
489.578	19513.43
489.948	19647.44
490.318	19889.91
490.688	20009.69
491.058	20423.69
491.428	20608.31
491.798	20787.29
492.168	21311.12
492.538	21272.48
492.908	21580.27
493.278	21903.87
493.648	21933.93
494.017	22292.56
494.387	22499.79
494.757	22649.39
495.126	22843.74
495.496	22880.8
495.866	23224.52
496.235	23469.71
496.605	23600.55
496.974	23885.52
497.344	24102.46
497.713	24285.05
498.082	24337.48
498.452	24736.34
498.821	24768.88
499.19	24950.8
499.559	25094.52
499.928	25375.65
500.298	25494.51
500.667	25856.09
501.036	25761.17
501.405	26091.56
501.774	26095.18
502.143	26438.44
502.512	26533.58
502.88	26733.12
503.249	26782.16
503.618	26963.63
503.987	27247.69
504.356	27327.46
504.724	27577.17
505.093	27637.73
505.462	27801.57
505.83	28105.07
506.199	28230.94
506.567	28611.72
506.936	28563.36
507.304	28969.45
507.672	29120.18
508.041	29291.02
508.409	29572.82
508.777	29804.68
509.145	29943.44
509.514	30155.41
509.882	30262.07
510.25	30361.73
510.618	30598.79
510.986	30693.47
511.354	30977.31
511.722	31330.74
512.09	31691.41
512.458	31589.72
512.826	31819.32
513.193	32067.22
513.561	32185.64
513.929	32511.5
514.297	32727.77
514.664	32879.18
515.032	33080.98
515.4	33384.25
515.767	33523.91
516.135	33793.73
516.502	33556.45
516.869	34196.66
517.237	34349.42
517.604	34370.44
517.972	34878.9
518.339	35065.79
518.706	35216.97
519.073	35458.55
519.44	35698.76
519.808	36142.37
520.175	35984.86
520.542	36586.43
520.909	36763.14
521.276	36910.26
521.643	37279.06
522.009	37634.76
522.376	37850.8
522.743	38015.77
523.11	38459.82
523.477	38781.85
523.843	39025.46
524.21	39486.24
524.577	39761.03
524.943	39937.07
525.31	40153.56
525.676	40501.35
526.043	40691.4
526.409	40941.11
526.776	41283.25
527.142	41342.23
527.508	41583.58
527.874	41910.8
528.241	42157.58
528.607	42106.28
528.973	42509.66
529.339	42712.14
529.705	43017.67
530.071	43197.55
530.437	43477.09
530.803	43730.64
531.169	43988.94
531.535	43876.63
531.901	44041.6
532.267	44308.26
532.632	44520.91
532.998	44700.56
533.364	44850.84
533.73	45041.8
534.095	45397.49
534.461	45510.71
534.826	45900.08
535.192	45897.37
535.557	46162.9
535.923	46165.61
536.288	46402.21
536.653	46585.48
537.019	46495.32
537.384	46738.93
537.749	47052.82
538.114	47083.32
538.479	47182.08
538.845	47451.9
539.21	47452.58
539.575	47669.52
539.94	47837.65
540.305	48047.59
540.67	48110.42
541.034	48204.65
541.399	48503.63
541.764	48577.3
542.129	48639.89
542.494	48798.99
542.858	49067.9
543.223	49064.74
543.587	49422.25
543.952	49310.84
544.316	49503.6
544.681	49568.23
545.045	49629.92
545.41	49958.28
545.774	50023.81
546.138	50078.95
546.503	50245.05
546.867	50030.14
547.231	50502.9
547.595	50528.43
547.959	50777.01
548.324	50701.99
548.688	50885.94
549.052	50939.04
549.416	50925.03
549.779	50977.01
550.143	51073.28
550.507	51271.91
550.871	51415.19
551.235	51334.51
551.599	51602.08
551.962	51601.85
552.326	51786.48
552.689	51797.32
553.053	51739.47
553.417	51859.24
553.78	52261.95
554.143	52158.67
554.507	52331.77
554.87	52421.04
555.234	52755.04
555.597	52490.64
555.96	52676.62
556.323	52853.34
556.686	52831.87
557.05	53013.34
557.413	53164.29
557.776	53191.41
558.139	53441.12
558.502	53504.17
558.865	53637.5
559.228	53763.83
559.59	53870.72
559.953	53931.51
560.316	54273.64
560.679	54204.04
561.041	54481.32
561.404	54579.17
561.767	54787.08
562.129	54748.89
562.492	55017.8
562.854	55070.91
563.217	55060.74
563.579	55298.02
563.941	55440.39
564.304	55528.98
564.666	55730.78
565.028	55791.8
565.39	55929.19
565.753	56165.35
566.115	56210.09
566.477	56335.51
566.839	56318.79
567.201	56531.66
567.563	56559.69
567.925	56764.65
568.287	56750.41
568.648	56890.3
569.01	57002.84
569.372	57186.11
569.734	56995.38
570.095	57199.22
570.457	57252.77
570.819	57321.7
571.18	57303.62
571.542	57471.3
571.903	57531.19
572.265	57553.56
572.626	57622.48
572.987	57676.27
573.349	57739.09
573.71	57810.5
574.071	57805.53
574.432	57852.76
574.794	58089.36
575.155	58026.09
575.516	57945.41
575.877	58052.75
576.238	58075.13
576.599	58179.3
576.96	58144.73
577.32	58173.65
577.681	58318.51
578.042	58321.22
578.403	58332.52
578.763	58351.73
579.124	58302.01
579.485	58429.24
579.845	58510.59
580.206	58429.92
580.566	58462.69
580.927	58436.25
581.287	58564.83
581.648	58544.27
582.008	58623.81
582.368	58593.76
582.728	58688.44
583.089	58639.18
583.449	58697.48
583.809	58673.98
584.169	58803.47
584.529	58740.64
584.889	58987.87
585.249	58815.9
585.609	58785.62
585.969	59045.27
586.329	58931.83
586.688	59017.7
587.048	59042.11
587.408	59027.42
587.768	59047.53
588.127	59086.62
588.487	59043.69
588.846	59183.57
589.206	59073.29
589.565	59166.85
589.925	59312.61
590.284	59260.18
590.643	59285.04
591.003	59325.71
591.362	59419.5
591.721	59370.91
592.08	59398.25
592.44	59495.43
592.799	59409.1
593.158	59400.06
593.517	59370.23
593.876	59370.01
594.235	59346.28
594.593	59319.16
594.952	59396.22
595.311	59259.05
595.67	59336.56
596.029	59526.61
596.387	59426.95
596.746	59473.05
597.104	59229.22
597.463	59171.82
597.822	59297.01
598.18	59165.49
598.538	59151.93
598.897	59319.84
599.255	59064.7
599.613	59452.72
599.972	59181.31
600.33	59243.46
600.688	59103.57
601.046	59187.86
601.404	59309.9
601.762	59205.72
602.12	59252.95
602.478	59273.74
602.836	59287.3
603.194	59152.16
603.552	59246.39
603.91	59111.26
604.268	59219.28
604.625	59181.54
604.983	59280.07
605.341	59179.05
605.698	59283
606.056	59337.92
606.413	59322.55
606.771	59438.93
607.128	59433.73
607.485	59359.84
607.843	59429.89
608.2	59672.15
608.557	59749.43
608.914	59621.07
609.272	59777.23
609.629	59800.73
609.986	59902.87
610.343	59821.97
610.7	59988.07
611.057	59946.26
611.414	59995.75
611.771	60018.35
612.127	60145.81
612.484	60073.49
612.841	60209.53
613.198	60185.8
613.554	60259.25
613.911	60358.91
614.267	60391.67
614.624	60401.39
614.98	60494.5
615.337	60619.92
615.693	60531.11
616.05	60463.09
616.406	60654.49
616.762	60549.18
617.118	60530.88
617.475	60599.58
617.831	60625.79
618.187	60613.36
618.543	60638.9
618.899	60780.14
619.255	60694.49
619.611	60691.55
619.967	60723.87
620.323	60702.4
620.678	60618.79
621.034	60585.12
621.39	60612.91
621.746	60539.92
622.101	60758.22
622.457	60500.6
622.812	60559.13
623.168	60582.63
623.523	60535.17
623.879	60589.18
624.234	60354.61
624.589	60422.63
624.945	60378.79
625.3	60406.14
625.655	60378.12
626.01	60279.59
626.365	60316.42
626.72	60258.8
627.075	60243.43
627.43	60241.62
627.785	60151.23
628.14	60198.23
628.495	60161.4
628.85	60089.54
629.205	60046.15
629.559	60165.24
629.914	60082.3
630.269	60119.14
630.623	59965.92
630.978	59925.25
631.332	60068.52
631.687	60110.55
632.041	59996.2
632.396	60015.41
632.75	59891.35
633.104	59931.35
633.459	59856.55
633.813	59876.89
634.167	59851.58
634.521	59872.14
634.875	59889.32
635.229	59881.86
635.583	59758.25
635.937	59864.91
636.291	59839.37
636.645	59911.24
636.999	59828.07
637.352	59866.04
637.706	59779.04
638.06	59869.65
638.413	59875.76
638.767	59721.86
639.121	59814.29
639.474	59718.92
639.828	59756.44
640.181	59866.04
640.534	59779.94
640.888	59771.13
641.241	59732.71
641.594	59735.19
641.947	59782.88
642.301	59689.77
642.654	59779.71
643.007	59691.35
643.36	59717.12
643.713	59607.29
644.066	59680.51
644.419	59593.05
644.771	59492.26
645.124	59299.05
645.477	59219.73
645.83	59060.86
646.182	58904.26
646.535	58747.88
646.888	58846.86
647.24	58655.9
647.593	58807.99
647.945	58683.7
648.298	58527.99
648.65	58468.11
649.002	58372.07
649.355	58472.86
649.707	58483.7
650.059	58528.45
650.411	58739.74
650.763	58742.9
651.115	58910.13
651.467	58826.52
651.819	58791.49
652.171	58687.31
652.523	58668.78
652.875	58595.79
653.227	58463.36
653.578	58610.03
653.93	58478.5
654.282	58348.11
654.633	58323.48
654.985	58370.48
655.337	58335.91
655.688	58323.71
656.039	58407.77
656.391	58081.45
656.742	58102.47
657.094	58139.76
657.445	58227.21
657.796	58100.44
658.147	58092.07
658.498	58043.26
658.849	58116.93
659.2	58052.98
659.551	57981.79
659.902	58022.7
660.253	57964.39
660.604	58015.92
660.955	57889.14
661.306	58039.87
661.656	57977.73
662.007	58045.3
662.358	58026.31
662.708	57979.76
663.059	58018.63
663.409	57882.36
663.76	58102.92
664.11	57988.35
664.461	57981.79
664.811	58000.55
665.161	57938.41
665.511	57988.57
665.862	58043.71
666.212	58068.8
666.562	58070.83
666.912	58021.12
667.262	57958.97
667.612	58039.65
667.962	58105.86
668.312	58008.01
668.662	58217.27
669.011	58109.02
669.361	58058.18
669.711	58008.01
670.06	57982.47
670.41	57985.41
670.76	57895.7
671.109	57988.12
671.459	57945.64
671.808	57902.93
672.157	57912.42
672.507	57792.42
672.856	57692.99
673.205	57831.06
673.554	57805.98
673.904	57755.81
674.253	57980.66
674.602	57774.12
674.951	57407.12
675.3	57281.47
675.649	57624.29
675.998	57608.47
676.346	57614.57
676.695	57704.51
677.044	57448.25
677.393	57544.52
677.741	57594.69
678.09	57505.65
678.438	57399.66
678.787	57434.46
679.135	57388.14
679.484	57196.05
679.832	57198.99
680.181	57038.77
680.529	57095.94
680.877	57011.2
681.225	56937.53
681.573	57123.74
681.922	56903.63
682.27	56690.53
682.618	56801.71
682.966	56637.42
683.314	56651.21
683.661	56526.01
684.009	56380.25
684.357	56342.06
684.705	56367.37
685.053	56421.84
685.4	56260.48
685.748	56115.86
686.095	56098.45
686.443	56022.52
686.79	55974.39
687.138	55974.16
687.485	56019.59
687.832	55884.45
688.18	55971
688.527	55744.57
688.874	55816.65
689.221	55759.93
689.568	55648.97
689.915	55556.1
690.262	55587.28
690.609	55500.28
690.956	55458.7
691.303	55341.64
691.65	55207.86
691.997	55201.98
692.344	55122.89
692.69	55072.27
693.037	54963.12
693.383	54825.27
693.73	55039.5
694.077	54785.95
694.423	54837.7
694.769	54681.77
695.116	54655.33
695.462	54584.6
695.808	54556.12
696.155	54533.3
696.501	54394.32
696.847	54369.91
697.193	54159.52
697.539	54373.75
697.885	54159.3
698.231	54011.05
698.577	54075
698.923	54115.68
699.269	53883.6
699.614	53822.13
699.96	53657.61
700.306	53707.78
700.651	53594.57
700.997	53357.74
701.342	53420.11
701.688	53316.38
702.033	53296.27
702.379	53317.96
702.724	53178.53
703.069	53195.71
703.415	52927.69
703.76	52955.71
704.105	52834.13
704.45	52729.28
704.795	52537.19
705.14	52466.91
705.485	52388.5
705.83	52278.44
706.175	52374.48
706.52	52289.29
706.865	52071.67
707.209	52066.02
707.554	51943.08
707.899	52007.49
708.243	51805.69
708.588	51550.33
708.932	51390.78
709.277	51481.17
709.621	51321.86
709.966	51159.15
710.31	51210.22
710.654	50860.63
710.998	50914.41
711.342	50803.9
711.687	50658.37
712.031	50568.43
712.375	50378.6
712.719	50418.6
713.063	50270.13
713.407	50390.13
713.75	50157.82
714.094	50043.02
714.438	49917.37
714.782	49930.48
715.125	49854.32
715.469	49926.64
715.812	49767.1
716.156	49371.17
716.499	49506.54
716.843	49464.28
717.186	49205.98
717.53	49415.24
717.873	49348.8
718.216	49117.39
718.559	49114.68
718.902	48809.83
719.246	48854.8
719.589	48633.79
719.932	48639.89
720.275	48550.63
720.617	48515.15
720.96	48516.73
721.303	48417.98
721.646	48591.31
721.989	48300.47
722.331	48277.42
722.674	48238.32
723.016	48161.94
723.359	48175.5
723.701	48168.95
724.044	47965.79
724.386	47804.66
724.729	47912.91
725.071	47885.56
725.413	47770.54
725.755	47599.47
726.097	47702.97
726.439	47426.14
726.782	47632.01
727.124	47722.86
727.465	47382.98
727.807	47425.01
728.149	47183.89
728.491	47267.95
728.833	47260.72
729.175	47140.95
729.516	47084.45
729.858	47216.2
730.199	47193.6
730.541	47080.84
730.882	46922.65
731.224	47014.4
731.565	46916.55
731.906	46929.43
732.248	47008.07
732.589	46760.85
732.93	46701.19
733.271	46682.66
733.612	46681.53
733.953	46774.18
734.294	46580.74
734.635	46361.99
734.976	46592.26
735.317	46282.44
735.658	46331.93
735.999	46414.64
736.339	46061.2
736.68	46135.1
737.021	45993.64
737.361	45928.78
737.702	45933.75
738.042	45740.53
738.383	45642.68
738.723	45747.09
739.063	45520.65
739.404	45488.34
739.744	45297.16
740.084	45258.51
740.424	45111.85
740.764	45024.62
741.104	45199.31
741.444	44895.13
741.784	44695.36
742.124	44696.04
742.464	44521.36
742.804	44484.97
743.143	44304.41
743.483	44396.39
743.823	44162.05
744.162	44144.87
744.502	44095.15
744.841	43883.86
745.181	43921.15
745.52	43631.66
745.86	43613.13
746.199	43559.35
746.538	43480.48
746.877	43402.29
747.216	43307.83
747.556	43160.72
747.895	43037.78
748.234	42861.51
748.573	42821.29
748.911	42598.24
749.25	42694.06
749.589	42434.18
749.928	42436.67
750.267	42484.8
750.605	42210.01
750.944	42248.42
751.283	41988.09
751.621	42131.14
751.96	41715.56
752.298	41781.09
752.636	41713.97
752.975	41522.11
753.313	41350.59
753.651	41322.8
753.989	41341.33
754.327	41283.93
754.666	41050.71
755.004	41085.06
755.342	41106.76
755.679	40954.9
756.017	40760.33
756.355	40893.43
756.693	40652.98
757.031	40713.1
757.368	40509.71
757.706	40365.31
758.044	40397.85
758.381	40392.65
758.719	40178.19
759.056	40152.21
759.394	39976.17
759.731	39787.7
760.068	40073.79
760.405	39856.85
760.743	39822.72
761.08	39661.82
761.417	39579.79
761.754	39628.38
762.091	39569.85
762.428	39395.39
762.765	39222.29
763.102	39439.23
763.438	39180.48
763.775	39138.67
764.112	39244.43
764.449	39141.61
764.785	38975.97
765.122	38708.18
765.458	38587.05
765.795	38641.51
766.131	38604.45
766.467	38372.82
766.804	38288.3
767.14	38150.68
767.476	38276.1
767.812	38010.57
768.148	38134.18
768.485	37979.16
768.821	37728.09
769.157	37740.29
769.492	37682.22
769.828	37530.13
770.164	37165.17
770.5	37185.73
770.836	37119.07
771.171	36777.15
771.507	36777.61
771.842	36622.58
772.178	36595.92
772.513	36441.57
772.849	36243.38
773.184	36123.61
773.519	36109.83
773.855	35859.21
774.19	35861.7
774.525	35832.55
774.86	35830.74
775.195	35631.65
775.53	35437.75
775.865	35145.11
776.2	34744.21
776.535	34556.42
776.87	34687.27
777.205	34516.87
777.539	34307.84
777.874	34450.21
778.209	33978.81
778.543	33905.59
778.878	33545.15
779.212	33536.34
779.547	33356.68
779.881	33459.05
780.215	33234.2
780.55	33213.86
780.884	32882.12
781.218	32864.49
781.552	32694.32
781.886	32389.25
782.22	32107.45
782.554	32088.46
782.888	31966.66
783.222	31820.9
783.556	31627.23
783.889	31488.25
784.223	31268.6
784.557	31125.78
784.89	31096.4
785.224	30884.65
785.557	30781.15
785.891	30674.26
786.224	30502.29
786.558	30433.82
786.891	30198.57
787.224	29973.49
787.557	30037.67
787.891	29815.98
788.224	29695.98
788.557	29712.03
788.89	29564.01
789.223	29342.1
789.556	29107.75
789.888	29036.57
790.221	28907.08
790.554	28597.48
790.887	28638.39
791.219	28546.18
791.552	28368.79
791.884	28486.98
792.217	28385.06
792.549	28157.95
792.882	27905.75
793.214	27788.92
793.546	27857.16
793.879	27586.21
794.211	27629.15
794.543	27677.73
794.875	27440.68
795.207	27609.26
795.539	27427.34
795.871	27330.4
796.203	27160.01
796.535	26937.87
796.867	26943.74
797.198	26883.18
797.53	26969.73
797.862	26808.6
798.193	26819
798.525	26622.17
798.856	26585.78
799.188	26433.47
799.519	26350.08
799.85	26259.24
800.182	26368.84
800.513	26149.19
800.844	26057.21
801.175	26193.48
801.506	26154.38
801.837	25955.74
802.168	26022.63
802.499	25911.45
802.83	25771.34
803.161	25774.05
803.491	25725.24
803.822	25807.05
804.153	25588.52
804.483	25525.7
804.814	25462.42
805.145	25451.35
805.475	25466.72
805.805	25321.64
806.136	25323.9
806.466	25451.35
806.796	25377.68
807.126	25319.15
807.457	25152.15
807.787	25240.06
808.117	25121.42
808.447	25014.3
808.777	25027.18
809.107	24919.61
809.436	25026.95
809.766	25000.97
810.096	24921.2
810.426	24826.28
810.755	24828.09
811.085	24790.58
811.414	24766.4
811.744	24558.04
812.073	24505.61
812.403	24553.97
812.732	24476.23
813.061	24447.76
813.39	24266.3
813.719	24240.08
814.049	24270.36
814.378	24274.21
814.707	24137.03
815.036	24114.21
815.365	24017.04
815.693	23902.46
816.022	23893.43
816.351	23735.01
816.68	23558.97
817.008	23626.77
817.337	23490.95
817.665	23375.92
817.994	23411.86
818.322	23429.26
818.651	23312.88
818.979	23151.98
819.307	23304.74
819.636	23189.72
819.964	23047.8
820.292	23209.15
820.62	23071.53
820.948	22925.09
821.276	22934.58
821.604	22888.48
821.932	22956.05
822.259	22979.33
822.587	22829.5
822.915	22698.43
823.243	22751.99
823.57	22695.72
823.898	22670.86
824.225	22576.4
824.553	22638.32
824.88	22522.16
825.207	22592.89
825.535	22463.63
825.862	22564.87
826.189	22375.27
826.516	22422.5
826.843	22438.32
827.17	22444.65
827.497	22279.23
827.824	22273.81
828.151	22201.04
828.478	22094.83
828.805	22218.89
829.131	21985
829.458	21947.71
829.785	21927.6
830.111	21820.71
830.438	22008.28
830.764	21910.2
831.09	22029.97
831.417	21796.08
831.743	21908.84
832.069	21728.51
832.395	21608.97
832.722	21663.65
833.048	21459.37
833.374	21490.1
833.7	21426.6
834.026	21534.17
834.351	21439.03
834.677	21447.39
835.003	21435.18
835.329	21336.2
835.654	21240.39
835.98	21172.82
836.306	21104.8
836.631	21093.73
836.956	21067.96
837.282	21102.76
837.607	20923.11
837.932	20860.06
838.258	20811.47
838.583	20893.5
838.908	20729.67
839.233	20761.76
839.558	20719.27
839.883	20615.55
840.208	20577.13
840.533	20652.38
840.858	20679.27
841.182	20564.02
841.507	20514.98
841.832	20423.23
842.156	20424.14
842.481	20407.19
842.805	20418.26
843.13	20252.17
843.454	20266.4
843.778	20150.02
844.103	20173.75
844.427	20100.76
844.751	20015.34
845.075	20078.84
845.399	20058.27
845.723	19933.08
846.047	20084.49
846.371	19895.34
846.695	19903.7
847.019	19750.94
847.343	19592.75
847.666	19574.44
847.99	19456.03
848.313	19546.42
848.637	19373.32
848.96	19454.9
849.284	19463.94
849.607	19251.97
849.931	19332.64
850.254	19237.5
850.577	19134.91
850.9	19037.73
851.223	19010.16
851.546	19085.19
851.869	18855.82
852.192	18905.53
852.515	18844.52
852.838	18772.2
853.161	18733.56
853.483	18607.46
853.806	18518.65
854.129	18572.44
854.451	18477.75
854.774	18488.6
855.096	18498.99
855.419	18422.61
855.741	18427.81
856.063	18307.81
856.385	18419.45
856.708	18273.46
857.03	18296.51
857.352	18316.62
857.674	18239.34
857.996	18136.51
858.318	18052.22
858.64	18155.27
858.961	17959.8
859.283	18029.85
859.605	17899.68
859.926	17954.6
860.248	17925.9
860.57	17867.6
860.891	17894.49
861.212	17752.8
861.534	17740.37
861.855	17746.02
862.176	17680.48
862.498	17730.88
862.819	17607.26
863.14	17654.95
863.461	17539.24
863.782	17518.68
864.103	17553.71
864.424	17428.28
864.745	17529.07
865.065	17366.14
865.386	17296.08
865.707	17338.57
866.027	17298.8
866.348	17238.01
866.668	17236.2
866.989	17206.37
867.309	17133.38
867.63	17058.8
867.95	17060.61
868.27	16950.33
868.59	16984
868.91	16891.35
869.23	16902.42
869.55	16820.62
869.87	16872.14
870.19	16752.14
870.51	16818.36
870.83	16720.73
871.15	16603.22
871.469	16631.02
871.789	16589.21
872.109	16527.29
872.428	16477.8
872.748	16503.56
873.067	16530.46
873.386	16410.91
873.706	16364.36
874.025	16256.34
874.344	16212.5
874.663	16128.88
874.982	16176.34
875.301	16101.54
875.62	16103.12
875.939	15886.63
876.258	15995.33
876.577	15885.73
876.896	15864.48
877.214	15819.74
877.533	15706.52
877.852	15628.78
878.17	15753.75
878.489	15666.07
878.807	15605.73
879.125	15555.11
879.444	15476.02
879.762	15441.9
880.08	15410.94
880.398	15321
880.716	15354.44
881.034	15241.22
881.352	15280.77
881.67	15154.67
881.988	15128.01
882.306	15084.84
882.624	15002.36
882.941	14877.17
883.259	14869.48
883.577	14790.84
883.894	14831.06
884.212	14725.08
884.529	14694.8
884.846	14715.14
885.164	14612.77
885.481	14515.82
885.798	14579.77
886.115	14398.76
886.432	14441.24
886.75	14313.34
887.067	14308.59
887.383	14274.24
887.7	14323.73
888.017	14214.81
888.334	14169.84
888.651	14128.26
888.967	14095.49
889.284	14012.78
889.6	13993.12
889.917	13866.57
890.233	13890.75
890.55	13750.42
890.866	13808.27
891.182	13675.61
891.498	13652.56
891.815	13620.93
892.131	13607.37
892.447	13622.51
892.763	13567.6
893.079	13477.65
893.395	13530.31
893.71	13556.3
894.026	13491.67
894.342	13417.54
894.657	13304.33
894.973	13343.87
895.289	13341.39
895.604	13338.45
895.92	13140.26
896.235	13083.54
896.55	13185.91
896.865	13143.2
897.181	13091.45
897.496	13055.74
897.811	12992.02
898.126	12911.57
898.441	12856.65
898.756	12855.75
899.071	12830.21
899.386	12902.75
899.7	12772.81
900.015	12761.97
900.33	12649.43
900.644	12633.16
900.959	12694.17
901.273	12640.61
901.588	12597.23
901.902	12512.03
902.216	12506.38
902.531	12516.32
902.845	12473.84
903.159	12417.79
903.473	12336.44
903.787	12308.42
904.101	12333.73
904.415	12310.45
904.729	12200.4
905.042	12169.44
905.356	12211.7
905.67	12078.37
905.984	12134.19
906.297	12140.97
906.611	12072.49
906.924	11958.82
907.237	12054.41
907.551	11962.89
907.864	11855.78
908.177	11925.6
908.491	11852.39
908.804	11759.51
909.117	11704.37
909.43	11747.76
909.743	11617.36
910.056	11635.22
910.368	11574.65
910.681	11557.03
910.994	11523.13
911.307	11498.05
911.619	11466.63
911.932	11386.86
912.244	11286.53
912.557	11350.48
912.869	11218.5
913.181	11273.87
913.494	11199.97
913.806	11174.21
914.118	11103.03
914.43	11034.78
914.742	11026.42
915.054	11038.17
915.366	10913.65
915.678	10866.88
915.99	10860.32
916.302	10872.98
916.613	10881.56
916.925	10776.93
917.236	10739.42
917.548	10615.36
917.859	10661.68
918.171	10510.5
918.482	10530.61
918.794	10426.89
919.105	10479.54
919.416	10383.27
919.727	10394.35
920.038	10247.68
920.349	10268.47
920.66	10159.1
920.971	10163.16
921.282	10176.05
921.593	10027.12
921.903	10032.77
922.214	9990.06
922.525	9941.25
922.835	9874.13
923.146	9840.91
923.456	9850.63
923.767	9772.89
924.077	9766.11
924.387	9687.25
924.697	9626.68
925.008	9645.44
925.318	9513.46
925.628	9536.97
925.938	9469.17
926.248	9411.09
926.558	9351.89
926.867	9324.77
927.177	9274.6
927.487	9276.18
927.796	9146.69
928.106	9149.18
928.416	9123.19
928.725	9051.1
929.034	9005.91
929.344	8944.67
929.653	8896.31
929.962	8827.61
930.271	8767.27
930.581	8759.81
930.89	8727.04
931.199	8633.94
931.508	8650.21
931.817	8605.24
932.125	8576.99
932.434	8551.23
932.743	8358.92
933.051	8364.57
933.36	8322.54
933.669	8215.87
933.977	8235.08
934.286	8248.41
934.594	8179.94
934.902	8133.16
935.21	8033.28
935.519	8073.05
935.827	8001.87
936.135	7945.37
936.443	7894.52
936.751	7857.01
937.059	7941.53
937.367	7817.46
937.674	7813.62
937.982	7718.94
938.29	7690.24
938.597	7732.72
938.905	7561.65
939.213	7577.92
939.52	7557.13
939.827	7614.53
940.135	7507.42
940.442	7468.77
940.749	7396.46
941.056	7382.22
941.363	7372.96
941.67	7332.28
941.977	7244.37
942.284	7212.96
942.591	7165.96
942.898	7146.07
943.205	7159.4
943.511	7046.64
943.818	7059.74
944.125	7006.41
944.431	6991.72
944.738	6967.54
945.044	6904.72
945.35	6867.43
945.657	6806.87
945.963	6792.63
946.269	6790.82
946.575	6787.43
946.881	6736.36
947.187	6686.42
947.493	6680.54
947.799	6663.6
948.105	6584.05
948.41	6492.3
948.716	6499.08
949.022	6533.88
949.327	6471.51
949.633	6393.55
949.938	6377.28
950.244	6380.67
950.549	6289.37
950.854	6252.08
951.16	6296.83
951.465	6270.84
951.77	6201.69
952.075	6178.19
952.38	6157.17
952.685	6114.91
952.99	6105.19
953.294	6116.27
953.599	6035.14
953.904	5980.22
954.209	5992.65
954.513	5990.17
954.818	6003.95
955.122	5921.69
955.426	5897.51
955.731	5904.29
956.035	5787.23
956.339	5834.01
956.643	5761.7
956.948	5781.81
957.252	5787.01
957.556	5774.58
957.86	5697.52
958.163	5628.14
958.467	5701.59
958.771	5672.21
959.075	5654.13
959.378	5593.34
959.682	5547.47
959.985	5538.43
960.289	5493.23
960.592	5517.64
960.896	5509.05
961.199	5432.67
961.502	5447.13
961.805	5414.82
962.108	5399.9
962.411	5363.52
962.714	5308.83
963.017	5324.2
963.32	5318.32
963.623	5266.57
963.926	5276.06
964.228	5254.59
964.531	5215.72
964.833	5215.27
965.136	5147.03
965.438	5179.79
965.741	5147.93
966.043	5137.99
966.345	5124.65
966.648	5094.82
966.95	5087.82
967.252	5080.81
967.554	5052.79
967.856	5022.51
968.158	4920.82
968.46	4912.91
968.761	4951.32
969.063	4907.26
969.365	4930.08
969.666	4926.47
969.968	4832.68
970.269	4822.97
970.571	4847.82
970.872	4829.97
971.174	4795.4
971.475	4811.22
971.776	4782.52
972.077	4734.83
972.378	4729.18
972.679	4721.05
972.98	4736.87
973.281	4682.41
973.582	4687.15
973.883	4650.54
974.183	4612.58
974.484	4620.03
974.785	4578.23
975.085	4553.59
975.386	4553.59
975.686	4511.34
975.986	4524.44
976.287	4513.6
976.587	4478.79
976.887	4473.82
977.187	4409.19
977.487	4435.86
977.787	4426.37
978.087	4354.96
978.387	4324.67
978.687	4321.06
978.987	4321.74
979.286	4282.19
979.586	4237.67
979.885	4187.5
980.185	4228.41
980.484	4182.76
980.784	4189.76
981.083	4124.68
981.382	4148.41
981.682	4152.7
981.981	4074.74
982.28	4036.77
982.579	4057.79
982.878	4078.13
983.177	4015.53
983.475	3981.18
983.774	3989.77
984.073	3931.01
984.372	3920.62
984.67	3929.2
984.969	3886.27
985.267	3888.08
985.566	3869.77
985.864	3815.31
986.162	3823.22
986.461	3800.39
986.759	3822.54
987.057	3787.97
987.355	3750.68
987.653	3764.46
987.951	3663.45
988.249	3734.86
988.547	3697.12
988.844	3635.88
989.142	3682.88
989.44	3604.47
989.737	3620.51
990.035	3616.22
990.332	3585.94
990.63	3564.47
990.927	3533.28
991.224	3527.41
991.521	3530.12
991.819	3495.77
992.116	3490.57
992.413	3470.91
992.71	3446.28
993.006	3448.54
993.303	3417.58
993.6	3455.09
993.897	3370.12
994.193	3346.85
994.49	3358.6
994.787	3329.45
995.083	3310.46
995.379	3265.27
995.676	3250.35
995.972	3277.47
996.268	3265.27
996.565	3203.12
996.861	3165.38
997.157	3200.64
997.453	3201.77
997.749	3149.34
998.044	3136.01
998.34	3107.53
998.636	3084.71
998.932	3074.54
999.227	3019.62
999.523	3059.62
999.818	3051.49
1000.114	2985.27
1000.409	2973.52
1000.704	2973.52
1001	2929.23
1001.295	2910.47
1001.59	2890.81
1001.885	2938.27
1002.18	2853.53
1002.475	2905.5
1002.77	2853.53
1003.065	2807.65
1003.359	2821.44
1003.654	2830.93
1003.949	2745.96
1004.243	2764.72
1004.538	2737.82
1004.832	2738.95
1005.127	2739.63
1005.421	2698.05
1005.715	2683.81
1006.009	2647.66
1006.304	2677.26
1006.598	2653.31
1006.892	2606.08
1007.186	2592.97
1007.48	2574.66
1007.773	2565.4
1008.067	2540.77
1008.361	2518.17
1008.655	2505.97
1008.948	2521.56
1009.242	2499.41
1009.535	2463.71
1009.829	2434.55
1010.122	2448.11
1010.415	2434.78
1010.708	2417.15
1011.001	2356.82
1011.295	2395.46
1011.588	2415.35
1011.881	2333.77
1012.173	2338.29
1012.466	2340.77
1012.759	2316.14
1013.052	2311.39
1013.344	2302.58
1013.637	2287.44
1013.93	2237.05
1014.222	2235.69
1014.514	2249.02
1014.807	2211.74
1015.099	2179.42
1015.391	2201.57
1015.683	2184.84
1015.976	2154.11
1016.268	2200.21
1016.56	2120.21
1016.851	2087.9
1017.143	2106.65
1017.435	2085.64
1017.727	2023.27
1018.018	2025.98
1018.31	2007.9
1018.602	2008.13
1018.893	2017.39
1019.185	2030.95
1019.476	1992.31
1019.767	1991.4
1020.058	1978.3
1020.35	1898.75
1020.641	1964.06
1020.932	1897.62
1021.223	1919.31
1021.514	1900.11
1021.804	1868.69
1022.095	1886.09
1022.386	1860.56
1022.677	1852.88
1022.967	1833.89
1023.258	1824.63
1023.548	1839.32
1023.839	1813.33
1024.129	1790.96
1024.419	1764.52
1024.709	1769.26
1025	1766.32
1025.29	1743.5
1025.58	1731.3
1025.87	1725.42
1026.16	1716.61
1026.449	1691.75
1026.739	1673.44
1027.029	1678.19
1027.319	1649.72
1027.608	1632.99
1027.898	1647.46
1028.187	1604.75
1028.477	1605.42
1028.766	1618.08
1029.055	1607.01
1029.344	1585.54
1029.634	1596.84
1029.923	1570.4
1030.212	1576.95
1030.501	1500.57
1030.79	1519.1
1031.078	1530.85
1031.367	1475.26
1031.656	1471.19
1031.945	1497.63
1032.233	1492.43
1032.522	1472.09
1032.81	1451.3
1033.099	1448.37
1033.387	1475.03
1033.675	1411.76
1033.963	1412.89
1034.251	1414.92
1034.54	1394.36
1034.828	1397.75
1035.116	1356.62
1035.403	1344.87
1035.691	1362.49
1035.979	1325.43
1036.267	1342.15
1036.554	1324.98
1036.842	1315.94
1037.129	1303.96
1037.417	1281.14
1037.704	1285.21
1037.992	1283.85
1038.279	1262.83
1038.566	1241.37
1038.853	1241.37
1039.14	1241.37
