Data from White_reflection_standard_FLMS001491_003.txt Node
Date: Tue Feb 07 10:31:55 GMT 2017
User: dcchb
Spectrometer: FLMS00149
Trigger mode: 0
Integration Time (sec): 2.000000E-2
Scans to average: 10
Electric dark correction enabled: true
Nonlinearity correction enabled: false
Boxcar width: 0
XAxis mode: Wavelengths
Number of Pixels in Spectrum: 2048
>>>>>Begin Spectral Data<<<<<
341.393	-19.28
341.776	-19.28
342.16	-19.28
342.543	-91.37
342.927	-63.12
343.31	-73.74
343.693	-47.98
344.077	-67.19
344.46	-55.21
344.843	-70.13
345.226	-39.39
345.61	-19.28
345.993	-27.64
346.376	-7.08
346.759	10.32
347.142	32.92
347.525	32.47
347.908	63.2
348.291	72.47
348.674	86.03
349.057	110.21
349.44	111.34
349.823	128.97
350.206	171.9
350.588	230.21
350.971	244.22
351.354	259.81
351.737	267.27
352.119	295.51
352.502	307.72
352.884	313.59
353.267	311.33
353.65	327.83
354.032	337.32
354.414	347.49
354.797	365.34
355.179	390.65
355.562	370.09
355.944	369.41
356.326	374.16
356.709	396.53
357.091	373.48
357.473	395.85
357.855	384.55
358.238	394.5
358.62	409.64
359.002	396.76
359.384	401.27
359.766	422.29
360.148	392.69
360.53	399.24
360.912	383.65
361.294	406.47
361.676	399.92
362.057	403.31
362.439	409.18
362.821	400.82
363.203	415.29
363.584	407.15
363.966	409.86
364.348	403.08
364.729	426.36
365.111	400.6
365.493	422.52
365.874	397.66
366.256	400.6
366.637	396.53
367.019	437.66
367.4	392.24
367.781	433.82
368.163	421.61
368.544	433.36
368.925	427.71
369.306	423.65
369.688	415.96
370.069	423.65
370.45	420.48
370.831	420.71
371.212	424.33
371.593	430.88
371.974	449.41
372.355	418.9
372.736	438.34
373.117	450.31
373.498	433.14
373.879	450.09
374.26	433.59
374.641	428.84
375.021	439.92
375.402	466.58
375.783	468.39
376.163	493.25
376.544	519.01
376.925	479.46
377.305	499.13
377.686	497.32
378.066	492.35
378.447	497.54
378.827	503.87
379.208	520.37
379.588	500.93
379.968	510.2
380.349	515.85
380.729	518.79
381.109	531.67
381.489	547.26
381.87	538.9
382.25	543.64
382.63	551.78
383.01	558.33
383.39	565.56
383.77	568.5
384.15	561.95
384.53	583.87
384.91	585.68
385.29	596.75
385.67	590.65
386.049	584.32
386.429	614.83
386.809	627.94
387.189	636.97
387.568	619.12
387.948	614.38
388.328	659.8
388.707	637.2
389.087	660.48
389.466	657.77
389.846	665.9
390.225	690.76
390.605	693.47
390.984	699.12
391.363	713.13
391.743	724.2
392.122	737.54
392.501	733.47
392.881	735.5
393.26	748.84
393.639	772.79
394.018	764.66
394.397	774.15
394.776	768.72
395.155	760.36
395.534	782.51
395.913	787.48
396.292	807.59
396.671	834.03
397.05	823.41
397.429	816.63
397.808	829.96
398.186	845.33
398.565	843.3
398.944	836.52
399.323	839
399.701	878.78
400.08	868.16
400.458	871.77
400.837	902.96
401.215	902.5
401.594	931.43
401.972	955.84
402.351	934.82
402.729	946.8
403.107	988.83
403.486	975.5
403.864	1012.11
404.242	998.55
404.62	1006.23
404.999	1048.49
405.377	1033.8
405.755	1056.17
406.133	1059.79
406.511	1077.64
406.889	1068.38
407.267	1114.7
407.645	1133.01
408.023	1141.82
408.401	1157.87
408.779	1172.55
409.156	1176.17
409.534	1211.65
409.912	1218.43
410.29	1236.51
410.667	1245.77
411.045	1255.04
411.422	1288.48
411.8	1280.35
412.178	1321.7
412.555	1340.69
412.933	1344.98
413.31	1393.11
413.687	1407.35
414.065	1407.58
414.442	1418.2
414.819	1451.19
415.197	1438.54
415.574	1474.47
415.951	1507.91
416.328	1515.14
416.705	1506.56
417.082	1525.09
417.46	1561.47
417.837	1577.29
418.214	1601.47
418.591	1608.7
418.967	1595.59
419.344	1641.02
419.721	1659.55
420.098	1662.94
420.475	1701.81
420.852	1690.05
421.228	1716.04
421.605	1717.85
421.982	1776.83
422.358	1785.42
422.735	1809.37
423.111	1785.65
423.488	1838.3
423.864	1839.66
424.241	1852.76
424.617	1891.63
424.994	1909.94
425.37	1947
425.746	1954.45
426.123	2002.36
426.499	1996.26
426.875	2023.6
427.251	2067.45
427.627	2114.45
428.003	2098.18
428.379	2149.03
428.756	2197.61
429.132	2183.6
429.507	2227.89
429.883	2269.47
430.259	2329.81
430.635	2323.26
431.011	2358.96
431.387	2401
431.763	2435.57
432.138	2465.4
432.514	2506.76
432.89	2543.14
433.265	2579.07
433.641	2598.96
434.016	2640.76
434.392	2678.5
434.767	2714.43
435.143	2667.43
435.518	2771.83
435.894	2784.26
436.269	2807.09
436.644	2857.03
437.02	2883.47
437.395	2879.4
437.77	2969.57
438.145	2992.85
438.52	3020.19
438.895	3064.71
439.271	3059.28
439.646	3181.54
440.021	3128.21
440.395	3162.11
440.77	3147.87
441.145	3192.16
441.52	3260.18
441.895	3297.92
442.27	3293.4
442.645	3299.28
443.019	3405.26
443.394	3355.32
443.769	3453.17
444.143	3391.25
444.518	3471.93
444.892	3429.67
445.267	3508.31
445.641	3512.15
446.016	3523.45
446.39	3569.1
446.764	3643
447.139	3565.26
447.513	3634.64
447.887	3647.74
448.262	3721.64
448.636	3716.22
449.01	3821.52
449.384	3812.03
449.758	3791.02
450.132	3905.36
450.506	3912.14
450.88	3918.24
451.254	3968.86
451.628	4006.6
452.002	4053.38
452.376	4080.27
452.75	4124.57
453.123	4177.9
453.497	4253.83
453.871	4309.42
454.244	4312.81
454.618	4376.99
454.992	4485.46
455.365	4475.07
455.739	4568.85
456.112	4675.29
456.486	4664.21
456.859	4714.61
457.232	4788.28
457.606	4780.37
457.979	4907.14
458.352	4965.45
458.725	5021.49
459.099	5084.32
459.472	5185.56
459.845	5228.72
460.218	5315.95
460.591	5365.89
460.964	5333.12
461.337	5455.38
461.71	5584.42
462.083	5636.84
462.456	5666
462.829	5731.98
463.201	5774.47
463.574	5783.28
463.947	5926.78
464.32	6030.05
464.692	6064.63
465.065	6158.19
465.438	6232.08
465.81	6324.28
466.183	6383.49
466.555	6551.62
466.928	6603.37
467.3	6557.5
467.672	6658.29
468.045	6840.65
468.417	6854.66
468.789	6905.96
469.161	7041.55
469.534	7103.25
469.906	7312.51
470.278	7360.64
470.65	7433.41
471.022	7615.32
471.394	7768.54
471.766	7807.41
472.138	7969.89
472.51	8084.46
472.882	8198.81
473.253	8327.85
473.625	8432.7
473.997	8582.98
474.369	8701.4
474.74	8805.12
475.112	8963.54
475.484	9095.28
475.855	9231.78
476.227	9366.46
476.598	9528.49
476.97	9631.31
477.341	9894.13
477.713	10068.82
478.084	10111.08
478.455	10434.46
478.827	10443.27
479.198	10789.25
479.569	10806.2
479.94	11081.45
480.311	11268.11
480.682	11492.51
481.053	11685.95
481.424	11916.9
481.795	12058.14
482.166	12173.17
482.537	12381.3
482.908	12692.93
483.279	12809.99
483.65	13007.72
484.021	13360.03
484.391	13404.55
484.762	13591.66
485.133	13792.56
485.503	13938.77
485.874	14212.66
486.244	14332.43
486.615	14619.43
486.985	14875.24
487.356	15073.21
487.726	15216.03
488.097	15439.98
488.467	15647.2
488.837	15829.34
489.207	16077.47
489.578	16319.27
489.948	16464.81
490.318	16667.51
490.688	16712.94
491.058	17059.59
491.428	17324.67
491.798	17448.51
492.168	17870.19
492.538	17959.46
492.908	18090.75
493.278	18364.19
493.648	18291.43
494.017	18621.36
494.387	18841.69
494.757	18916.95
495.126	19130.27
495.496	19184.96
495.866	19324.62
496.235	19652.97
496.605	19784.72
496.974	19848.45
497.344	20030.36
497.713	20172.51
498.082	20326.63
498.452	20587.64
498.821	20679.61
499.19	20703.11
499.559	20965.71
499.928	21131.8
500.298	21212.25
500.667	21478.91
501.036	21500.83
501.405	21754.84
501.774	21786.7
502.143	21971.78
502.512	22171.78
502.88	22312.11
503.249	22335.61
503.618	22455.61
503.987	22693.57
504.356	22899.44
504.724	22838.65
505.093	23109.38
505.462	23211.52
505.83	23454.68
506.199	23502.59
506.567	23870.04
506.936	23761.56
507.304	24198.62
507.672	24239.97
508.041	24463.24
508.409	24671.15
508.777	24823.91
509.145	25004.24
509.514	24997.01
509.882	25298.7
510.25	25237.68
510.618	25512.7
510.986	25745.47
511.354	25870.44
511.722	26054.39
512.09	26344.55
512.458	26374.6
512.826	26646.23
513.193	26720.58
513.561	26922.39
513.929	27220.46
514.297	27362.37
514.664	27605.53
515.032	27670.61
515.4	28104.95
515.767	28058.17
516.135	28356.92
516.502	28063.6
516.869	28701.1
517.237	28849.79
517.604	28738.61
517.972	29315.99
518.339	29481.87
518.706	29460.4
519.073	29654.06
519.44	29923.21
519.808	30170.66
520.175	30274.61
520.542	30622.63
520.909	30790.76
521.276	30814.94
521.643	31306.22
522.009	31416.73
522.376	31622.15
522.743	31910.28
523.11	32323.6
523.477	32440.66
523.843	32764.49
524.21	33046.52
524.577	33207.87
524.943	33463.68
525.31	33617.35
525.676	34048.53
526.043	34230.22
526.409	34256.88
526.776	34630.88
527.142	34786.81
527.508	34943.87
527.874	35272.45
528.241	35400.58
528.607	35612.78
528.973	35901.81
529.339	36023.61
529.705	36191.29
530.071	36515.58
530.437	36783.59
530.803	36999.86
531.169	37263.81
531.535	37214.32
531.901	37474.65
532.267	37548.55
532.632	37859.05
532.998	37953.28
533.364	38169.32
533.73	38209.09
534.095	38650.66
534.461	38621.29
534.826	38906.7
535.192	38989.41
535.557	39209.29
535.923	39376.3
536.288	39631.43
536.653	39730.41
537.019	39736.06
537.384	39809.73
537.749	40173.79
538.114	40240.23
538.479	40308.25
538.845	40463.05
539.21	40486.32
539.575	40752.76
539.94	40911.17
540.305	41091.28
540.67	41053.99
541.034	41283.82
541.399	41329.24
541.764	41515.45
542.129	41757.93
542.494	41733.97
542.858	42028.88
543.223	42043.34
543.587	42399.72
543.952	42294.86
544.316	42499.83
544.681	42438.14
545.045	42679.94
545.41	42935.98
545.774	43126.48
546.138	42993.38
546.503	43279.24
546.867	43349.75
547.231	43788.83
547.595	43736.86
547.959	43942.05
548.324	43954.25
548.688	44133.23
549.052	44163.51
549.416	44290.52
549.779	44288.93
550.143	44546.55
550.507	44827.9
550.871	44899.99
551.235	45001.46
551.599	45336.59
551.962	45492.74
552.326	45472.63
552.689	45785.39
553.053	45652.51
553.417	45657.03
553.78	46259.96
554.143	46239.39
554.507	46250.69
554.87	46499.05
555.234	46845.7
555.597	46704.01
555.96	46963.89
556.323	47073.49
556.686	47215.86
557.05	47515.52
557.413	47529.98
557.776	47609.75
558.139	47880.48
558.502	47969.74
558.865	48189.85
559.228	48477.98
559.59	48485.66
559.953	48649.27
560.316	49033.44
560.679	49002.48
561.041	49238.18
561.404	49324.28
561.767	49563.37
562.129	49491.28
562.492	49936.02
562.854	49913.65
563.217	49940.99
563.579	50210.13
563.941	50377.59
564.304	50501.65
564.666	50758.59
565.028	50811.47
565.39	50914.75
565.753	51150.9
566.115	51332.14
566.477	51354.96
566.839	51460.5
567.201	51624.79
567.563	51832.46
567.925	52011.44
568.287	52025.68
568.648	52003.76
569.01	52223.64
569.372	52386.57
569.734	52344.32
570.095	52599.68
570.457	52711.99
570.819	52751.54
571.18	52740.69
571.542	52956.5
571.903	52963.73
572.265	53166.22
572.626	53138.19
572.987	53217.97
573.349	53427.23
573.71	53509.93
574.071	53561.46
574.432	53678.97
574.794	53813.2
575.155	53849.13
575.516	53834.22
575.877	53944.73
576.238	53936.59
576.599	54065.4
576.96	54156.02
577.32	54154.21
577.681	54240.54
578.042	54344.72
578.403	54274.21
578.763	54290.03
579.124	54427.42
579.485	54478.95
579.845	54469.23
580.206	54510.81
580.566	54575.67
580.927	54490.47
581.287	54706.97
581.648	54576.35
582.008	54699.06
582.368	54658.38
582.728	54744.7
583.089	54686.18
583.449	54664.48
583.809	54702.22
584.169	54843.91
584.529	54710.58
584.889	54972.72
585.249	54749.9
585.609	54699.28
585.969	54853.4
586.329	54757.59
586.688	54877.36
587.048	54777.25
587.408	54672.39
587.768	54786.96
588.127	54719.17
588.487	54785.38
588.846	54993.29
589.206	54779.05
589.565	54783.8
589.925	54916.23
590.284	54801.43
590.643	54843.01
591.003	54948.32
591.362	54930.69
591.721	54937.24
592.08	54912.38
592.44	54935.89
592.799	54986.73
593.158	54956.68
593.517	54899.28
593.876	54978.82
594.235	54974.76
594.593	54965.26
594.952	55012.49
595.311	54970.46
595.67	54997.35
596.029	55190.57
596.387	55184.47
596.746	55201.42
597.104	55028.31
597.463	55020.18
597.822	55220.85
598.18	55050.46
598.538	55152.38
598.897	55273.5
599.255	54959.84
599.613	55367.74
599.972	55265.59
600.33	55347.4
600.688	55251.58
601.046	55306.95
601.404	55416.33
601.762	55372.71
602.12	55453.84
602.478	55446.61
602.836	55428.3
603.194	55329.32
603.552	55375.65
603.91	55374.74
604.268	55469.43
604.625	55385.37
604.983	55566.83
605.341	55415.65
605.698	55654.51
606.056	55592.14
606.413	55562.08
606.771	55631.23
607.128	55684.11
607.485	55564.34
607.843	55639.82
608.2	55745.13
608.557	55886.82
608.914	55815.18
609.272	55972.02
609.629	55951.9
609.986	56034.61
610.343	55880.04
610.7	56072.13
611.057	56049.76
611.414	56027.83
611.771	56056.99
612.127	56194.16
612.484	56062.41
612.841	56227.15
613.198	56100.6
613.554	56196.64
613.911	56261.95
614.267	56200.49
614.624	56233.25
614.98	56310.09
615.337	56379.46
615.693	56290.43
616.05	56239.35
616.406	56466.02
616.762	56348.73
617.118	56360.93
617.475	56388.5
617.831	56489.97
618.187	56455.17
618.543	56449.97
618.899	56645.9
619.255	56571.1
619.611	56518.9
619.967	56593.02
620.323	56702.39
620.678	56503.08
621.034	56529.97
621.39	56492.46
621.746	56509.18
622.101	56761.37
622.457	56534.94
622.812	56595.28
623.168	56661.94
623.523	56653.58
623.879	56702.85
624.234	56516.64
624.589	56560.7
624.945	56594.6
625.3	56643.19
625.655	56648.61
626.01	56640.93
626.365	56593.7
626.72	56603.19
627.075	56607.93
627.43	56592.57
627.785	56552.57
628.14	56587.59
628.495	56624.43
628.85	56614.26
629.205	56488.16
629.559	56673.02
629.914	56451.78
630.269	56544.43
630.623	56418.11
630.978	56369.07
631.332	56466.92
631.687	56477.99
632.041	56414.94
632.396	56419.91
632.75	56262.63
633.104	56306.25
633.459	56173.59
633.813	56235.51
634.167	56152.8
634.521	56160.49
634.875	56273.7
635.229	56094.5
635.583	55935.63
635.937	56011.11
636.291	55944.45
636.645	55925.01
636.999	55870.55
637.352	55987.38
637.706	55831.46
638.06	55902.87
638.413	55801.4
638.767	55732.7
639.121	55833.26
639.474	55642.08
639.828	55653.38
640.181	55664.45
640.534	55592.82
640.888	55547.62
641.241	55410.45
641.594	55449.32
641.947	55577.45
642.301	55418.59
642.654	55374.97
643.007	55378.81
643.36	55343.78
643.713	55246.84
644.066	55352.6
644.419	55191.02
644.771	55020.4
645.124	54707.19
645.477	54641.66
645.83	54508.55
646.182	54353.53
646.535	54243.25
646.888	54352.85
647.24	54170.48
647.593	54338.61
647.945	54273.08
648.298	54169.35
648.65	54094.33
649.002	53931.17
649.355	54062.91
649.707	54046.42
650.059	54163.93
650.411	54562.34
650.763	54466.52
651.115	54833.52
651.467	54696.12
651.819	54608.66
652.171	54511.04
652.523	54557.59
652.875	54585.16
653.227	54330.03
653.578	54527.08
653.93	54445.28
654.282	54264.04
654.633	54251.38
654.985	54276.47
655.337	54363.7
655.688	54280.76
656.039	54358.5
656.391	54089.13
656.742	54131.16
657.094	54189.01
657.445	54120.54
657.796	54170.26
658.147	54114.66
658.498	54045.29
658.849	54176.36
659.2	54014.33
659.551	53950.38
659.902	54102.24
660.253	54024.5
660.604	53997.61
660.955	53824.73
661.306	53966.19
661.656	53903.82
662.007	53885.97
662.358	53789.25
662.708	53864.5
663.059	53796.71
663.409	53637.39
663.76	53814.79
664.11	53851.85
664.461	53810.04
664.811	53734.56
665.161	53734.79
665.511	53682.81
665.862	53660.67
666.212	53706.31
666.562	53698.18
666.912	53605.75
667.262	53577.73
667.612	53658.63
667.962	53610.95
668.312	53504.74
668.662	53712.87
669.011	53589.93
669.361	53519.65
669.711	53568.92
670.06	53401.69
670.41	53323.27
670.76	53421.12
671.109	53462.03
671.459	53419.99
671.808	53296.61
672.157	53460.22
672.507	53211.86
672.856	53258.64
673.205	53184.29
673.554	53372.31
673.904	53200.34
674.253	53286.66
674.602	53165.31
674.951	52769.84
675.3	52561.03
675.649	53102.94
675.998	53094.35
676.346	53064.3
676.695	53170.73
677.044	52913.34
677.393	52996.73
677.741	53013
678.09	52959.67
678.438	52935.49
678.787	52854.36
679.135	52828.37
679.484	52717.87
679.832	52773.23
680.181	52533.01
680.529	52691.88
680.877	52592.67
681.225	52568.49
681.573	52670.18
681.922	52481.94
682.27	52341.6
682.618	52417.31
682.966	52366.24
683.314	52341.6
683.661	52323.98
684.009	52037.66
684.357	52074.94
684.705	51904.33
685.053	52015.96
685.4	51975.96
685.748	51752.01
686.095	51718.57
686.443	51652.81
686.79	51538.24
687.138	51541.85
687.485	51577.56
687.832	51364.23
688.18	51478.58
688.527	51390.89
688.874	51232.71
689.221	51223.44
689.568	51086.5
689.915	50950.91
690.262	50946.16
690.609	50970.34
690.956	50713.62
691.303	50712.49
691.65	50550.46
691.997	50528.32
692.344	50221.21
692.69	50293.75
693.037	50275.22
693.383	49989.12
693.73	50067.77
694.077	49838.62
694.423	49862.12
694.769	49845.4
695.116	49583.03
695.462	49605.86
695.808	49529.47
696.155	49506.42
696.501	49172.42
696.847	49225.08
697.193	48927.68
697.539	49169.03
697.885	48814.69
698.231	48752.09
698.577	48771.08
698.923	48586.67
699.269	48429.39
699.614	48367.92
699.96	48345.78
700.306	48236.85
700.651	47957.54
700.997	47914.38
701.342	47868.95
701.688	47845
702.033	47685
702.379	47725.23
702.724	47555.06
703.069	47622.18
703.415	47073.49
703.76	47104
704.105	47072.14
704.45	46878.02
704.795	46675.54
705.14	46654.75
705.485	46578.14
705.83	46472.61
706.175	46540.85
706.52	46299.05
706.865	46322.78
707.209	46073.75
707.554	45987.87
707.899	46090.47
708.243	45887.08
708.588	45871.49
708.932	45495.68
709.277	45402.58
709.621	45647.77
709.966	45229.02
710.31	45489.58
710.654	45025.64
710.998	45055.47
711.342	44979.09
711.687	44941.12
712.031	44719.43
712.375	44692.99
712.719	44625.42
713.063	44619.55
713.407	44699.32
713.75	44335.03
714.094	44341.14
714.438	44204.64
714.782	44138.66
715.125	43980.47
715.469	43899.79
715.812	43793.13
716.156	43723.75
716.499	43666.58
716.843	43590.65
717.186	43299.13
717.53	43591.55
717.873	43553.81
718.216	43458
718.559	43224.56
718.902	42948.63
719.246	43126.93
719.589	42945.01
719.932	42822.76
720.275	42789.99
720.617	42740.95
720.96	42749.09
721.303	42560.39
721.646	42677.23
721.989	42430.23
722.331	42410.79
722.674	42386.61
723.016	42377.8
723.359	42258.48
723.701	42229.33
724.044	41903.46
724.386	41748.89
724.729	42094.42
725.071	41947.3
725.413	41726.97
725.755	41755.44
726.097	41598.38
726.439	41319.52
726.782	41355.45
727.124	41553.41
727.465	41210.82
727.807	41172.41
728.149	41179.19
728.491	40981
728.833	41051.05
729.175	40921.34
729.516	40879.08
729.858	40786.2
730.199	40852.19
730.541	40783.94
730.882	40768.12
731.224	40662.36
731.565	40503.5
731.906	40518.41
732.248	40536.04
732.589	40296.27
732.93	40215.14
733.271	40309.83
733.612	40169.72
733.953	40303.28
734.294	39976.73
734.635	39967.01
734.976	40013.11
735.317	39735.38
735.658	39709.62
735.999	39722.5
736.339	39547.59
736.68	39702.61
737.021	39513.69
737.361	39398.22
737.702	39600.24
738.042	39373.58
738.383	39230.54
738.723	39315.05
739.063	39021.05
739.404	39113.25
739.744	39065.79
740.084	38970.43
740.424	39045.23
740.764	38876.42
741.104	39053.37
741.444	38760.49
741.784	38638.46
742.124	38714.17
742.464	38584.68
742.804	38515.98
743.143	38328.19
743.483	38296.32
743.823	38192.6
744.162	38193.5
744.502	38200.96
744.841	38120.73
745.181	38236.89
745.52	38032.38
745.86	38078.02
746.199	37967.74
746.538	37928.88
746.877	37948.99
747.216	37822.44
747.556	37777.92
747.895	37606.85
748.234	37552.84
748.573	37479.4
748.911	37466.51
749.25	37355.11
749.589	37235.33
749.928	37218.39
750.267	37233.3
750.605	37129.8
750.944	37097.71
751.283	36761.22
751.621	36891.16
751.96	36732.97
752.298	36641.23
752.636	36596.03
752.975	36376.37
753.313	36429.03
753.651	36474.68
753.989	36227.23
754.327	36345.87
754.666	35982.49
755.004	36060
755.342	36068.13
755.679	35887.57
756.017	35815.26
756.355	35787.69
756.693	35664.3
757.031	35726.45
757.368	35504.98
757.706	35534.14
758.044	35279.68
758.381	35270.41
758.719	35055.96
759.056	35167.37
759.394	34949.52
759.731	34641.05
760.068	34665.23
760.405	34593.37
760.743	34458.46
761.08	34543.88
761.417	34379.59
761.754	34261.63
762.091	34115.64
762.428	34032.03
762.765	33804.46
763.102	33971.92
763.438	33615.99
763.775	33524.7
764.112	33521.76
764.449	33625.94
764.785	33287.42
765.122	33110.47
765.458	33069.12
765.795	32957.25
766.131	33001.1
766.467	32757.71
766.804	32672.97
767.14	32555.01
767.476	32475.46
767.812	32312.75
768.148	32401.79
768.485	32223.04
768.821	31881.58
769.157	31906.66
769.492	31787.34
769.828	31727.46
770.164	31600.23
770.5	31432.78
770.836	31503.96
771.171	31153.46
771.507	31132.22
771.842	30912.11
772.178	30966.8
772.513	30854.26
772.849	30764.77
773.184	30714.38
773.519	30621.95
773.855	30512.57
774.19	30348.96
774.525	30294.73
774.86	30239.81
775.195	30023.09
775.53	29883.89
775.865	29668.98
776.2	29514.63
776.535	29397.35
776.87	29395.31
777.205	29438.7
777.539	29177.47
777.874	29217.92
778.209	28972.95
778.543	28936.8
778.878	28713.75
779.212	28745.16
779.547	28597.14
779.881	28571.38
780.215	28331.84
780.55	28406.19
780.884	28347.66
781.218	28141.56
781.552	28165.74
781.886	28030.38
782.22	27803.72
782.554	27772.31
782.888	27484.4
783.222	27498.87
783.556	27343.84
783.889	27194.02
784.223	27013.23
784.557	26995.83
784.89	26984.76
785.224	26812.56
785.557	26832.9
785.891	26630.87
786.224	26605.56
786.558	26505.9
786.891	26256.64
787.224	26267.71
787.557	26118.79
787.891	26189.75
788.224	26051.67
788.557	26043.54
788.89	25913.37
789.223	25910.21
789.556	25578.69
789.888	25577.34
790.221	25487.62
790.554	25295.76
790.887	25293.28
791.219	25261.41
791.552	25143.9
791.884	25046.5
792.217	24843.12
792.549	24904.13
792.882	24704.59
793.214	24600.86
793.546	24675.89
793.879	24467.76
794.211	24411.94
794.543	24522.45
794.875	24235
795.207	24273.19
795.539	24158.84
795.871	24098.05
796.203	23976.47
796.535	23888.11
796.867	23777.61
797.198	23662.36
797.53	23670.72
797.862	23420.33
798.193	23561.12
798.525	23411.97
798.856	23360.22
799.188	23175.37
799.519	23067.57
799.85	22927.46
800.182	23052.2
800.513	23014.47
800.844	22778.09
801.175	22845.88
801.506	22863.06
801.837	22709.61
802.168	22695.83
802.499	22598.66
802.83	22523.86
803.161	22468.94
803.491	22297.42
803.822	22315.27
804.153	22242.06
804.483	22144.88
804.814	21991.67
805.145	21933.59
805.475	21922.06
805.805	21843.2
806.136	21934.27
806.466	21774.05
806.796	21776.08
807.126	21575.63
807.457	21578.8
807.787	21527.27
808.117	21404.79
808.447	21293.15
808.777	21481.4
809.107	21311.69
809.436	21271.69
809.766	21118.02
810.096	21082.76
810.426	21030.79
810.755	20928.42
811.085	20870.57
811.414	20874.86
811.744	20612.95
812.073	20723.45
812.403	20595.77
812.732	20656.56
813.061	20485.04
813.39	20393.74
813.719	20330.47
814.049	20490.01
814.378	20372.05
814.707	20321.65
815.036	20320.53
815.365	20144.48
815.693	19949.24
816.022	20048.89
816.351	19875.11
816.68	19825.62
817.008	19883.25
817.337	19715.34
817.665	19779.75
817.994	19752.86
818.322	19770.48
818.651	19541.56
818.979	19525.74
819.307	19644.38
819.636	19544.5
819.964	19426.09
820.292	19490.72
820.62	19522.13
820.948	19344.28
821.276	19391.06
821.604	19346.31
821.932	19402.58
822.259	19323.72
822.587	19236.71
822.915	19261.34
823.243	19395.13
823.57	19233.77
823.898	19237.16
824.225	19208.69
824.553	19290.04
824.88	19258.41
825.207	19206.88
825.535	19243.27
825.862	19377.05
826.189	19277.39
826.516	19348.12
826.843	19298.18
827.17	19311.29
827.497	19218.86
827.824	19243.49
828.151	19262.25
828.478	19234.9
828.805	19363.04
829.131	19192.65
829.458	19218.41
829.785	19013.89
830.111	19164.4
830.438	19322.36
830.764	19213.21
831.09	19189.26
831.417	19101.12
831.743	19190.61
832.069	19115.36
832.395	19111.29
832.722	19070.84
833.048	19101.12
833.374	19089.6
833.7	18945.42
834.026	19049.6
834.351	19128.92
834.677	18952.2
835.003	19003.27
835.329	18957.85
835.654	18965.53
835.98	18906.78
836.306	18920.11
836.631	18652.32
836.956	18817.74
837.282	18784.29
837.607	18687.8
837.932	18627.24
838.258	18636.28
838.583	18612.1
838.908	18545.88
839.233	18551.53
839.558	18471.08
839.883	18465.43
840.208	18402.84
840.533	18405.77
840.858	18416.39
841.182	18412.1
841.507	18392.21
841.832	18206
842.156	18264.08
842.481	18199
842.805	18079.68
843.13	18142.05
843.454	18054.37
843.778	18072.22
844.103	17998.55
844.427	17935.05
844.751	17887.59
845.075	17868.16
845.399	17825.22
845.723	17761.95
846.047	17693.02
846.371	17537.77
846.695	17571.9
847.019	17406.93
847.343	17350.43
847.666	17305.01
847.99	17238.57
848.313	17157.22
848.637	16997
848.96	17199.7
849.284	16974.17
849.607	16907.73
849.931	16791.58
850.254	16747.06
850.577	16543.22
850.9	16474.75
851.223	16464.36
851.546	16368.76
851.869	16265.49
852.192	16390.68
852.515	16183.91
852.838	16166.74
853.161	16197.24
853.483	16024.37
853.806	16056.68
854.129	16017.59
854.451	15884.03
854.774	15797.25
855.096	15789.57
855.419	15803.13
855.741	15780.08
856.063	15699.4
856.385	15713.41
856.708	15517.04
857.03	15454.89
857.352	15517.49
857.674	15484.95
857.996	15364.95
858.318	15261.22
858.64	15324.72
858.961	15156.59
859.283	15237.04
859.605	15149.81
859.926	15209.7
860.248	15134.9
860.57	15008.35
860.891	15009.48
861.212	14883.83
861.534	14861.23
861.855	14863.27
862.176	14902.81
862.498	14949.59
862.819	14866.43
863.14	14856.71
863.461	14813.33
863.782	14700.11
864.103	14611.07
864.424	14658.75
864.745	14673.44
865.065	14628.25
865.386	14585.76
865.707	14522.71
866.027	14560
866.348	14430.06
866.668	14457.85
866.989	14463.96
867.309	14287.92
867.63	14346.67
867.95	14354.81
868.27	14324.75
868.59	14256.05
868.91	14341.47
869.23	14282.04
869.55	14089.73
869.87	14210.18
870.19	14092.21
870.51	14170.63
870.83	14174.92
871.15	14058.99
871.469	14083.63
871.789	14084.53
872.109	14040.69
872.428	13982.61
872.748	14060.8
873.067	14044.76
873.386	14031.88
873.706	13920.24
874.025	13840.7
874.344	13910.75
874.663	13883.41
874.982	13866.46
875.301	13809.51
875.62	13822.16
875.939	13730.42
876.258	13715.95
876.577	13640.7
876.896	13640.47
877.214	13625.79
877.533	13624.88
877.852	13584.2
878.17	13588.5
878.489	13644.54
878.807	13549.86
879.125	13567.26
879.444	13479.12
879.762	13458.78
880.08	13454.04
880.398	13345.57
880.716	13497.88
881.034	13330.43
881.352	13341.05
881.67	13304.21
881.988	13358.22
882.306	13336.53
882.624	13196.64
882.941	13106.48
883.259	13158
883.577	13083.65
883.894	13176.98
884.212	13094.5
884.529	13047.72
884.846	12995.97
885.164	13003.66
885.481	12981.51
885.798	12897.67
886.115	12859.25
886.432	12936.54
886.75	12871.68
887.067	12802.98
887.383	12684.12
887.7	12747.84
888.017	12600.05
888.334	12593.04
888.651	12625.36
888.967	12581.97
889.284	12527.96
889.6	12555.08
889.917	12402.32
890.233	12505.82
890.55	12440.73
890.866	12389.21
891.182	12325.71
891.498	12305.82
891.815	12263.34
892.131	12219.72
892.447	12123.68
892.763	12212.26
893.079	12042.78
893.395	12111.48
893.71	12047.3
894.026	12021.08
894.342	12007.52
894.657	11891.14
894.973	11853.18
895.289	11935.66
895.604	11939.05
895.92	11704.48
896.235	11724.82
896.55	11734.54
896.865	11641.88
897.181	11659.74
897.496	11619.96
897.811	11539.51
898.126	11511.72
898.441	11436.69
898.756	11432.17
899.071	11350.37
899.386	11318.95
899.7	11240.31
900.015	11264.94
900.33	11186.98
900.644	11163.03
900.959	11111.5
901.273	11113.31
901.588	11014.1
901.902	10981.11
902.216	10883.71
902.531	10913.09
902.845	10933.43
903.159	10876.71
903.473	10726.65
903.787	10705.41
904.101	10747.67
904.415	10733.43
904.729	10742.47
905.042	10562.14
905.356	10560.78
905.67	10566.66
905.984	10493.66
906.297	10534.12
906.611	10375.48
906.924	10406.44
907.237	10385.19
907.551	10331.41
907.864	10242.6
908.177	10197.18
908.491	10147.69
908.804	10081.7
909.117	10048.93
909.43	10077.18
909.743	9951.98
910.056	9927.58
910.368	9901.36
910.681	9835.83
910.994	9891.87
911.307	9822.5
911.619	9773.68
911.932	9722.39
912.244	9579.34
912.557	9596.51
912.869	9528.04
913.181	9609.62
913.494	9549.96
913.806	9425.67
914.118	9406.46
914.43	9377.08
914.742	9353.58
915.054	9286.46
915.366	9311.55
915.678	9222.29
915.99	9136.41
916.302	9146.36
916.613	9072.69
916.925	9103.19
917.236	9040.6
917.548	8968.28
917.859	8925.8
918.171	8913.37
918.482	8856.42
918.794	8820.94
919.105	8844.44
919.416	8777.1
919.727	8772.58
920.038	8720.15
920.349	8708.85
920.66	8558.57
920.971	8556.31
921.282	8559.03
921.593	8484
921.903	8431.12
922.214	8432.25
922.525	8390.9
922.835	8333.27
923.146	8338.02
923.456	8316.09
923.767	8260.28
924.077	8235.19
924.387	8220.28
924.697	8086.27
925.008	8022.09
925.318	8071.36
925.628	8070.68
925.938	8035.2
926.248	7989.1
926.558	7933.73
926.867	7907.07
927.177	7843.34
927.487	7814.19
927.796	7777.13
928.106	7771.25
928.416	7710.01
928.725	7724.02
929.034	7639.28
929.344	7627.75
929.653	7640.63
929.962	7546.62
930.271	7552.05
930.581	7506.4
930.89	7391.15
931.199	7380.98
931.508	7407.19
931.817	7389.34
932.125	7355.44
932.434	7331.94
932.743	7234.99
933.051	7178.5
933.36	7232.28
933.669	7147.09
933.977	7141.66
934.286	7142.11
934.594	7063.92
934.902	6977.6
935.21	7001.55
935.519	6980.76
935.827	6998.16
936.135	6909.58
936.443	6907.09
936.751	6866.19
937.059	6834.33
937.367	6790.71
937.674	6771.28
937.982	6733.09
938.29	6692.86
938.597	6726.98
938.905	6598.85
939.213	6641.34
939.52	6580.32
939.827	6536.03
940.135	6516.14
940.442	6480.44
940.749	6428.91
941.056	6519.31
941.363	6395.69
941.67	6406.09
941.977	6329.71
942.284	6268.69
942.591	6342.59
942.898	6291.97
943.205	6293.55
943.511	6169.26
943.818	6190.73
944.125	6148.24
944.431	6134.46
944.738	6088.81
945.044	6052.43
945.35	6069.37
945.657	5971.75
945.963	5958.64
946.269	5952.99
946.575	5980.79
946.881	5924.29
947.187	5913.45
947.493	5788.25
947.799	5827.12
948.105	5759.55
948.41	5780.79
948.716	5769.04
949.022	5708.71
949.327	5697.63
949.633	5606.79
949.938	5643.17
950.244	5660.12
950.549	5598.88
950.854	5575.15
951.16	5551.87
951.465	5489.73
951.77	5488.15
952.075	5488.15
952.38	5481.37
952.685	5429.17
952.99	5388.49
953.294	5375.61
953.599	5362.05
953.904	5365.89
954.209	5296.51
954.513	5292.9
954.818	5223.07
955.122	5260.58
955.426	5202.73
955.731	5174.26
956.035	5136.97
956.339	5163.64
956.643	5138.78
956.948	5119.34
957.252	5070.76
957.556	5043.19
957.86	5041.83
958.163	5060.36
958.467	4988.95
958.771	4986.46
959.075	4937.43
959.378	4926.13
959.682	4848.39
959.985	4859.46
960.289	4879.12
960.592	4838.22
960.896	4842.29
961.199	4774.95
961.502	4779.92
961.805	4757.54
962.108	4689.3
962.411	4725.68
962.714	4670.77
963.017	4651.33
963.32	4641.39
963.623	4604.1
963.926	4648.62
964.228	4558.23
964.531	4576.76
964.833	4574.27
965.136	4464.9
965.438	4508.51
965.741	4469.87
966.043	4478.91
966.345	4401.4
966.648	4438.46
966.95	4385.35
967.252	4343.54
967.554	4312.58
967.856	4354.39
968.158	4293.15
968.46	4299.25
968.761	4332.7
969.063	4248.86
969.365	4239.37
969.666	4217.22
969.968	4142.42
970.269	4149.2
970.571	4147.16
970.872	4143.1
971.174	4119.82
971.475	4146.49
971.776	4094.06
972.077	4054.51
972.378	4044.12
972.679	4035.98
972.98	4031.91
973.281	4000.95
973.582	3995.76
973.883	3956.89
974.183	3923.22
974.484	3926.83
974.785	3892.48
975.085	3897
975.386	3888.64
975.686	3880.96
975.986	3802.09
976.287	3799.83
976.587	3753.73
976.887	3813.39
977.187	3776.55
977.487	3793.05
977.787	3742.2
978.087	3723.9
978.387	3710.79
978.687	3675.54
978.987	3673.73
979.286	3627.18
979.586	3610.23
979.885	3612.72
980.185	3616.56
980.484	3570.91
980.784	3570.46
981.083	3552.15
981.382	3528.65
981.682	3537.92
981.981	3529.55
982.28	3499.72
982.579	3428.99
982.878	3444.58
983.177	3433.29
983.475	3433.06
983.774	3401.65
984.073	3383.34
984.372	3358.26
984.67	3353.29
984.969	3372.04
985.267	3311.71
985.566	3316.45
985.864	3266.28
986.162	3309.45
986.461	3288.43
986.759	3227.64
987.057	3256.79
987.355	3182.44
987.653	3200.98
987.951	3218.6
988.249	3191.71
988.547	3160.52
988.844	3135.67
989.142	3140.19
989.44	3093.63
989.737	3131.15
990.035	3067.87
990.332	3045.73
990.63	3019.74
990.927	3075.78
991.224	3038.04
991.521	3030.81
991.819	3026.74
992.116	2970.92
992.413	2949.91
992.71	2956.24
993.006	2925.5
993.303	2914.88
993.6	2906.75
993.897	2909.01
994.193	2912.4
994.49	2854.32
994.787	2884.6
995.083	2822.68
995.379	2826.75
995.676	2827.88
995.972	2776.81
996.268	2815.22
996.565	2752.85
996.861	2758.27
997.157	2762.57
997.453	2716.47
997.749	2720.31
998.044	2699.29
998.34	2641.89
998.636	2684.38
998.932	2612.29
999.227	2639.41
999.523	2678.05
999.818	2620.2
1000.114	2579.52
1000.409	2563.25
1000.704	2552.86
1001	2580.2
1001.295	2558.96
1001.59	2554.21
1001.885	2518.28
1002.18	2486.87
1002.475	2453.42
1002.77	2476.02
1003.065	2460.43
1003.359	2426.53
1003.654	2424.05
1003.949	2440.77
1004.243	2390.83
1004.538	2354.22
1004.832	2366.42
1005.127	2351.73
1005.421	2360.32
1005.715	2344.95
1006.009	2324.84
1006.304	2322.81
1006.598	2264.95
1006.892	2272.41
1007.186	2229.93
1007.48	2226.09
1007.773	2239.19
1008.067	2222.7
1008.361	2217.72
1008.655	2193.54
1008.948	2168.46
1009.242	2179.08
1009.535	2133.43
1009.829	2149.25
1010.122	2139.08
1010.415	2102.25
1010.708	2124.62
1011.001	2090.95
1011.295	2104.05
1011.588	2071.06
1011.881	2038.52
1012.173	2028.58
1012.466	2053.43
1012.759	1994
1013.052	2010.72
1013.344	2006.66
1013.637	1964.4
1013.93	1976.83
1014.222	1958.97
1014.514	1938.86
1014.807	1946.77
1015.099	1902.25
1015.391	1907.68
1015.683	1955.36
1015.976	1926.21
1016.268	1898.86
1016.56	1878.07
1016.851	1843.95
1017.143	1829.71
1017.435	1818.41
1017.727	1820.45
1018.018	1808.02
1018.31	1775.7
1018.602	1788.36
1018.893	1767.11
1019.185	1737.06
1019.476	1736.61
1019.767	1692.77
1020.058	1719.88
1020.35	1687.12
1020.641	1693.22
1020.932	1681.47
1021.223	1651.19
1021.514	1647.57
1021.804	1646.89
1022.095	1607.12
1022.386	1635.14
1022.677	1625.42
1022.967	1627.91
1023.258	1597.18
1023.548	1594.01
1023.839	1584.07
1024.129	1588.59
1024.419	1562.37
1024.709	1557.63
1025	1536.16
1025.29	1530.06
1025.58	1500.23
1025.87	1490.29
1026.16	1527.8
1026.449	1464.75
1026.739	1472.66
1027.029	1448.03
1027.319	1443.51
1027.608	1449.16
1027.898	1394.69
1028.187	1416.62
1028.477	1424.3
1028.766	1398.54
1029.055	1399.44
1029.344	1404.64
1029.634	1375.26
1029.923	1333.45
1030.212	1376.16
1030.501	1331.42
1030.79	1320.57
1031.078	1292.32
1031.367	1309.73
1031.656	1314.47
1031.945	1304.75
1032.233	1270.18
1032.522	1275.83
1032.81	1238.99
1033.099	1274.47
1033.387	1246.68
1033.675	1252.78
1033.963	1239.22
1034.251	1220.24
1034.54	1219.56
1034.828	1210.75
1035.116	1187.02
1035.403	1182.72
1035.691	1181.14
1035.979	1197.41
1036.267	1171.42
1036.554	1158.77
1036.842	1167.81
1037.129	1157.19
1037.417	1129.62
1037.704	1107.7
1037.992	1119.22
1038.279	1132.78
1038.566	1100.69
1038.853	1100.69
1039.14	1100.69
