Data from White_paper_FLMS001491_031.txt Node
Date: Tue Feb 07 10:34:59 GMT 2017
User: dcchb
Spectrometer: FLMS00149
Trigger mode: 0
Integration Time (sec): 2.000000E-2
Scans to average: 10
Electric dark correction enabled: true
Nonlinearity correction enabled: false
Boxcar width: 0
XAxis mode: Wavelengths
Number of Pixels in Spectrum: 2048
>>>>>Begin Spectral Data<<<<<
341.393	2.01
341.776	2.01
342.16	2.01
342.543	-58.11
342.927	-69.18
343.31	-92.23
343.693	-83.42
344.077	-76.18
344.46	-47.94
344.843	-52.91
345.226	-41.84
345.61	-36.64
345.993	-4.77
346.376	-0.25
346.759	2.68
347.142	30.25
347.525	65.28
347.908	55.34
348.291	79.74
348.674	88.56
349.057	114.32
349.44	140.53
349.823	136.01
350.206	154.77
350.588	228.21
350.971	227.54
351.354	245.16
351.737	249.68
352.119	254.2
352.502	283.35
352.884	295.78
353.267	297.37
353.65	336.01
354.032	325.61
354.414	327.65
354.797	323.81
355.179	348.21
355.562	345.73
355.944	360.41
356.326	351.15
356.709	370.13
357.091	364.26
357.473	367.87
357.855	374.2
358.238	373.97
358.62	377.81
359.002	389.79
359.384	379.62
359.766	349.57
360.148	351.6
360.53	379.4
360.912	372.39
361.294	357.25
361.676	366.06
362.057	363.8
362.439	359.06
362.821	373.97
363.203	343.24
363.584	383.46
363.966	343.24
364.348	362.67
364.729	378.72
365.111	360.41
365.493	385.05
365.874	367.19
366.256	361.77
366.637	375.1
367.019	337.82
367.4	370.13
367.781	355.67
368.163	353.86
368.544	368.78
368.925	372.84
369.306	348.44
369.688	375.56
370.069	379.17
370.45	370.36
370.831	346.86
371.212	372.39
371.593	366.97
371.974	383.46
372.355	373.07
372.736	368.55
373.117	389.57
373.498	376.23
373.879	358.38
374.26	358.83
374.641	389.79
375.021	391.6
375.402	380.3
375.783	392.73
376.163	390.24
376.544	391.37
376.925	409.23
377.305	384.82
377.686	383.46
378.066	384.82
378.447	383.01
378.827	404.03
379.208	418.94
379.588	397.02
379.968	412.16
380.349	408.77
380.729	431.15
381.109	405.84
381.489	415.33
381.87	402
382.25	423.92
382.63	429.11
383.01	424.14
383.39	423.46
383.77	428.89
384.15	446.06
384.53	445.38
384.91	441.09
385.29	454.65
385.67	463.01
386.049	459.17
386.429	466.63
386.809	478.38
387.189	461.43
387.568	455.1
387.948	502.33
388.328	469.34
388.707	476.8
389.087	504.82
389.466	493.74
389.846	500.3
390.225	507.98
390.605	505.5
390.984	509.79
391.363	505.5
391.743	492.84
392.122	526.06
392.501	532.39
392.881	545.49
393.26	546.62
393.639	557.47
394.018	562.44
394.397	541.2
394.776	558.15
395.155	572.39
395.534	561.09
395.913	595.21
396.292	575.1
396.671	572.16
397.05	580.97
397.429	593.85
397.808	590.01
398.186	598.15
398.565	633.85
398.944	618.49
399.323	640.63
399.701	628.2
400.08	647.41
400.458	659.16
400.837	655.77
401.215	658.03
401.594	672.04
401.972	675.21
402.351	674.3
402.729	712.04
403.107	716.34
403.486	739.16
403.864	735.55
404.242	756.34
404.62	758.6
404.999	767.86
405.377	785.94
405.755	798.59
406.133	823
406.511	843.11
406.889	874.07
407.267	850.34
407.645	890.57
408.023	912.49
408.401	918.59
408.779	952.04
409.156	955.65
409.534	988.42
409.912	986.16
410.29	1024.8
410.667	1036.1
411.045	1080.62
411.422	1115.65
411.8	1126.72
412.178	1155.87
412.555	1205.82
412.933	1222.76
413.31	1262.76
413.687	1273.16
414.065	1287.62
414.442	1339.82
414.819	1349.54
415.197	1400.84
415.574	1431.35
415.951	1443.78
416.328	1461.85
416.705	1474.51
417.082	1478.58
417.46	1530.33
417.837	1549.31
418.214	1567.84
418.591	1610.55
418.967	1630.21
419.344	1661.17
419.721	1697.33
420.098	1708.85
420.475	1755.41
420.852	1784.33
421.228	1751.79
421.605	1828.62
421.982	1827.04
422.358	1879.7
422.735	1895.52
423.111	1886.25
423.488	1949.75
423.864	1960.15
424.241	1959.69
424.617	2026.36
424.994	2018.9
425.37	2082.4
425.746	2090.76
426.123	2113.81
426.499	2135.96
426.875	2177.99
427.251	2230.65
427.627	2263.42
428.003	2275.84
428.379	2305.22
428.756	2342.96
429.132	2384.09
429.507	2424.54
429.883	2441.26
430.259	2474.03
430.635	2522.62
431.011	2555.16
431.387	2620.69
431.763	2639.22
432.138	2700.24
432.514	2716.28
432.89	2746.57
433.265	2812.33
433.641	2846.45
434.016	2855.49
434.392	2903.62
434.767	3000.57
435.143	2971.87
435.518	2993.34
435.894	3063.62
436.269	3098.2
436.644	3160.79
437.02	3218.19
437.395	3201.7
437.77	3218.64
438.145	3307.91
438.52	3327.57
438.895	3380.9
439.271	3386.78
439.646	3478.3
440.021	3468.13
440.395	3516.04
440.77	3445.3
441.145	3543.38
441.52	3602.81
441.895	3588.8
442.27	3622.7
442.645	3625.41
443.019	3661.57
443.394	3705.19
443.769	3721
444.143	3723.72
444.518	3765.3
444.892	3738.18
445.267	3790.38
445.641	3850.94
446.016	3887.1
446.39	3897.27
446.764	3922.58
447.139	3926.42
447.513	3978.62
447.887	4007.1
448.262	4028.57
448.636	4044.39
449.01	4142.01
449.384	4070.37
449.758	4200.77
450.132	4185.17
450.506	4200.99
450.88	4245.06
451.254	4243.25
451.628	4279.63
452.002	4354.66
452.376	4340.65
452.75	4422.68
453.123	4452.51
453.497	4523.69
453.871	4544.03
454.244	4641.21
454.618	4708.1
454.992	4764.14
455.365	4748.1
455.739	4845.72
456.112	4932.5
456.486	4934.76
456.859	4974.3
457.232	5099.5
457.606	5120.29
457.979	5163.9
458.352	5253.62
458.725	5299.49
459.099	5387.17
459.472	5433.05
459.845	5512.82
460.218	5541.52
460.591	5608.41
460.964	5654.06
461.337	5753.49
461.71	5835.52
462.083	5940.61
462.456	5929.31
462.829	5967.5
463.201	6088.63
463.574	6160.26
463.947	6242.07
464.32	6293.59
464.692	6398.67
465.065	6484.32
465.438	6534.49
465.81	6555.28
466.183	6697.65
466.555	6813.13
466.928	6869.4
467.3	6903.07
467.672	7001.14
468.045	7145.32
468.417	7192.1
468.789	7216.28
469.161	7358.87
469.534	7480.23
469.906	7665.76
470.278	7668.7
470.65	7748.24
471.022	7951.18
471.394	8115.46
471.766	8205.18
472.138	8235.24
472.51	8448.56
472.882	8550.71
473.253	8637.26
473.625	8847.42
473.997	8965.16
474.369	9023.24
474.74	9089
475.112	9220.29
475.484	9498.93
475.855	9576.44
476.227	9659.38
476.598	9951.8
476.97	9930.78
477.341	10229.76
477.713	10427.27
478.084	10423.65
478.455	10794.26
478.827	10834.72
479.198	11171.66
479.569	11184.76
479.94	11435.83
480.311	11595.6
480.682	11867.46
481.053	12133.44
481.424	12293.43
481.795	12352.64
482.166	12596.48
482.537	12745.17
482.908	13036.01
483.279	13173.41
483.65	13335.67
484.021	13606.85
484.391	13724.81
484.762	13853.84
485.133	14024.69
485.503	14151.24
485.874	14582.41
486.244	14658.57
486.615	14975.17
486.985	15093.36
487.356	15414.93
487.726	15522.95
488.097	15833.91
488.467	15853.79
488.837	16238.19
489.207	16333.1
489.578	16542.14
489.948	16826.2
490.318	16954.1
490.688	17049.01
491.058	17362.45
491.428	17558.38
491.798	17661.43
492.168	18048.08
492.538	18069.33
492.908	18341.64
493.278	18480.84
493.648	18549.54
494.017	18736.43
494.387	18809.87
494.757	19103.88
495.126	19266.81
495.496	19340.03
495.866	19496.63
496.235	19740.92
496.605	19905.21
496.974	19933.01
497.344	20147.24
497.713	20294.81
498.082	20459.77
498.452	20749.03
498.821	20703.61
499.19	20849.14
499.559	21073.99
499.928	21093.43
500.298	21343.82
500.667	21466.07
501.036	21480.76
501.405	21714.66
501.774	21697.93
502.143	22025.61
502.512	22030.8
502.88	22229.44
503.249	22305.83
503.618	22457.01
503.987	22585.37
504.356	22617
504.724	22766.38
505.093	22966.15
505.462	23073.94
505.83	23249.3
506.199	23456.98
506.567	23682.51
506.936	23701.5
507.304	23980.36
507.672	24108.49
508.041	24262.84
508.409	24278.66
508.777	24553.9
509.145	24762.94
509.514	24774.46
509.882	24919.32
510.25	24979.2
510.618	25231.4
510.986	25181.91
511.354	25590.49
511.722	25734.21
512.09	26020.53
512.458	25997.48
512.826	26176.91
513.193	26352.73
513.561	26466.39
513.929	26694.41
514.297	27017.34
514.664	27084.01
515.032	27202.42
515.4	27329.2
515.767	27480.38
516.135	27784.33
516.502	27539.36
516.869	27996.98
517.237	28137.99
517.604	28197.87
517.972	28466.57
518.339	28642.38
518.706	28690.97
519.073	28989.72
519.44	29018.42
519.808	29281.91
520.175	29431.06
520.542	29799.87
520.909	29963.48
521.276	29929.35
521.643	30262.23
522.009	30396.23
522.376	30614.76
522.743	30830.35
523.11	31157.8
523.477	31362.99
523.843	31617.9
524.21	32072.8
524.577	32073.93
524.943	32341.49
525.31	32441.15
525.676	32687.25
526.043	32841.82
526.409	32985.09
526.776	33287.01
527.142	33452.65
527.508	33564.06
527.874	33972.41
528.241	33957.95
528.607	34221.67
528.973	34430.93
529.339	34490.82
529.705	34852.61
530.071	35139.84
530.437	35307.07
530.803	35532.37
531.169	35757.9
531.535	35708.86
531.901	35924
532.267	36081.28
532.632	36229.75
532.998	36416.87
533.364	36644.21
533.73	36617.99
534.095	37037.42
534.461	37124.42
534.826	37267.47
535.192	37407.35
535.557	37608.7
535.923	37633.78
536.288	37759.66
536.653	38036.71
537.019	38037.39
537.384	38083.26
537.749	38399.64
538.114	38583.36
538.479	38735.9
538.845	38765.28
539.21	38771.83
539.575	38907.65
539.94	39123.01
540.305	39339.5
540.67	39457.92
541.034	39613.85
541.399	39708.76
541.764	39879.38
542.129	39981.52
542.494	40094.28
542.858	40152.36
543.223	40289.08
543.587	40514.16
543.952	40481.62
544.316	40756.87
544.681	40649.98
545.045	41143.07
545.41	41208.61
545.774	41205.89
546.138	41289.06
546.503	41431.88
546.867	41337.87
547.231	41784.86
547.595	41946.21
547.959	42106.44
548.324	42099.43
548.688	42218.07
549.052	42225.53
549.416	42422.59
549.779	42619.87
550.143	42729.7
550.507	42947.77
550.871	43045.85
551.235	43086.3
551.599	43461.2
551.962	43416.68
552.326	43705.72
552.689	43869.1
553.053	43846.95
553.417	43808.09
553.78	44213.27
554.143	44059.6
554.507	44333.04
554.87	44467.28
555.234	44864.55
555.597	44705.01
555.96	44801.05
556.323	45125.79
556.686	45063.65
557.05	45364.2
557.413	45525.78
557.776	45575.04
558.139	45975.26
558.502	45830.41
558.865	46078.76
559.228	46328.02
559.59	46444.63
559.953	46426.32
560.316	46938.85
560.679	46915.35
561.041	47161.9
561.404	47223.59
561.767	47484.37
562.129	47263.81
562.492	47860.41
562.854	47687.53
563.217	47902.22
563.579	47974.08
563.941	48282.54
564.304	48482.54
564.666	48579.03
565.028	48674.62
565.39	48849.99
565.753	49049.08
566.115	49116.65
566.477	49324.55
566.839	49400.71
567.201	49656.07
567.563	49628.27
567.925	49979.45
568.287	50009.5
568.648	49995.95
569.01	50383.28
569.372	50510.51
569.734	50388.03
570.095	50690.62
570.457	50848.13
570.819	50969.48
571.18	50823.04
571.542	51099.19
571.903	51109.14
572.265	51342.58
572.626	51372.18
572.987	51525.85
573.349	51653.98
573.71	51663.02
574.071	51813.98
574.432	51926.97
574.794	52155.21
575.155	52123.8
575.516	52120.86
575.877	52250.35
576.238	52292.16
576.599	52424.81
576.96	52464.58
577.32	52505.26
577.681	52686.04
578.042	52702.99
578.403	52760.39
578.763	52761.52
579.124	52886.04
579.485	53032.7
579.845	53083.1
580.206	52990.67
580.566	53038.8
580.927	53131
581.287	53243.54
581.648	53129.87
582.008	53357.21
582.368	53266.14
582.728	53345.69
583.089	53278.12
583.449	53369.64
583.809	53339.59
584.169	53441.28
584.529	53464.33
584.889	53669.75
585.249	53399.25
585.609	53436.08
585.969	53633.82
586.329	53475.18
586.688	53621.84
587.048	53614.61
587.408	53528.96
587.768	53602.18
588.127	53685.79
588.487	53588.62
588.846	53836.52
589.206	53608.96
589.565	53686.24
589.925	53749.07
590.284	53686.47
590.643	53740.93
591.003	53917.88
591.362	53917.88
591.721	53894.6
592.08	53946.8
592.44	54002.62
592.799	53947.93
593.158	53933.24
593.517	54023.41
593.876	53980.47
594.235	53940.47
594.593	54072
594.952	54135.95
595.311	53973.92
595.67	54105.67
596.029	54285.1
596.387	54262.27
596.746	54290.52
597.104	54195.38
597.463	54175.5
597.822	54365.55
598.18	54179.79
598.538	54223.86
598.897	54399.9
599.255	54233.8
599.613	54616.61
599.972	54382.5
600.33	54488.93
600.688	54287.58
601.046	54472.89
601.404	54512.66
601.762	54497.3
602.12	54647.8
602.478	54673.34
602.836	54666.78
603.194	54562.83
603.552	54574.81
603.91	54523.51
604.268	54593.11
604.625	54558.76
604.983	54719.44
605.341	54633.34
605.698	54793.79
606.056	54791.75
606.413	54740.45
606.771	54918.08
607.128	54868.59
607.485	54721.02
607.843	54886.21
608.2	54970.28
608.557	54974.12
608.914	54901.81
609.272	55050.28
609.629	55106.55
609.986	55182.48
610.343	54994.68
610.7	55255.69
611.057	55163.49
611.414	55178.86
611.771	55190.61
612.127	55366.43
612.484	55310.16
612.841	55429.02
613.198	55327.56
613.554	55342.92
613.911	55485.29
614.267	55417.95
614.624	55373.66
614.98	55427.44
615.337	55516.48
615.693	55484.61
616.05	55509.7
616.406	55604.61
616.762	55522.13
617.118	55523.71
617.475	55509.25
617.831	55609.13
618.187	55634.89
618.543	55644.38
618.899	55816.13
619.255	55637.38
619.611	55679.64
619.967	55742.46
620.323	55798.28
620.678	55745.85
621.034	55739.75
621.39	55714.21
621.746	55695.23
622.101	56010.48
622.457	55782.69
622.812	55809.8
623.168	55856.36
623.523	55750.82
623.879	55897.94
624.234	55711.28
624.589	55866.3
624.945	55882.12
625.3	55846.41
625.655	55913.08
626.01	55879.86
626.365	55934.55
626.72	55903.36
627.075	55843.93
627.43	55855.45
627.785	55806.19
628.14	55890.25
628.495	55916.69
628.85	55911.95
629.205	55784.49
629.559	56055.22
629.914	55840.09
630.269	55885.06
630.623	55824.94
630.978	55729.35
631.332	55848.45
631.687	55926.86
632.041	55828.79
632.396	55811.84
632.75	55695.91
633.104	55738.39
633.459	55684.84
633.813	55689.13
634.167	55615.91
634.521	55610.71
634.875	55644.61
635.229	55640.32
635.583	55551.28
635.937	55539.3
636.291	55547.89
636.645	55558.06
636.999	55524.61
637.352	55591.28
637.706	55402.58
638.06	55455.24
638.413	55475.58
638.767	55394.9
639.121	55483.94
639.474	55258.18
639.828	55316.26
640.181	55398.52
640.534	55391.74
640.888	55312.64
641.241	55192.87
641.594	55314.9
641.947	55393.54
642.301	55285.07
642.654	55251.4
643.007	55290.04
643.36	55178.18
643.713	55150.84
644.066	55271.29
644.419	55099.77
644.771	54839.66
645.124	54586.33
645.477	54628.37
645.83	54447.35
646.182	54330.97
646.535	54355.38
646.888	54362.84
647.24	54243.29
647.593	54429.5
647.945	54257.75
648.298	54201.03
648.65	54147.93
649.002	54120.81
649.355	54162.84
649.707	54156.06
650.059	54284.87
650.411	54625.88
650.763	54630.17
651.115	54976.15
651.467	54883.5
651.819	54826.1
652.171	54785.42
652.523	54707.23
652.875	54784.97
653.227	54607.12
653.578	54748.59
653.93	54725.54
654.282	54598.54
654.633	54546.11
654.985	54614.81
655.337	54696.16
655.688	54612.77
656.039	54743.84
656.391	54494.13
656.742	54512.21
657.094	54505.66
657.445	54551.08
657.796	54544.75
658.147	54466.34
658.498	54513.11
658.849	54530.06
659.2	54467.01
659.551	54451.42
659.902	54479.22
660.253	54439.44
660.604	54550.18
660.955	54434.7
661.306	54468.14
661.656	54433.79
662.007	54408.71
662.358	54364.42
662.708	54310.18
663.059	54336.4
663.409	54182.95
663.76	54550.85
664.11	54398.32
664.461	54421.14
664.811	54347.24
665.161	54315.15
665.511	54187.25
665.862	54216.17
666.212	54342.27
666.562	54322.61
666.912	54316.74
667.262	54158.55
667.612	54189.28
667.962	54221.14
668.312	54172.56
668.662	54256.62
669.011	54162.62
669.361	54108.83
669.711	54082.62
670.06	54079.45
670.41	54089.4
670.76	53979.34
671.109	54112.45
671.459	54027.93
671.808	53989.29
672.157	54053.92
672.507	53856.63
672.856	53854.15
673.205	53820.48
673.554	54033.13
673.904	53871.78
674.253	53931.66
674.602	53857.09
674.951	53400.6
675.3	53274.73
675.649	53721.05
675.998	53709.52
676.346	53682.85
676.695	53754.04
677.044	53556.3
677.393	53650.31
677.741	53655.28
678.09	53517.43
678.438	53420.49
678.787	53544.55
679.135	53563.54
679.484	53290.55
679.832	53414.61
680.181	53141.85
680.529	53280.15
680.877	53244.22
681.225	53167.39
681.573	53293.71
681.922	53008.07
682.27	53089.2
682.618	52982.99
682.966	52923.33
683.314	53003.1
683.661	52824.8
684.009	52712.48
684.357	52668.19
684.705	52667.74
685.053	52674.07
685.4	52535.99
685.748	52403.34
686.095	52398.14
686.443	52333.74
686.79	52171.03
687.138	52250.8
687.485	52225.94
687.832	52119.51
688.18	52102.33
688.527	51847.42
688.874	51894.2
689.221	51785.05
689.568	51615.34
689.915	51657.14
690.262	51656.01
690.609	51449.01
690.956	51413.76
691.303	51334.44
691.65	51227.55
691.997	51161.79
692.344	50951.4
692.69	50961.57
693.037	50884.06
693.383	50688.13
693.73	50753.44
694.077	50602.48
694.423	50606.32
694.769	50407.91
695.116	50393.22
695.462	50293.56
695.808	50181.7
696.155	50239.55
696.501	50033.01
696.847	49920.24
697.193	49690.42
697.539	49933.12
697.885	49526.35
698.231	49523.87
698.577	49463.98
698.923	49433.25
699.269	49248.17
699.614	49050.43
699.96	48895.41
700.306	48922.08
700.651	48779.25
700.997	48630.56
701.342	48688.86
701.688	48658.35
702.033	48474.86
702.379	48530.22
702.724	48304.01
703.069	48349.66
703.415	47930.91
703.76	47998.94
704.105	47908.32
704.45	47824.25
704.795	47512.62
705.14	47535.22
705.485	47569.34
705.83	47272.4
706.175	47506.29
706.52	47178.62
706.865	47109.02
707.209	47031.73
707.554	46941.79
707.899	46978.62
708.243	46814.79
708.588	46681.46
708.932	46488.01
709.277	46510.84
709.621	46423.16
709.966	46238.98
710.31	46352.88
710.654	46134.13
710.998	46121.92
711.342	46013.45
711.687	45983.4
712.031	45799.67
712.375	45635.61
712.719	45550.41
713.063	45633.35
713.407	45743.85
713.75	45505.89
714.094	45410.3
714.438	45179.35
714.782	45328.72
715.125	45072.91
715.469	45188.84
715.812	45033.14
716.156	44771.9
716.499	44812.35
716.843	44804.22
717.186	44502.76
717.53	44752.92
717.873	44743.65
718.216	44619.82
718.559	44244.91
718.902	44084.46
719.246	44219.83
719.589	44085.37
719.932	43870.68
720.275	43989.55
720.617	43891.47
720.96	43842.89
721.303	43788.2
721.646	43856.9
721.989	43523.57
722.331	43742.32
722.674	43535.55
723.016	43540.75
723.359	43472.95
723.701	43541.2
724.044	43118.61
724.386	42941.67
724.729	43305.5
725.071	43113.87
725.413	43068.9
725.755	43014.66
726.097	42836.13
726.439	42608.12
726.782	42712.75
727.124	42857.38
727.465	42590.26
727.807	42540.77
728.149	42533.77
728.491	42336.49
728.833	42440.89
729.175	42166.09
729.516	42129.49
729.858	42052.65
730.199	42079.54
730.541	42124.74
730.882	41922.26
731.224	42094.23
731.565	41842.26
731.906	41865.54
732.248	41880
732.589	41691.08
732.93	41550.52
733.271	41682.49
733.612	41636.84
733.953	41591.65
734.294	41552.1
734.635	41342.39
734.976	41419
735.317	41240.47
735.658	41148.95
735.999	41102.62
736.339	41109.63
736.68	41157.31
737.021	40967.26
737.361	40795.96
737.702	40929.07
738.042	40929.52
738.383	40823.31
738.723	40847.71
739.063	40670.77
739.404	40718
739.744	40594.84
740.084	40417.44
740.424	40574.95
740.764	40278.01
741.104	40616.08
741.444	40265.35
741.784	40242.08
742.124	40266.03
742.464	40183.1
742.804	40134.96
743.143	40023.1
743.483	40090.44
743.823	39815.42
744.162	39896.32
744.502	39880.96
744.841	39790.79
745.181	40029.88
745.52	39755.76
745.86	39890.9
746.199	39678.7
746.538	39554.64
746.877	39629.44
747.216	39525.71
747.556	39386.51
747.895	39443
748.234	39314.42
748.573	39151.03
748.911	39202.78
749.25	39118.04
749.589	39215.66
749.928	38995.78
750.267	38995.33
750.605	39018.61
750.944	38949.68
751.283	38769.8
751.621	38751.95
751.96	38456.81
752.298	38602.35
752.636	38640.76
752.975	38486.42
753.313	38284.61
753.651	38577.71
753.989	38189.93
754.327	38226.76
754.666	37928.92
755.004	37897.51
755.342	37959.65
755.679	38041.01
756.017	37686.89
756.355	37821.35
756.693	37519.44
757.031	37551.75
757.368	37292.32
757.706	37395.15
758.044	37165.77
758.381	37310.4
758.719	36999.45
759.056	37132.78
759.394	36949.51
759.731	36686.46
760.068	36588.16
760.405	36608.27
760.743	36222.97
761.08	36509.29
761.417	36259.58
761.754	36114.95
762.091	36140.49
762.428	35952.7
762.765	35852.81
763.102	35870.89
763.438	35626.83
763.775	35547.74
764.112	35582.99
764.449	35517.46
764.785	35250.12
765.122	35208.76
765.458	34929
765.795	35058.26
766.131	34959.05
766.467	34810.58
766.804	34685.61
767.14	34404.49
767.476	34484.71
767.812	34362.23
768.148	34336.24
768.485	34149.13
768.821	34058.74
769.157	33756.15
769.492	33951.85
769.828	33920.66
770.164	33574.46
770.5	33368.13
770.836	33358.42
771.171	33191.19
771.507	33209.27
771.842	32911.87
772.178	32974.47
772.513	32863.97
772.849	32920.01
773.184	32550.98
773.519	32661.71
773.855	32269.18
774.19	32225.57
774.525	32231.21
774.86	32158.45
775.195	32040.26
775.53	31830.77
775.865	31779.48
776.2	31579.25
776.535	31293.61
776.87	31259.71
777.205	31259.71
777.539	31207.96
777.874	31081.64
778.209	30876.22
778.543	30811.14
778.878	30684.36
779.212	30618.15
779.547	30543.8
779.881	30435.1
780.215	30268.78
780.55	30342.9
780.884	30065.17
781.218	30037.83
781.552	30157.6
781.886	29878.96
782.22	29746.76
782.554	29515.35
782.888	29368.92
783.222	29194.68
783.556	29231.97
783.889	29130.05
784.223	28900.23
784.557	28949.04
784.89	28868.82
785.224	28634.02
785.557	28594.47
785.891	28598.77
786.224	28439.22
786.558	28427.92
786.891	28126.69
787.224	28022.74
787.557	27965.11
787.891	27928.28
788.224	27847.83
788.557	27731.9
788.89	27765.34
789.223	27740.03
789.556	27455.75
789.888	27439.48
790.221	27262.98
790.554	27168.07
790.887	27115.87
791.219	26943.44
791.552	26914.07
791.884	26704.58
792.217	26700.96
792.549	26673.39
792.882	26463.46
793.214	26380.3
793.546	26363.8
793.879	26167.42
794.211	26120.87
794.543	26219.85
794.875	26013.98
795.207	26139.17
795.539	26025.28
795.871	25891.95
796.203	25740.76
796.535	25490.37
796.867	25477.04
797.198	25426.42
797.53	25423.48
797.862	25264.39
798.193	25327.89
798.525	25114.11
798.856	25112.31
799.188	24826.21
799.519	24902.82
799.85	24815.59
800.182	24741.47
800.513	24658.76
800.844	24473.68
801.175	24548.7
801.506	24498.54
801.837	24392.1
802.168	24364.53
802.499	24150.75
802.83	24176.06
803.161	24114.82
803.491	24052.67
803.822	23994.82
804.153	23862.62
804.483	23765.67
804.814	23630.76
805.145	23514.38
805.475	23546.7
805.805	23451.56
806.136	23469.64
806.466	23415.18
806.796	23385.57
807.126	23160.04
807.457	23171.34
807.787	23178.35
808.117	23040.72
808.447	22992.36
808.777	22970.22
809.107	22958.92
809.436	22855.87
809.766	22807.06
810.096	22659.04
810.426	22638.92
810.755	22626.04
811.085	22602.09
811.414	22476.89
811.744	22205.72
812.073	22313.96
812.403	22231.25
812.732	22108.77
813.061	22139.05
813.39	22029
813.719	21992.84
814.049	22053.4
814.378	21909.68
814.707	21788.33
815.036	21796.46
815.365	21719.85
815.693	21464.04
816.022	21508.56
816.351	21546.3
816.68	21334.33
817.008	21412.06
817.337	21204.84
817.665	21182.01
817.994	21293.42
818.322	21247.1
818.651	21167.32
818.979	21119.19
819.307	21149.25
819.636	21151.96
819.964	20840.55
820.292	20849.82
820.62	20973.88
820.948	20804.4
821.276	20936.37
821.604	20794.23
821.932	20907.9
822.259	20826.54
822.587	20931.17
822.915	20845.07
823.243	20924.85
823.57	20843.04
823.898	20804.17
824.225	20773.21
824.553	20699.99
824.88	20685.76
825.207	20756.94
825.535	20823.83
825.862	20845.07
826.189	20696.38
826.516	20749.71
826.843	20752.65
827.17	20722.59
827.497	20813.89
827.824	20803.27
828.151	20783.38
828.478	20706.77
828.805	20789.48
829.131	20759.88
829.458	20649.6
829.785	20513.56
830.111	20671.74
830.438	20664.29
830.764	20744.06
831.09	20648.02
831.417	20624.06
831.743	20738.86
832.069	20559.66
832.395	20487.79
832.722	20605.31
833.048	20464.07
833.374	20506.33
833.7	20435.37
834.026	20470.39
834.351	20434.91
834.677	20449.83
835.003	20448.93
835.329	20446.89
835.654	20474.69
835.98	20373.22
836.306	20400.11
836.631	20172.55
836.956	20267.46
837.282	20192.66
837.607	20119.67
837.932	20114.47
838.258	20202.83
838.583	20060.69
838.908	19942.5
839.233	20082.61
839.558	19934.36
839.883	19831.31
840.208	19861.14
840.533	19792.67
840.858	19858.66
841.182	19783.18
841.507	19782.73
841.832	19692.34
842.156	19649.17
842.481	19702.96
842.805	19587.93
843.13	19571.43
843.454	19611.21
843.778	19484.21
844.103	19356.52
844.427	19343.87
844.751	19365.11
845.075	19248.73
845.399	19210.77
845.723	19132.12
846.047	19207.6
846.371	18976.42
846.695	18967.61
847.019	18842.64
847.343	18773.04
847.666	18573.49
847.99	18574.4
848.313	18569.43
848.637	18402.88
848.96	18400.62
849.284	18308.19
849.607	18236.78
849.931	18138.03
850.254	18071.59
850.577	17879.05
850.9	17820.97
851.223	17766.74
851.546	17760.41
851.869	17571.49
852.192	17754.08
852.515	17469.79
852.838	17509.12
853.161	17503.92
853.483	17397.48
853.806	17309.12
854.129	17317.93
854.451	17138.73
854.774	17155
855.096	17101.89
855.419	17072.07
855.741	17070.71
856.063	16907.1
856.385	16853.99
856.708	16842.92
857.03	16755.46
857.352	16672.98
857.674	16734.45
857.996	16599.31
858.318	16487.67
858.64	16545.07
858.961	16510.95
859.283	16439.99
859.605	16393.89
859.926	16342.37
860.248	16333.55
860.57	16149.83
860.891	16277.51
861.212	16183.95
861.534	16042.04
861.855	16038.65
862.176	16069.38
862.498	16000
862.819	16079.1
863.14	15959.1
863.461	15887.92
863.782	15851.08
864.103	15949.83
864.424	15860.35
864.745	15783.29
865.065	15800.23
865.386	15694.25
865.707	15733.57
866.027	15678.66
866.348	15611.76
866.668	15630.75
866.989	15645.89
867.309	15543.97
867.63	15547.36
867.95	15533.12
868.27	15375.61
868.59	15441.83
868.91	15379
869.23	15402.96
869.55	15373.8
869.87	15317.08
870.19	15249.97
870.51	15443.41
870.83	15344.2
871.15	15244.32
871.469	15278.89
871.789	15286.12
872.109	15178.1
872.428	15148.5
872.748	15161.38
873.067	15116.64
873.386	15115.96
873.706	15042.74
874.025	15079.35
874.344	14925.46
874.663	14945.57
874.982	14914.83
875.301	14958.22
875.62	14920.26
875.939	14848.17
876.258	14834.84
876.577	14753.03
876.896	14723.88
877.214	14700.6
877.533	14785.8
877.852	14781.28
878.17	14703.31
878.489	14760.49
878.807	14713.26
879.125	14677.1
879.444	14604.79
879.762	14623.99
880.08	14558.91
880.398	14504.22
880.716	14494.51
881.034	14480.95
881.352	14460.16
881.67	14418.8
881.988	14393.04
882.306	14278.47
882.624	14420.61
882.941	14259.48
883.259	14226.26
883.577	14158.02
883.894	14134.06
884.212	14156.66
884.529	14062.43
884.846	14078.02
885.164	14016.1
885.481	14010.68
885.798	13998.7
886.115	13868.31
886.432	13927.74
886.75	13820.63
887.067	13821.98
887.383	13843.68
887.7	13783.11
888.017	13735.66
888.334	13735.66
888.651	13681.42
888.967	13680.06
889.284	13523.46
889.6	13562.78
889.917	13441.88
890.233	13457.25
890.55	13335.44
890.866	13398.94
891.182	13311.94
891.498	13293.18
891.815	13173.64
892.131	13205.27
892.447	13171.15
892.763	13213.18
893.079	13081.89
893.395	13054.54
893.71	13071.49
894.026	12970.48
894.342	13037.6
894.657	12880.31
894.973	12841.89
895.289	12903.36
895.604	12799.41
895.92	12755.57
896.235	12704.27
896.55	12656.36
896.865	12639.87
897.181	12599.87
897.496	12558.96
897.811	12550.83
898.126	12474.67
898.441	12437.61
898.756	12401
899.071	12276.94
899.386	12326.2
899.7	12163.72
900.015	12088.47
900.33	12041.92
900.644	12031.75
900.959	12054.8
901.273	11955.36
901.588	11944.29
901.902	11936.83
902.216	11815.93
902.531	11799.66
902.845	11801.47
903.159	11667.91
903.473	11643.06
903.787	11631.08
904.101	11511.76
904.415	11577.52
904.729	11511.76
905.042	11368.94
905.356	11395.38
905.67	11427.47
905.984	11313.57
906.297	11280.58
906.611	11242.39
906.924	11233.8
907.237	11168.72
907.551	11116.29
907.864	11019.34
908.177	11020.25
908.491	11052.34
908.804	10927.82
909.117	10933.02
909.43	10813.02
909.743	10798.78
910.056	10732.34
910.368	10702.97
910.681	10687.37
910.994	10568.73
911.307	10593.37
911.619	10500.71
911.932	10491.22
912.244	10430.66
912.557	10438.57
912.869	10458.91
913.181	10347.95
913.494	10311.57
913.806	10186.37
914.118	10190.89
914.43	10189.76
914.742	10173.72
915.054	10038.58
915.366	9954.96
915.678	9990.67
915.99	9909.99
916.302	9861.41
916.613	9850.56
916.925	9823.67
917.236	9813.5
917.548	9729.89
917.859	9691.24
918.171	9581.64
918.482	9539.38
918.794	9569.89
919.105	9516.78
919.416	9446.5
919.727	9393.17
920.038	9404.24
920.349	9393.4
920.66	9325.15
920.971	9267.52
921.282	9200.18
921.593	9199.05
921.903	9176.45
922.214	9060.98
922.525	9129
922.835	9025.72
923.146	8964.93
923.456	8926.52
923.767	8926.52
924.077	8796.35
924.387	8844.26
924.697	8807.2
925.008	8792.28
925.318	8741.89
925.628	8696.69
925.938	8660.53
926.248	8576.92
926.558	8590.71
926.867	8561.33
927.177	8490.6
927.487	8497.38
927.796	8380.32
928.106	8400.2
928.416	8362.46
928.725	8357.27
929.034	8260.32
929.344	8303.71
929.653	8236.14
929.962	8148.91
930.271	8104.39
930.581	8069.36
930.89	8023.94
931.199	8028.01
931.508	7963.38
931.817	7976.03
932.125	7955.92
932.434	7953.66
932.743	7817.17
933.051	7761.8
933.36	7793.21
933.669	7741.69
933.977	7749.15
934.286	7687
934.594	7630.05
934.902	7544.41
935.21	7537.4
935.519	7628.47
935.827	7492.66
936.135	7476.16
936.443	7400.23
936.751	7412.21
937.059	7384.41
937.367	7370.4
937.674	7271.19
937.982	7313.9
938.29	7222.38
938.597	7258.76
938.905	7156.85
939.213	7106.68
939.52	7167.69
939.827	7110.29
940.135	7035.94
940.442	7025.55
940.749	7052.22
941.056	6976.74
941.363	6972.22
941.67	6923.86
941.977	6810.87
942.284	6807.02
942.591	6728.38
942.898	6741.49
943.205	6813.13
943.511	6724.09
943.818	6734.48
944.125	6595.28
944.431	6611.1
944.738	6541.95
945.044	6569.29
945.35	6475.73
945.657	6438.67
945.963	6478.22
946.269	6411.55
946.575	6394.15
946.881	6368.62
947.187	6303.99
947.493	6294.5
947.799	6289.75
948.105	6265.8
948.41	6216.53
948.716	6210.2
949.022	6129.53
949.327	6140.38
949.633	6083.43
949.938	6085.24
950.244	6057.21
950.549	6056.31
950.854	5983.77
951.16	6037.1
951.465	5954.39
951.77	5903.09
952.075	5869.65
952.38	5824.9
952.685	5823.1
952.99	5842.3
953.294	5828.07
953.599	5745.36
953.904	5730.67
954.209	5723.21
954.513	5644.12
954.818	5687.05
955.122	5612.03
955.426	5613.16
955.731	5617.45
956.035	5506.27
956.339	5592.14
956.643	5498.81
956.948	5475.31
957.252	5432.37
957.556	5398.7
957.86	5422.2
958.163	5364.35
958.467	5357.57
958.771	5358.02
959.075	5364.8
959.378	5252.94
959.682	5229.66
959.985	5250.68
960.289	5227.18
960.592	5209.1
960.896	5191.47
961.199	5203.68
961.502	5147.41
961.805	5040.97
962.108	5053.4
962.411	5021.53
962.714	5031.03
963.017	5048.43
963.32	5014.53
963.623	4962.55
963.926	4937.24
964.228	4925.49
964.531	4863.12
964.833	4896.57
965.136	4838.49
965.438	4812.27
965.741	4758.49
966.043	4784.03
966.345	4768.43
966.648	4761.88
966.95	4739.96
967.252	4649.34
967.554	4635.1
967.856	4684.37
968.158	4631.26
968.46	4607.53
968.761	4580.64
969.063	4575.22
969.365	4551.94
969.666	4550.59
969.968	4469.01
970.269	4486.18
970.571	4486.41
970.872	4424.04
971.174	4430.82
971.475	4423.58
971.776	4412.96
972.077	4356.92
972.378	4323.02
972.679	4301.78
972.98	4294.32
973.281	4282.35
973.582	4310.37
973.883	4247.09
974.183	4252.52
974.484	4255.45
974.785	4196.25
975.085	4190.82
975.386	4207.32
975.686	4159.64
975.986	4146.08
976.287	4092.97
976.587	4042.58
976.887	4073.54
977.187	4071.5
977.487	4050.94
977.787	4031.05
978.087	3977.95
978.387	3984.95
978.687	3986.31
978.987	3964.61
979.286	3935.91
979.586	3919.42
979.885	3865.86
980.185	3883.03
980.484	3824.05
980.784	3813.88
981.083	3845.29
981.382	3791.06
981.682	3749.93
981.981	3730.95
982.28	3759.65
982.579	3721.23
982.878	3755.58
983.177	3689.59
983.475	3690.72
983.774	3647.79
984.073	3644.62
984.372	3591.97
984.67	3532.76
984.969	3636.71
985.267	3588.35
985.566	3570.95
985.864	3498.18
986.162	3495.7
986.461	3503.61
986.759	3494.34
987.057	3464.97
987.355	3490.73
987.653	3430.84
987.951	3417.51
988.249	3411.86
988.547	3398.53
988.844	3382.93
989.142	3355.82
989.44	3328.7
989.737	3302.26
990.035	3310.62
990.332	3315.14
990.63	3245.08
990.927	3222.03
991.224	3245.08
991.521	3208.02
991.819	3212.32
992.116	3222.49
992.413	3175.03
992.71	3153.11
993.006	3147.23
993.303	3178.65
993.6	3099.33
993.897	3163.28
994.193	3131.19
994.49	3081.25
994.787	3064.75
995.083	3060.68
995.379	2993.34
995.676	2998.99
995.972	2985.2
996.268	2952.21
996.565	2957.86
996.861	2929.84
997.157	2932.78
997.453	2909.95
997.749	2938.88
998.044	2912.66
998.34	2867.24
998.636	2874.25
998.932	2797.86
999.227	2822.27
999.523	2808.49
999.818	2813.68
1000.114	2779.79
1000.409	2759.22
1000.704	2772.1
1001	2728.71
1001.295	2722.39
1001.59	2713.35
1001.885	2687.36
1002.18	2687.36
1002.475	2643.29
1002.77	2671.31
1003.065	2655.04
1003.359	2634.03
1003.654	2572.33
1003.949	2575.5
1004.243	2539.79
1004.538	2557.64
1004.832	2524.65
1005.127	2528.04
1005.421	2506.8
1005.715	2505.22
1006.009	2457.31
1006.304	2453.92
1006.598	2468.38
1006.892	2422.28
1007.186	2424.99
1007.48	2402.85
1007.773	2366.01
1008.067	2364.88
1008.361	2358.78
1008.655	2333.92
1008.948	2315.17
1009.242	2285.56
1009.535	2298.67
1009.829	2278.33
1010.122	2302.06
1010.415	2285.79
1010.708	2225.45
1011.001	2244.88
1011.295	2197.88
1011.588	2186.35
1011.881	2149.97
1012.173	2153.81
1012.466	2177.99
1012.759	2166.47
1013.052	2171.21
1013.344	2164.43
1013.637	2125.34
1013.93	2096.41
1014.222	2080.82
1014.514	2072.91
1014.807	2050.99
1015.099	2045.34
1015.391	2047.6
1015.683	2005.57
1015.976	1988.85
1016.268	1989.07
1016.56	1958.79
1016.851	1984.1
1017.143	1975.29
1017.435	1918.11
1017.727	1934.84
1018.018	1933.93
1018.31	1932.8
1018.602	1914.5
1018.893	1879.24
1019.185	1858
1019.476	1886.02
1019.767	1849.19
1020.058	1828.85
1020.35	1819.58
1020.641	1789.53
1020.932	1815.74
1021.223	1768.51
1021.514	1780.72
1021.804	1753.37
1022.095	1721.51
1022.386	1741.17
1022.677	1707.5
1022.967	1689.87
1023.258	1721.96
1023.548	1665.92
1023.839	1639.48
1024.129	1659.36
1024.419	1656.88
1024.709	1657.78
1025	1646.71
1025.29	1599.25
1025.58	1588.18
1025.87	1570.33
1026.16	1547.5
1026.449	1561.51
1026.739	1589.31
1027.029	1560.83
1027.319	1532.81
1027.608	1534.62
1027.898	1502.76
1028.187	1520.61
1028.477	1521.97
1028.766	1505.02
1029.055	1467.5
1029.344	1470.89
1029.634	1466.6
1029.923	1448.3
1030.212	1447.62
1030.501	1431.8
1030.79	1416.21
1031.078	1369.43
1031.367	1389.54
1031.656	1380.73
1031.945	1376.43
1032.233	1364.68
1032.522	1368.98
1032.81	1360.61
1033.099	1326.26
1033.387	1350.44
1033.675	1312.48
1033.963	1287.4
1034.251	1292.59
1034.54	1273.84
1034.828	1284.68
1035.116	1295.98
1035.403	1248.3
1035.691	1272.93
1035.979	1267.96
1036.267	1246.94
1036.554	1242.42
1036.842	1193.84
1037.129	1233.16
1037.417	1201.07
1037.704	1194.97
1037.992	1196.78
1038.279	1195.87
1038.566	1168.98
1038.853	1168.98
1039.14	1168.98
