Data from white_wall_FLMS001491_082.txt Node
Date: Tue Feb 07 11:06:02 GMT 2017
User: dcchb
Spectrometer: FLMS00149
Trigger mode: 0
Integration Time (sec): 2.000000E-2
Scans to average: 10
Electric dark correction enabled: true
Nonlinearity correction enabled: false
Boxcar width: 0
XAxis mode: Wavelengths
Number of Pixels in Spectrum: 2048
>>>>>Begin Spectral Data<<<<<
341.393	-17.23
341.776	-17.23
342.16	-17.23
342.543	-68.08
342.927	-81.64
343.31	-78.92
343.693	-73.05
344.077	-87.74
344.46	-63.11
344.843	-44.12
345.226	-40.51
345.61	-29.21
345.993	-6.38
346.376	-5.25
346.759	12.37
347.142	52.82
347.525	54.18
347.908	41.3
348.291	66.83
348.674	84.46
349.057	116.32
349.44	136.66
349.823	135.53
350.206	160.84
350.588	204.01
350.971	223.21
351.354	243.1
351.737	248.98
352.119	264.12
352.502	285.13
352.884	300.27
353.267	305.7
353.65	326.71
354.032	323.78
354.414	317.68
354.797	331.01
355.179	348.63
355.562	351.8
355.944	371.01
356.326	347.73
356.709	370.33
357.091	360.39
357.473	349.09
357.855	367.39
358.238	368.07
358.62	358.8
359.002	378.46
359.384	376.2
359.766	371.23
360.148	352.93
360.53	380.95
360.912	361.74
361.294	366.04
361.676	352.25
362.057	368.52
362.439	363.55
362.821	382.76
363.203	377.79
363.584	343.21
363.966	371.91
364.348	339.82
364.729	371.23
365.111	365.36
365.493	364.23
365.874	346.38
366.256	342.08
366.637	333.27
367.019	326.71
367.4	349.31
367.781	354.51
368.163	352.02
368.544	371.91
368.925	349.76
369.306	376.2
369.688	345.47
370.069	333.04
370.45	343.66
370.831	350.67
371.212	356.54
371.593	354.74
371.974	350.44
372.355	336.88
372.736	361.29
373.117	312.93
373.498	364.23
373.879	341.4
374.26	354.51
374.641	352.93
375.021	343.89
375.402	371.91
375.783	368.07
376.163	354.06
376.544	381.18
376.925	375.75
377.305	372.82
377.686	376.88
378.066	381.4
378.447	375.3
378.827	383.89
379.208	387.28
379.588	371.69
379.968	385.02
380.349	366.94
380.729	378.69
381.109	393.15
381.489	391.57
381.87	396.32
382.25	407.39
382.63	391.12
383.01	411.46
383.39	408.52
383.77	394.51
384.15	394.06
384.53	425.7
384.91	403.55
385.29	417.79
385.67	433.38
386.049	424.79
386.429	417.56
386.809	428.86
387.189	433.83
387.568	444
387.948	439.93
388.328	455.98
388.707	445.36
389.087	472.25
389.466	449.88
389.846	479.93
390.225	462.08
390.605	474.06
390.984	490.1
391.363	479.03
391.743	495.3
392.122	483.09
392.501	519.7
392.881	524.45
393.26	533.04
393.639	511.12
394.018	551.12
394.397	539.82
394.776	558.57
395.155	563.77
395.534	558.35
395.913	537.78
396.292	607.39
396.671	599.48
397.05	580.95
397.429	602.87
397.808	589.31
398.186	615.97
398.565	643.54
398.944	640.83
399.323	642.19
399.701	667.95
400.08	673.15
400.458	691.9
400.837	709.3
401.215	709.08
401.594	736.2
401.972	732.35
402.351	749.98
402.729	745.01
403.107	772.58
403.486	787.04
403.864	817.78
404.242	801.96
404.62	831.56
404.999	848.51
405.377	854.16
405.755	880.15
406.133	876.3
406.511	890.77
406.889	922.18
407.267	947.94
407.645	948.39
408.023	965.12
408.401	982.97
408.779	1024.78
409.156	1039.92
409.534	1039.01
409.912	1059.58
410.29	1091.67
410.667	1098.22
411.045	1124.89
411.422	1132.8
411.8	1159.91
412.178	1176.18
412.555	1208.27
412.933	1219.35
413.31	1238.56
413.687	1269.06
414.065	1271.77
414.442	1277.2
414.819	1307.71
415.197	1322.17
415.574	1342.73
415.951	1328.72
416.328	1361.49
416.705	1382.05
417.082	1407.59
417.46	1399.68
417.837	1464.54
418.214	1469.06
418.591	1453.46
418.967	1466.35
419.344	1467.48
419.721	1554.48
420.098	1556.96
420.475	1549.73
420.852	1572.56
421.228	1604.42
421.605	1615.49
421.982	1621.6
422.358	1645.78
422.735	1675.38
423.111	1619.79
423.488	1710.63
423.864	1740.24
424.241	1722.38
424.617	1764.19
424.994	1765.09
425.37	1779.78
425.746	1802.38
426.123	1781.59
426.499	1837.41
426.875	1850.97
427.251	1908.37
427.627	1942.94
428.003	1980
428.379	2005.77
428.756	2011.42
429.132	2068.82
429.507	2025.43
429.883	2088.02
430.259	2130.51
430.635	2136.84
431.011	2150.85
431.387	2231.98
431.763	2229.04
432.138	2256.16
432.514	2304.29
432.89	2288.24
433.265	2345.42
433.641	2378.86
434.016	2405.3
434.392	2474.45
434.767	2505.19
435.143	2502.93
435.518	2545.87
435.894	2552.64
436.269	2614.11
436.644	2648.91
437.02	2696.37
437.395	2638.97
437.77	2730.72
438.145	2787.67
438.52	2789.02
438.895	2794.9
439.271	2840.77
439.646	2866.76
440.021	2884.16
440.395	2933.43
440.77	2913.09
441.145	2914.44
441.52	3015.01
441.895	3043.25
442.27	3046.87
442.645	3071.95
443.019	3085.51
443.394	3099.75
443.769	3142.23
444.143	3146.3
444.518	3194.21
444.892	3196.02
445.267	3217.26
445.641	3227.66
446.016	3288.67
446.39	3327.54
446.764	3351.95
447.139	3327.54
447.513	3416.8
447.887	3399.4
448.262	3408.22
448.636	3484.82
449.01	3469.23
449.384	3565.73
449.758	3574.99
450.132	3658.83
450.506	3581.54
450.88	3679.62
451.254	3667.19
451.628	3684.14
452.002	3814.08
452.376	3791.03
452.75	3875.32
453.123	3882.1
453.497	3926.39
453.871	3977.47
454.244	4075.54
454.618	4057.46
454.992	4125.71
455.365	4176.78
455.739	4254.75
456.112	4291.58
456.486	4317.12
456.859	4367.29
457.232	4458.58
457.606	4479.83
457.979	4530.9
458.352	4657.45
458.725	4713.72
459.099	4716.66
459.472	4844.11
459.845	4919.81
460.218	4921.4
460.591	4968.17
460.964	4988.51
461.337	5085.01
461.71	5232.8
462.083	5314.38
462.456	5294.04
462.829	5317.54
463.201	5416.07
463.574	5431.89
463.947	5494.49
464.32	5663.3
464.692	5647.7
465.065	5783.52
465.438	5870.52
465.81	5977.87
466.183	5999.11
466.555	6183.51
466.928	6193.68
467.3	6170.85
467.672	6343.05
468.045	6484.07
468.417	6526.55
468.789	6532.65
469.161	6637.74
469.534	6724.51
469.906	6906.43
470.278	6979.42
470.65	7081.34
471.022	7173.09
471.394	7292.63
471.766	7366.3
472.138	7492.18
472.51	7687.65
472.882	7730.36
473.253	7835.22
473.625	8009.22
473.997	8161.08
474.369	8253.06
474.74	8341.42
475.112	8490.57
475.484	8634.52
475.855	8837.45
476.227	8829.99
476.598	9131.23
476.97	9247.61
477.341	9364.44
477.713	9576.41
478.084	9594.04
478.455	9882.4
478.827	10018.66
479.198	10294.59
479.569	10294.59
479.94	10629.27
480.311	10683.28
480.682	10944.06
481.053	11185.64
481.424	11389.7
481.795	11511.96
482.166	11672.18
482.537	11880.31
482.908	12157.14
483.279	12231.71
483.65	12544.92
484.021	12717.8
484.391	12947.17
484.762	13066.49
485.133	13146.26
485.503	13363.21
485.874	13780.15
486.244	13804.33
486.615	14022.4
486.985	14301.49
487.356	14602.72
487.726	14714.36
488.097	14915.94
488.467	15006.78
488.837	15326.77
489.207	15571.29
489.578	15693.32
489.948	15918.62
490.318	16174.89
490.688	16234.54
491.058	16560.86
491.428	16723.8
491.798	16940.52
492.168	17244.69
492.538	17349.32
492.908	17563.1
493.278	17800.83
493.648	17793.37
494.017	18086.02
494.387	18287.15
494.757	18343.42
495.126	18645.78
495.496	18615.5
495.866	18932.55
496.235	19119.44
496.605	19296.84
496.974	19373.22
497.344	19568.92
497.713	19713.1
498.082	19895.47
498.452	20053.65
498.821	20275.12
499.19	20333.65
499.559	20499.74
499.928	20677.14
500.298	20810.47
500.667	21039.16
501.036	21028.09
501.405	21214.3
501.774	21320.96
502.143	21630.34
502.512	21729.32
502.88	21927.28
503.249	21963.66
503.618	22189.64
503.987	22209.53
504.356	22535.17
504.724	22576.07
505.093	22688.84
505.462	22807.48
505.83	23005.67
506.199	23229.16
506.567	23536.5
506.936	23594.8
507.304	23815.81
507.672	23861.69
508.041	24088.8
508.409	24265.29
508.777	24395.23
509.145	24735.56
509.514	24720.65
509.882	24939.4
510.25	25094.42
510.618	25352.5
510.986	25320.86
511.354	25740.74
511.722	25879.49
512.09	26327.39
512.458	26178.24
512.826	26402.19
513.193	26629.75
513.561	26775.28
513.929	26999.91
514.297	27251.2
514.664	27344.08
515.032	27489.39
515.4	27821.36
515.767	27868.59
516.135	28113.33
516.502	28026.78
516.869	28420.89
517.237	28553.99
517.604	28652.75
517.972	28920.54
518.339	29076.47
518.706	29310.13
519.073	29525.27
519.44	29704.25
519.808	29871.93
520.175	29979.95
520.542	30382.65
520.909	30559.14
521.276	30733.37
521.643	30935.85
522.009	31198.22
522.376	31423.52
522.743	31644.31
523.11	32044.52
523.477	32186.22
523.843	32433.89
524.21	32792.3
524.577	32897.61
524.943	33059.19
525.31	33284.27
525.676	33644.93
526.043	33871.14
526.409	33923.8
526.776	34323.11
527.142	34587.28
527.508	34680.39
527.874	34994.05
528.241	35200.15
528.607	35270.2
528.973	35677.2
529.339	35662.96
529.705	36048.94
530.071	36310.63
530.437	36526.67
530.803	36688.7
531.169	36858.18
531.535	36850.5
531.901	36900.44
532.267	37300.66
532.632	37557.15
532.998	37611.61
533.364	37915.78
533.73	37855.22
534.095	38250.24
534.461	38352.61
534.826	38573.39
535.192	38689.55
535.557	38923.44
535.923	38989.65
536.288	39204.11
536.653	39378.12
537.019	39399.13
537.384	39574.27
537.749	39634.83
538.114	39857.88
538.479	39971.55
538.845	40237.53
539.21	40052.22
539.575	40296.74
539.94	40621.25
540.305	40746.22
540.67	40776.27
541.034	40849.49
541.399	41165.19
541.764	41260.78
542.129	41533.99
542.494	41531.96
542.858	41828.67
543.223	41840.43
543.587	42051.49
543.952	41999.07
544.316	42273.63
544.681	42309.11
545.045	42515.66
545.41	42768.31
545.774	42938.7
546.138	42940.96
546.503	43148.87
546.867	43159.94
547.231	43553.83
547.595	43675.18
547.959	43729.64
548.324	43875.85
548.688	44058.22
549.052	44189.29
549.416	44327.59
549.779	44444.65
550.143	44625.66
550.507	44991.3
550.871	45031.98
551.235	45012.77
551.599	45356.04
551.962	45549.25
552.326	45646.2
552.689	45934.78
553.053	45645.97
553.417	45939.53
553.78	46452.28
554.143	46287.31
554.507	46584.26
554.87	46638.72
555.234	47221.98
555.597	47016.11
555.96	47267.85
556.323	47382.2
556.686	47581.07
557.05	47833.49
557.413	47913.71
557.776	48019.7
558.139	48343.08
558.502	48376.98
558.865	48547.82
559.228	48878.66
559.59	49009.05
559.953	49041.37
560.316	49415.14
560.679	49463.5
561.041	49684.29
561.404	49790.95
561.767	50072.53
562.129	49990.72
562.492	50440.65
562.854	50385.06
563.217	50437.26
563.579	50563.13
563.941	50877.48
564.304	50992.95
564.666	51311.36
565.028	51329.67
565.39	51412.15
565.753	51550.23
566.115	51800.62
566.477	51761.07
566.839	51836.77
567.201	52170.55
567.563	52156.76
567.925	52429.53
568.287	52435.4
568.648	52482.18
569.01	52641.27
569.372	52827.03
569.734	52855.05
570.095	53060.02
570.457	53078.32
570.819	53187.25
571.18	53225.89
571.542	53374.59
571.903	53340.91
572.265	53472.44
572.626	53584.52
572.987	53710.17
573.349	53826.78
573.71	53973.21
574.071	54037.62
574.432	54025.42
574.794	54270.83
575.155	54201.91
575.516	54180.67
575.877	54311.74
576.238	54402.81
576.599	54517.61
576.96	54342.02
577.32	54507.44
577.681	54532.52
578.042	54627.21
578.403	54626.08
578.763	54595.8
579.124	54746.75
579.485	54837.82
579.845	54879.18
580.206	54849.12
580.566	54861.33
580.927	54868.33
581.287	54977.71
581.648	54910.82
582.008	55076.01
582.368	54965.73
582.728	55141.09
583.089	55024.94
583.449	55087.31
583.809	55119.85
584.169	55118.49
584.529	55012.28
584.889	55269.22
585.249	55132.96
585.609	55011.6
585.969	55162.56
586.329	55161.88
586.688	55177.48
587.048	55227.87
587.408	55132.96
587.768	55165.72
588.127	55186.74
588.487	55082.56
588.846	55272.39
589.206	55207.98
589.565	55185.84
589.925	55332.27
590.284	55277.13
590.643	55305.16
591.003	55396.68
591.362	55353.29
591.721	55383.57
592.08	55331.6
592.44	55401.2
592.799	55346.74
593.158	55341.54
593.517	55330.92
593.876	55443.23
594.235	55257.02
594.593	55427.41
594.952	55546.51
595.311	55393.06
595.67	55421.09
596.029	55554.41
596.387	55490.91
596.746	55539.05
597.104	55452.27
597.463	55479.61
597.822	55576.79
598.18	55514.64
598.538	55494.76
598.897	55673.96
599.255	55525.72
599.613	55813.62
599.972	55589.22
600.33	55767.29
600.688	55625.6
601.046	55806.61
601.404	55878.7
601.762	55815.43
602.12	55884.35
602.478	55839.83
602.836	55863.79
603.194	55687.29
603.552	55885.25
603.91	55847.51
604.268	55905.82
604.625	55745.6
604.983	55976.55
605.341	55829.21
605.698	55995.31
606.056	56013.61
606.413	56059.49
606.771	56154.63
607.128	56144.46
607.485	56015.19
607.843	56043.67
608.2	56264.68
608.557	56335.41
608.914	56258.58
609.272	56338.35
609.629	56412.25
609.986	56487.72
610.343	56325.02
610.7	56533.37
611.057	56550.55
611.414	56439.59
611.771	56478.23
612.127	56638
612.484	56583.99
612.841	56684.1
613.198	56569.3
613.554	56626.25
613.911	56780.6
614.267	56698.57
614.624	56694.5
614.98	56742.86
615.337	56866.47
615.693	56741.5
616.05	56766.59
616.406	56957.09
616.762	56827.83
617.118	56848.84
617.475	56797.32
617.831	56923.42
618.187	56943.08
618.543	57012
618.899	57127.71
619.255	57030.31
619.611	57132.23
619.967	57143.75
620.323	57149.63
620.678	57155.5
621.034	56993.02
621.39	57057.43
621.746	57002.29
622.101	57255.16
622.457	57129.06
622.812	57170.87
623.168	57264.88
623.523	57212.68
623.879	57273.92
624.234	57093.58
624.589	57186.91
624.945	57232.11
625.3	57237.76
625.655	57226.91
626.01	57203.41
626.365	57261.49
626.72	57200.93
627.075	57186.91
627.43	57236.63
627.785	57161.38
628.14	57219.46
628.495	57214.26
628.85	57169.51
629.205	57076.63
629.559	57257.87
629.914	57117.76
630.269	57143.3
630.623	57127.25
630.978	57016.3
631.332	57059.46
631.687	57134.94
632.041	56994.83
632.396	57051.78
632.75	56951.21
633.104	56950.08
633.459	56866.7
633.813	56863.99
634.167	56859.01
634.521	56813.82
634.875	56891.55
635.229	56863.76
635.583	56727.94
635.937	56696.98
636.291	56659.7
636.645	56706.02
636.999	56633.26
637.352	56706.7
637.706	56569.3
638.06	56703.54
638.413	56657.21
638.767	56480.27
639.121	56622.18
639.474	56463.32
639.828	56415.18
640.181	56408.18
640.534	56448.18
640.888	56372.47
641.241	56233.04
641.594	56289.31
641.947	56329.31
642.301	56278.92
642.654	56245.92
643.007	56319.82
643.36	56221.06
643.713	56166.15
644.066	56272.36
644.419	56074.4
644.771	55882.09
645.124	55684.58
645.477	55647.75
645.83	55530.69
646.182	55312.39
646.535	55298.6
646.888	55306.74
647.24	55139.06
647.593	55230.81
647.945	55185.84
648.298	55041.21
648.65	54982.9
649.002	54967.54
649.355	55137.93
649.707	55059.29
650.059	55058.38
650.411	55407.98
650.763	55413.4
651.115	55680.97
651.467	55566.84
651.819	55643
652.171	55506.28
652.523	55438.94
652.875	55502.21
653.227	55388.09
653.578	55506.28
653.93	55403.23
654.282	55304.7
654.633	55226.51
654.985	55247.3
655.337	55305.83
655.688	55264.48
656.039	55427.64
656.391	55122.56
656.742	55173.41
657.094	55223.58
657.445	55281.88
657.796	55176.12
658.147	55153.75
658.498	55178.15
658.849	55189.45
659.2	55111.26
659.551	55054.99
659.902	55152.39
660.253	55071.72
660.604	55139.74
660.955	54930.93
661.306	55077.59
661.656	54963.7
662.007	54942.68
662.358	55021.1
662.708	54919.4
663.059	54887.54
663.409	54789.69
663.76	54987.2
664.11	54872.17
664.461	54910.59
664.811	54895.22
665.161	54870.37
665.511	54846.64
665.862	54858.16
666.212	54934.09
666.562	54880.76
666.912	54714.21
667.262	54755.57
667.612	54735
667.962	54887.09
668.312	54694.55
668.662	54871.95
669.011	54784.72
669.361	54690.48
669.711	54640.99
670.06	54657.26
670.41	54614.78
670.76	54636.92
671.109	54735
671.459	54610.71
671.808	54514.89
672.157	54501.56
672.507	54340.21
672.856	54350.38
673.205	54381.79
673.554	54433.54
673.904	54279.42
674.253	54475.35
674.602	54450.49
674.951	53902.03
675.3	53812.77
675.649	54244.39
675.998	54165.07
676.346	54138.86
676.695	54264.73
677.044	54038.52
677.393	54116.26
677.741	54211.17
678.09	54024.29
678.438	53966.21
678.787	53964.4
679.135	54049.82
679.484	53805.76
679.832	53911.75
680.181	53724.18
680.529	53961.24
680.877	53812.99
681.225	53751.3
681.573	53982.48
681.922	53585.65
682.27	53589.95
682.618	53587.91
682.966	53497.52
683.314	53584.75
683.661	53488.03
684.009	53269.5
684.357	53281.48
684.705	53121.94
685.053	53248.94
685.4	53186.79
685.748	53002.84
686.095	53037.87
686.443	52895.05
686.79	52747.03
687.138	52895.5
687.485	52785.45
687.832	52683.76
688.18	52750.87
688.527	52437.43
688.874	52519.92
689.221	52482.86
689.568	52256.42
689.915	52261.39
690.262	52221.62
690.609	52121.74
690.956	52112.47
691.303	52034.51
691.65	51846.26
691.997	51871.35
692.344	51580.73
692.69	51652.82
693.037	51627.51
693.383	51427.29
693.73	51499.38
694.077	51288.09
694.423	51211.03
694.769	51059.62
695.116	51100.52
695.462	50971.94
695.808	50936.68
696.155	50931.71
696.501	50634.54
696.847	50709.34
697.193	50527.43
697.539	50686.75
697.885	50295.34
698.231	50214.44
698.577	50214.22
698.923	50130.38
699.269	49924.51
699.614	49842.25
699.96	49669.37
700.306	49782.36
700.651	49533.1
700.997	49393
701.342	49356.84
701.688	49334.92
702.033	49203.62
702.379	49224.19
702.724	49126.11
703.069	49064.19
703.415	48656.07
703.76	48786.01
704.105	48701.94
704.45	48564.77
704.795	48460.59
705.14	48367.49
705.485	48387.6
705.83	48103.99
706.175	48271.22
706.52	48093.37
706.865	47982.86
707.209	47913.03
707.554	47840.27
707.899	47828.29
708.243	47551.91
708.588	47553.04
708.932	47337.91
709.277	47238.48
709.621	47416.32
709.966	47003.91
710.31	47226.5
710.654	46740.41
710.998	46899.28
711.342	46867.41
711.687	46776.57
712.031	46560.3
712.375	46417.93
712.719	46541.77
713.063	46414.77
713.407	46605.05
713.75	46277.82
714.094	46219.52
714.438	46030.15
714.782	46189.46
715.125	45934.78
715.469	46055.46
715.812	45762.13
716.156	45567.56
716.499	45593.09
716.843	45754.67
717.186	45331.63
717.53	45455.25
717.873	45304.97
718.216	45330.73
718.559	45169.83
718.902	44943.85
719.246	44958.54
719.589	44797.18
719.932	44699.33
720.275	44828.6
720.617	44631.31
720.96	44689.16
721.303	44641.71
721.646	44664.76
721.989	44319.91
722.331	44356.29
722.674	44403.52
723.016	44312.22
723.359	44233.81
723.701	44206.69
724.044	43996.3
724.386	43877.66
724.729	43921.73
725.071	43772.58
725.413	43740.94
725.755	43770.32
726.097	43604.67
726.439	43542.53
726.782	43520.16
727.124	43712.24
727.465	43475.18
727.807	43480.38
728.149	43277.68
728.491	43158.58
728.833	43177.11
729.175	43044.01
729.516	43059.38
729.858	42855.31
730.199	42811.25
730.541	42886.73
730.882	42772.38
731.224	42934.86
731.565	42530.12
731.906	42515.21
732.248	42486.96
732.589	42375.55
732.93	42119.06
733.271	42238.15
733.612	42189.57
733.953	42100.76
734.294	42042.68
734.635	41855.79
734.976	42003.58
735.317	41837.26
735.658	41794.55
735.999	41814.44
736.339	41644.27
736.68	41756.36
737.021	41709.58
737.361	41551.62
737.702	41625.74
738.042	41487.89
738.383	41312.76
738.723	41484.05
739.063	41181.91
739.404	41247.45
739.744	41134
740.084	41060.33
740.424	41035.25
740.764	40845.42
741.104	41023.5
741.444	40874.35
741.784	40642.94
742.124	40776.27
742.464	40743.5
742.804	40533.57
743.143	40531.76
743.483	40615.82
743.823	40359.33
744.162	40301.26
744.502	40320.92
744.841	40188.94
745.181	40226
745.52	39981.27
745.86	40088.38
746.199	40103.3
746.538	39978.33
746.877	39965.9
747.216	40029.17
747.556	39858.1
747.895	39993.02
748.234	39645
748.573	39518.9
748.911	39426.03
749.25	39466.7
749.589	39303.99
749.928	39381.96
750.267	39543.54
750.605	39292.7
750.944	39157.78
751.283	38978.35
751.621	39123.66
751.96	38763.22
752.298	38813.61
752.636	38881.63
752.975	38593.28
753.313	38597.8
753.651	38712.15
753.989	38374.53
754.327	38355.32
754.666	38197.58
755.004	38290.24
755.342	38287.07
755.679	38131.14
756.017	37809.12
756.355	37982.67
756.693	37675.79
757.031	37759.85
757.368	37527.54
757.706	37494.78
758.044	37451.39
758.381	37436.93
758.719	37292.52
759.056	37293.65
759.394	37139.53
759.731	36823.38
760.068	36866.77
760.405	36697.06
760.743	36518.31
761.08	36754.01
761.417	36560.11
761.754	36341.59
762.091	36561.69
762.428	36173.46
762.765	36039
763.102	36023.63
763.438	35869.28
763.775	35717.42
764.112	35726.91
764.449	35757.87
764.785	35580.25
765.122	35381.16
765.458	35200.83
765.795	35168.28
766.131	35126.25
766.467	35003.54
766.804	34862.08
767.14	34745.92
767.476	34623.67
767.812	34545.7
768.148	34566.04
768.485	34267.52
768.821	34067.52
769.157	34107.75
769.492	33967.86
769.828	33920.41
770.164	33646.97
770.5	33618.95
770.836	33708.21
771.171	33235.23
771.507	33209.47
771.842	33013.76
772.178	33015.57
772.513	33036.14
772.849	32882.69
773.184	32804.96
773.519	32727.44
773.855	32556.83
774.19	32364.74
774.525	32359.32
774.86	32252.2
775.195	32089.27
775.53	32067.57
775.865	31852.89
776.2	31642.28
776.535	31532
776.87	31504.43
777.205	31339.68
777.539	31254.26
777.874	31371.1
778.209	30972.69
778.543	30829.19
778.878	30721.17
779.212	30710.55
779.547	30553.49
779.881	30636.43
780.215	30328.41
780.55	30305.81
780.884	30211.8
781.218	30155.76
781.552	30040.96
781.886	29910.57
782.22	29795.54
782.554	29571.6
782.888	29534.08
783.222	29317.14
783.556	29168.22
783.889	29142.45
784.223	28926.87
784.557	28857.49
784.89	29057.26
785.224	28694.1
785.557	28680.55
785.891	28522.58
786.224	28577.5
786.558	28494.34
786.891	28079.88
787.224	28158.3
787.557	28036.72
787.891	28030.62
788.224	28006.44
788.557	27864.75
788.89	27805.99
789.223	27809.83
789.556	27567.81
789.888	27508.37
790.221	27364.42
790.554	27070.42
790.887	27185.67
791.219	27027.48
791.552	27039.68
791.884	26855.28
792.217	26807.37
792.549	26769.18
792.882	26523.54
793.214	26372.81
793.546	26388.63
793.879	26213.27
794.211	26134.4
794.543	26244.23
794.875	26151.57
795.207	26126.04
795.539	25909.09
795.871	25894.4
796.203	25641.98
796.535	25636.56
796.867	25556.11
797.198	25504.36
797.53	25389.11
797.862	25253.97
798.193	25268.66
798.525	25097.59
798.856	24979.4
799.188	24819.86
799.519	24668.9
799.85	24678.16
800.182	24634.1
800.513	24676.81
800.844	24502.12
801.175	24506.87
801.506	24416.02
801.837	24347.33
802.168	24333.77
802.499	24149.37
802.83	23969.03
803.161	24027.56
803.491	24040.22
803.822	23943.04
804.153	23917.96
804.483	23565.88
804.814	23575.37
805.145	23574.92
805.475	23486.78
805.805	23475.26
806.136	23436.16
806.466	23400.23
806.796	23351.19
807.126	23088.6
807.457	23108.26
807.787	23045.21
808.117	22993.69
808.447	22887.48
808.777	23036.4
809.107	22849.51
809.436	22776.52
809.766	22783.75
810.096	22715.5
810.426	22628.95
810.755	22582.85
811.085	22334.72
811.414	22340.15
811.744	22292.69
812.073	22284.1
812.403	22253.6
812.732	22045.69
813.061	22150.32
813.39	21928.18
813.719	21960.5
814.049	21938.35
814.378	21929.99
814.707	21953.49
815.036	21902.42
815.365	21669.66
815.693	21564.12
816.022	21567.29
816.351	21392.6
816.68	21253.17
817.008	21463.11
817.337	21258.14
817.665	21186.28
817.994	21171.36
818.322	21118.48
818.651	21186.51
818.979	21056.79
819.307	21129.56
819.636	21040.29
819.964	20815.22
820.292	21019.73
820.62	20935.66
820.948	20945.38
821.276	20885.95
821.604	20822.67
821.932	20844.14
822.259	20878.04
822.587	20890.47
822.915	20764.6
823.243	20817.02
823.57	20736.35
823.898	20765.27
824.225	20717.59
824.553	20685.05
824.88	20717.82
825.207	20845.5
825.535	20689.34
825.862	20840.53
826.189	20710.81
826.516	20809.79
826.843	20802.56
827.17	20779.51
827.497	20751.71
827.824	20741.09
828.151	20777.02
828.478	20754.88
828.805	20792.39
829.131	20635.56
829.458	20716.69
829.785	20561.44
830.111	20712.39
830.438	20664.03
830.764	20631.49
831.09	20601.44
831.417	20522.57
831.743	20671.94
832.069	20607.99
832.395	20512.17
832.722	20556.69
833.048	20604.15
833.374	20533.87
833.7	20445.06
834.026	20489.12
834.351	20536.58
834.677	20436.47
835.003	20521.21
835.329	20451.38
835.654	20394.66
835.98	20323.02
836.306	20357.6
836.631	20228.56
836.956	20380.65
837.282	20278.05
837.607	20114.22
837.932	20165.51
838.258	20144.05
838.583	20042.13
838.908	19991.73
839.233	19964.62
839.558	19988.8
839.883	19967.55
840.208	19891.85
840.533	19879.42
840.858	19835.13
841.182	19763.94
841.507	19610.5
841.832	19566.21
842.156	19619.54
842.481	19544.74
842.805	19587.23
843.13	19551.07
843.454	19570.95
843.778	19502.26
844.103	19295.26
844.427	19394.01
844.751	19346.1
845.075	19261.58
845.399	19156.05
845.723	19079.67
846.047	19152.89
846.371	18902.27
846.695	18897.3
847.019	18756.06
847.343	18696.18
847.666	18633.8
847.99	18539.8
848.313	18478.33
848.637	18419.12
848.96	18384.77
849.284	18354.72
849.607	18189.3
849.931	18159.92
850.254	18027.49
850.577	18087.83
850.9	17829.76
851.223	17859.59
851.546	17737.33
851.869	17543.89
852.192	17676.31
852.515	17497.79
852.838	17432.71
853.161	17541.63
853.483	17482.87
853.806	17323.33
854.129	17183.9
854.451	17139.61
854.774	17126.5
855.096	17094.18
855.419	17052.38
855.741	17036.11
856.063	16933.06
856.385	16867.3
856.708	16813.06
857.03	16767.41
857.352	16808.32
857.674	16677.92
857.996	16666.17
858.318	16652.61
858.64	16505.72
858.961	16450.13
859.283	16476.35
859.605	16395.22
859.926	16383.92
860.248	16305.73
860.57	16179.63
860.891	16199.52
861.212	16140.08
861.534	16099.86
861.855	16060.54
862.176	16054.66
862.498	16014.21
862.819	15968.11
863.14	16008.56
863.461	15863.48
863.782	15891.96
864.103	15807.44
864.424	15785.74
864.745	15837.04
865.065	15691.06
865.386	15691.73
865.707	15591.17
866.027	15652.64
866.348	15585.3
866.668	15631.62
866.989	15571.06
867.309	15448.58
867.63	15501.68
867.95	15543.72
868.27	15360.9
868.59	15425.53
868.91	15387.56
869.23	15333.55
869.55	15316.15
869.87	15284.51
870.19	15283.84
870.51	15369.03
870.83	15361.8
871.15	15174.91
871.469	15120.68
871.789	15173.33
872.109	15135.82
872.428	15014.46
872.748	15056.5
873.067	15027.57
873.386	15096.5
873.706	14980.79
874.025	14868.25
874.344	14892.21
874.663	15012.43
874.982	14875.03
875.301	14920.46
875.62	14922.94
875.939	14921.13
876.258	14903.05
876.577	14829.61
876.896	14761.36
877.214	14697.64
877.533	14761.82
877.852	14703.06
878.17	14727.01
878.489	14733.57
878.807	14688.14
879.125	14734.47
879.444	14617.19
879.762	14541.03
880.08	14499.45
880.398	14479.56
880.716	14563.63
881.034	14395.5
881.352	14350.98
881.67	14371.77
881.988	14389.4
882.306	14258.55
882.624	14275.5
882.941	14255.61
883.259	14201.15
883.577	14125.22
883.894	14147.37
884.212	14148.72
884.529	14143.53
884.846	13982.63
885.164	13999.35
885.481	13995.51
885.798	14068.05
886.115	13865.34
886.432	13952.12
886.75	13882.52
887.067	13809.52
887.383	13702.18
887.7	13814.04
888.017	13710.09
888.334	13826.02
888.651	13616.31
888.967	13661.51
889.284	13516.88
889.6	13613.82
889.917	13453.83
890.233	13459.7
890.55	13414.73
890.866	13394.85
891.182	13310.55
891.498	13302.19
891.815	13254.74
892.131	13176.55
892.447	13185.59
892.763	13145.59
893.079	12985.82
893.395	13082.76
893.71	13001.18
894.026	13032.82
894.342	12988.3
894.657	12795.54
894.973	12878.93
895.289	12867.63
895.604	12826.27
895.92	12677.58
896.235	12619.5
896.55	12614.75
896.865	12650.46
897.181	12638.71
897.496	12583.12
897.811	12431.71
898.126	12502.89
898.441	12421.54
898.756	12379.96
899.071	12321.43
899.386	12330.24
899.7	12245.05
900.015	12209.11
900.33	12101.77
900.644	12089.57
900.959	12098.38
901.273	12115.11
901.588	11961.44
901.902	11963.47
902.216	11935.67
902.531	11871.04
902.845	11796.24
903.159	11657.26
903.473	11655
903.787	11621.56
904.101	11562.58
904.415	11606.19
904.729	11503.6
905.042	11487.55
905.356	11360.1
905.67	11404.39
905.984	11330.72
906.297	11320.55
906.611	11199.2
906.924	11184.73
907.237	11205.07
907.551	11163.27
907.864	11106.77
908.177	11048.24
908.491	11109.71
908.804	10938.86
909.117	10832.43
909.43	10792.2
909.743	10748.81
910.056	10719.89
910.368	10676.95
910.681	10656.84
910.994	10647.35
911.307	10597.86
911.619	10551.76
911.932	10544.53
912.244	10389.73
912.557	10398.31
912.869	10437.41
913.181	10323.74
913.494	10345.21
913.806	10225.89
914.118	10194.03
914.43	10190.86
914.742	10135.27
915.054	10027.48
915.366	10053.01
915.678	9943.64
915.99	9889.85
916.302	9882.17
916.613	9839.23
916.925	9823.64
917.236	9786.13
917.548	9820.7
917.859	9689.63
918.171	9607.15
918.482	9547.26
918.794	9498
919.105	9502.07
919.416	9385.91
919.727	9443.99
920.038	9396.98
920.349	9377.78
920.66	9308.4
920.971	9320.6
921.282	9231.79
921.593	9190.21
921.903	9215.52
922.214	9181.4
922.525	9033.15
922.835	9049.65
923.146	9002.42
923.456	8989.76
923.767	8954.74
924.077	8895.98
924.387	8814.4
924.697	8805.14
925.008	8715.42
925.318	8709.09
925.628	8757.45
925.938	8684.91
926.248	8603.79
926.558	8556.1
926.867	8556.1
927.177	8481.3
927.487	8488.08
927.796	8378.25
928.106	8382.32
928.416	8378.48
928.725	8322.89
929.034	8241.99
929.344	8283.12
929.653	8195.66
929.962	8228.2
930.271	8178.49
930.581	8003.12
930.89	8112.72
931.199	8021.2
931.508	8052.84
931.817	8005.16
932.125	7871.15
932.434	7927.87
932.743	7814.88
933.051	7825.05
933.36	7806.74
933.669	7733.75
933.977	7610.36
934.286	7681.1
934.594	7655.34
934.902	7613.53
935.21	7546.86
935.519	7596.58
935.827	7591.61
936.135	7460.31
936.443	7394.55
936.751	7451.95
937.059	7320.88
937.367	7349.13
937.674	7298.73
937.982	7294.44
938.29	7262.8
938.597	7230.26
938.905	7129.93
939.213	7124.73
939.52	7133.99
939.827	7134.9
940.135	7038.18
940.442	7021.23
940.749	6989.36
941.056	6989.82
941.363	6893.32
941.67	6888.58
941.977	6884.96
942.284	6776.49
942.591	6754.57
942.898	6768.58
943.205	6788.69
943.511	6714.57
943.818	6745.98
944.125	6614.01
944.431	6650.84
944.738	6597.74
945.044	6577.62
945.35	6530.39
945.657	6481.36
945.963	6511.86
946.269	6440.68
946.575	6475.93
946.881	6412.88
947.187	6386.67
947.493	6357.06
947.799	6346.67
948.105	6304.64
948.41	6189.84
948.716	6234.58
949.022	6186.45
949.327	6141.25
949.633	6091.08
949.938	6093.57
950.244	6058.54
950.549	6032.1
950.854	6044.98
951.16	6026.23
951.465	5941.26
951.77	5899.45
952.075	5922.95
952.38	5895.83
952.685	5862.39
952.99	5790.07
953.294	5825.1
953.599	5825.1
953.904	5784.2
954.209	5734.26
954.513	5657.65
954.818	5682.05
955.122	5683.64
955.426	5632.11
955.731	5590.3
956.035	5599.34
956.339	5536.52
956.643	5572.68
956.948	5538.55
957.252	5485.45
957.556	5479.57
957.86	5445.22
958.163	5466.24
958.467	5366.36
958.771	5423.53
959.075	5359.35
959.378	5297.66
959.682	5350.99
959.985	5304.21
960.289	5210.2
960.592	5261.05
960.896	5249.75
961.199	5198
961.502	5153.48
961.805	5133.14
962.108	5104.44
962.411	5039.13
962.714	5057.44
963.017	5047.04
963.32	5035.07
963.623	4983.32
963.926	4982.64
964.228	4918.01
964.531	4888.4
964.833	4939.93
965.136	4897.44
965.438	4873.71
965.741	4809.31
966.043	4838.91
966.345	4826.94
966.648	4734.96
966.95	4779.93
967.252	4687.96
967.554	4692.7
967.856	4702.87
968.158	4672.14
968.46	4641.86
968.761	4627.84
969.063	4566.38
969.365	4599.6
969.666	4599.37
969.968	4536.55
970.269	4514.85
970.571	4494.29
970.872	4497.68
971.174	4422.2
971.475	4478.02
971.776	4407.51
972.077	4347.4
972.378	4381.98
972.679	4363.67
972.98	4347.85
973.281	4345.14
973.582	4294.97
973.883	4285.03
974.183	4263.33
974.484	4256.1
974.785	4240.51
975.085	4246.16
975.386	4225.6
975.686	4165.48
975.986	4135.43
976.287	4114.86
976.587	4113.06
976.887	4092.04
977.187	4127.29
977.487	4077.35
977.787	4066.05
978.087	4009.56
978.387	4019.72
978.687	4017.92
978.987	4020.18
979.286	3951.7
979.586	3952.61
979.885	3874.19
980.185	3891.59
980.484	3883.91
980.784	3861.76
981.083	3851.37
981.382	3841.2
981.682	3770.92
981.981	3805.95
982.28	3838.71
982.579	3727.98
982.878	3761.88
983.177	3732.95
983.475	3711.71
983.774	3645.5
984.073	3684.14
984.372	3678.49
984.67	3602.56
984.969	3641.88
985.267	3666.74
985.566	3618.38
985.864	3584.93
986.162	3566.86
986.461	3508.78
986.759	3515.11
987.057	3488.89
987.355	3476.91
987.653	3475.78
987.951	3461.55
988.249	3453.64
988.547	3435.33
988.844	3424.03
989.142	3405.73
989.44	3388.33
989.737	3368.22
990.035	3350.59
990.332	3328.22
990.63	3321.66
990.927	3269.91
991.224	3281.44
991.521	3299.29
991.819	3299.97
992.116	3262.91
992.413	3220.42
992.71	3182.91
993.006	3201.67
993.303	3133.87
993.6	3158.28
993.897	3159.18
994.193	3148.56
994.49	3118.96
994.787	3094.55
995.083	3057.94
995.379	3021.56
995.676	3024.72
995.972	3047.77
996.268	2989.7
996.565	2981.33
996.861	2961
997.157	2956.02
997.453	2926.87
997.749	2949.47
998.044	2908.79
998.34	2881.22
998.636	2846.2
998.932	2878.51
999.227	2843.94
999.523	2819.3
999.818	2796.25
1000.114	2773.66
1000.409	2791.06
1000.704	2758.74
1001	2763.03
1001.295	2769.36
1001.59	2722.58
1001.885	2736.59
1002.18	2704.05
1002.475	2686.88
1002.77	2651.63
1003.065	2669.03
1003.359	2668.57
1003.654	2624.96
1003.949	2610.95
1004.243	2586.54
1004.538	2593.32
1004.832	2572.31
1005.127	2556.71
1005.421	2525.3
1005.715	2526.43
1006.009	2535.47
1006.304	2476.94
1006.598	2481.23
1006.892	2463.16
1007.186	2392.42
1007.48	2455.02
1007.773	2415.02
1008.067	2436.72
1008.361	2414.8
1008.655	2373.21
1008.948	2370.73
1009.242	2369.82
1009.535	2336.15
1009.829	2350.62
1010.122	2296.61
1010.415	2332.09
1010.708	2274.69
1011.001	2251.86
1011.295	2253.9
1011.588	2260
1011.881	2229.49
1012.173	2231.75
1012.466	2205.76
1012.759	2186.78
1013.052	2192.65
1013.344	2156.05
1013.637	2174.12
1013.93	2165.99
1014.222	2128.25
1014.514	2089.61
1014.807	2089.61
1015.099	2074.01
1015.391	2075.6
1015.683	2046.9
1015.976	2044.41
1016.268	2041.02
1016.56	2037.18
1016.851	1997.41
1017.143	1973.45
1017.435	1956.73
1017.727	1981.13
1018.018	1975.03
1018.31	1965.09
1018.602	1921.02
1018.893	1924.19
1019.185	1900.01
1019.476	1875.15
1019.767	1876.73
1020.058	1860.01
1020.35	1855.04
1020.641	1853.45
1020.932	1850.52
1021.223	1813.46
1021.514	1785.89
1021.804	1773.68
1022.095	1813.68
1022.386	1799.22
1022.677	1773.46
1022.967	1741.37
1023.258	1751.08
1023.548	1707.47
1023.839	1698.2
1024.129	1689.16
1024.419	1662.27
1024.709	1675.38
1025	1669.28
1025.29	1646.45
1025.58	1632.67
1025.87	1622.95
1026.16	1600.13
1026.449	1584.99
1026.739	1587.25
1027.029	1599.45
1027.319	1574.82
1027.608	1555.83
1027.898	1531.65
1028.187	1537.76
1028.477	1494.59
1028.766	1519.9
1029.055	1480.58
1029.344	1457.31
1029.634	1482.39
1029.923	1481.71
1030.212	1461.15
1030.501	1450.53
1030.79	1454.14
1031.078	1448.94
1031.367	1415.27
1031.656	1419.79
1031.945	1416.86
1032.233	1383.41
1032.522	1345.9
1032.81	1366.69
1033.099	1347.93
1033.387	1330.53
1033.675	1325.56
1033.963	1323.3
1034.251	1333.92
1034.54	1304.54
1034.828	1306.12
1035.116	1304.54
1035.403	1302.06
1035.691	1277.2
1035.979	1251.21
1036.267	1236.97
1036.554	1238.78
1036.842	1244.2
1037.129	1242.17
1037.417	1220.02
1037.704	1212.34
1037.992	1178.44
1038.279	1196.52
1038.566	1213.02
1038.853	1213.02
1039.14	1213.02
