Data from White_reflection_standard_FLMS001491_077.txt Node
Date: Tue Feb 07 10:32:10 GMT 2017
User: dcchb
Spectrometer: FLMS00149
Trigger mode: 0
Integration Time (sec): 2.000000E-2
Scans to average: 10
Electric dark correction enabled: true
Nonlinearity correction enabled: false
Boxcar width: 0
XAxis mode: Wavelengths
Number of Pixels in Spectrum: 2048
>>>>>Begin Spectral Data<<<<<
341.393	-21.65
341.776	-21.65
342.16	-21.65
342.543	-52.61
342.927	-68.66
343.31	-34.31
343.693	-78.83
344.077	-67.75
344.46	-67.07
344.843	-49.67
345.226	-53.74
345.61	-41.99
345.993	-13.29
346.376	-3.12
346.759	16.54
347.142	10.21
347.525	22.64
347.908	68.06
348.291	89.31
348.674	74.62
349.057	128.4
349.44	134.28
349.823	140.6
350.206	167.5
350.588	240.26
350.971	258.57
351.354	261.5
351.737	266.25
352.119	267.38
352.502	312.58
352.884	318.23
353.267	321.39
353.65	348.28
354.032	354.38
354.414	358.9
354.797	347.83
355.179	376.08
355.562	391.67
355.944	393.48
356.326	384.89
356.709	393.03
357.091	416.98
357.473	401.84
357.855	391.44
358.238	404.33
358.62	409.07
359.002	406.81
359.384	406.59
359.766	437.77
360.148	420.37
360.53	407.72
360.912	405.23
361.294	400.71
361.676	412.23
362.057	430.99
362.439	409.3
362.821	416.08
363.203	405.23
363.584	398.9
363.966	420.82
364.348	406.59
364.729	439.8
365.111	407.49
365.493	411.56
365.874	403.65
366.256	438
366.637	392.57
367.019	419.69
367.4	400.71
367.781	425.57
368.163	429.41
368.544	421.95
368.925	425.79
369.306	439.58
369.688	414.95
370.069	454.49
370.45	421.5
370.831	427.38
371.212	436.19
371.593	440.03
371.974	421.95
372.355	444.78
372.736	471.67
373.117	445.68
373.498	429.86
373.879	435.96
374.26	446.36
374.641	426.25
375.021	431.44
375.402	469.63
375.783	493.14
376.163	517.77
376.544	498.11
376.925	490.65
377.305	493.14
377.686	483.19
378.066	504.89
378.447	500.37
378.827	517.77
379.208	520.71
379.588	513.48
379.968	524.55
380.349	539.46
380.729	539.01
381.109	529.97
381.489	549.63
381.87	561.16
382.25	541.72
382.63	551.89
383.01	560.25
383.39	560.25
383.77	568.61
384.15	580.14
384.53	578.78
384.91	588.73
385.29	579.46
385.67	615.17
386.049	632.12
386.429	626.47
386.809	633.47
387.189	656.3
387.568	628.05
387.948	621.72
388.328	661.04
388.707	645.9
389.087	663.53
389.466	679.57
389.846	675.73
390.225	705.79
390.605	709.4
390.984	713.92
391.363	720.25
391.743	731.1
392.122	730.64
392.501	736.07
392.881	758.21
393.26	760.25
393.639	766.58
394.018	740.81
394.397	793.02
394.776	807.93
395.155	786.46
395.534	788.72
395.913	802.28
396.292	802.51
396.671	847.48
397.05	824.88
397.429	827.14
397.808	859.45
398.186	879.79
398.565	857.42
398.944	861.26
399.323	851.55
399.701	897.87
400.08	889.74
400.458	914.59
400.837	934.93
401.215	923.63
401.594	913.46
401.972	949.62
402.351	968.6
402.729	977.64
403.107	986.23
403.486	960.24
403.864	1015.16
404.242	1015.61
404.62	1000.69
404.999	1021.26
405.377	1058.32
405.755	1041.37
406.133	1075.72
406.511	1096.96
406.889	1079.56
407.267	1107.13
407.645	1139.9
408.023	1118.21
408.401	1150.07
408.779	1163.4
409.156	1174.93
409.534	1197.53
409.912	1223.96
410.29	1241.14
410.667	1250.18
411.045	1276.62
411.422	1285.21
411.8	1309.39
412.178	1313.23
412.555	1352.1
412.933	1374.47
413.31	1369.05
413.687	1383.06
414.065	1401.81
414.442	1402.94
414.819	1443.17
415.197	1450.85
415.574	1480.23
415.951	1498.99
416.328	1472.09
416.705	1540.11
417.082	1513.45
417.46	1585.09
417.837	1580.79
418.214	1592.54
418.591	1620.79
418.967	1638.87
419.344	1644.74
419.721	1684.52
420.098	1675.25
420.475	1705.53
420.852	1729.04
421.228	1732.65
421.605	1716.16
421.982	1757.28
422.358	1804.29
422.735	1816.27
423.111	1815.81
423.488	1846.32
423.864	1889.03
424.241	1878.86
424.617	1912.08
424.994	1914.12
425.37	1935.13
425.746	1933.32
426.123	2011.51
426.499	2049.93
426.875	2033.21
427.251	2081.8
427.627	2110.72
428.003	2108.69
428.379	2167.22
428.756	2183.04
429.132	2196.59
429.507	2228.46
429.883	2281.56
430.259	2299.64
430.635	2355.23
431.011	2338.51
431.387	2409.47
431.763	2488.34
432.138	2460.77
432.514	2531.95
432.89	2515.68
433.265	2567.66
433.641	2595.23
434.016	2628
434.392	2672.97
434.767	2726.98
435.143	2672.29
435.518	2752.06
435.894	2804.04
436.269	2852.62
436.644	2900.08
437.02	2924.49
437.395	2909.8
437.77	2924.71
438.145	2996.8
438.52	3007.65
438.895	3027.76
439.271	3075.89
439.646	3183.91
440.021	3146.17
440.395	3161.99
440.77	3187.98
441.145	3163.8
441.52	3274.53
441.895	3285.61
442.27	3299.39
442.645	3300.97
443.019	3361.31
443.394	3304.14
443.769	3409.44
444.143	3399.28
444.518	3486.73
444.892	3454.87
445.267	3508.65
445.641	3509.55
446.016	3525.83
446.39	3613.73
446.764	3639.72
447.139	3620.51
447.513	3686.5
447.887	3677.46
448.262	3710.45
448.636	3712.04
449.01	3776.44
449.384	3853.27
449.758	3884.01
450.132	3895.31
450.506	3936.44
450.88	3951.12
451.254	3989.09
451.628	3987.73
452.002	4055.75
452.376	4115.87
452.75	4145.24
453.123	4230.89
453.497	4234.28
453.871	4297.33
454.244	4376.65
454.618	4421.17
454.992	4511.79
455.365	4470.43
455.739	4599.92
456.112	4630.88
456.486	4665.46
456.859	4700.03
457.232	4776.64
457.606	4820.48
457.979	4892.57
458.352	4923.98
458.725	5039.23
459.099	5085.11
459.472	5180.92
459.845	5217.98
460.218	5298.43
460.591	5344.08
460.964	5390.64
461.337	5476.96
461.71	5557.18
462.083	5668.59
462.456	5644.19
462.829	5679.44
463.201	5810.51
463.574	5780.68
463.947	5925.76
464.32	6043.73
464.692	6080.33
465.065	6151.75
465.438	6218.64
465.81	6338.63
466.183	6352.64
466.555	6565.52
466.928	6557.84
467.3	6587.67
467.672	6702.24
468.045	6896.13
468.417	6854.78
468.789	6963.25
469.161	7036.47
469.534	7153.98
469.906	7345.39
470.278	7356.01
470.65	7483.46
471.022	7645.04
471.394	7796.67
471.766	7850.46
472.138	7975.2
472.51	8088.64
472.882	8217.91
473.253	8305.59
473.625	8453.83
473.997	8653.37
474.369	8670.55
474.74	8802.97
475.112	9015.17
475.484	9101.05
475.855	9242.74
476.227	9373.81
476.598	9584.2
476.97	9640.92
477.341	9896.73
477.713	10053.79
478.084	10103.73
478.455	10449.71
478.827	10525.19
479.198	10806.76
479.569	10798.18
479.94	11105.97
480.311	11238.16
480.682	11585.05
481.053	11774.42
481.424	11950.24
481.795	12054.19
482.166	12239.72
482.537	12398.36
482.908	12641.52
483.279	12891.91
483.65	13040.15
484.021	13297.09
484.391	13513.36
484.762	13556.97
485.133	13700.25
485.503	13980.01
485.874	14215.49
486.244	14351.53
486.615	14658.64
486.985	14815.25
487.356	15030.61
487.726	15185.41
488.097	15466.53
488.467	15550.37
488.837	15906.29
489.207	16108.77
489.578	16315.09
489.948	16530.46
490.318	16728.64
490.688	16783.33
491.058	17103.32
491.428	17315.07
491.798	17439.81
492.168	17842.29
492.538	17902.17
492.908	18096.29
493.278	18329.73
493.648	18379.22
494.017	18535.37
494.387	18773.56
494.757	18875.93
495.126	19168.58
495.496	19201.8
495.866	19355.47
496.235	19618.74
496.605	19704.61
496.974	19873.19
497.344	20042.68
497.713	20208.1
498.082	20392.5
498.452	20526.96
498.821	20720.63
499.19	20870
499.559	20995.2
499.928	21126.72
500.298	21173.04
500.667	21478.12
501.036	21430.89
501.405	21764.44
501.774	21803.76
502.143	22035.62
502.512	22035.85
502.88	22359.91
503.249	22399.68
503.618	22534.59
503.987	22607.58
504.356	22813.68
504.724	22938.65
505.093	23161.92
505.462	23314.46
505.83	23312.65
506.199	23592.42
506.567	23986.76
506.936	23848.68
507.304	24235.34
507.672	24337.26
508.041	24410.25
508.409	24550.36
508.777	24854.53
509.145	24957.8
509.514	25094.07
509.882	25236.44
510.25	25322.09
510.618	25560.5
510.986	25665.81
511.354	25950.09
511.722	26261.05
512.09	26409.07
512.458	26492.23
512.826	26670.3
513.193	26812.9
513.561	26911.2
513.929	27232.32
514.297	27360.23
514.664	27580.79
515.032	27638.41
515.4	27917.5
515.767	28045.86
516.135	28287.21
516.502	28161.79
516.869	28722.9
517.237	28788.44
517.604	28873.18
517.972	29284.47
518.339	29409.66
518.706	29408.31
519.073	29702.99
519.44	29948.63
519.808	30237.21
520.175	30159.7
520.542	30652.8
520.909	30909.51
521.276	30917.2
521.643	31289.84
522.009	31470.4
522.376	31661.36
522.743	31964.4
523.11	32116.71
523.477	32459.98
523.843	32683.25
524.21	33040.53
524.577	33298.6
524.943	33457.02
525.31	33563.68
525.676	33968.64
526.043	34125.7
526.409	34338.12
526.776	34735.17
527.142	34781.73
527.508	35054.94
527.874	35328.15
528.241	35389.85
528.607	35644.53
528.973	36015.82
529.339	36061.24
529.705	36423.04
530.071	36713.43
530.437	36757.04
530.803	36928.34
531.169	37314.99
531.535	37208.33
531.901	37434.99
532.267	37699.62
532.632	37804.25
532.998	37967.18
533.364	38240.39
533.73	38288.75
534.095	38637.22
534.461	38608.74
534.826	38830.43
535.192	39027.72
535.557	39428.38
535.923	39506.12
536.288	39498.21
536.653	39802.84
537.019	39650.53
537.384	40058.65
537.749	40153.56
538.114	40328.47
538.479	40405.31
538.845	40522.59
539.21	40556.04
539.575	40827.9
539.94	40895.46
540.305	41212.29
540.67	41151.95
541.034	41402.8
541.399	41382.91
541.764	41633.52
542.129	41748.55
542.494	41897.47
542.858	42092.04
543.223	42108.54
543.587	42365.03
543.952	42306.95
544.316	42570
544.681	42571.13
545.045	42750.1
545.41	42874.17
545.774	43031.45
546.138	43155.74
546.503	43285.01
546.867	43368.39
547.231	43668.5
547.595	43634.83
547.959	43925.44
548.324	43954.37
548.688	44149.62
549.052	44243.85
549.416	44317.97
549.779	44461.7
550.143	44669.83
550.507	44857.17
550.871	44961.12
551.235	44974.23
551.599	45271.62
551.962	45291.51
552.326	45515.91
552.689	45811.95
553.053	45581.67
553.417	45896.91
553.78	46198.6
554.143	46159.73
554.507	46444.7
554.87	46500.06
555.234	46939.83
555.597	46628.19
555.96	47003.55
556.323	47152.7
556.686	47172.81
557.05	47499.81
557.413	47560.37
557.776	47685.12
558.139	48034.94
558.502	48037.42
558.865	48166.23
559.228	48517.64
559.59	48475.38
559.953	48683.73
560.316	49024.29
560.679	48958.3
561.041	49242.36
561.404	49396.48
561.767	49643.48
562.129	49577.72
562.492	49979.52
562.854	49873.76
563.217	49909.01
563.579	50205.5
563.941	50406.17
564.304	50444.14
564.666	50795.32
565.028	50734.75
565.39	50905.6
565.753	51134.07
566.115	51268.98
566.477	51332.48
566.839	51465.36
567.201	51741.73
567.563	51744.9
567.925	51847.04
568.287	52001.16
568.648	51949.41
569.01	52339.23
569.372	52503.52
569.734	52419.23
570.095	52621.26
570.457	52734.25
570.819	52814.92
571.18	52769.5
571.542	52979.21
571.903	53022.6
572.265	53190.28
572.626	53301.01
572.987	53263.05
573.349	53383.72
573.71	53482.03
574.071	53558.18
574.432	53642.93
574.794	53840.66
575.155	53854.67
575.516	53719.76
575.877	53937.61
576.238	54017.38
576.599	54093.99
576.96	54166.53
577.32	54133.31
577.681	54268.9
578.042	54288.56
578.403	54357.03
578.763	54313.64
579.124	54398.39
579.485	54492.39
579.845	54630.02
580.206	54525.84
580.566	54543.02
580.927	54585.95
581.287	54682.67
581.648	54549.57
582.008	54795.21
582.368	54725.84
582.728	54748.89
583.089	54667.76
583.449	54737.81
583.809	54705.5
584.169	54900.52
584.529	54758.15
584.889	54879.05
585.249	54760.18
585.609	54722.9
585.969	54938.94
586.329	54759.96
586.688	54839.96
587.048	54899.16
587.408	54803.12
587.768	54791.6
588.127	54817.36
588.487	54732.84
588.846	54966.73
589.206	54772.16
589.565	54808.54
589.925	54978.26
590.284	54823.91
590.643	54912.27
591.003	54907.75
591.362	54971.7
591.721	54939.84
592.08	54941.2
592.44	54961.99
592.799	55018.48
593.158	54951.82
593.517	54954.3
593.876	54915.21
594.235	55011.93
594.593	55068.2
594.952	54995.43
595.311	54978.03
595.67	55063.68
596.029	55179.38
596.387	55147.97
596.746	55213.05
597.104	55115.66
597.463	55065.71
597.822	55247.86
598.18	55133.51
598.538	55086.5
598.897	55299.15
599.255	55004.02
599.613	55389.09
599.972	55237.23
600.33	55339.6
600.688	55236.78
601.046	55337.34
601.404	55438.81
601.762	55345.03
602.12	55438.81
602.478	55560.84
602.836	55499.6
603.194	55359.72
603.552	55504.8
603.91	55350.68
604.268	55586.15
604.625	55438.13
604.983	55678.8
605.341	55427.06
605.698	55608.75
606.056	55637.9
606.413	55604.68
606.771	55711.57
607.128	55763.55
607.485	55580.95
607.843	55659.82
608.2	55802.42
608.557	55848.74
608.914	55827.28
609.272	55931.68
609.629	55900.49
609.986	56044.67
610.343	55898.91
610.7	56102.3
611.057	56081.96
611.414	56046.25
611.771	56126.48
612.127	56166.48
612.484	56139.13
612.841	56236.53
613.198	56141.62
613.554	56205.12
613.911	56257.09
614.267	56262.74
614.624	56248.51
614.98	56322.86
615.337	56431.1
615.693	56335.74
616.05	56302.52
616.406	56502.96
616.762	56347.94
617.118	56349.07
617.475	56425.23
617.831	56437.65
618.187	56487.14
618.543	56505.22
618.899	56627.71
619.255	56592.68
619.611	56518.78
619.967	56655.5
620.323	56692.34
620.678	56625.45
621.034	56515.84
621.39	56546.13
621.746	56483.53
622.101	56855.27
622.457	56519.46
622.812	56587.03
623.168	56625.9
623.523	56652.34
623.879	56647.37
624.234	56457.09
624.589	56622.96
624.945	56655.05
625.3	56641.49
625.655	56687.82
626.01	56646.69
626.365	56674.48
626.72	56622.73
627.075	56602.4
627.43	56559.23
627.785	56554.04
628.14	56657.54
628.495	56554.26
628.85	56537.99
629.205	56466.35
629.559	56597.65
629.914	56397.88
630.269	56462.96
630.623	56462.06
630.978	56306.81
631.332	56553.36
631.687	56530.08
632.041	56286.92
632.396	56441.27
632.75	56328.73
633.104	56396.07
633.459	56290.09
633.813	56237.66
634.167	56128.96
634.521	56119.92
634.875	56180.49
635.229	56080.15
635.583	55968.06
635.937	56002.41
636.291	55856.43
636.645	56011.22
636.999	55907.95
637.352	56015.52
637.706	55819.82
638.06	55854.39
638.413	55833.38
638.767	55788.86
639.121	55775.52
639.474	55618.92
639.828	55648.52
640.181	55609.65
640.534	55609.43
640.888	55595.42
641.241	55372.15
641.594	55492.82
641.947	55541.86
642.301	55513.16
642.654	55484.69
643.007	55428.42
643.36	55355.2
643.713	55353.39
644.066	55415.76
644.419	55207.18
644.771	55038.37
645.124	54748.66
645.477	54694.2
645.83	54539.63
646.182	54390.25
646.535	54296.02
646.888	54387.76
647.24	54271.16
647.593	54291.5
647.945	54335.11
648.298	54119.98
648.65	54051.95
649.002	53952.07
649.355	54107.32
649.707	54028
650.059	54157.49
650.411	54463.92
650.763	54470.25
651.115	54788.66
651.467	54603.8
651.819	54716.12
652.171	54574.88
652.523	54449.46
652.875	54456.24
653.227	54417.37
653.578	54517.03
653.93	54479.29
654.282	54301.21
654.633	54223.02
654.985	54282.91
655.337	54280.42
655.688	54215.57
656.039	54304.15
656.391	54041.33
656.742	54103.93
657.094	54135.79
657.445	54228.45
657.796	54214.66
658.147	54127.21
658.498	54146.87
658.849	54119.75
659.2	54010.83
659.551	54010.6
659.902	54091.95
660.253	53976.48
660.604	53982.58
660.955	53890.6
661.306	54034.78
661.656	53879.08
662.007	53890.38
662.358	53891.05
662.708	53787.1
663.059	53802.7
663.409	53644.28
663.76	53848.34
664.11	53861.9
664.461	53793.2
664.811	53811.51
665.161	53743.04
665.511	53671.63
665.862	53698.29
666.212	53761.79
666.562	53730.83
666.912	53642.93
667.262	53643.38
667.612	53589.14
667.962	53624.62
668.312	53613.77
668.662	53706.65
669.011	53549.59
669.361	53503.95
669.711	53499.65
670.06	53375.14
670.41	53381.69
670.76	53376.49
671.109	53519.77
671.459	53397.06
671.808	53380.56
672.157	53416.49
672.507	53202.26
672.856	53162.71
673.205	53231.86
673.554	53253.33
673.904	53195.48
674.253	53223.73
674.602	53214.91
674.951	52709.84
675.3	52563.63
675.649	53146.67
675.998	53090.62
676.346	53141.92
676.695	53045.2
677.044	52915.94
677.393	52994.13
677.741	53000.91
678.09	52880.46
678.438	52802.72
678.787	52963.4
679.135	52889.73
679.484	52739.67
679.832	52782.38
680.181	52609.51
680.529	52647.92
680.877	52526.57
681.225	52568.83
681.573	52727.7
681.922	52406.12
682.27	52311.66
682.618	52412.22
682.966	52278.89
683.314	52322.96
683.661	52214.26
684.009	52122.51
684.357	51978.79
684.705	52014.04
685.053	51988.96
685.4	51971.33
685.748	51735.18
686.095	51826.48
686.443	51619.7
686.79	51572.02
687.138	51584.67
687.485	51497.9
687.832	51524.79
688.18	51440.27
688.527	51279.37
688.874	51276.21
689.221	51232.14
689.568	51055.88
689.915	51025.37
690.262	51000.06
690.609	50839.84
690.956	50734.3
691.303	50742.89
691.65	50547.19
691.997	50519.84
692.344	50307.65
692.69	50239.63
693.037	50217.93
693.383	50050.48
693.73	50159.18
694.077	49895
694.423	49910.37
694.769	49760.77
695.116	49685.97
695.462	49593.77
695.808	49408.46
696.155	49482.58
696.501	49163.72
696.847	49179.31
697.193	48985.87
697.539	49080.56
697.885	48803.28
698.231	48726.67
698.577	48671.98
698.923	48686.45
699.269	48378.43
699.614	48290.75
699.96	48221.37
700.306	48273.58
700.651	48013.47
700.997	47818.67
701.342	47819.12
701.688	47723.08
702.033	47690.77
702.379	47561.28
702.724	47556.76
703.069	47512.01
703.415	47136.88
703.76	47131.23
704.105	47192.47
704.45	46991.58
704.795	46692.83
705.14	46626.84
705.485	46731.69
705.83	46395.21
706.175	46524.69
706.52	46361.76
706.865	46268.66
707.209	46063.46
707.554	46026.63
707.899	46135.1
708.243	45798.61
708.588	45851.72
708.932	45432.52
709.277	45401.33
709.621	45580.54
709.966	45403.59
710.31	45293.09
710.654	45015.36
710.998	45120.44
711.342	44979.65
711.687	44762.93
712.031	44776.72
712.375	44604.75
712.719	44665.08
713.063	44650.39
713.407	44627.57
713.75	44377.41
714.094	44515.93
714.438	44152.33
714.782	44230.29
715.125	44033.69
715.469	44008.38
715.812	43926.35
716.156	43684.54
716.499	43699.23
716.843	43684.09
717.186	43392.12
717.53	43695.84
717.873	43541.04
718.216	43476.87
718.559	43274.84
718.902	42951.68
719.246	42966.14
719.589	42896.09
719.932	42710.78
720.275	42790.78
720.617	42677.79
720.96	42672.37
721.303	42681.86
721.646	42588.3
721.989	42312.15
722.331	42533.61
722.674	42351.7
723.016	42450.45
723.359	42107.86
723.701	42196
724.044	41945.38
724.386	41854.54
724.729	41949
725.071	41777.02
725.413	41832.61
725.755	41840.3
726.097	41548.33
726.439	41373.64
726.782	41402.57
727.124	41510.59
727.465	41398.5
727.807	41192.41
728.149	41098.85
728.491	41134.1
728.833	41151.28
729.175	40955.58
729.516	40933.43
729.858	40753.1
730.199	40954.9
730.541	40843.49
730.882	40713.32
731.224	40684.17
731.565	40467.23
731.906	40445.08
732.248	40465.42
732.589	40302.71
732.93	40209.15
733.271	40279.66
733.612	40253.22
733.953	40156.73
734.294	40065.43
734.635	39905.43
734.976	40047.58
735.317	39821.59
735.658	39733.46
735.999	39586.57
736.339	39541.83
736.68	39611.88
737.021	39510.64
737.361	39340.25
737.702	39590.87
738.042	39428.38
738.383	39215.96
738.723	39291.89
739.063	39139.8
739.404	39150.2
739.744	39036.08
740.084	38998.11
740.424	39019.81
740.764	39003.08
741.104	38968.51
741.444	38546.15
741.784	38673.15
742.124	38734.39
742.464	38540.05
742.804	38564.9
743.143	38536.43
743.483	38417.79
743.823	38307.51
744.162	38239.71
744.502	38288.98
744.841	38071.13
745.181	38082.66
745.52	38036.78
745.86	38040.4
746.199	37890.12
746.538	37863.45
746.877	37911.36
747.216	37854.19
747.556	37647.41
747.895	37629.79
748.234	37553.63
748.573	37477.48
748.911	37519.73
749.25	37488.1
749.589	37063.25
749.928	37237.48
750.267	37234.32
750.605	37079.97
750.944	37085.62
751.283	36922.01
751.621	37006.07
751.96	36739.64
752.298	36672.75
752.636	36634.56
752.975	36482.47
753.313	36317.05
753.651	36528.12
753.989	36291.52
754.327	36159.54
754.666	35947.12
755.004	36126.78
755.342	36084.74
755.679	35946.44
756.017	35822.6
756.355	35723.4
756.693	35545.1
757.031	35642.95
757.368	35340.58
757.706	35378.1
758.044	35315.05
758.381	35167.25
758.719	35139.23
759.056	35270.98
759.394	34967.26
759.731	34768.85
760.068	34737.43
760.405	34500.15
760.743	34440.04
761.08	34547.83
761.417	34352.59
761.754	34174.51
762.091	34159.14
762.428	33969.32
762.765	33928.19
763.102	33967.96
763.438	33792.37
763.775	33585.15
764.112	33631.47
764.449	33580.18
764.785	33448.88
765.122	33144.48
765.458	32982.68
765.795	33097.03
766.131	33074.88
766.467	32866.97
766.804	32773.42
767.14	32539.3
767.476	32526.64
767.812	32355.8
768.148	32401
768.485	32213.88
768.821	32025.41
769.157	31916.94
769.492	32012.53
769.828	31839.88
770.164	31564.64
770.5	31470.63
770.836	31509.27
771.171	31293.91
771.507	31306.79
771.842	31025.22
772.178	31013.92
772.513	30924.43
772.849	30811.21
773.184	30679.01
773.519	30565.34
773.855	30524.66
774.19	30350.66
774.525	30183.88
774.86	30163.09
775.195	30201.96
775.53	29985.92
775.865	29821.86
776.2	29582.77
776.535	29401.08
776.87	29393.62
777.205	29404.47
777.539	29128.77
777.874	29236.11
778.209	28899.17
778.543	28996.57
778.878	28789.79
779.212	28800.87
779.547	28535.34
779.881	28582.57
780.215	28379.86
780.55	28467.77
780.884	28300.32
781.218	28149.13
781.552	28229.36
781.886	27961.57
782.22	27882.02
782.554	27745.08
782.888	27501.92
783.222	27494.23
783.556	27355.03
783.889	27288.59
784.223	27015.83
784.557	27035.26
784.89	27119.78
785.224	26940.8
785.557	26781.49
785.891	26731.54
786.224	26593.69
786.558	26491.55
786.891	26299.46
787.224	26212.23
787.557	26161.61
787.891	26140.82
788.224	26078.9
788.557	26048.17
788.89	25830.32
789.223	25809.08
789.556	25578.35
789.888	25701.97
790.221	25452.25
790.554	25280.51
790.887	25314.41
791.219	25303.11
791.552	25103.11
791.884	24980.18
792.217	25066.95
792.549	24875.55
792.882	24712.61
793.214	24586.74
793.546	24571.37
793.879	24480.3
794.211	24471.94
794.543	24493.64
794.875	24405.95
795.207	24354.43
795.539	24174.1
795.871	24178.16
796.203	23929.13
796.535	23812.52
796.867	23716.93
797.198	23805.74
797.53	23730.94
797.862	23489.82
798.193	23621.57
798.525	23276.94
798.856	23416.38
799.188	23184.97
799.519	23225.19
799.85	22941.36
800.182	23009.38
800.513	23048.93
800.844	22747.69
801.175	22911.3
801.506	22766.22
801.837	22791.08
802.168	22732.1
802.499	22571.88
802.83	22448.94
803.161	22461.6
803.491	22307.93
803.822	22439.9
804.153	22230.87
804.483	22091.44
804.814	22057.77
805.145	21993.59
805.475	21888.73
805.805	21785.68
806.136	21838.11
806.466	21888.05
806.796	21728.74
807.126	21531.91
807.457	21592.69
807.787	21619.13
808.117	21372.59
808.447	21342.98
808.777	21406.49
809.107	21321.29
809.436	21140.73
809.766	21234.96
810.096	21142.31
810.426	21124.46
810.755	21054.63
811.085	20937.57
811.414	20870.91
811.744	20758.59
812.073	20743
812.403	20780.29
812.732	20578.03
813.061	20568.77
813.39	20505.49
813.719	20369.68
814.049	20472.05
814.378	20380.52
814.707	20257.59
815.036	20317.7
815.365	20140.53
815.693	20046.97
816.022	19922.23
816.351	19944.83
816.68	19938.05
817.008	19895.11
817.337	19711.84
817.665	19712.29
817.994	19755.23
818.322	19742.57
818.651	19666.64
818.979	19556.82
819.307	19638.4
819.636	19581.9
819.964	19386.65
820.292	19508.23
820.62	19443.37
820.948	19368.8
821.276	19356.6
821.604	19382.58
821.932	19399.53
822.259	19395.24
822.587	19404.96
822.915	19316.82
823.243	19296.48
823.57	19334.9
823.898	19300.55
824.225	19187.11
824.553	19238.41
824.88	19316.6
825.207	19398.85
825.535	19239.08
825.862	19363.38
826.189	19194.34
826.516	19330.16
826.843	19293.55
827.17	19383.04
827.497	19342.58
827.824	19274.11
828.151	19333.32
828.478	19318.4
828.805	19279.99
829.131	19197.05
829.458	19263.26
829.785	19115.02
830.111	19131.52
830.438	19286.31
830.764	19201.57
831.09	19234.11
831.417	19065.53
831.743	19212.64
832.069	19158.41
832.395	19009.71
832.722	19127.68
833.048	18958.19
833.374	19120.9
833.7	18940.56
834.026	18958.64
834.351	19050.39
834.677	18963.16
835.003	18999.09
835.329	19030.73
835.654	19036.38
835.98	18875.7
836.306	18833.45
836.631	18855.82
836.956	18874.35
837.282	18764.07
837.607	18723.84
837.932	18665.31
838.258	18764.07
838.583	18662.15
838.908	18501.7
839.233	18677.52
839.558	18492.66
839.883	18475.71
840.208	18444.98
840.533	18395.72
840.858	18426.9
841.182	18419.22
841.507	18335.61
841.832	18307.13
842.156	18249.05
842.481	18187.59
842.805	18148.04
843.13	18171.09
843.454	18066.91
843.778	18058.32
844.103	18015.16
844.427	17938.55
844.751	17932.9
845.075	17860.36
845.399	17790.54
845.723	17735.17
846.047	17673.48
846.371	17525.46
846.695	17505.34
847.019	17481.16
847.343	17361.39
847.666	17313.03
847.99	17190.78
848.313	17179.93
848.637	17120.27
848.96	17006.37
849.284	17011.57
849.607	16937.9
849.931	16839.15
850.254	16749.88
850.577	16584.69
850.9	16537.46
851.223	16504.69
851.546	16465.82
851.869	16250.46
852.192	16406.84
852.515	16254.98
852.838	16138.38
853.161	16216.11
853.483	16003.69
853.806	16053.86
854.129	15999.17
854.451	15917.14
854.774	15880.3
855.096	15861.32
855.419	15699.97
855.741	15714.43
856.063	15611.61
856.385	15652.96
856.708	15557.6
857.03	15413.65
857.352	15544.72
857.674	15360.99
857.996	15384.5
858.318	15294.1
858.64	15332.29
858.961	15256.36
859.283	15255.69
859.605	15162.13
859.926	15206.2
860.248	15053.88
860.57	15039.42
860.891	15052.98
861.212	14896.6
861.534	14923.49
861.855	14868.58
862.176	14907.9
862.498	14858.86
862.819	14867.67
863.14	14815.47
863.461	14773.67
863.782	14699.09
864.103	14722.59
864.424	14554.69
864.745	14687.34
865.065	14553.78
865.386	14494.58
865.707	14556.95
866.027	14442.15
866.348	14538.19
866.668	14515.82
866.989	14386.78
867.309	14326.45
867.63	14410.06
867.95	14376.39
868.27	14323.06
868.59	14296.16
868.91	14231.76
869.23	14148.14
869.55	14210.97
869.87	14262.04
870.19	14217.52
870.51	14186.79
870.83	14218.65
871.15	14053.91
871.469	14018.66
871.789	14024.76
872.109	14098.65
872.428	13934.37
872.748	14071.08
873.067	14041.93
873.386	14061.14
873.706	13980.01
874.025	13879.9
874.344	13832.45
874.663	13866.57
874.982	13847.14
875.301	13785.89
875.62	13776.18
875.939	13736.86
876.258	13728.27
876.577	13695.5
876.896	13754.93
877.214	13718.55
877.533	13653.02
877.852	13603.53
878.17	13583.19
878.489	13570.98
878.807	13614.37
879.125	13504.55
879.444	13580.25
879.762	13437.88
880.08	13505.22
880.398	13295.96
880.716	13425.68
881.034	13323.08
881.352	13390.65
881.67	13304.33
881.988	13289.64
882.306	13183.2
882.624	13262.29
882.941	13109.98
883.259	13208.73
883.577	13131.45
883.894	13116.76
884.212	13115.63
884.529	13095.07
884.846	13035.41
885.164	12949.76
885.481	12980.49
885.798	12942.3
886.115	12860.95
886.432	12825.47
886.75	12742.76
887.067	12770.78
887.383	12688.3
887.7	12800.84
888.017	12713.15
888.334	12632.03
888.651	12661.86
888.967	12634.51
889.284	12517.91
889.6	12548.64
889.917	12441.75
890.233	12443.11
890.55	12378.47
890.866	12352.94
891.182	12349.77
891.498	12398.36
891.815	12263.9
892.131	12262.09
892.447	12188.2
892.763	12189.78
893.079	12087.41
893.395	12108.88
893.71	12067.07
894.026	11992.5
894.342	11966.73
894.657	11952.72
894.973	11842.89
895.289	11849.22
895.604	11902.55
895.92	11787.53
896.235	11763.8
896.55	11697.81
896.865	11629.12
897.181	11638.15
897.496	11619.17
897.811	11487.65
898.126	11502.56
898.441	11450.36
898.756	11445.39
899.071	11354.55
899.386	11376.24
899.7	11253.31
900.015	11280.65
900.33	11211.95
900.644	11138.73
900.959	11183.25
901.273	11087.66
901.588	11032.29
901.902	10964.05
902.216	11021.45
902.531	10928.34
902.845	10920.43
903.159	10798.18
903.473	10788.23
903.787	10720.21
904.101	10693.32
904.415	10680.21
904.729	10552.31
905.042	10550.05
905.356	10541.69
905.67	10524.06
905.984	10493.78
906.297	10481.35
906.611	10383.72
906.924	10407.9
907.237	10312.54
907.551	10315.7
907.864	10289.04
908.177	10234.12
908.491	10179.66
908.804	10060.12
909.117	10064.86
909.43	10025.32
909.743	10018.31
910.056	9887.92
910.368	9907.8
910.681	9840.01
910.994	9865.77
911.307	9764.53
911.619	9738.54
911.932	9755.94
912.244	9679.79
912.557	9678.43
912.869	9645.44
913.181	9538.77
913.494	9518.44
913.806	9532.67
914.118	9465.56
914.43	9367.03
914.742	9367.25
915.054	9309.18
915.366	9325.22
915.678	9250.42
915.99	9216.52
916.302	9120.71
916.613	9057.43
916.925	9077.77
917.236	9062.18
917.548	9033.48
917.859	8987.6
918.171	8925.23
918.482	8872.58
918.794	8801.39
919.105	8873.48
919.416	8722.75
919.727	8773.15
920.038	8712.36
920.349	8636.88
920.66	8649.76
920.971	8624.67
921.282	8517.56
921.593	8558.24
921.903	8459.25
922.214	8421.52
922.525	8445.47
922.835	8315.08
923.146	8318.02
923.456	8276.21
923.767	8230.56
924.077	8236.66
924.387	8264.46
924.697	8119.15
925.008	8164.12
925.318	8050.68
925.628	8059.27
925.938	8065.37
926.248	8011.13
926.558	7916.67
926.867	7941.98
927.177	7850.01
927.487	7794.41
927.796	7749.22
928.106	7744.25
928.416	7699.27
928.725	7694.98
929.034	7639.62
929.344	7695.66
929.653	7692.72
929.962	7565.72
930.271	7555.1
930.581	7514.65
930.89	7389.45
931.199	7418.83
931.508	7368.89
931.817	7346.74
932.125	7341.09
932.434	7354.88
932.743	7264.03
933.051	7221.55
933.36	7223.36
933.669	7168.89
933.977	7105.39
934.286	7122.11
934.594	7016.81
934.902	7013.42
935.21	6983.81
935.519	6981.33
935.827	6944.94
936.135	6879.64
936.443	6841.22
936.751	6863.59
937.059	6852.52
937.367	6776.14
937.674	6775.68
937.982	6705.85
938.29	6718.06
938.597	6715.8
938.905	6614.78
939.213	6584.95
939.52	6571.85
939.827	6551.28
940.135	6545.63
940.442	6496.59
940.749	6454.79
941.056	6470.15
941.363	6411.63
941.67	6383.15
941.977	6385.64
942.284	6299.54
942.591	6258.86
942.898	6220.44
943.205	6278.07
943.511	6189.03
943.818	6182.7
944.125	6113.1
944.431	6162.14
944.738	6121.92
945.044	6096.15
945.35	6043.73
945.657	5999.43
945.963	6008.02
946.269	5949.26
946.575	5973.67
946.881	5932.77
947.187	5905.88
947.493	5831.3
947.799	5827.91
948.105	5827.01
948.41	5715.15
948.716	5797.63
949.022	5704.53
949.327	5722.6
949.633	5650.06
949.938	5705.66
950.244	5624.75
950.549	5655.49
950.854	5543.17
951.16	5544.3
951.465	5523.51
951.77	5504.53
952.075	5511.08
952.38	5465.44
952.685	5481.25
952.99	5370.52
953.294	5394.02
953.599	5353.57
953.904	5371.43
954.209	5319.45
954.513	5317.64
954.818	5274.48
955.122	5225.44
955.426	5217.31
955.731	5178.89
956.035	5200.36
956.339	5140.7
956.643	5152.45
956.948	5110.42
957.252	5056.41
957.556	5062.96
957.86	5064.09
958.163	5004.88
958.467	4987.03
958.771	4977.09
959.075	4961.27
959.378	4909.74
959.682	4874.72
959.985	4914.49
960.289	4871.33
960.592	4869.29
960.896	4788.84
961.199	4792.23
961.502	4794.94
961.805	4768.5
962.108	4756.3
962.411	4748.39
962.714	4724.44
963.017	4690.09
963.32	4674.27
963.623	4641.95
963.926	4605.57
964.228	4598.11
964.531	4610.99
964.833	4590.43
965.136	4537.55
965.438	4470.89
965.741	4512.92
966.043	4456.65
966.345	4474.95
966.648	4398.57
966.95	4436.76
967.252	4367.16
967.554	4378.46
967.856	4368.52
968.158	4341.62
968.46	4307.5
968.761	4310.44
969.063	4270.89
969.365	4209.2
969.666	4211.91
969.968	4247.84
970.269	4185.24
970.571	4163.32
970.872	4197.9
971.174	4126.49
971.475	4112.48
971.776	4060.27
972.077	4088.3
972.378	4094.4
972.679	4054.4
972.98	4048.07
973.281	4009.65
973.582	3982.54
973.883	4014.4
974.183	3964.23
974.484	3903.44
974.785	3900.96
975.085	3902.09
975.386	3886.04
975.686	3875.19
975.986	3827.29
976.287	3803.56
976.587	3751.58
976.887	3790.9
977.187	3811.47
977.487	3762.66
977.787	3765.59
978.087	3743.22
978.387	3738.7
978.687	3684.01
978.987	3668.87
979.286	3613.28
979.586	3610.57
979.885	3611.7
980.185	3617.35
980.484	3616.67
980.784	3575.99
981.083	3553.17
981.382	3550.01
981.682	3504.13
981.981	3489.67
982.28	3488.99
982.579	3460.29
982.878	3485.15
983.177	3438.14
983.475	3400.63
983.774	3401.08
984.073	3407.86
984.372	3387.3
984.67	3361.08
984.969	3340.29
985.267	3372.16
985.566	3354.08
985.864	3311.59
986.162	3293.97
986.461	3283.12
986.759	3225.95
987.057	3239.73
987.355	3224.14
987.653	3191.14
987.951	3182.78
988.249	3197.47
988.547	3179.17
988.844	3112.95
989.142	3144.59
989.44	3083.58
989.737	3157.93
990.035	3072.73
990.332	3108.44
990.63	3059.62
990.927	3053.07
991.224	3011.04
991.521	3039.51
991.819	2988.89
992.116	2976.69
992.413	3018.27
992.71	2966.97
993.006	2941.21
993.303	2923.81
993.6	2907.31
993.897	2906.63
994.193	2915.45
994.49	2858.95
994.787	2836.35
995.083	2807.65
995.379	2830.7
995.676	2796.13
995.972	2768.33
996.268	2751.16
996.565	2761.33
996.861	2725.17
997.157	2766.52
997.453	2743.47
997.749	2699.18
998.044	2699.63
998.34	2712.06
998.636	2653.31
998.932	2654.66
999.227	2642.68
999.523	2653.53
999.818	2604.49
1000.114	2610.82
1000.409	2586.19
1000.704	2575.79
1001	2561.1
1001.295	2533.76
1001.59	2524.72
1001.885	2514.78
1002.18	2515.91
1002.475	2471.62
1002.77	2481.56
1003.065	2451.28
1003.359	2437.94
1003.654	2465.74
1003.949	2402.69
1004.243	2394.1
1004.538	2436.81
1004.832	2361.56
1005.127	2381
1005.421	2352.52
1005.715	2368.79
1006.009	2360.66
1006.304	2297.16
1006.598	2303.26
1006.892	2256.03
1007.186	2285.18
1007.48	2295.8
1007.773	2217.61
1008.067	2183.71
1008.361	2213.77
1008.655	2207.89
1008.948	2187.56
1009.242	2170.83
1009.535	2142.58
1009.829	2162.7
1010.122	2127.22
1010.415	2105.3
1010.708	2107.78
1011.001	2104.17
1011.295	2076.6
1011.588	2057.16
1011.881	2061.01
1012.173	2016.49
1012.466	2054
1012.759	2031.18
1013.052	2009.26
1013.344	2030.72
1013.637	1998.63
1013.93	1971.52
1014.222	1969.93
1014.514	1947.56
1014.807	1966.54
1015.099	1939.88
1015.391	1910.05
1015.683	1928.35
1015.976	1934.91
1016.268	1901.69
1016.56	1868.47
1016.851	1861.69
1017.143	1880.67
1017.435	1828.92
1017.727	1778.53
1018.018	1819.88
1018.31	1777.62
1018.602	1775.59
1018.893	1772.43
1019.185	1769.26
1019.476	1759.32
1019.767	1741.92
1020.058	1733.56
1020.35	1672.31
1020.641	1704.86
1020.932	1694.24
1021.223	1669.83
1021.514	1676.38
1021.804	1660.34
1022.095	1626.67
1022.386	1630.51
1022.677	1633.45
1022.967	1598.64
1023.258	1605.2
1023.548	1574.69
1023.839	1585.99
1024.129	1566.78
1024.419	1542.15
1024.709	1528.59
1025	1556.61
1025.29	1519.78
1025.58	1531.75
1025.87	1494.47
1026.16	1494.24
1026.449	1484.98
1026.739	1444.07
1027.029	1468.25
1027.319	1471.87
1027.608	1464.41
1027.898	1423.51
1028.187	1416.73
1028.477	1380.8
1028.766	1385.32
1029.055	1364.53
1029.344	1409.95
1029.634	1370.18
1029.923	1364.3
1030.212	1359.78
1030.501	1349.84
1030.79	1341.7
1031.078	1329.05
1031.367	1369.5
1031.656	1322.49
1031.945	1279.33
1032.233	1289.95
1032.522	1302.16
1032.81	1292.66
1033.099	1261.48
1033.387	1253.34
1033.675	1255.83
1033.963	1229.61
1034.251	1242.27
1034.54	1234.13
1034.828	1225.09
1035.116	1173.8
1035.403	1205.89
1035.691	1181.03
1035.979	1178.77
1036.267	1182.84
1036.554	1156.85
1036.842	1192.55
1037.129	1150.97
1037.417	1149.62
1037.704	1148.94
1037.992	1143.97
1038.279	1111.65
1038.566	1105.78
1038.853	1105.78
1039.14	1105.78
