Data from white_wall_FLMS001491_045.txt Node
Date: Tue Feb 07 11:04:34 GMT 2017
User: dcchb
Spectrometer: FLMS00149
Trigger mode: 0
Integration Time (sec): 2.000000E-2
Scans to average: 10
Electric dark correction enabled: true
Nonlinearity correction enabled: false
Boxcar width: 0
XAxis mode: Wavelengths
Number of Pixels in Spectrum: 2048
>>>>>Begin Spectral Data<<<<<
341.393	6.29
341.776	6.29
342.16	6.29
342.543	-72.58
342.927	-57.89
343.31	-78.01
343.693	-65.35
344.077	-63.09
344.46	-55.41
344.843	-47.95
345.226	-35.3
345.61	-46.14
345.993	-7.95
346.376	4.03
346.759	5.38
347.142	49.45
347.525	31.14
347.908	54.65
348.291	59.39
348.674	89.67
349.057	105.49
349.44	121.99
349.823	185.72
350.206	171.93
350.588	216.45
350.971	235.43
351.354	247.63
351.737	244.02
352.119	265.04
352.502	282.89
352.884	285.83
353.267	314.53
353.65	317.24
354.032	333.96
354.414	336.22
354.797	335.99
355.179	353.62
355.562	339.61
355.944	345.94
356.326	361.76
356.709	357.69
357.091	360.17
357.473	340.74
357.855	362.43
358.238	380.51
358.62	372.15
359.002	369.44
359.384	359.95
359.766	358.82
360.148	343.68
360.53	370.57
360.912	353.17
361.294	357.01
361.676	358.82
362.057	329.21
362.439	353.39
362.821	315.66
363.203	353.39
363.584	343.9
363.966	326.73
364.348	328.76
364.729	335.54
365.111	340.51
365.493	332.15
365.874	329.44
366.256	338.48
366.637	349.55
367.019	352.04
367.4	337.58
367.781	333.96
368.163	342.1
368.544	321.53
368.925	319.05
369.306	328.99
369.688	348.42
370.069	331.47
370.45	320.18
370.831	335.99
371.212	333.06
371.593	337.58
371.974	335.99
372.355	330.34
372.736	337.12
373.117	326.73
373.498	330.34
373.879	362.43
374.26	339.38
374.641	353.39
375.021	336.67
375.402	350.46
375.783	346.39
376.163	352.04
376.544	332.38
376.925	362.43
377.305	349.1
377.686	359.95
378.066	367.41
378.447	360.17
378.827	353.85
379.208	357.91
379.588	364.24
379.968	353.39
380.349	372.6
380.729	352.72
381.109	372.6
381.489	361.98
381.87	362.66
382.25	381.64
382.63	379.83
383.01	367.63
383.39	374.41
383.77	381.87
384.15	400.4
384.53	378.93
384.91	392.94
385.29	391.36
385.67	385.94
386.049	404.24
386.429	383
386.809	390.91
387.189	408.53
387.568	395.65
387.948	412.83
388.328	415.99
388.707	408.99
389.087	403.56
389.466	422.09
389.846	419.38
390.225	411.47
390.605	430.91
390.984	428.42
391.363	428.19
391.743	449.89
392.122	445.14
392.501	471.36
392.881	469.78
393.26	470.91
393.639	479.72
394.018	455.09
394.397	459.38
394.776	492.6
395.155	491.47
395.534	495.76
395.913	503.67
396.292	540.96
396.671	519.72
397.05	538.25
397.429	545.48
397.808	519.27
398.186	548.87
398.565	555.88
398.944	562.2
399.323	582.77
399.701	591.35
400.08	563.33
400.458	589.55
400.837	607.4
401.215	615.31
401.594	629.32
401.972	640.39
402.351	651.69
402.729	641.75
403.107	653.5
403.486	695.53
403.864	686.49
404.242	690.56
404.62	699.6
404.999	734.63
405.377	758.36
405.755	748.19
406.133	759.94
406.511	765.59
406.889	766.27
407.267	779.82
407.645	791.58
408.023	823.44
408.401	841.52
408.779	855.3
409.156	852.36
409.534	872.03
409.912	884.23
410.29	923.55
410.667	917.9
411.045	925.58
411.422	964.68
411.8	916.77
412.178	1004.45
412.555	989.54
412.933	1017.11
413.31	1017.78
413.687	1051
414.065	1037.22
414.442	1051.46
414.819	1080.38
415.197	1070.44
415.574	1110.21
415.951	1117.67
416.328	1128.52
416.705	1163.32
417.082	1161.73
417.46	1211.45
417.837	1191.79
418.214	1196.08
418.591	1203.54
418.967	1206.25
419.344	1252.81
419.721	1229.53
420.098	1251
420.475	1284.44
420.852	1276.53
421.228	1303.65
421.605	1310.21
421.982	1310.43
422.358	1341.39
422.735	1353.14
423.111	1363.31
423.488	1431.33
423.864	1392.69
424.241	1423.2
424.617	1418.23
424.994	1438.11
425.37	1459.35
425.746	1423.2
426.123	1500.26
426.499	1516.53
426.875	1521.27
427.251	1549.52
427.627	1569.63
428.003	1599.46
428.379	1600.14
428.756	1635.85
429.132	1698.67
429.507	1670.87
429.883	1674.26
430.259	1700.48
430.635	1746.8
431.011	1746.13
431.387	1811.21
431.763	1825.67
432.138	1840.36
432.514	1879.68
432.89	1875.84
433.265	1898.21
433.641	1919.68
434.016	1960.36
434.392	1972.79
434.767	2017.53
435.143	2003.29
435.518	2037.19
435.894	2107.02
436.269	2100.02
436.644	2149.28
437.02	2136.4
437.395	2154.03
437.77	2191.99
438.145	2228.37
438.52	2232.89
438.895	2266.79
439.271	2276.73
439.646	2294.36
440.021	2315.83
440.395	2365.09
440.77	2341.59
441.145	2386.56
441.52	2421.81
441.895	2381.36
442.27	2462.49
442.645	2424.53
443.019	2545.88
443.394	2522.15
443.769	2523.73
444.143	2509.5
444.518	2547.01
444.892	2538.42
445.267	2579.1
445.641	2603.28
446.016	2655.26
446.39	2658.87
446.764	2661.58
447.139	2667.91
447.513	2710.62
447.887	2729.6
448.262	2738.42
448.636	2729.83
449.01	2786.33
449.384	2790.39
449.758	2807.57
450.132	2891.86
450.506	2864.74
450.88	2890.05
451.254	2927.56
451.628	2929.82
452.002	3003.27
452.376	3021.8
452.75	3041.46
453.123	3111.29
453.497	3124.17
453.871	3178.63
454.244	3226.99
454.618	3214.34
454.992	3266.09
455.365	3271.06
455.739	3353.09
456.112	3426.31
456.486	3446.42
456.859	3476.48
457.232	3546.08
457.606	3502.92
457.979	3621.33
458.352	3683.48
458.725	3684.83
459.099	3710.14
459.472	3796.24
459.845	3836.01
460.218	3924.37
460.591	3910.82
460.964	3952.62
461.337	4008.21
461.71	4141.77
462.083	4156.68
462.456	4151.03
462.829	4184.25
463.201	4224.93
463.574	4286.4
463.947	4391.93
464.32	4430.58
464.692	4484.59
465.065	4477.35
465.438	4602.55
465.81	4659.95
466.183	4727.97
466.555	4810
466.928	4804.8
467.3	4871.24
467.672	4965.7
468.045	5054.74
468.417	5057.68
468.789	5066.49
469.161	5160.73
469.534	5282.53
469.906	5430.1
470.278	5399.59
470.65	5534.5
471.022	5614.05
471.394	5721.62
471.766	5722.75
472.138	5844.32
472.51	6002.74
472.882	5995.28
473.253	6098.1
473.625	6153.47
473.997	6319.11
474.369	6364.99
474.74	6517.53
475.112	6587.81
475.484	6674.81
475.855	6836.39
476.227	6889.04
476.598	7086.78
476.97	7119.54
477.341	7245.42
477.713	7397.73
478.084	7464.17
478.455	7701
478.827	7744.39
479.198	8060.54
479.569	8048.56
479.94	8278.61
480.311	8325.61
480.682	8531.94
481.053	8690.58
481.424	8820.52
481.795	8905.03
482.166	9121.07
482.537	9109.77
482.908	9341.18
483.279	9482.19
483.65	9666.6
484.021	9830.21
484.391	9964.89
484.762	10095.96
485.133	10199.01
485.503	10346.35
485.874	10591.54
486.244	10624.76
486.615	10847.36
486.985	10991.98
487.356	11183.84
487.726	11295.25
488.097	11531.18
488.467	11650.27
488.837	11845.97
489.207	12035.8
489.578	12194.21
489.948	12335
490.318	12503.58
490.688	12512.85
491.058	12843.24
491.428	12902.9
491.798	13022.67
492.168	13334.52
492.538	13390.11
492.908	13560.96
493.278	13727.28
493.648	13803.66
494.017	13964.79
494.387	14143.54
494.757	14237.32
495.126	14399.35
495.496	14388.96
495.866	14619.46
496.235	14674.15
496.605	14887.93
496.974	15020.58
497.344	15159.33
497.713	15287.24
498.082	15349.38
498.452	15506.67
498.821	15568.14
499.19	15656.04
499.559	15800.22
499.928	16060.78
500.298	16061.68
500.667	16288.12
501.036	16204.05
501.405	16466.64
501.774	16493.76
502.143	16708.67
502.512	16798.39
502.88	16901.66
503.249	17043.13
503.618	17165.83
503.987	17185.95
504.356	17393.62
504.724	17467.75
505.093	17623
505.462	17611.7
505.83	17784.35
506.199	18020.73
506.567	18214.17
506.936	18236.31
507.304	18517.89
507.672	18535.52
508.041	18646.02
508.409	18801.27
508.777	18891.66
509.145	19125.56
509.514	19202.39
509.882	19279.22
510.25	19411.88
510.618	19610.52
510.986	19636.5
511.354	20018.19
511.722	20157.85
512.09	20287.56
512.458	20223.61
512.826	20438.06
513.193	20547.44
513.561	20763.25
513.929	20818.39
514.297	20986.75
514.664	21273.3
515.032	21313.97
515.4	21402.56
515.767	21641.65
516.135	21670.8
516.502	21659.28
516.869	22151.01
517.237	22160.05
517.604	22229.88
517.972	22451.8
518.339	22694.05
518.706	22728.63
519.073	22819.24
519.44	23016.75
519.808	23245.67
520.175	23249.06
520.542	23642.27
520.909	23661.03
521.276	23752.33
521.643	24033.9
522.009	24209.04
522.376	24318.64
522.743	24542.59
523.11	24823.71
523.477	24944.16
523.843	25092.86
524.21	25400.87
524.577	25656.91
524.943	25687.19
525.31	25948.65
525.676	26015.09
526.043	26267.29
526.409	26331.92
526.776	26781.17
527.142	26710.89
527.508	26880.38
527.874	27153.37
528.241	27216.19
528.607	27416.86
528.973	27671.32
529.339	27553.58
529.705	27928.26
530.071	28106.79
530.437	28333
530.803	28368.48
531.169	28626.32
531.535	28522.82
531.901	28730.95
532.267	28891.63
532.632	29039.87
532.998	29198.51
533.364	29449.8
533.73	29389.47
534.095	29633.08
534.461	29748.1
534.826	29997.59
535.192	30166.4
535.557	30338.59
535.923	30281.2
536.288	30526.84
536.653	30616.33
537.019	30626.72
537.384	30692.48
537.749	30927.05
538.114	30895.87
538.479	31123.66
538.845	31387.83
539.21	31225.8
539.575	31554.16
539.94	31529.3
540.305	31722.74
540.67	31824.43
541.034	31868.95
541.399	31983.52
541.764	32156.4
542.129	32308.71
542.494	32359.56
542.858	32625.09
543.223	32643.85
543.587	32811.75
543.952	32744.86
544.316	32856.95
544.681	32873.67
545.045	33153.44
545.41	33374.45
545.774	33445.86
546.138	33492.41
546.503	33569.02
546.867	33617.15
547.231	33991.15
547.595	34207.42
547.959	34147.53
548.324	34382.33
548.688	34253.29
549.052	34565.38
549.416	34687.63
549.779	34603.34
550.143	34890.57
550.507	35003.56
550.871	35234.96
551.235	35221.63
551.599	35592.69
551.962	35578.91
552.326	35627.5
552.689	35887.15
553.053	36012.8
553.417	36136.18
553.78	36596.28
554.143	36363.07
554.507	36580.69
554.87	36781.59
555.234	37170.05
555.597	36993.34
555.96	37297.06
556.323	37518.52
556.686	37522.59
557.05	37810.49
557.413	37927.1
557.776	38117.83
558.139	38434.65
558.502	38313.75
558.865	38671.48
559.228	38878.03
559.59	38956.67
559.953	38981.31
560.316	39307.62
560.679	39501.74
561.041	39619.93
561.404	39835.75
561.767	40189.86
562.129	39955.74
562.492	40524.99
562.854	40369.29
563.217	40471.21
563.579	40616.52
563.941	40961.59
564.304	41001.59
564.666	41393.9
565.028	41393.45
565.39	41491.07
565.753	41712.99
566.115	41926.31
566.477	42278.17
566.839	42128.34
567.201	42541.89
567.563	42458.95
567.925	42740.98
568.287	42900.98
568.648	42957.25
569.01	43138.03
569.372	43347.52
569.734	43439.27
570.095	43381.19
570.457	43798.81
570.819	43796.55
571.18	43844.23
571.542	44024.11
571.903	44146.59
572.265	44438.11
572.626	44491.67
572.987	44598.11
573.349	44794.94
573.71	44791.32
574.071	44898.44
574.432	45002.16
574.794	45320.57
575.155	45256.85
575.516	45284.87
575.877	45410.74
576.238	45428.82
576.599	45639.89
576.96	45592.88
577.32	45701.58
577.681	45654.8
578.042	45936.15
578.403	45911.52
578.763	45949.03
579.124	45978.86
579.485	46195.35
579.845	46197.61
580.206	46157.16
580.566	46165.98
580.927	46294.11
581.287	46422.69
581.648	46268.8
582.008	46419.08
582.368	46285.29
582.728	46548.11
583.089	46480.32
583.449	46467.89
583.809	46480.09
584.169	46574.55
584.529	46485.52
584.889	46826.97
585.249	46640.54
585.609	46600.54
585.969	46677.15
586.329	46688.45
586.688	46640.31
587.048	46639.18
587.408	46614.1
587.768	46736.13
588.127	46642.35
588.487	46648.45
588.846	46965.5
589.206	46624.72
589.565	46657.71
589.925	46869.23
590.284	46683.25
590.643	46719.41
591.003	46955.11
591.362	46829.69
591.721	46901.78
592.08	46878.27
592.44	46878.95
592.799	46993.98
593.158	46862.68
593.517	46954.2
593.876	46995.33
594.235	46855.45
594.593	46855
594.952	46973.86
595.311	46895.45
595.67	46979.29
596.029	47181.77
596.387	47184.03
596.746	47176.57
597.104	47073.75
597.463	47092.5
597.822	47270.81
598.18	47083.92
598.538	46979.06
598.897	47250.01
599.255	46950.81
599.613	47448.65
599.972	47302.89
600.33	47335.89
600.688	47228.32
601.046	47395.32
601.404	47600.06
601.762	47445.26
602.12	47557.8
602.478	47517.35
602.836	47661.08
603.194	47473.06
603.552	47613.85
603.91	47441.2
604.268	47639.38
604.625	47575.66
604.983	47845.25
605.341	47642.55
605.698	47868.53
606.056	47888.42
606.413	47792.83
606.771	47973.16
607.128	48078.69
607.485	47824.91
607.843	47982.65
608.2	48105.13
608.557	48268.97
608.914	48120.27
609.272	48193.94
609.629	48298.57
609.986	48536.53
610.343	48242.53
610.7	48483.2
611.057	48455.63
611.414	48461.96
611.771	48564.56
612.127	48629.87
612.484	48548.29
612.841	48741.95
613.198	48543.99
613.554	48728.39
613.911	48879.58
614.267	48824.44
614.624	48766.13
614.98	48656.53
615.337	48995.51
615.693	48879.35
616.05	48939.24
616.406	49207.7
616.762	48994.38
617.118	48979.91
617.475	49127.71
617.831	49229.17
618.187	49168.83
618.543	49184.2
618.899	49319.11
619.255	49333.35
619.611	49393.24
619.967	49388.04
620.323	49405.89
620.678	49318.43
621.034	49332.22
621.39	49326.12
621.746	49301.26
622.101	49623.51
622.457	49435.49
622.812	49478.88
623.168	49590.07
623.523	49527.69
623.879	49594.59
624.234	49367.25
624.589	49506
624.945	49503.97
625.3	49543.74
625.655	49519.56
626.01	49470.52
626.365	49526.11
626.72	49558.2
627.075	49560.91
627.43	49355.5
627.785	49394.82
628.14	49546.68
628.495	49495.61
628.85	49528.6
629.205	49408.83
629.559	49515.72
629.914	49358.21
630.269	49339
630.623	49355.27
630.978	49256.29
631.332	49325.89
631.687	49339.9
632.041	49177.65
632.396	49256.29
632.75	49066.69
633.104	49244.31
633.459	49033.92
633.813	49013.13
634.167	49051.55
634.521	49052.23
634.875	48983.3
635.229	49025.11
635.583	48814.04
635.937	48789.64
636.291	48765.46
636.645	48777.21
636.999	48741.95
637.352	48754.38
637.706	48586.93
638.06	48803.65
638.413	48535.4
638.767	48513.94
639.121	48586.48
639.474	48364.56
639.828	48372.25
640.181	48347.84
640.534	48376.09
640.888	48296.54
641.241	48177.45
641.594	48362.08
641.947	48305.13
642.301	48165.02
642.654	48162.53
643.007	48185.36
643.36	48147.17
643.713	48131.57
644.066	48221.51
644.419	47934.97
644.771	47746.05
645.124	47377.69
645.477	47282.56
645.83	47073.52
646.182	46870.59
646.535	46767.99
646.888	46719.18
647.24	46551.28
647.593	46860.19
647.945	46564.83
648.298	46436.25
648.65	46473.76
649.002	46248.91
649.355	46502.46
649.707	46318.06
650.059	46673.08
650.411	46948.78
650.763	46959.4
651.115	47320.75
651.467	47179.73
651.819	47086.4
652.171	47041.43
652.523	47004.15
652.875	46982
653.227	46870.59
653.578	47000.53
653.93	47066.52
654.282	46850.25
654.633	46604.61
654.985	46788.33
655.337	46849.57
655.688	46762.57
656.039	46874.21
656.391	46561.22
656.742	46707.2
657.094	46712.4
657.445	46661.33
657.796	46560.99
658.147	46592.63
658.498	46445.97
658.849	46605.51
659.2	46515.12
659.551	46390.83
659.902	46561.22
660.253	46407.32
660.604	46425.63
660.955	46243.49
661.306	46257.5
661.656	46324.84
662.007	46249.36
662.358	46249.36
662.708	46250.94
663.059	46279.42
663.409	45989.71
663.76	46286.42
664.11	46300.44
664.461	46200.32
664.811	46230.83
665.161	46250.49
665.511	46022.25
665.862	46172.98
666.212	46171.85
666.562	46170.95
666.912	46088.69
667.262	46083.04
667.612	45982.25
667.962	46036.26
668.312	45982.7
668.662	46065.87
669.011	46004.62
669.361	45872.42
669.711	45813.67
670.06	45780.67
670.41	45752.43
670.76	45700.45
671.109	45866.32
671.459	45712.2
671.808	45709.04
672.157	45725.53
672.507	45514.02
672.856	45545.88
673.205	45543.39
673.554	45559.21
673.904	45490.06
674.253	45612.09
674.602	45389.95
674.951	44989.51
675.3	44734.15
675.649	45352.21
675.998	45280.8
676.346	45260.46
676.695	45363.51
677.044	45033.12
677.393	45099.56
677.741	45108.83
678.09	45046
678.438	44894.6
678.787	45069.96
679.135	45016.4
679.484	44761.94
679.832	44907.7
680.181	44554.27
680.529	44762.85
680.877	44576.64
681.225	44497.09
681.573	44688.05
681.922	44419.35
682.27	44278.57
682.618	44357.66
682.966	44187.72
683.314	44372.12
683.661	44169.64
684.009	43981.17
684.357	43942.53
684.705	43839.03
685.053	43837.22
685.4	43624.12
685.748	43585.7
686.095	43605.14
686.443	43468.42
686.79	43405.37
687.138	43363.79
687.485	43390.68
687.832	43220.06
688.18	43351.36
688.527	43074.98
688.874	43126.51
689.221	42988.66
689.568	42693.3
689.915	42808.78
690.262	42771.04
690.609	42533.08
690.956	42396.81
691.303	42486.3
691.65	42192.07
691.997	42261.9
692.344	41870.95
692.69	41881.79
693.037	41956.37
693.383	41599.77
693.73	41838.86
694.077	41515.25
694.423	41513.22
694.769	41373.11
695.116	41272.77
695.462	41296.72
695.808	41132.44
696.155	41131.53
696.501	40714.59
696.847	40824.19
697.193	40672.33
697.539	40810.86
697.885	40437.31
698.231	40329.74
698.577	40255.62
698.923	40362.96
699.269	40128.17
699.614	39902.64
699.96	39787.39
700.306	39708.74
700.651	39640.27
700.997	39580.16
701.342	39491.57
701.688	39353.27
702.033	39338.13
702.379	39154.63
702.724	39158.7
703.069	39170.23
703.415	38685.04
703.76	38683.69
704.105	38767.98
704.45	38636.46
704.795	38583.58
705.14	38299.74
705.485	38400.53
705.83	38175.9
706.175	38237.14
706.52	38088.45
706.865	38008.68
707.209	37846.87
707.554	37861.11
707.899	38028.56
708.243	37791.51
708.588	37622.92
708.932	37405.08
709.277	37280.11
709.621	37534.79
709.966	37148.36
710.31	37280.79
710.654	36987.46
710.998	37044.18
711.342	37032.43
711.687	36873.79
712.031	36754.7
712.375	36531.88
712.719	36831.31
713.063	36534.82
713.407	36553.35
713.75	36438.32
714.094	36543.18
714.438	36264.99
714.782	36302.28
715.125	36161.94
715.469	36133.92
715.812	35936.64
716.156	35789.98
716.499	35820.94
716.843	35840.37
717.186	35721.28
717.53	35855.51
717.873	35649.64
718.216	35630.89
718.559	35486.03
718.902	35353.6
719.246	35411
719.589	35258.24
719.932	35211.69
720.275	35145.93
720.617	34995.65
720.96	35100.5
721.303	35081.97
721.646	35054.86
721.989	34748.65
722.331	34898.7
722.674	34665.26
723.016	34801.98
723.359	34688.54
723.701	34711.14
724.044	34526.06
724.386	34399.73
724.729	34364.48
725.071	34427.53
725.413	34329.68
725.755	34279.06
726.097	34207.42
726.439	34004.26
726.782	34011.27
727.124	34204.93
727.465	34036.35
727.807	34018.95
728.149	33796.36
728.491	33796.81
728.833	33743.7
729.175	33588
729.516	33661.9
729.858	33452.64
730.199	33514.78
730.541	33371.06
730.882	33451.06
731.224	33474.33
731.565	33256.94
731.906	33258.07
732.248	33247.22
732.589	32949.83
732.93	33036.6
733.271	33013.1
733.612	32943.5
733.953	33056.94
734.294	32938.3
734.635	32898.53
734.976	32845.87
735.317	32805.65
735.658	32684.07
735.999	32749.6
736.339	32622.15
736.68	32675.93
737.021	32532.44
737.361	32391.2
737.702	32605.88
738.042	32439.33
738.383	32328.15
738.723	32404.53
739.063	32242.27
739.404	32311.65
739.744	32209.73
740.084	31989.17
740.424	32080.24
740.764	31992.56
741.104	32140.36
741.444	32014.71
741.784	31826.92
742.124	31888.38
742.464	31803.19
742.804	31763.19
743.143	31610.88
743.483	31645.91
743.823	31504.44
744.162	31558.68
744.502	31529.07
744.841	31310.09
745.181	31460.15
745.52	31357.1
745.86	31467.6
746.199	31221.74
746.538	31231.9
746.877	31199.14
747.216	31218.8
747.556	30965.7
747.895	30984.23
748.234	30951.91
748.573	30984
748.911	30909.65
749.25	30832.59
749.589	30667.63
749.928	30661.52
750.267	30663.78
750.605	30640.28
750.944	30445.94
751.283	30345.37
751.621	30462.89
751.96	30217.47
752.298	30217.69
752.636	30184.25
752.975	30161.88
753.313	30020.86
753.651	30182.67
753.989	30010.24
754.327	29907.19
754.666	29711.27
755.004	29861.55
755.342	29823.35
755.679	29737.48
756.017	29544.04
756.355	29671.27
756.693	29407.77
757.031	29492.74
757.368	29364.38
757.706	29296.36
758.044	29123.26
758.381	29195.8
758.719	29150.83
759.056	29038.29
759.394	29009.36
759.731	28843.94
760.068	28798.3
760.405	28664.74
760.743	28461.13
761.08	28682.14
761.417	28370.74
761.754	28343.17
762.091	28294.58
762.428	28190.63
762.765	28138.88
763.102	28072.21
763.438	28067.47
763.775	27795.38
764.112	27860.92
764.449	27833.8
764.785	27659.12
765.122	27549.52
765.458	27343.87
765.795	27449.86
766.131	27350.42
766.467	27165.12
766.804	27114.27
767.14	26959.02
767.476	27036.76
767.812	26841.29
768.148	26826.6
768.485	26724.9
768.821	26560.16
769.157	26593.83
769.492	26415.99
769.828	26402.43
770.164	26271.58
770.5	26163.56
770.836	26124.47
771.171	25872.95
771.507	25872.72
771.842	25703.01
772.178	25785.04
772.513	25563.35
772.849	25557.93
773.184	25438.61
773.519	25449.23
773.855	25286.07
774.19	25134.66
774.525	25114.1
774.86	25100.09
775.195	24999.3
775.53	24807.21
775.865	24724.05
776.2	24513.44
776.535	24467.79
776.87	24463.95
777.205	24289.26
777.539	24267.12
777.874	24365.87
778.209	24176.72
778.543	24170.4
778.878	23892.21
779.212	23866.9
779.547	23735.83
779.881	23823.51
780.215	23590.07
780.55	23646.79
780.884	23339.91
781.218	23456.06
781.552	23359.34
781.886	23282.51
782.22	23072.35
782.554	23064.66
782.888	22816.31
783.222	22703.77
783.556	22706.93
783.889	22643.2
784.223	22511
784.557	22480.5
784.89	22424.45
785.224	22348.97
785.557	22200.28
785.891	22199.83
786.224	22115.31
786.558	22127.74
786.891	21845.71
787.224	21823.34
787.557	21764.36
787.891	21724.36
788.224	21738.37
788.557	21681.2
788.89	21558.94
789.223	21488.88
789.556	21322.11
789.888	21362.33
790.221	21235.11
790.554	21027.65
790.887	21024.49
791.219	20937.03
791.552	20903.36
791.884	20861.1
792.217	20815.46
792.549	20717.6
792.882	20437.61
793.214	20567.33
793.546	20558.74
793.879	20380.89
794.211	20252.53
794.543	20269.93
794.875	20258.18
795.207	20230.84
795.539	20203.95
795.871	20023.16
796.203	20028.58
796.535	19806.22
796.867	19791.08
797.198	19728.03
797.53	19686.67
797.862	19590.4
798.193	19692.55
798.525	19500.91
798.856	19543.62
799.188	19302.95
799.519	19256.63
799.85	19163.52
800.182	19148.15
800.513	19181.6
800.844	19013.24
801.175	19067.03
801.506	19025.45
801.837	18869.29
802.168	18779.58
802.499	18696.19
802.83	18658.22
803.161	18583.2
803.491	18637.66
803.822	18638.34
804.153	18469.53
804.483	18416.87
804.814	18318.12
805.145	18260.95
805.475	18283.32
805.805	18171.01
806.136	18240.38
806.466	18121.29
806.796	18144.57
807.126	17933.27
807.457	17795.65
807.787	17849.21
808.117	17796.1
808.447	17823.22
808.777	17830.9
809.107	17715.65
809.436	17746.61
809.766	17701.19
810.096	17693.28
810.426	17596.33
810.755	17523.11
811.085	17519.27
811.414	17411.03
811.744	17256.45
812.073	17298.49
812.403	17305.27
812.732	17125.84
813.061	17204.03
813.39	17055.78
813.719	16968.55
814.049	17125.84
814.378	16986.18
814.707	16951.38
815.036	16857.37
815.365	16915.22
815.693	16663.25
816.022	16787.31
816.351	16658.28
816.68	16548.68
817.008	16654.21
817.337	16521.56
817.665	16424.84
817.994	16446.3
818.322	16434.1
818.651	16353.2
818.979	16257.38
819.307	16347.1
819.636	16267.78
819.964	16096.03
820.292	16208.57
820.62	16285.86
820.948	16163.83
821.276	16190.94
821.604	16070.72
821.932	16146.2
822.259	16153.88
822.587	16067.11
822.915	16073.21
823.243	16123.6
823.57	16131.51
823.898	16040.21
824.225	15972.87
824.553	16031.63
824.88	16111.85
825.207	16062.59
825.535	16018.97
825.862	16134.67
826.189	15953.21
826.516	16077.28
826.843	16156.59
827.17	16095.13
827.497	16099.42
827.824	16054.9
828.151	16106.43
828.478	16072.53
828.805	16114.11
829.131	16007.45
829.458	16007.45
829.785	15858.3
830.111	16018.52
830.438	15999.31
830.764	16056.03
831.09	16034.56
831.417	15897.39
831.743	16045.86
832.069	15932.19
832.395	15908.24
832.722	15889.94
833.048	15943.95
833.374	15889.94
833.7	15793.67
834.026	15896.04
834.351	15884.96
834.677	15863.72
835.003	15853.78
835.329	15832.08
835.654	15687.68
835.98	15799.99
836.306	15781.01
836.631	15733.56
836.956	15779.66
837.282	15700.34
837.607	15728.13
837.932	15663.27
838.258	15592.32
838.583	15583.28
838.908	15482.94
839.233	15538.08
839.558	15531.98
839.883	15509.83
840.208	15451.98
840.533	15393
840.858	15362.49
841.182	15303.74
841.507	15356.62
841.832	15216.05
842.156	15217.18
842.481	15204.76
842.805	15243.85
843.13	15146.9
843.454	15168.6
843.778	15107.81
844.103	15057.87
844.427	14899.45
844.751	14920.47
845.075	14927.47
845.399	14964.76
845.723	14800.92
846.047	14780.81
846.371	14711.21
846.695	14696.52
847.019	14580.37
847.343	14541.04
847.666	14423.53
847.99	14445.45
848.313	14366.81
848.637	14302.86
848.96	14295.85
849.284	14235.52
849.607	14111.45
849.931	14152.35
850.254	14024.9
850.577	13899.48
850.9	13890.44
851.223	13777
851.546	13847.28
851.869	13732.03
852.192	13730.67
852.515	13609.09
852.838	13546.27
853.161	13546.72
853.483	13518.02
853.806	13392.83
854.129	13437.34
854.451	13252.49
854.774	13264.92
855.096	13330.23
855.419	13303.56
855.741	13212.04
856.063	13156.45
856.385	13124.58
856.708	13052.27
857.03	13017.47
857.352	12993.74
857.674	12944.93
857.996	12894.53
858.318	12831.71
858.64	12822.22
858.961	12909
859.283	12692.05
859.605	12659.74
859.926	12691.38
860.248	12672.84
860.57	12602.11
860.891	12591.26
861.212	12535
861.534	12483.7
861.855	12476.69
862.176	12402.12
862.498	12384.94
862.819	12480.31
863.14	12392.85
863.461	12386.75
863.782	12466.07
864.103	12392.85
864.424	12292.97
864.745	12254.1
865.065	12201.44
865.386	12200.77
865.707	12099.53
866.027	12140.88
866.348	12132.29
866.668	12208
866.989	12038.06
867.309	11914.67
867.63	12031.28
867.95	12010.49
868.27	11964.16
868.59	11993.54
868.91	11883.94
869.23	11955.58
869.55	11791.74
869.87	11971.39
870.19	11873.54
870.51	11907.67
870.83	11877.16
871.15	11786.99
871.469	11778.63
871.789	11880.1
872.109	11728.46
872.428	11747.67
872.748	11755.81
873.067	11738.18
873.386	11760.55
873.706	11661.8
874.025	11645.75
874.344	11577.96
874.663	11616.6
874.982	11679.42
875.301	11524.17
875.62	11602.36
875.939	11533.89
876.258	11539.32
876.577	11488.47
876.896	11454.57
877.214	11451.86
877.533	11439.66
877.852	11451.86
878.17	11385.42
878.489	11363.27
878.807	11365.08
879.125	11430.62
879.444	11335.25
879.762	11326.89
880.08	11296.84
880.398	11224.52
880.716	11256.84
881.034	11216.84
881.352	11230.62
881.67	11156.5
881.988	11156.27
882.306	11126.67
882.624	11155.37
882.941	11033.57
883.259	11075.82
883.577	11098.65
883.894	10938.88
884.212	10964.64
884.529	10987.47
884.846	10933.23
885.164	10860.46
885.481	10923.74
885.798	10857.75
886.115	10738.88
886.432	10789.5
886.75	10766.23
887.067	10784.53
887.383	10640.36
887.7	10627.25
888.017	10584.76
888.334	10686.23
888.651	10618.21
888.967	10664.31
889.284	10561.26
889.6	10494.6
889.917	10401.49
890.233	10444.43
890.55	10465.67
890.866	10402.85
891.182	10404.88
891.498	10372.34
891.815	10305.22
892.131	10241.95
892.447	10186.13
892.763	10218.67
893.079	10216.41
893.395	10124.21
893.71	10109.97
894.026	10128.73
894.342	10018
894.657	10043.54
894.973	10023.87
895.289	9980.26
895.604	9966.93
895.92	9866.59
896.235	9808.51
896.55	9864.11
896.865	9793.15
897.181	9820.72
897.496	9801.96
897.811	9747.27
898.126	9619.59
898.441	9639.93
898.756	9625.24
899.071	9513.83
899.386	9574.17
899.7	9445.58
900.015	9465.92
900.33	9440.39
900.644	9362.42
900.959	9411.46
901.273	9328.75
901.588	9264.57
901.902	9256.89
902.216	9166.27
902.531	9207.85
902.845	9141.64
903.159	9116.33
903.473	9038.82
903.787	9025.26
904.101	8978.48
904.415	9033.84
904.729	8923.56
905.042	8915.66
905.356	8884.7
905.67	8822.55
905.984	8887.18
906.297	8871.14
906.611	8725.15
906.924	8710.92
907.237	8652.61
907.551	8671.59
907.864	8616.23
908.177	8649.9
908.491	8618.04
908.804	8569.45
909.117	8482.45
909.43	8467.98
909.743	8410.81
910.056	8431.37
910.368	8390.92
910.681	8301.66
910.994	8247.2
911.307	8248.1
911.619	8204.26
911.932	8225.05
912.244	8119.29
912.557	8152.51
912.869	8070.03
913.181	8072.74
913.494	8084.72
913.806	8013.08
914.118	7973.08
914.43	7954.55
914.742	7954.1
915.054	7867.55
915.366	7850.6
915.678	7807.66
915.99	7803.14
916.302	7722.47
916.613	7685.86
916.925	7635.24
917.236	7654.45
917.548	7599.31
917.859	7555.01
918.171	7488.35
918.482	7488.12
918.794	7504.62
919.105	7415.58
919.416	7393.66
919.727	7358.18
920.038	7345.53
920.349	7297.17
920.66	7251.52
920.971	7282.03
921.282	7230.28
921.593	7130.62
921.903	7135.14
922.214	7096.04
922.525	7100.11
922.835	7053.78
923.146	7008.59
923.456	7007.68
923.767	6954.35
924.077	6949.38
924.387	6922.26
924.697	6902.83
925.008	6892.88
925.318	6888.14
925.628	6833.22
925.938	6764.75
926.248	6691.08
926.558	6743.06
926.867	6710.97
927.177	6647.01
927.487	6623.74
927.796	6512.78
928.106	6566.34
928.416	6523.18
928.725	6510.29
929.034	6463.29
929.344	6435.95
929.653	6431.65
929.962	6401.15
930.271	6350.07
930.581	6313.69
930.89	6281.15
931.199	6198.44
931.508	6239.12
931.817	6255.84
932.125	6246.12
932.434	6188.04
932.743	6144.43
933.051	6105.33
933.36	6121.38
933.669	6047.93
933.977	6044.09
934.286	5971.1
934.594	6018.78
934.902	5936.98
935.21	5958.67
935.519	5909.41
935.827	5914.6
936.135	5813.82
936.443	5829.63
936.751	5807.71
937.059	5812.46
937.367	5795.74
937.674	5811.33
937.982	5715.97
938.29	5742.41
938.597	5693.14
938.905	5631
939.213	5586.93
939.52	5550.09
939.827	5572.69
940.135	5584.9
940.442	5559.59
940.749	5516.2
941.056	5502.19
941.363	5434.39
941.67	5461.28
941.977	5387.84
942.284	5369.99
942.591	5368.86
942.898	5363.88
943.205	5344
943.511	5344.9
943.818	5298.12
944.125	5243.89
944.431	5285.02
944.738	5230.1
945.044	5163.89
945.35	5132.03
945.657	5129.09
945.963	5103.33
946.269	5097.68
946.575	5055.42
946.881	5093.16
947.187	5035.08
947.493	5003.44
947.799	4990.33
948.105	4955.99
948.41	4929.09
948.716	4893.16
949.022	4884.35
949.327	4895.65
949.633	4800.06
949.938	4808.42
950.244	4815.88
950.549	4818.36
950.854	4737.01
951.16	4750.12
951.465	4732.49
951.77	4683.9
952.075	4655.65
952.38	4682.77
952.685	4650.46
952.99	4607.07
953.294	4589.44
953.599	4573.85
953.904	4581.53
954.209	4519.39
954.513	4549.89
954.818	4499.05
955.122	4508.31
955.426	4472.83
955.731	4447.75
956.035	4400.97
956.339	4402.33
956.643	4382.89
956.948	4370.92
957.252	4374.53
957.556	4353.52
957.86	4330.24
958.163	4328.66
958.467	4281.43
958.771	4282.1
959.075	4270.35
959.378	4243.69
959.682	4209.56
959.985	4170.7
960.289	4166.18
960.592	4132.73
960.896	4111.26
961.199	4062.45
961.502	4073.07
961.805	4044.15
962.108	4015.67
962.411	4010.25
962.714	4012.06
963.017	3980.64
963.32	3965.05
963.623	3956.92
963.926	3947.42
964.228	3930.93
964.531	3932.74
964.833	3871.04
965.136	3858.84
965.438	3851.16
965.741	3821.1
966.043	3852.51
966.345	3833.53
966.648	3789.24
966.95	3812.29
967.252	3767.32
967.554	3773.42
967.856	3727.77
968.158	3650.71
968.46	3698.84
968.761	3677.6
969.063	3636.7
969.365	3672.86
969.666	3601.67
969.968	3576.13
970.269	3617.26
970.571	3603.48
970.872	3588.56
971.174	3546.53
971.475	3530.94
971.776	3505.85
972.077	3533.42
972.378	3478.28
972.679	3478.96
972.98	3478.51
973.281	3398.74
973.582	3397.61
973.883	3377.5
974.183	3401.68
974.484	3411.62
974.785	3384.05
975.085	3362.36
975.386	3367.33
975.686	3348.34
975.986	3350.83
976.287	3322.13
976.587	3230.83
976.887	3261.57
977.187	3266.09
977.487	3242.36
977.787	3212.08
978.087	3187.67
978.387	3208.23
978.687	3179.31
978.987	3147.45
979.286	3147.9
979.586	3082.81
979.885	3112.42
980.185	3092.53
980.484	3050.27
980.784	3090.95
981.083	3055.92
981.382	3040.33
981.682	3038.3
981.981	2986.32
982.28	3027.45
982.579	2968.92
982.878	3003.95
983.177	2973.21
983.475	2991.97
983.774	2950.61
984.073	2955.36
984.372	2872.2
984.67	2889.37
984.969	2874.01
985.267	2873.1
985.566	2872.88
985.864	2856.83
986.162	2801.69
986.461	2825.65
986.759	2807.12
987.057	2765.76
987.355	2760.56
987.653	2776.16
987.951	2779.32
988.249	2765.99
988.547	2759.43
988.844	2733.45
989.142	2734.35
989.44	2700.68
989.737	2709.72
990.035	2672.2
990.332	2665.42
990.63	2685.08
990.927	2655.03
991.224	2600.12
991.521	2581.81
991.819	2594.01
992.116	2583.39
992.413	2584.52
992.71	2548.37
993.006	2533.22
993.303	2558.31
993.6	2549.04
993.897	2546.56
994.193	2525.09
994.49	2525.77
994.787	2514.92
995.083	2487.35
995.379	2458.65
995.676	2444.41
995.972	2417.3
996.268	2393.12
996.565	2441.93
996.861	2383.4
997.157	2416.17
997.453	2353.57
997.749	2382.27
998.044	2358.31
998.34	2341.36
998.636	2322.38
998.932	2323.74
999.227	2290.74
999.523	2296.62
999.818	2283.97
1000.114	2278.32
1000.409	2255.27
1000.704	2258.88
1001	2248.94
1001.295	2252.78
1001.59	2195.61
1001.885	2204.65
1002.18	2185.89
1002.475	2174.59
1002.77	2146.57
1003.065	2142.27
1003.359	2155.61
1003.654	2145.21
1003.949	2132.33
1004.243	2102.5
1004.538	2087.36
1004.832	2073.8
1005.127	2062.28
1005.421	2106.12
1005.715	2052.11
1006.009	2033.12
1006.304	2010.53
1006.598	1968.72
1006.892	1979.11
1007.186	2001.71
1007.48	1960.81
1007.773	1999
1008.067	1946.8
1008.361	1949.96
1008.655	1935.95
1008.948	1915.84
1009.242	1921.26
1009.535	1862.51
1009.829	1907.03
1010.122	1891.21
1010.415	1858.67
1010.708	1878.78
1011.001	1840.14
1011.295	1811.89
1011.588	1806.69
1011.881	1852.11
1012.173	1803.07
1012.466	1811.89
1012.759	1760.36
1013.052	1780.25
1013.344	1754.04
1013.637	1773.92
1013.93	1738.67
1014.222	1733.47
1014.514	1696.64
1014.807	1722.17
1015.099	1712.91
1015.391	1707.03
1015.683	1691.66
1015.976	1660.93
1016.268	1636.52
1016.56	1639.69
1016.851	1665.9
1017.143	1611.21
1017.435	1631.33
1017.727	1589.07
1018.018	1614.83
1018.31	1600.82
1018.602	1589.97
1018.893	1562.4
1019.185	1586.13
1019.476	1551.56
1019.767	1567.15
1020.058	1497.55
1020.35	1479.01
1020.641	1512.23
1020.932	1511.56
1021.223	1471.56
1021.514	1475.17
1021.804	1450.54
1022.095	1458.9
1022.386	1449.19
1022.677	1400.82
1022.967	1436.98
1023.258	1417.55
1023.548	1386.81
1023.839	1372.12
1024.129	1396.31
1024.419	1367.38
1024.709	1382.52
1025	1352.01
1025.29	1356.98
1025.58	1340.49
1025.87	1340.26
1026.16	1323.76
1026.449	1341.62
1026.739	1323.31
1027.029	1318.34
1027.319	1295.06
1027.608	1295.74
1027.898	1276.08
1028.187	1254.39
1028.477	1265.69
1028.766	1242.41
1029.055	1227.72
1029.344	1251.45
1029.634	1231.34
1029.923	1202.86
1030.212	1199.47
1030.501	1192.92
1030.79	1208.74
1031.078	1184.33
1031.367	1173.03
1031.656	1145.92
1031.945	1162.19
1032.233	1146.82
1032.522	1167.84
1032.81	1128.52
1033.099	1114.5
1033.387	1121.51
1033.675	1114.73
1033.963	1107.5
1034.251	1098.23
1034.54	1069.99
1034.828	1102.3
1035.116	1082.87
1035.403	1088.06
1035.691	1103.66
1035.979	1062.53
1036.267	1046.94
1036.554	1050.55
1036.842	1001.29
1037.129	1050.1
1037.417	1034.96
1037.704	1027.5
1037.992	1015.3
1038.279	986.82
1038.566	991.34
1038.853	991.34
1039.14	991.34
