Data from white_steel_sheet_FLMS001491_079.txt Node
Date: Tue Feb 07 10:58:27 GMT 2017
User: dcchb
Spectrometer: FLMS00149
Trigger mode: 0
Integration Time (sec): 2.000000E-2
Scans to average: 10
Electric dark correction enabled: true
Nonlinearity correction enabled: false
Boxcar width: 0
XAxis mode: Wavelengths
Number of Pixels in Spectrum: 2048
>>>>>Begin Spectral Data<<<<<
341.393	-26.16
341.776	-26.16
342.16	-26.16
342.543	-61.86
342.927	-63.22
343.31	-78.13
343.693	-68.87
344.077	-52.6
344.46	-58.25
344.843	-55.76
345.226	-36.78
345.61	-52.37
345.993	-24.8
346.376	-4.69
346.759	-1.98
347.142	52.48
347.525	34.18
347.908	68.98
348.291	87.96
348.674	91.58
349.057	99.04
349.44	145.82
349.823	148.53
350.206	165.25
350.588	212.25
350.971	210.9
351.354	220.62
351.737	228.98
352.119	260.84
352.502	266.26
352.884	279.6
353.267	294.96
353.65	293.61
354.032	294.06
354.414	325.02
354.797	319.82
355.179	325.92
355.562	333.38
355.944	339.26
356.326	337.9
356.709	358.92
357.091	345.58
357.473	345.81
357.855	358.24
358.238	354.17
358.62	362.53
359.002	338.8
359.384	371.35
359.766	364.34
360.148	350.56
360.53	326.83
360.912	349.65
361.294	364.57
361.676	364.79
362.057	340.39
362.439	341.97
362.821	338.58
363.203	334.28
363.584	334.51
363.966	356.66
364.348	341.52
364.729	326.83
365.111	336.77
365.493	348.75
365.874	348.07
366.256	324.57
366.637	341.06
367.019	329.31
367.4	327.51
367.781	349.65
368.163	345.13
368.544	327.96
368.925	331.35
369.306	370.67
369.688	335.19
370.069	344.23
370.45	331.35
370.831	325.7
371.212	351.46
371.593	318.69
371.974	329.09
372.355	330.22
372.736	334.28
373.117	334.74
373.498	333.38
373.879	336.09
374.26	328.86
374.641	315.3
375.021	351.46
375.402	340.84
375.783	358.92
376.163	353.72
376.544	374.51
376.925	338.8
377.305	334.51
377.686	358.01
378.066	362.31
378.447	354.85
378.827	352.36
379.208	368.63
379.588	340.16
379.968	366.83
380.349	371.12
380.729	386.71
381.109	368.41
381.489	355.75
381.87	357.34
382.25	374.51
382.63	364.11
383.01	372.25
383.39	372.7
383.77	382.42
384.15	386.49
384.53	393.94
384.91	384.23
385.29	389.2
385.67	400.95
386.049	414.51
386.429	398.46
386.809	423.77
387.189	403.21
387.568	387.62
387.948	401.4
388.328	421.97
388.707	411.8
389.087	410.22
389.466	419.03
389.846	428.75
390.225	429.2
390.605	429.88
390.984	434.85
391.363	429.2
391.743	442.76
392.122	443.89
392.501	476.43
392.881	458.58
393.26	468.07
393.639	470.78
394.018	481.85
394.397	483.43
394.776	486.82
395.155	489.08
395.534	479.82
395.913	492.92
396.292	513.49
396.671	512.13
397.05	518.01
397.429	541.06
397.808	511.23
398.186	523.43
398.565	525.92
398.944	538.57
399.323	551.45
399.701	535.86
400.08	571.79
400.458	553.94
400.837	560.49
401.215	585.58
401.594	592.13
401.972	606.14
402.351	624.22
402.729	618.12
403.107	633.26
403.486	649.76
403.864	645.69
404.242	665.35
404.62	690.43
404.999	696.08
405.377	708.29
405.755	676.87
406.133	694.05
406.511	732.47
406.889	742.18
407.267	739.47
407.645	741.51
408.023	775.4
408.401	793.71
408.779	789.64
409.156	811.79
409.534	815.4
409.912	815.4
410.29	849.07
410.667	865.12
411.045	872.8
411.422	866.7
411.8	891.33
412.178	910.09
412.555	929.98
412.933	942.63
413.31	949.64
413.687	985.12
414.065	964.78
414.442	1003.42
414.819	999.8
415.197	1001.16
415.574	1013.82
415.951	1052.01
416.328	1046.36
416.705	1053.81
417.082	1032.8
417.46	1068.5
417.837	1087.71
418.214	1108.05
418.591	1110.08
418.967	1123.87
419.344	1117.54
419.721	1142.85
420.098	1174.49
420.475	1183.75
420.852	1193.47
421.228	1187.82
421.605	1202.28
421.982	1208.84
422.358	1235.96
422.735	1206.58
423.111	1274.15
423.488	1283.64
423.864	1288.38
424.241	1282.73
424.617	1300.14
424.994	1344.2
425.37	1349.63
425.746	1325.9
426.123	1356.63
426.499	1382.17
426.875	1410.87
427.251	1410.41
427.627	1454.71
428.003	1448.15
428.379	1473.69
428.756	1500.13
429.132	1538.32
429.507	1542.61
429.883	1539.68
430.259	1556.4
430.635	1601.82
431.011	1600.01
431.387	1631.65
431.763	1659.22
432.138	1688.83
432.514	1724.98
432.89	1701.71
433.265	1749.16
433.641	1776.05
434.016	1783.29
434.392	1822.38
434.767	1832.55
435.143	1853.34
435.518	1908.03
435.894	1925.43
436.269	1927.69
436.644	1957.29
437.02	1956.62
437.395	1968.37
437.77	2023.51
438.145	2028.48
438.52	2066.22
438.895	2096.95
439.271	2091.75
439.646	2129.27
440.021	2161.13
440.395	2178.98
440.77	2140.57
441.145	2188.25
441.52	2228.25
441.895	2233.44
442.27	2254.01
442.645	2250.17
443.019	2292.65
443.394	2288.58
443.769	2303.72
444.143	2284.74
444.518	2367.45
444.892	2373.1
445.267	2368.13
445.641	2444.96
446.016	2439.31
446.39	2435.47
446.764	2483.16
447.139	2453.78
447.513	2541.68
447.887	2521.57
448.262	2521.8
448.636	2543.49
449.01	2569.71
449.384	2615.35
449.758	2638.41
450.132	2691.06
450.506	2651.29
450.88	2671.17
451.254	2687.22
451.628	2757.5
452.002	2749.36
452.376	2812.19
452.75	2821.68
453.123	2849.7
453.497	2912.07
453.871	2951.84
454.244	2996.14
454.618	2971.96
454.992	3043.59
455.365	3047.43
455.739	3076.36
456.112	3153.19
456.486	3165.17
456.859	3216.92
457.232	3250.14
457.606	3295.11
457.979	3304.6
458.352	3395.67
458.725	3425.05
459.099	3449.46
459.472	3458.95
459.845	3551.38
460.218	3564.48
460.591	3618.04
460.964	3608.78
461.337	3719.51
461.71	3749.79
462.083	3804.02
462.456	3847.86
462.829	3839.96
463.201	3923.34
463.574	3934.42
463.947	3980.29
464.32	4048.31
464.692	4115.65
465.065	4118.14
465.438	4211.92
465.81	4241.3
466.183	4272.26
466.555	4387.51
466.928	4421.18
467.3	4369.21
467.672	4523.1
468.045	4564
468.417	4594.29
468.789	4644.23
469.161	4738.69
469.534	4787.95
469.906	4886.71
470.278	4940.27
470.65	4980.49
471.022	5027.27
471.394	5150.88
471.766	5198.56
472.138	5237.88
472.51	5410.54
472.882	5470.42
473.253	5514.71
473.625	5579.34
473.997	5722.17
474.369	5694.14
474.74	5825.44
475.112	5911.09
475.484	6049.61
475.855	6133.45
476.227	6190.85
476.598	6333.68
476.97	6378.87
477.341	6542.26
477.713	6618.19
478.084	6726.21
478.455	6861.12
478.827	6910.38
479.198	7108.34
479.569	7124.16
479.94	7338.62
480.311	7414.78
480.682	7612.51
481.053	7829
481.424	7894.09
481.795	7974.99
482.166	8108.09
482.537	8193.97
482.908	8331.59
483.279	8518.48
483.65	8665.14
484.021	8718.02
484.391	8875.08
484.762	8996.43
485.133	9067.61
485.503	9216.54
485.874	9422.63
486.244	9477.77
486.615	9639.58
486.985	9733.59
487.356	9933.35
487.726	10048.83
488.097	10246.11
488.467	10295.15
488.837	10487.92
489.207	10601.13
489.578	10731.53
489.948	10855.14
490.318	11007.22
490.688	11077.28
491.058	11242.92
491.428	11389.81
491.798	11553.65
492.168	11801.55
492.538	11733.76
492.908	11996.8
493.278	12162.9
493.648	12166.97
494.017	12238.15
494.387	12370.35
494.757	12464.14
495.126	12733.51
495.496	12723.11
495.866	12822.77
496.235	13020.05
496.605	13097.57
496.974	13151.35
497.344	13305.92
497.713	13423.88
498.082	13503.88
498.452	13617.33
498.821	13671.79
499.19	13784.33
499.559	13982.51
499.928	14032.91
500.298	14175.73
500.667	14242.62
501.036	14248.27
501.405	14438.55
501.774	14509.96
502.143	14724.42
502.512	14691.87
502.88	14836.73
503.249	14916.5
503.618	15075.37
503.987	15109.26
504.356	15301.12
504.724	15295.02
505.093	15467.9
505.462	15497.95
505.83	15613.88
506.199	15757.61
506.567	16055.45
506.936	15921.45
507.304	16226.97
507.672	16252.96
508.041	16332.96
508.409	16454.54
508.777	16669.9
509.145	16706.51
509.514	16749.9
509.882	16895.43
510.25	17004.81
510.618	17226.27
510.986	17291.13
511.354	17442.99
511.722	17553.95
512.09	17704.22
512.458	17731.34
512.826	17969.98
513.193	18060.6
513.561	18125.68
513.929	18289.29
514.297	18543.98
514.664	18657.65
515.032	18742.16
515.4	18856.51
515.767	18974.25
516.135	19151.64
516.502	19122.27
516.869	19314.8
517.237	19448.58
517.604	19307.12
517.972	19681.57
518.339	19884.51
518.706	19859.65
519.073	20046.08
519.44	20303.7
519.808	20482.46
520.175	20347.77
520.542	20750.02
520.909	20905.27
521.276	20889
521.643	21141.65
522.009	21429.55
522.376	21486.5
522.743	21602.43
523.11	21868.63
523.477	22142.75
523.843	22114.73
524.21	22476.98
524.577	22476.08
524.943	22744.77
525.31	22967.36
525.676	23036.96
526.043	23141.59
526.409	23324.64
526.776	23527.12
527.142	23617.06
527.508	23846.66
527.874	24044.85
528.241	24178.4
528.607	24271.51
528.973	24507.89
529.339	24610.48
529.705	24865.39
530.071	25029.68
530.437	25138.15
530.803	25359.84
531.169	25464.7
531.535	25444.59
531.901	25584.47
532.267	25723
532.632	25937.45
532.998	26014.97
533.364	26102.65
533.73	26245.92
534.095	26488.63
534.461	26534.5
534.826	26676.87
535.192	26881.84
535.557	27012.45
535.923	26972
536.288	27088.84
536.653	27082.06
537.019	27259.9
537.384	27455.83
537.749	27509.16
538.114	27588.94
538.479	27809.95
538.845	27820.57
539.21	27917.51
539.575	27921.81
539.94	28004.52
540.305	28325.19
540.67	28369.03
541.034	28456.71
541.399	28549.14
541.764	28667.78
542.129	28661.22
542.494	28779.41
542.858	28997.26
543.223	28947.32
543.587	29190.25
543.952	29135.79
544.316	29487.42
544.681	29291.72
545.045	29424.59
545.41	29617.58
545.774	29634.31
546.138	29792.04
546.503	29858.25
546.867	29834.07
547.231	30225.02
547.595	30074.29
547.959	30357.45
548.324	30380.5
548.688	30408.3
549.052	30559.25
549.416	30688.97
549.779	30783.65
550.143	30650.55
550.507	30965.57
550.871	31131.67
551.235	31118.56
551.599	31392.45
551.962	31484.88
552.326	31562.84
552.689	31723.52
553.053	31573.69
553.417	31785.66
553.78	32180.23
554.143	31957.86
554.507	32174.13
554.87	32392.2
555.234	32550.84
555.597	32480.33
555.96	32728.91
556.323	32695.47
556.686	32906.08
557.05	33075.35
557.413	33118.28
557.776	33315.34
558.139	33546.07
558.502	33529.8
558.865	33545.16
559.228	33787.19
559.59	34009.56
559.953	34028.09
560.316	34327.97
560.679	34406.38
561.041	34512.14
561.404	34769.54
561.767	34969.98
562.129	34864
562.492	35320.26
562.854	35220.6
563.217	35326.36
563.579	35398.9
563.941	35743.52
564.304	35786.01
564.666	36069.39
565.028	36037.53
565.39	36170.4
565.753	36440.23
566.115	36475.93
566.477	36819.43
566.839	36797.28
567.201	36942.81
567.563	37050.38
567.925	37256.48
568.287	37228.46
568.648	37309.58
569.01	37607.43
569.372	37801.32
569.734	37696.92
570.095	38008.1
570.457	38096.23
570.819	38196.11
571.18	38189.11
571.542	38514.52
571.903	38462.1
572.265	38575.99
572.626	38825.25
572.987	38723.56
573.349	38804.91
573.71	39126.71
574.071	39144.11
574.432	39322.19
574.794	39436.08
575.155	39507.04
575.516	39367.83
575.877	39701.39
576.238	39679.24
576.599	39624.78
576.96	39784.77
577.32	39755.4
577.681	39960.81
578.042	39936.18
578.403	40096.63
578.763	40142.28
579.124	40076.29
579.485	40303.63
579.845	40319
580.206	40212.11
580.566	40253.91
580.927	40417.52
581.287	40382.72
581.648	40318.32
582.008	40485.32
582.368	40478.09
582.728	40683.28
583.089	40608.03
583.449	40509.5
583.809	40525.32
584.169	40541.14
584.529	40677.41
584.889	40982.93
585.249	40563.06
585.609	40455.49
585.969	40712.88
586.329	40521.7
586.688	40676.5
587.048	40600.34
587.408	40591.31
587.768	40612.55
588.127	40638.08
588.487	40533.91
588.846	40780.68
589.206	40532.32
589.565	40545.88
589.925	40668.59
590.284	40678.08
590.643	40698.2
591.003	40812.99
591.362	40720.34
591.721	40765.54
592.08	40714.69
592.44	40840.56
592.799	40738.42
593.158	40753.79
593.517	40587.24
593.876	40748.36
594.235	40697.74
594.593	40720.57
594.952	40853.45
595.311	40676.73
595.67	40768.25
596.029	40963.5
596.387	41071.29
596.746	41062.25
597.104	40923.5
597.463	40950.39
597.822	41050.95
598.18	40855.48
598.538	40913.11
598.897	41085.08
599.255	40714.47
599.613	41249.82
599.972	40994.68
600.33	41115.13
600.688	40947.91
601.046	41038.07
601.404	41146.55
601.762	41134.12
602.12	41247.11
602.478	41214.57
602.836	41098.18
603.194	41076.49
603.552	41095.93
603.91	41123.95
604.268	41222.7
604.625	41133.44
604.983	41296.15
605.341	41080.11
605.698	41437.39
606.056	41487.78
606.413	41321.91
606.771	41472.41
607.128	41546.76
607.485	41370.95
607.843	41400.78
608.2	41514.45
608.557	41707.66
608.914	41604.16
609.272	41747.66
609.629	41758.28
609.986	41994.88
610.343	41664.95
610.7	41980.42
611.057	41948.33
611.414	41947.88
611.771	42003.7
612.127	42118.27
612.484	42052.96
612.841	42183.58
613.198	42031.04
613.554	42154.43
613.911	42424.48
614.267	42388.77
614.624	42230.36
614.98	42362.78
615.337	42572.95
615.693	42436.91
616.05	42500.18
616.406	42518.03
616.762	42468.77
617.118	42582.67
617.475	42612.5
617.831	42613.17
618.187	42763.45
618.543	42858.59
618.899	42957.8
619.255	42962.77
619.611	42812.04
619.967	42822.21
620.323	43024.91
620.678	42893.17
621.034	42788.76
621.39	42753.73
621.746	42816.33
622.101	43325.47
622.457	42975.88
622.812	43003.67
623.168	43220.16
623.523	43028.76
623.879	43189.66
624.234	42912.37
624.589	43053.84
624.945	43176.77
625.3	43165.7
625.655	43217.45
626.01	43171.58
626.365	43115.31
626.72	43069.21
627.075	43091.13
627.43	43021.07
627.785	43082.09
628.14	43189.88
628.495	43115.76
628.85	42988.08
629.205	42829.44
629.559	43182.88
629.914	42983.33
630.269	43042.54
630.623	42803.9
630.978	42809.1
631.332	42910.34
631.687	42869.89
632.041	42818.14
632.396	42853.62
632.75	42676.9
633.104	42761.42
633.459	42640.52
633.813	42600.97
634.167	42537.7
634.521	42377.47
634.875	42577.69
635.229	42435.55
635.583	42374.99
635.937	42246.63
636.291	42189.68
636.645	42177.25
636.999	42186.97
637.352	42347.87
637.706	41991.27
638.06	42125.5
638.413	41977.71
638.767	41879.63
639.121	42019.29
639.474	41648
639.828	41767.77
640.181	41640.09
640.534	41762.8
640.888	41543.82
641.241	41462.92
641.594	41377.27
641.947	41526.87
642.301	41364.62
642.654	41467.44
643.007	41270.16
643.36	41307.9
643.713	41198.97
644.066	41391.74
644.419	41229.71
644.771	40900
645.124	40557.41
645.477	40399.45
645.83	40189.51
646.182	40033.13
646.535	39966.24
646.888	39999.23
647.24	39649.64
647.593	40115.16
647.945	39952.23
648.298	39667.04
648.65	39760.82
649.002	39645.34
649.355	39775.96
649.707	39617.09
650.059	39762.17
650.411	40143.63
650.763	40305.66
651.115	40588.37
651.467	40450.74
651.819	40545.66
652.171	40340.92
652.523	40309.96
652.875	40262.27
653.227	40121.26
653.578	40304.31
653.93	40312.89
654.282	40010.76
654.633	39987.48
654.985	40186.12
655.337	40093.01
655.688	40039.46
656.039	40039.68
656.391	39797.2
656.742	39775.96
657.094	39820.25
657.445	39920.59
657.796	39825.9
658.147	39879.23
658.498	39709.29
658.849	39863.64
659.2	39755.4
659.551	39605.57
659.902	39726.02
660.253	39556.98
660.604	39599.24
660.955	39333.94
661.306	39450.77
661.656	39357.44
662.007	39307.95
662.358	39255.3
662.708	39312.92
663.059	39118.8
663.409	38899.15
663.76	39272.02
664.11	39147.05
664.461	39033.38
664.811	39159.7
665.161	39032.02
665.511	38914.29
665.862	38825.7
666.212	38841.07
666.562	38852.82
666.912	38608.98
667.262	38494.41
667.612	38554.97
667.962	38433.17
668.312	38361.31
668.662	38420.74
669.011	38288.99
669.361	38119.05
669.711	38052.84
670.06	37912.28
670.41	37825.5
670.76	37828.67
671.109	37823.02
671.459	37792.51
671.808	37589.58
672.157	37592.97
672.507	37251.96
672.856	37328.34
673.205	37315.69
673.554	37393.2
673.904	37148.91
674.253	37300.09
674.602	37146.2
674.951	36716.15
675.3	36380.34
675.649	36957.05
675.998	36981.68
676.346	36957.5
676.695	37011.74
677.044	36671.86
677.393	36728.81
677.741	36914.34
678.09	36738.98
678.438	36545.76
678.787	36683.84
679.135	36705.31
679.484	36668.24
679.832	36659.21
680.181	36480.68
680.529	36665.53
680.877	36411.75
681.225	36463.28
681.573	36725.64
681.922	36450.17
682.27	36357.07
682.618	36463.28
682.966	36424.18
683.314	36537.85
683.661	36527.01
684.009	36196.39
684.357	36326.11
684.705	36394.58
685.053	36328.82
685.4	36225.54
685.748	36160.91
686.095	36279.55
686.443	36195.49
686.79	36150.07
687.138	36272.78
687.485	36255.37
687.832	36137.64
688.18	36210.4
688.527	36084.98
688.874	36102.61
689.221	36044.98
689.568	36051.31
689.915	35873.24
690.262	36032.56
690.609	35946.68
690.956	35879.57
691.303	35817.19
691.65	35785.1
691.997	35837.31
692.344	35616.97
692.69	35604.32
693.037	35703.07
693.383	35525.68
693.73	35660.36
694.077	35477.54
694.423	35460.14
694.769	35277.55
695.116	35315.74
695.462	35273.25
695.808	35310.09
696.155	35340.82
696.501	35092.47
696.847	35007.72
697.193	34856.99
697.539	35149.87
697.885	34639.15
698.231	34758.92
698.577	34696.77
698.923	34671.69
699.269	34396.89
699.614	34341.75
699.96	34302.66
700.306	34387.63
700.651	34206.39
700.997	34068.09
701.342	33991.71
701.688	33909
702.033	33824.03
702.379	33934.31
702.724	33751.26
703.069	33862.22
703.415	33443.92
703.76	33478.95
704.105	33532.06
704.45	33391.49
704.795	33138.62
705.14	33098.17
705.485	33002.58
705.83	32883.94
706.175	33039.19
706.52	32920.55
706.865	32691.85
707.209	32741.34
707.554	32620.67
707.899	32755.81
708.243	32554.68
708.588	32454.57
708.932	32248.02
709.277	32201.92
709.621	32332.09
709.966	32165.31
710.31	32249.38
710.654	31907.01
710.998	31963.28
711.342	32070.63
711.687	31852.33
712.031	31636.06
712.375	31654.14
712.719	31724.19
713.063	31700.47
713.407	31670.64
713.75	31474.94
714.094	31505.67
714.438	31348.16
714.782	31376.18
715.125	31228.16
715.469	31220.48
715.812	31063.42
716.156	30904.1
716.499	30940.71
716.843	30898.68
717.186	30768.29
717.53	30890.77
717.873	30921.5
718.216	30811.45
718.559	30667.95
718.902	30469.31
719.246	30497.56
719.589	30469.54
719.932	30269.54
720.275	30297.56
720.617	30423.21
720.96	30230.22
721.303	30316.55
721.646	30217.79
721.989	30001.98
722.331	30123.11
722.674	30150
723.016	30075.65
723.359	29934.86
723.701	29985.48
724.044	29865.26
724.386	29712.27
724.729	29787.3
725.071	29694.19
725.413	29689.67
725.755	29680.63
726.097	29563.35
726.439	29374.65
726.782	29436.12
727.124	29569.67
727.465	29303.01
727.807	29343.47
728.149	29309.12
728.491	29193.64
728.833	29307.08
729.175	29123.81
729.516	29051.72
729.858	29037.26
730.199	28971.72
730.541	28898.96
730.882	28855.79
731.224	28952.74
731.565	28690.38
731.906	28667.33
732.248	28705.74
732.589	28495.13
732.93	28491.74
733.271	28418.52
733.612	28532.64
733.953	28404.51
734.294	28407.22
734.635	28391.4
734.976	28375.81
735.317	28261.69
735.658	28203.16
735.999	28120.67
736.339	28025.99
736.68	28222.82
737.021	28105.31
737.361	27776.28
737.702	28030.96
738.042	27965.2
738.383	27960
738.723	27835.48
739.063	27845.65
739.404	27865.31
739.744	27749.38
740.084	27658.31
740.424	27732.21
740.764	27634.13
741.104	27651.98
741.444	27561.59
741.784	27518.2
742.124	27473.68
742.464	27413.57
742.804	27299.9
743.143	27342.16
743.483	27324.08
743.823	27156.86
744.162	27393.69
744.502	27318.89
744.841	27187.14
745.181	27160.92
745.52	26988.95
745.86	27123.86
746.199	27176.74
746.538	26939.01
746.877	26915.96
747.216	26910.54
747.556	26798
747.895	26801.61
748.234	26706.47
748.573	26797.77
748.911	26638.45
749.25	26549.41
749.589	26433.71
749.928	26496.08
750.267	26429.87
750.605	26389.65
750.944	26387.84
751.283	26245.69
751.621	26249.54
751.96	26134.51
752.298	26157.79
752.636	26189.42
752.975	26023.1
753.313	25935.87
753.651	26004.57
753.989	25863.78
754.327	25734.75
754.666	25623.11
755.004	25654.75
755.342	25553.96
755.679	25574.53
756.017	25467.41
756.355	25487.07
756.693	25331.82
757.031	25344.47
757.368	25257.47
757.706	25111.71
758.044	25080.08
758.381	25110.81
758.719	25009.12
759.056	24993.52
759.394	24942.23
759.731	24645.28
760.068	24715.11
760.405	24634.44
760.743	24590.82
761.08	24499.98
761.417	24402.58
761.754	24440.77
762.091	24239.65
762.428	24328
762.765	24159.2
763.102	24079.88
763.438	23899.54
763.775	23984.74
764.112	24010.95
764.449	23847.34
764.785	23684.63
765.122	23535.93
765.458	23528.7
765.795	23446.22
766.131	23368.71
766.467	23258.65
766.804	23128.26
767.14	23175.27
767.476	23075.38
767.812	22976.85
768.148	23043.52
768.485	22865.67
768.821	22718.78
769.157	22751.32
769.492	22700.7
769.828	22539.8
770.164	22328.28
770.5	22444.66
770.836	22429.98
771.171	22263.2
771.507	22184.33
771.842	21951.12
772.178	22032.25
772.513	21847.84
772.849	21807.62
773.184	21780.73
773.519	21781.86
773.855	21660.5
774.19	21610.34
774.525	21419.38
774.86	21465.25
775.195	21452.37
775.53	21326.95
775.865	21289.21
776.2	21129.22
776.535	20915.21
776.87	20927.64
777.205	20931.26
777.539	20831.83
777.874	20821.2
778.209	20529.91
778.543	20518.16
778.878	20390.25
779.212	20404.04
779.547	20242.91
779.881	20266.19
780.215	20217.38
780.55	20200.2
780.884	20092.86
781.218	20000.89
781.552	19951.85
781.886	19862.81
782.22	19688.8
782.554	19707.11
782.888	19524.97
783.222	19412.43
783.556	19369.72
783.889	19300.11
784.223	19252.21
784.557	19214.69
784.89	19303.5
785.224	19054.92
785.557	18978.77
785.891	18898.32
786.224	18869.16
786.558	18875.04
786.891	18717.53
787.224	18619.68
787.557	18606.8
787.891	18638.66
788.224	18504.43
788.557	18582.39
788.89	18435.73
789.223	18439.12
789.556	18315.06
789.888	18246.36
790.221	18194.38
790.554	17994.16
790.887	18022.63
791.219	17992.8
791.552	17868.97
791.884	17700.61
792.217	17674.17
792.549	17640.72
792.882	17590.33
793.214	17487.05
793.546	17499.03
793.879	17431.01
794.211	17330.45
794.543	17454.74
794.875	17238.93
795.207	17329.32
795.539	17173.62
795.871	17233.28
796.203	16940.4
796.535	16885.04
796.867	16993.96
797.198	16871.25
797.53	16780.18
797.862	16732.95
798.193	16722.55
798.525	16698.6
798.856	16562.11
799.188	16302.9
799.519	16357.37
799.85	16384.03
800.182	16362.34
800.513	16304.94
800.844	16100.42
801.175	16225.62
801.506	16140.2
801.837	16106.07
802.168	16105.62
802.499	16032.18
802.83	15966.87
803.161	15879.86
803.491	15916.93
803.822	15797.16
804.153	15786.76
804.483	15596.26
804.814	15593.54
805.145	15595.58
805.475	15598.52
805.805	15465.41
806.136	15568.69
806.466	15525.52
806.796	15443.94
807.126	15372.08
807.457	15279.65
807.787	15235.59
808.117	15276.49
808.447	15099.77
808.777	15163.5
809.107	15054.12
809.436	15022.49
809.766	14962.6
810.096	14904.3
810.426	14898.65
810.755	14912.88
811.085	14814.58
811.414	14847.35
811.744	14697.52
812.073	14705.21
812.403	14681.48
812.732	14535.04
813.061	14548.37
813.39	14462.95
813.719	14543.4
814.049	14618.88
814.378	14494.82
814.707	14492.1
815.036	14340.24
815.365	14366.68
815.693	14137.31
816.022	14215.28
816.351	14224.99
816.68	14124.2
817.008	14081.95
817.337	14061.61
817.665	14010.76
817.994	14064.55
818.322	14011.89
818.651	13975.73
818.979	13922.85
819.307	13866.13
819.636	13900.93
819.964	13803.54
820.292	13912.23
820.62	13832.91
820.948	13774.16
821.276	13843.08
821.604	13796.3
821.932	13761.05
822.259	13796.76
822.587	13825.23
822.915	13752.24
823.243	13791.33
823.57	13761.05
823.898	13753.14
824.225	13690.32
824.553	13679.7
824.88	13732.8
825.207	13767.83
825.535	13731.9
825.862	13745.23
826.189	13653.48
826.516	13738.45
826.843	13709.98
827.17	13730.99
827.497	13729.64
827.824	13698.68
828.151	13664.56
828.478	13705.68
828.805	13787.94
829.131	13628.4
829.458	13699.58
829.785	13580.94
830.111	13631.79
830.438	13661.84
830.764	13613.48
831.09	13619.36
831.417	13540.04
831.743	13610.77
832.069	13650.09
832.395	13522.86
832.722	13542.75
833.048	13484.9
833.374	13520.83
833.7	13488.52
834.026	13561.96
834.351	13531.9
834.677	13504.79
835.003	13422.75
835.329	13427.73
835.654	13484.22
835.98	13471.34
836.306	13401.51
836.631	13338.01
836.956	13398.35
837.282	13395.41
837.607	13282.87
837.932	13267.28
838.258	13294.62
838.583	13311.8
838.908	13260.05
839.233	13138.47
839.558	13111.8
839.883	13144.57
840.208	13032.93
840.533	13084.91
840.858	13166.49
841.182	13153.61
841.507	13068.64
841.832	13020.51
842.156	12960.85
842.481	12905.48
842.805	12993.61
843.13	12953.39
843.454	12850.57
843.778	12758.59
844.103	12778.03
844.427	12758.14
844.751	12795.88
845.075	12713.17
845.399	12643.57
845.723	12535.55
846.047	12591.59
846.371	12500.97
846.695	12544.81
847.019	12417.36
847.343	12373.06
847.666	12293.07
847.99	12270.92
848.313	12206.06
848.637	12131.94
848.96	12154.99
849.284	12119.96
849.607	12057.37
849.931	12035.9
850.254	11949.57
850.577	11905.73
850.9	11797.03
851.223	11821.89
851.546	11735.34
851.869	11668
852.192	11709.13
852.515	11550.04
852.838	11482.92
853.161	11504.61
853.483	11433.43
853.806	11475.91
854.129	11388.23
854.451	11384.84
854.774	11312.53
855.096	11268.69
855.419	11261.68
855.741	11207.9
856.063	11155.02
856.385	11194.34
856.708	11081.12
857.03	11079.99
857.352	11023.72
857.674	11003.61
857.996	10987.34
858.318	10952.54
858.64	10903.05
858.961	10885.65
859.283	10845.87
859.605	10822.14
859.926	10868.92
860.248	10793.9
860.57	10721.81
860.891	10727.46
861.212	10628.48
861.534	10651.08
861.855	10637.06
862.176	10665.99
862.498	10600.46
862.819	10675.93
863.14	10589.61
863.461	10468.71
863.782	10521.36
864.103	10491.76
864.424	10413.34
864.745	10490.63
865.065	10422.61
865.386	10396.62
865.707	10405.21
866.027	10409.95
866.348	10383.74
866.668	10295.6
866.989	10339.45
867.309	10251.76
867.63	10278.88
867.95	10248.6
868.27	10135.61
868.59	10288.6
868.91	10207.92
869.23	10196.62
869.55	10174.93
869.87	10143.74
870.19	10084.54
870.51	10152.11
870.83	10073.69
871.15	10092.9
871.469	10081.6
871.789	10085.44
872.109	10019.45
872.428	9996.4
872.748	10076.85
873.067	10009.96
873.386	9980.36
873.706	9963.64
874.025	9908.27
874.344	9901.49
874.663	9944.43
874.982	9940.36
875.301	9909.63
875.62	9865.11
875.939	9836.41
876.258	9781.72
876.577	9701.5
876.896	9759.57
877.214	9733.81
877.533	9823.98
877.852	9691.78
878.17	9715.06
878.489	9736.07
878.807	9746.92
879.125	9673.02
879.444	9725.45
879.762	9619.92
880.08	9687.71
880.398	9563.19
880.716	9547.83
881.034	9572.01
881.352	9565.45
881.67	9508.06
881.988	9558.9
882.306	9492.01
882.624	9390.54
882.941	9410.2
883.259	9380.37
883.577	9441.39
883.894	9338.34
884.212	9394.84
884.529	9337.44
884.846	9345.57
885.164	9246.37
885.481	9268.06
885.798	9275.97
886.115	9163.43
886.432	9198.01
886.75	9181.06
887.067	9209.76
887.383	9079.37
887.7	9124.34
888.017	9112.81
888.334	9146.71
888.651	9096.54
888.967	9032.36
889.284	8993.72
889.6	8892.25
889.917	8899.94
890.233	8956.88
890.55	8905.13
890.866	8885.47
891.182	8893.61
891.498	8862.42
891.815	8791.46
892.131	8734.74
892.447	8733.84
892.763	8664.46
893.079	8681.86
893.395	8686.16
893.71	8599.83
894.026	8596.89
894.342	8614.97
894.657	8455.43
894.973	8525.93
895.289	8496.33
895.604	8505.14
895.92	8410
896.235	8400.74
896.55	8419.95
896.865	8372.49
897.181	8330.23
897.496	8321.19
897.811	8305.15
898.126	8215.21
898.441	8218.15
898.756	8158.71
899.071	8194.19
899.386	8216.79
899.7	8100.41
900.015	8083.23
900.33	8049.11
900.644	8048.88
900.959	7981.54
901.273	7980.41
901.588	7965.95
901.902	7965.72
902.216	7921.66
902.531	7931.37
902.845	7840.3
903.159	7772.06
903.473	7771.6
903.787	7730.7
904.101	7632.17
904.415	7717.37
904.729	7645.73
905.042	7572.74
905.356	7572.06
905.67	7525.51
905.984	7508.11
906.297	7567.09
906.611	7467.2
906.924	7480.99
907.237	7386.3
907.551	7357.38
907.864	7309.92
908.177	7296.81
908.491	7297.94
908.804	7273.31
909.117	7189.25
909.43	7175.01
909.743	7117.61
910.056	7102.02
910.368	7101.79
910.681	7131.17
910.994	7041.23
911.307	6975.01
911.619	6929.37
911.932	6992.42
912.244	6948.12
912.557	6965.07
912.869	6874.23
913.181	6911.29
913.494	6815.02
913.806	6831.29
914.118	6811.4
914.43	6716.49
914.742	6722.14
915.054	6698.41
915.366	6673.33
915.678	6648.24
915.99	6614.8
916.302	6569.6
916.613	6531.41
916.925	6506.78
917.236	6531.64
917.548	6491.41
917.859	6481.24
918.171	6446.44
918.482	6389.49
918.794	6382.94
919.105	6333.45
919.416	6324.64
919.727	6339.32
920.038	6266.11
920.349	6269.95
920.66	6242.83
920.971	6241.02
921.282	6230.63
921.593	6104.75
921.903	6102.27
922.214	6055.94
922.525	6064.98
922.835	6075.15
923.146	5973.68
923.456	6035.15
923.767	5954.02
924.077	5952.22
924.387	5911.77
924.697	5852.56
925.008	5929.84
925.318	5862.05
925.628	5883.74
925.938	5837.87
926.248	5759
926.558	5772.11
926.867	5739.79
927.177	5731.21
927.487	5653.24
927.796	5614.37
928.106	5608.72
928.416	5583.64
928.725	5587.93
929.034	5556.52
929.344	5540.02
929.653	5520.59
929.962	5476.3
930.271	5485.79
930.581	5430.2
930.89	5415.06
931.199	5360.14
931.508	5389.29
931.817	5322.85
932.125	5340.71
932.434	5322.18
932.743	5234.27
933.051	5234.04
933.36	5220.03
933.669	5154.05
933.977	5232.46
934.286	5174.84
934.594	5109.98
934.902	5136.42
935.21	5037.89
935.519	5056.19
935.827	5058.91
936.135	5034.5
936.443	4979.59
936.751	5015.52
937.059	4947.95
937.367	4922.64
937.674	4947.27
937.982	4908.63
938.29	4910.66
938.597	4897.33
938.905	4794.28
939.213	4819.82
939.52	4825.01
939.827	4865.69
940.135	4782.53
940.442	4766.94
940.749	4688.29
941.056	4707.05
941.363	4658.47
941.67	4624.57
941.977	4616.21
942.284	4599.03
942.591	4602.87
942.898	4551.35
943.205	4588.86
943.511	4547.96
943.818	4561.29
944.125	4486.49
944.431	4514.51
944.738	4501.41
945.044	4392.71
945.35	4466.83
945.657	4385.25
945.963	4420.05
946.269	4365.82
946.575	4417.79
946.881	4348.42
947.187	4311.36
947.493	4324.01
947.799	4246.05
948.105	4256.89
948.41	4254.63
948.716	4237.91
949.022	4176.22
949.327	4157.01
949.633	4145.48
949.938	4131.47
950.244	4148.65
950.549	4074.3
950.854	4105.71
951.16	4085.15
951.465	4057.35
951.77	4048.31
952.075	4034.75
952.38	4024.13
952.685	4028.43
952.99	3947.07
953.294	3965.83
953.599	3941.65
953.904	3917.69
954.209	3931.25
954.513	3895.1
954.818	3856.68
955.122	3813.74
955.426	3814.87
955.731	3815.55
956.035	3802.22
956.339	3776.23
956.643	3756.57
956.948	3737.36
957.252	3731.03
957.556	3712.73
957.86	3691.26
958.163	3665.04
958.467	3663.01
958.771	3642.9
959.075	3679.51
959.378	3663.01
959.682	3658.94
959.985	3556.35
960.289	3584.82
960.592	3555.44
960.896	3561.54
961.199	3544.6
961.502	3522.9
961.805	3475.9
962.108	3479.74
962.411	3461.89
962.714	3447.65
963.017	3407.42
963.32	3443.58
963.623	3415.56
963.926	3401.77
964.228	3378.27
964.531	3369.69
964.833	3366.52
965.136	3371.49
965.438	3300.08
965.741	3312.74
966.043	3284.72
966.345	3284.94
966.648	3260.99
966.95	3245.39
967.252	3268.9
967.554	3219.86
967.856	3233.64
968.158	3198.39
968.46	3204.49
968.761	3190.48
969.063	3189.8
969.365	3167.88
969.666	3127.43
969.968	3099.64
970.269	3091.27
970.571	3103.7
970.872	3079.75
971.174	3043.59
971.475	3064.16
971.776	3029.81
972.077	3028.45
972.378	3004.95
972.679	2978.28
972.98	2978.51
973.281	2993.88
973.582	2991.39
973.883	2936.02
974.183	2926.31
974.484	2914.56
974.785	2886.99
975.085	2912.75
975.386	2848.8
975.686	2888.34
975.986	2868
976.287	2877.72
976.587	2831.17
976.887	2822.13
977.187	2837.5
977.487	2781.23
977.787	2791.4
978.087	2768.35
978.387	2753.43
978.687	2738.06
978.987	2702.58
979.286	2716.14
979.586	2746.65
979.885	2657.61
980.185	2679.99
980.484	2661.91
980.784	2640.89
981.083	2621.23
981.382	2649.03
981.682	2656.48
981.981	2616.48
982.28	2604.51
982.579	2578.75
982.878	2580.1
983.177	2578.52
983.475	2547.79
983.774	2533.55
984.073	2518.86
984.372	2525.41
984.67	2479.77
984.969	2475.47
985.267	2485.19
985.566	2467.34
985.864	2439.31
986.162	2467.56
986.461	2454.68
986.759	2428.69
987.057	2407.68
987.355	2401.58
987.653	2412.87
987.951	2372.42
988.249	2376.94
988.547	2357.06
988.844	2353.44
989.142	2359.54
989.44	2306.89
989.737	2316.38
990.035	2318.64
990.332	2320.22
990.63	2267.34
990.927	2269.38
991.224	2270.05
991.521	2256.49
991.819	2230.28
992.116	2248.13
992.413	2224.4
992.71	2223.05
993.006	2171.52
993.303	2198.42
993.6	2214.69
993.897	2181.24
994.193	2178.3
994.49	2162.94
994.787	2155.03
995.083	2117.51
995.379	2133.11
995.676	2107.12
995.972	2113.67
996.268	2081.58
996.565	2112.54
996.861	2068.25
997.157	2079.1
997.453	2047.23
997.749	2053.56
998.044	2056.27
998.34	2047.91
998.636	2002.72
998.932	2035.03
999.227	2022.83
999.523	1988.7
999.818	1988.7
1000.114	1986.44
1000.409	1966.11
1000.704	1938.54
1001	1929.95
1001.295	1915.26
1001.59	1925.88
1001.885	1903.06
1002.18	1916.62
1002.475	1909.16
1002.77	1879.56
1003.065	1880.01
1003.359	1870.74
1003.654	1840.91
1003.949	1861.25
1004.243	1830.52
1004.538	1831.87
1004.832	1795.26
1005.127	1783.51
1005.421	1781.93
1005.715	1797.98
1006.009	1779.67
1006.304	1755.04
1006.598	1770.41
1006.892	1737.64
1007.186	1732.21
1007.48	1734.02
1007.773	1722.05
1008.067	1698.77
1008.361	1663.74
1008.655	1668.94
1008.948	1661.26
1009.242	1679.79
1009.535	1663.06
1009.829	1648.15
1010.122	1649.73
1010.415	1612.22
1010.708	1618.77
1011.001	1633.69
1011.295	1614.7
1011.588	1596.62
1011.881	1582.84
1012.173	1568.6
1012.466	1557.08
1012.759	1567.47
1013.052	1595.72
1013.344	1566.79
1013.637	1529.96
1013.93	1544.87
1014.222	1517.3
1014.514	1512.11
1014.807	1509.62
1015.099	1502.84
1015.391	1482.28
1015.683	1477.98
1015.976	1459.23
1016.268	1467.36
1016.56	1416.97
1016.851	1433.24
1017.143	1418.1
1017.435	1428.27
1017.727	1415.61
1018.018	1409.06
1018.31	1369.06
1018.602	1377.42
1018.893	1397.53
1019.185	1357.99
1019.476	1352.11
1019.767	1359.57
1020.058	1348.95
1020.35	1329.74
1020.641	1313.92
1020.932	1316.63
1021.223	1309.63
1021.514	1281.15
1021.804	1290.64
1022.095	1270.76
1022.386	1256.52
1022.677	1281.15
1022.967	1247.26
1023.258	1251.55
1023.548	1250.87
1023.839	1242.28
1024.129	1240.02
1024.419	1203.87
1024.709	1194.38
1025	1201.83
1025.29	1193.25
1025.58	1195.05
1025.87	1160.03
1026.16	1149.63
1026.449	1155.96
1026.739	1151.21
1027.029	1168.16
1027.319	1117.77
1027.608	1126.81
1027.898	1108.28
1028.187	1119.58
1028.477	1131.1
1028.766	1120.93
1029.055	1078.22
1029.344	1080.03
1029.634	1047.03
1029.923	1070.99
1030.212	1078.67
1030.501	1072.12
1030.79	1055.62
1031.078	1041.16
1031.367	1035.06
1031.656	1068.5
1031.945	1021.5
1032.233	1026.92
1032.522	1017.88
1032.81	1011.56
1033.099	985.79
1033.387	1007.26
1033.675	1009.75
1033.963	1017.2
1034.251	1002.06
1034.54	947.15
1034.828	975.85
1035.116	951.22
1035.403	945.12
1035.691	947.15
1035.979	941.95
1036.267	967.04
1036.554	933.59
1036.842	927.49
1037.129	930.43
1037.417	914.16
1037.704	931.78
1037.992	922.97
1038.279	896.76
1038.566	883.42
1038.853	883.42
1039.14	883.42
