Data from White_reflection_standard_FLMS001491_095.txt Node
Date: Tue Feb 07 10:32:14 GMT 2017
User: dcchb
Spectrometer: FLMS00149
Trigger mode: 0
Integration Time (sec): 2.000000E-2
Scans to average: 10
Electric dark correction enabled: true
Nonlinearity correction enabled: false
Boxcar width: 0
XAxis mode: Wavelengths
Number of Pixels in Spectrum: 2048
>>>>>Begin Spectral Data<<<<<
341.393	-17.75
341.776	-17.75
342.16	-17.75
342.543	-56.85
342.927	-79
343.31	-69.5
343.693	-73.35
344.077	-65.21
344.46	-49.17
344.843	-58.43
345.226	-39.67
345.61	-46
345.993	-13.91
346.376	-21.14
346.759	9.36
347.142	23.38
347.525	53.2
347.908	65.86
348.291	81.9
348.674	88.46
349.057	114.22
349.44	106.08
349.823	134.56
350.206	161.9
350.588	210.04
350.971	236.93
351.354	258.17
351.737	283.48
352.119	304.72
352.502	313.31
352.884	330.71
353.267	314.89
353.65	356.25
354.032	361.45
354.414	360.77
354.797	342.46
355.179	350.37
355.562	361.67
355.944	359.86
356.326	396.25
356.709	387.89
357.091	388.11
357.473	406.19
357.855	384.72
358.238	393.99
358.62	392.86
359.002	397.15
359.384	369.81
359.766	405.74
360.148	395.57
360.53	391.28
360.912	391.73
361.294	390.15
361.676	412.29
362.057	423.82
362.439	403.93
362.821	394.66
363.203	411.84
363.584	384.27
363.966	435.12
364.348	393.76
364.729	408.68
365.111	411.61
365.493	397.38
365.874	417.49
366.256	429.24
366.637	431.95
367.019	405.51
367.4	427.66
367.781	419.07
368.163	421.33
368.544	424.49
368.925	416.81
369.306	415.68
369.688	405.29
370.069	429.92
370.45	428.34
370.831	434.44
371.212	429.69
371.593	435.79
371.974	465.62
372.355	441.22
372.736	437.83
373.117	455
373.498	457.26
373.879	441.9
374.26	456.13
374.641	417.94
375.021	448.45
375.402	459.75
375.783	482.8
376.163	520.76
376.544	506.53
376.925	506.07
377.305	479.86
377.686	499.52
378.066	493.65
378.447	488
378.827	487.54
379.208	497.71
379.588	513.08
379.968	495
380.349	502.01
380.729	531.61
381.109	530.25
381.489	546.98
381.87	525.73
382.25	536.36
382.63	531.16
383.01	562.12
383.39	551.5
383.77	586.98
384.15	560.54
384.53	578.84
384.91	607.99
385.29	597.6
385.67	622.46
386.049	619.29
386.429	602.57
386.809	601.89
387.189	629.23
387.568	620.87
387.948	611.61
388.328	649.12
388.707	648.22
389.087	658.39
389.466	666.52
389.846	661.78
390.225	703.58
390.605	692.51
390.984	708.55
391.363	706.97
391.743	734.09
392.122	721.89
392.501	722.79
392.881	755.33
393.26	735.9
393.639	735.22
394.018	738.16
394.397	756.46
394.776	779.51
395.155	775.22
395.534	772.28
395.913	806.86
396.292	820.42
396.671	840.53
397.05	810.47
397.429	824.03
397.808	829.91
398.186	855.9
398.565	838.27
398.944	836.69
399.323	861.09
399.701	890.02
400.08	884.82
400.458	901.77
400.837	932.28
401.215	919.62
401.594	940.87
401.972	960.98
402.351	958.94
402.729	974.99
403.107	1001.43
403.486	992.84
403.864	989.23
404.242	999.39
404.62	995.55
404.999	1045.72
405.377	1006.4
405.755	1044.37
406.133	1071.71
406.511	1083.91
406.889	1093.86
407.267	1085.04
407.645	1111.48
408.023	1134.53
408.401	1159.39
408.779	1150.13
409.156	1175.21
409.534	1190.35
409.912	1205.04
410.29	1225.83
410.667	1260.86
411.045	1277.35
411.422	1276
411.8	1287.97
412.178	1287.75
412.555	1375.43
412.933	1363.45
413.31	1374.75
413.687	1426.5
414.065	1408.65
414.442	1441.87
414.819	1438.25
415.197	1467.63
415.574	1476.22
415.951	1510.79
416.328	1494.07
416.705	1501.08
417.082	1536.78
417.46	1553.28
417.837	1559.83
418.214	1562.54
418.591	1636.44
418.967	1623.33
419.344	1617.46
419.721	1638.7
420.098	1691.58
420.475	1687.51
420.852	1725.48
421.228	1686.61
421.605	1738.81
421.982	1741.75
422.358	1796.89
422.735	1813.84
423.111	1799.15
423.488	1840.05
423.864	1847.06
424.241	1901.97
424.617	1916.43
424.994	1940.16
425.37	1912.36
425.746	1943.78
426.123	1946.94
426.499	2019.25
426.875	1999.37
427.251	2066.03
427.627	2109.87
428.003	2127.73
428.379	2137.22
428.756	2169.31
429.132	2184.67
429.507	2265.12
429.883	2259.93
430.259	2273.71
430.635	2334.27
431.011	2328.4
431.387	2418.34
431.763	2436.64
432.138	2444.78
432.514	2519.35
432.89	2525.91
433.265	2587.38
433.641	2597.77
434.016	2645
434.392	2661.05
434.767	2699.69
435.143	2707.15
435.518	2744.89
435.894	2767.03
436.269	2817.88
436.644	2878.67
437.02	2868.27
437.395	2904.66
437.77	2953.02
438.145	3000.7
438.52	3002.73
438.895	3070.07
439.271	3088.83
439.646	3117.98
440.021	3143.52
440.395	3167.47
440.77	3145.33
441.145	3217.64
441.52	3219.45
441.895	3247.47
442.27	3270.07
442.645	3313.23
443.019	3397.07
443.394	3363.63
443.769	3425.55
444.143	3374.25
444.518	3460.57
444.892	3472.32
445.267	3486.33
445.641	3530.63
446.016	3565.65
446.39	3584.86
446.764	3590.29
447.139	3597.97
447.513	3640.91
447.887	3690.17
448.262	3715.26
448.636	3705.54
449.01	3783.05
449.384	3823.5
449.758	3872.77
450.132	3909.83
450.506	3922.93
450.88	3950.73
451.254	3955.02
451.628	4019.2
452.002	4077.28
452.376	4131.97
452.75	4119.76
453.123	4169.93
453.497	4246.54
453.871	4263.72
454.244	4374.67
454.618	4352.75
454.992	4481.11
455.365	4480.89
455.739	4559.3
456.112	4637.04
456.486	4710.03
456.859	4708.45
457.232	4826.19
457.606	4819.86
457.979	4836.81
458.352	4984.83
458.725	5043.81
459.099	5063.47
459.472	5118.38
459.845	5230.92
460.218	5284.25
460.591	5369.45
460.964	5350.01
461.337	5502.55
461.71	5533.51
462.083	5601.31
462.456	5660.74
462.829	5692.83
463.201	5763.79
463.574	5846.95
463.947	5873.62
464.32	6067.51
464.692	6081.52
465.065	6117.23
465.438	6253.49
465.81	6326.94
466.183	6372.13
466.555	6549.31
466.928	6559.02
467.3	6645.8
467.672	6665.69
468.045	6866.13
468.417	6910.65
468.789	6942.74
469.161	6963.53
469.534	7220.93
469.906	7340.24
470.278	7385.89
470.65	7408.04
471.022	7651.88
471.394	7781.14
471.766	7745.66
472.138	7910.17
472.51	8056.16
472.882	8170.05
473.253	8287.11
473.625	8393.55
473.997	8554.22
474.369	8666.31
474.74	8767.33
475.112	8930.03
475.484	9095
475.855	9284.37
476.227	9346.75
476.598	9591.49
476.97	9595.1
477.341	9894.08
477.713	10031.93
478.084	10132.26
478.455	10430.56
478.827	10480.95
479.198	10802.98
479.569	10760.49
479.94	11162.97
480.311	11242.74
480.682	11454.71
481.053	11731.54
481.424	11987.35
481.795	12100.12
482.166	12201.13
482.537	12395.93
482.908	12639.99
483.279	12848.12
483.65	13109.36
484.021	13265.96
484.391	13422.34
484.762	13527.43
485.133	13681.55
485.503	13903.24
485.874	14218.48
486.244	14375.31
486.615	14588.42
486.985	14725.59
487.356	15038.12
487.726	15190.43
488.097	15560.14
488.467	15493.25
488.837	15933.47
489.207	16090.75
489.578	16309.73
489.948	16469.04
490.318	16663.84
490.688	16728.47
491.058	17110.61
491.428	17215.01
491.798	17468.11
492.168	17796.92
492.538	17781.33
492.908	18061.32
493.278	18245.04
493.648	18330.24
494.017	18578.37
494.387	18717.57
494.757	18971.13
495.126	19187.62
495.496	19290.89
495.866	19331.79
496.235	19602.75
496.605	19741.27
496.974	19833.48
497.344	20064.88
497.713	20156.86
498.082	20345.55
498.452	20634.36
498.821	20604.75
499.19	20783.73
499.559	20901.7
499.928	21160.67
500.298	21214.46
500.667	21408.58
501.036	21562.47
501.405	21740.09
501.774	21707.55
502.143	22014.21
502.512	22043.36
502.88	22281.77
503.249	22314.31
503.618	22598.37
503.987	22634.76
504.356	22782.32
504.724	23010.57
505.093	23081.75
505.462	23192.71
505.83	23429.09
506.199	23648.52
506.567	23902.52
506.936	23924.22
507.304	24237.2
507.672	24314.94
508.041	24413.69
508.409	24742.73
508.777	24690.07
509.145	24928.48
509.514	24997.18
509.882	25209.38
510.25	25355.82
510.618	25472.65
510.986	25741.79
511.354	25930.04
511.722	26199.86
512.09	26476.46
512.458	26475.33
512.826	26627.87
513.193	26820.41
513.561	26934.31
513.929	27223.56
514.297	27455.42
514.664	27567.28
515.032	27637.34
515.4	27870.1
515.767	28153.93
516.135	28196.19
516.502	28171.56
516.869	28870.98
517.237	28851.54
517.604	28873.24
517.972	29304.41
518.339	29367.46
518.706	29616.27
519.073	29636.16
519.44	29923.38
519.808	30196.14
520.175	30230.26
520.542	30666.86
520.909	30903.47
521.276	30842.9
521.643	31328.09
522.009	31479.72
522.376	31684.92
522.743	31892.14
523.11	32228.4
523.477	32514.95
523.843	32756.53
524.21	33092.56
524.577	33229.28
524.943	33445.1
525.31	33596.73
525.676	33935.93
526.043	34121.91
526.409	34333.66
526.776	34775.91
527.142	34856.81
527.508	35001.89
527.874	35329.57
528.241	35492.5
528.607	35672.61
528.973	35985.37
529.339	36011.36
529.705	36458.58
530.071	36630.32
530.437	36878.45
530.803	37039.35
531.169	37236.63
531.535	37355.05
531.901	37313.47
532.267	37555.95
532.632	37835.49
532.998	37940.34
533.364	38287.45
533.73	38371.52
534.095	38608.35
534.461	38812.19
534.826	38743.03
535.192	39159.07
535.557	39262.8
535.923	39266.64
536.288	39551.15
536.653	39729.45
537.019	39672.5
537.384	40023.68
537.749	40126.73
538.114	40238.36
538.479	40358.36
538.845	40574.17
539.21	40620.95
539.575	40671.57
539.94	40785.02
540.305	41207.15
540.67	41099.36
541.034	41280.14
541.399	41385.68
541.764	41632.68
542.129	41742.5
542.494	41799.9
542.858	42076.51
543.223	42141.82
543.587	42214.81
543.952	42237.18
544.316	42488.93
544.681	42559.43
545.045	42761.69
545.41	43040.78
545.774	43093.88
546.138	43111.06
546.503	43362.12
546.867	43350.6
547.231	43706.07
547.595	43746.52
547.959	44036.46
548.324	43909.23
548.688	44179.73
549.052	44341.98
549.416	44440.74
549.779	44410.46
550.143	44625.14
550.507	44827.85
550.871	44966.83
551.235	44991.46
551.599	45432.8
551.962	45438.9
552.326	45594.15
552.689	45798.67
553.053	45592.57
553.417	45865.33
553.78	46378.99
554.143	46175.83
554.507	46472.78
554.87	46505.32
555.234	46913.67
555.597	46744.18
555.96	46874.35
556.323	47049.26
556.686	47142.36
557.05	47576.48
557.413	47576.48
557.776	47582.12
558.139	48063.02
558.502	48042.23
558.865	48205.16
559.228	48561.08
559.59	48557.47
559.953	48530.35
560.316	49146.38
560.679	48984.57
561.041	49296.66
561.404	49478.8
561.767	49647.38
562.129	49431.12
562.492	49933.93
562.854	49952.23
563.217	49978.9
563.579	50195.84
563.941	50380.24
564.304	50507.02
564.666	50786.79
565.028	50786.56
565.39	51052.32
565.753	51163.73
566.115	51274.68
566.477	51319.43
566.839	51445.07
567.201	51730.94
567.563	51775.69
567.925	52011.84
568.287	52072.63
568.648	52063.14
569.01	52260.42
569.372	52509.9
569.734	52343.13
570.095	52554.2
570.457	52651.14
570.819	52729.56
571.18	52756
571.542	52998.48
571.903	52971.14
572.265	53208.64
572.626	53183.79
572.987	53256.78
573.349	53374.97
573.71	53494.96
574.071	53503.55
574.432	53608.86
574.794	53857.21
575.155	53830.55
575.516	53738.8
575.877	53941.05
576.238	53967.72
576.599	54107.83
576.96	54040.03
577.32	54105.79
577.681	54226.47
578.042	54305.79
578.403	54299.69
578.763	54374.49
579.124	54398.22
579.485	54477.31
579.845	54638.21
580.206	54522.06
580.566	54549.85
580.927	54612.67
581.287	54668.27
581.648	54597.53
582.008	54726.57
582.368	54643.63
582.728	54762.05
583.089	54624.2
583.449	54757.98
583.809	54728.6
584.169	54794.59
584.529	54691.99
584.889	54929.05
585.249	54769.28
585.609	54720.92
585.969	54865.32
586.329	54842.72
586.688	54827.58
587.048	54768.38
587.408	54825.55
587.768	54779.22
588.127	54828.71
588.487	54714.14
588.846	54950.52
589.206	54763.86
589.565	54769.28
589.925	54949.39
590.284	54819
590.643	54842.72
591.003	54951.87
591.362	54966.56
591.721	54941.71
592.08	54936.28
592.44	54980.12
592.799	55055.83
593.158	54960.69
593.517	54947.58
593.876	55018.99
594.235	54914.36
594.593	54985.55
594.952	54977.18
595.311	55002.27
595.67	55025.32
596.029	55170.17
596.387	55153.9
596.746	55251.3
597.104	55073
597.463	55182.15
597.822	55203.17
598.18	55082.27
598.538	55041.82
598.897	55251.98
599.255	55057.63
599.613	55350.73
599.972	55255.14
600.33	55318.19
600.688	55230.74
601.046	55304.63
601.404	55426.66
601.762	55394.8
602.12	55473.89
602.478	55440.22
602.836	55504.18
603.194	55405.65
603.552	55410.85
603.91	55437.96
604.268	55513.22
604.625	55489.94
604.983	55536.04
605.341	55436.83
605.698	55632.99
606.056	55690.84
606.413	55629.82
606.771	55676.15
607.128	55706.66
607.485	55651.06
607.843	55715.02
608.2	55782.59
608.557	55893.32
608.914	55789.37
609.272	55901.23
609.629	55938.74
609.986	56098.06
610.343	55993.43
610.7	56105.06
611.057	56082.92
611.414	56011.06
611.771	56082.69
612.127	56166.53
612.484	56133.09
612.841	56239.75
613.198	56107.32
613.554	56080.88
613.911	56277.04
614.267	56341.44
614.624	56202.01
614.98	56279.07
615.337	56451.72
615.693	56391.61
616.05	56306.64
616.406	56525.39
616.762	56360.65
617.118	56360.65
617.475	56362.46
617.831	56459.41
618.187	56450.37
618.543	56517.71
618.899	56597.48
619.255	56594.99
619.611	56542.79
619.967	56615.33
620.323	56660.08
620.678	56617.82
621.034	56529.91
621.39	56518.39
621.746	56510.7
622.101	56782.11
622.457	56547.54
622.812	56589.8
623.168	56619.85
623.523	56609.23
623.879	56693.52
624.234	56520.42
624.589	56656.69
624.945	56699.62
625.3	56606.52
625.655	56611.94
626.01	56688.33
626.365	56623.24
626.72	56569.91
627.075	56522.68
627.43	56550.93
627.785	56558.16
628.14	56579.63
628.495	56608.55
628.85	56529.46
629.205	56463.7
629.559	56586.41
629.914	56475.68
630.269	56431.16
630.623	56455.79
630.978	56397.03
631.332	56437.48
631.687	56519.74
632.041	56376.7
632.396	56378.96
632.75	56315.91
633.104	56399.52
633.459	56192.29
633.813	56200.43
634.167	56181.45
634.521	56139.41
634.875	56200.66
635.229	56137.15
635.583	55936.93
635.937	56005.18
636.291	55966.54
636.645	55922.7
636.999	55900.1
637.352	55948.23
637.706	55803.15
638.06	55820.78
638.413	55915.69
638.767	55762.47
639.121	55796.82
639.474	55596.38
639.828	55691.52
640.181	55596.38
640.534	55711.4
640.888	55520.9
641.241	55404.52
641.594	55562.48
641.947	55563.38
642.301	55450.17
642.654	55494.23
643.007	55381.02
643.36	55341.24
643.713	55280.91
644.066	55402.48
644.419	55178.76
644.771	55041.82
645.124	54759.79
645.477	54524.77
645.83	54537.87
646.182	54390.31
646.535	54297.2
646.888	54356.86
647.24	54194.38
647.593	54354.6
647.945	54271.67
648.298	54149.64
648.65	54024.44
649.002	53996.87
649.355	54072.8
649.707	54088.85
650.059	54251.1
650.411	54561.15
650.763	54589.85
651.115	54814.25
651.467	54590.53
651.819	54665.33
652.171	54578.1
652.523	54524.54
652.875	54510.08
653.227	54307.15
653.578	54575.61
653.93	54445.22
654.282	54402.28
654.633	54216.53
654.985	54265.79
655.337	54286.81
655.688	54258.56
656.039	54377.2
656.391	54073.71
656.742	54119.58
657.094	54144.89
657.445	54190.76
657.796	54139.69
658.147	54049.75
658.498	54043.88
658.849	54091.56
659.2	54006.59
659.551	53979.47
659.902	54148.73
660.253	53957.32
660.604	54000.94
660.955	53868.96
661.306	53985.35
661.656	53914.16
662.007	53920.04
662.358	53853.15
662.708	53842.98
663.059	53802.98
663.409	53739.02
663.76	53868.06
664.11	53850.89
664.461	53848.63
664.811	53766.59
665.161	53724.11
665.511	53661.96
665.862	53674.62
666.212	53829.42
666.562	53751.91
666.912	53736.09
667.262	53621.74
667.612	53593.72
667.962	53614.73
668.312	53568.86
668.662	53809.08
669.011	53617.45
669.361	53551.46
669.711	53482.31
670.06	53370.45
670.41	53408.86
670.76	53355.76
671.109	53484.79
671.459	53373.61
671.808	53374.74
672.157	53421.52
672.507	53207.29
672.856	53193.28
673.205	53228.76
673.554	53341.52
673.904	53202.99
674.253	53357.11
674.602	53136.55
674.951	52744.02
675.3	52624.93
675.649	53040.06
675.998	53045.71
676.346	53031.92
676.695	53136.55
677.044	52943.79
677.393	52990.12
677.741	53107.4
678.09	52906.28
678.438	52908.31
678.787	52889.33
679.135	52847.3
679.484	52547.19
679.832	52793.51
680.181	52603.24
680.529	52720.97
680.877	52584.03
681.225	52506.06
681.573	52735.89
681.922	52399.4
682.27	52370.7
682.618	52382
682.966	52240.76
683.314	52329.57
683.661	52232.85
684.009	52134.32
684.357	52032.63
684.705	51921.9
685.053	52035.79
685.4	51921.45
685.748	51793.31
686.095	51772.52
686.443	51624.5
686.79	51606.43
687.138	51594.45
687.485	51519.42
687.832	51385.64
688.18	51451.85
688.527	51198.3
688.874	51273.1
689.221	51193.56
689.568	51059.55
689.915	50900
690.262	51012.32
690.609	50847.35
690.956	50732.1
691.303	50719.9
691.65	50562.39
691.997	50557.19
692.344	50270.19
692.69	50259.79
693.037	50234.48
693.383	49993.36
693.73	50112.23
694.077	49987.26
694.423	49850.09
694.769	49725.12
695.116	49578.91
695.462	49624.1
695.808	49461.85
696.155	49467.72
696.501	49222.53
696.847	49161.74
697.193	48966.27
697.539	49060.96
697.885	48865.93
698.231	48737.8
698.577	48735.54
698.923	48595.21
699.269	48447.19
699.614	48248.55
699.96	48275.67
700.306	48237.93
700.651	48049.68
700.997	47849.69
701.342	47913.42
701.688	47777.15
702.033	47669.13
702.379	47588.9
702.724	47541.9
703.069	47589.58
703.415	47201.12
703.76	47078.41
704.105	47043.38
704.45	46989.37
704.795	46669.61
705.14	46625.77
705.485	46680
705.83	46518.2
706.175	46461.02
706.52	46364.3
706.865	46249.5
707.209	46117.3
707.554	46034.82
707.899	46042.96
708.243	45816.52
708.588	45713.25
708.932	45591.44
709.277	45495.17
709.621	45571.33
709.966	45216.31
710.31	45306.93
710.654	44960.5
710.998	45084.79
711.342	45024.45
711.687	44903.78
712.031	44700.84
712.375	44529.1
712.719	44591.69
713.063	44631.69
713.407	44622.88
713.75	44396.22
714.094	44438.7
714.438	44116.45
714.782	44241.65
715.125	43927.31
715.469	44188.54
715.812	43925.72
716.156	43675.33
716.499	43660.19
716.843	43661.55
717.186	43445.51
717.53	43572.51
717.873	43461.55
718.216	43455.23
718.559	43274.67
718.902	42970.49
719.246	43074.22
719.589	42870.84
719.932	42857.05
720.275	42676.49
720.617	42861.12
720.96	42687.34
721.303	42534.12
721.646	42538.87
721.989	42310.4
722.331	42616.15
722.674	42338.87
723.016	42310.85
723.359	42303.85
723.701	42188.82
724.044	41874.03
724.386	41735.05
724.729	41983.18
725.071	41737.53
725.413	41867.92
725.755	41765.78
726.097	41566.24
726.439	41262.74
726.782	41409.86
727.124	41590.87
727.465	41285.57
727.807	41349.29
728.149	41287.6
728.491	41136.64
728.833	41297.32
729.175	41088.96
729.516	40855.3
729.858	40789.53
730.199	40894.84
730.541	40687.16
730.882	40656.88
731.224	40785.69
731.565	40456.44
731.906	40432.03
732.248	40460.28
732.589	40345.03
732.93	40234.75
733.271	40196.78
733.612	40305.25
733.953	40179.61
734.294	40048.76
734.635	39847.19
734.976	39993.62
735.317	39756.12
735.658	39812.16
735.999	39665.5
736.339	39641.32
736.68	39671.82
737.021	39445.39
737.361	39374.43
737.702	39617.14
738.042	39404.03
738.383	39230.25
738.723	39301.66
739.063	39086.53
739.404	39129.01
739.744	39240.87
740.084	38931.05
740.424	38971.28
740.764	38933.09
741.104	38969.7
741.444	38670.04
741.784	38728.12
742.124	38655.35
742.464	38527
742.804	38583.04
743.143	38371.97
743.483	38487.45
743.823	38167
744.162	38265.76
744.502	38359.99
744.841	37981.47
745.181	38189.15
745.52	37990.51
745.86	38048.14
746.199	38025.09
746.538	38076.39
746.877	37859.67
747.216	37821.48
747.556	37754.81
747.895	37713.68
748.234	37515.72
748.573	37412.45
748.911	37509.17
749.25	37361.83
749.589	37280.93
749.928	37233.02
750.267	37138.33
750.605	37227.82
750.944	37075.28
751.283	36879.13
751.621	36876.64
751.96	36686.37
752.298	36728.17
752.636	36663.54
752.975	36466.03
753.313	36446.15
753.651	36461.74
753.989	36421.51
754.327	36237.56
754.666	35902.43
755.004	36024.01
755.342	36082.99
755.679	35999.6
756.017	35839.16
756.355	35868.08
756.693	35762.32
757.031	35556.45
757.368	35456.57
757.706	35396.68
758.044	35257.48
758.381	35304.26
758.719	35202.79
759.056	35052.51
759.394	35059.06
759.731	34672.86
760.068	34762.57
760.405	34476.03
760.743	34394
761.08	34448.46
761.417	34396.48
761.754	34233.32
762.091	34089.15
762.428	34054.34
762.765	33899.55
763.102	34020.67
763.438	33837.63
763.775	33638.08
764.112	33631.98
764.449	33638.54
764.785	33470.41
765.122	33164.65
765.458	33242.61
765.795	33084.2
766.131	32965.33
766.467	32975.5
766.804	32733.25
767.14	32412.81
767.476	32469.75
767.812	32403.99
768.148	32511.56
768.485	32086.71
768.821	32004
769.157	31986.6
769.492	31915.87
769.828	31891.01
770.164	31526.5
770.5	31404.47
770.836	31442.44
771.171	31281.54
771.507	31263.23
771.842	31046.97
772.178	30992.96
772.513	30837.93
772.849	30818.95
773.184	30696.24
773.519	30557.26
773.855	30392.29
774.19	30359.07
774.525	30275.46
774.86	30272.52
775.195	30119.08
775.53	29882.7
775.865	29783.27
776.2	29564.75
776.535	29510.74
776.87	29567.91
777.205	29330.63
777.539	29190.07
777.874	29235.94
778.209	29102.16
778.543	28866.91
778.878	28708.5
779.212	28720.47
779.547	28459.01
779.881	28624.2
780.215	28419.69
780.55	28486.58
780.884	28241.84
781.218	28117.1
781.552	28041.17
781.886	27986.71
782.22	27822.87
782.554	27840.5
782.888	27558.47
783.222	27343.56
783.556	27350.79
783.889	27205.94
784.223	27085.94
784.557	26941.54
784.89	27079.16
785.224	26870.35
785.557	26660.64
785.891	26683.47
786.224	26639.62
786.558	26586.07
786.891	26311.27
787.224	26238.05
787.557	26096.14
787.891	26099.98
788.224	26143.37
788.557	26010.71
788.89	25895.46
789.223	25866.99
789.556	25613.21
789.888	25561.23
790.221	25528.92
790.554	25283.05
790.887	25320.11
791.219	25224.07
791.552	25093.45
791.884	24987.46
792.217	24938.65
792.549	24903.17
792.882	24720.8
793.214	24646.68
793.546	24616.85
793.879	24435.39
794.211	24359.23
794.543	24487.59
794.875	24203.98
795.207	24341.61
795.539	24120.59
795.871	24157.43
796.203	24048.73
796.535	23773.49
796.867	23748.18
797.198	23590.44
797.53	23628.63
797.862	23519.48
798.193	23524.9
798.525	23445.36
798.856	23411.91
799.188	23120.17
799.519	23114.97
799.85	23020.28
800.182	22974.18
800.513	23060.06
800.844	22814.41
801.175	22964.01
801.506	22788.88
801.837	22723.34
802.168	22639.73
802.499	22555.21
802.83	22401.54
803.161	22345.05
803.491	22462.11
803.822	22325.61
804.153	22216.92
804.483	22058.5
804.814	22001.78
805.145	22019.18
805.475	21937.38
805.805	21881.56
806.136	21833.42
806.466	21817.83
806.796	21768.79
807.126	21538.97
807.457	21561.79
807.787	21442.7
808.117	21419.2
808.447	21342.36
808.777	21378.29
809.107	21272.76
809.436	21185.98
809.766	21162.25
810.096	21122.48
810.426	21021.24
810.755	21058.3
811.085	20926.33
811.414	20903.05
811.744	20700.8
812.073	20737.63
812.403	20572.67
812.732	20563.4
813.061	20549.84
813.39	20489.73
813.719	20409.96
814.049	20575.38
814.378	20406.79
814.707	20258.1
815.036	20278.44
815.365	20136.29
815.693	20041.15
816.022	19962.51
816.351	19995.28
816.68	19821.72
817.008	19856.07
817.337	19730.2
817.665	19768.62
817.994	19744.89
818.322	19684.78
818.651	19595.06
818.979	19574.95
819.307	19631.67
819.636	19562.3
819.964	19342.19
820.292	19509.19
820.62	19446.82
820.948	19410.21
821.276	19435.97
821.604	19414.73
821.932	19433.49
822.259	19428.06
822.587	19266.48
822.915	19283.89
823.243	19344.9
823.57	19317.78
823.898	19295.41
824.225	19303.55
824.553	19404.33
824.88	19365.47
825.207	19429.42
825.535	19256.54
825.862	19401.4
826.189	19217.45
826.516	19257.9
826.843	19362.3
827.17	19322.75
827.497	19283.89
827.824	19321.62
828.151	19311.23
828.478	19163.66
828.805	19416.31
829.131	19210.89
829.458	19259.71
829.785	19113.49
830.111	19219.25
830.438	19305.13
830.764	19191.91
831.09	19216.32
831.417	19059.94
831.743	19199.59
832.069	19165.02
832.395	19035.08
832.722	19182.65
833.048	19045.02
833.374	19127.96
833.7	18962.09
834.026	19008.86
834.351	19045.7
834.677	18932.03
835.003	19005.93
835.329	19030.56
835.654	18887.51
835.98	18806.38
836.306	18858.59
836.631	18826.72
836.956	18865.82
837.282	18824.01
837.607	18622.89
837.932	18715.99
838.258	18633.28
838.583	18761.19
838.908	18632.15
839.233	18565.03
839.558	18532.27
839.883	18461.08
840.208	18412.27
840.533	18438.03
840.858	18363.23
841.182	18469.44
841.507	18399.84
841.832	18257.25
842.156	18221.99
842.481	18269.45
842.805	18133.86
843.13	18014.54
843.454	18107.65
843.778	17981.1
844.103	17949.91
844.427	17921.89
844.751	17926.63
845.075	17870.36
845.399	17826.75
845.723	17799.63
846.047	17677.37
846.371	17602.12
846.695	17643.48
847.019	17425.18
847.343	17390.15
847.666	17320.77
847.99	17271.51
848.313	17219.99
848.637	17098.41
848.96	17032.87
849.284	16998.07
849.607	16874.68
849.931	16869.94
850.254	16669.27
850.577	16566.67
850.9	16503.85
851.223	16507.01
851.546	16436.5
851.869	16340.46
852.192	16378.2
852.515	16266.34
852.838	16191.54
853.161	16169.84
853.483	16191.99
853.806	15946.8
854.129	15968.72
854.451	15902.28
854.774	15813.24
855.096	15775.28
855.419	15811.66
855.741	15772.11
856.063	15572.34
856.385	15577.32
856.708	15464.78
857.03	15554.04
857.352	15500.26
857.674	15467.71
857.996	15351.79
858.318	15338.68
858.64	15336.42
858.961	15228.17
859.283	15176.87
859.605	15117.89
859.926	15186.14
860.248	15103.2
860.57	15019.82
860.891	14938.01
861.212	14898.01
861.534	14996.99
861.855	14969.65
862.176	14945.47
862.498	14922.19
862.819	14821.18
863.14	14756.1
863.461	14814.62
863.782	14638.13
864.103	14792.93
864.424	14634.74
864.745	14707.51
865.065	14629.32
865.386	14538.93
865.707	14585.03
866.027	14549.77
866.348	14484.01
866.668	14414.64
866.989	14462.77
867.309	14328.54
867.63	14345.71
867.95	14331.7
868.27	14239.95
868.59	14279.5
868.91	14165.83
869.23	14251.25
869.55	14223.45
869.87	14243.79
870.19	14193.4
870.51	14157.69
870.83	14183.45
871.15	14072.95
871.469	14051.03
871.789	14138.94
872.109	14066.85
872.428	13989.56
872.748	14047.87
873.067	14038.83
873.386	13992.05
873.706	13977.36
874.025	13839.73
874.344	13828.66
874.663	13811.71
874.982	13856.23
875.301	13831.37
875.62	13747.08
875.939	13753.18
876.258	13716.12
876.577	13644.71
876.896	13690.13
877.214	13647.42
877.533	13663.92
877.852	13652.17
878.17	13622.79
878.489	13604.49
878.807	13615.11
879.125	13548.22
879.444	13572.4
879.762	13462.8
880.08	13468.9
880.398	13398.16
880.716	13410.14
881.034	13296.47
881.352	13342.12
881.67	13317.26
881.988	13274.33
882.306	13261.45
882.624	13206.31
882.941	13115.01
883.259	13124.95
883.577	13119.75
883.894	13059.64
884.212	13051.73
884.529	13064.61
884.846	13042.69
885.164	13012.19
885.481	12865.3
885.798	13008.8
886.115	12863.72
886.432	12813.55
886.75	12870.95
887.067	12789.82
887.383	12761.8
887.7	12724.74
888.017	12684.51
888.334	12659.88
888.651	12608.58
888.967	12634.57
889.284	12550.73
889.6	12564.29
889.917	12445.42
890.233	12456.04
890.55	12418.3
890.866	12389.83
891.182	12353.9
891.498	12305.09
891.815	12275.93
892.131	12297.18
892.447	12150.06
892.763	12144.19
893.079	12054.02
893.395	12103.74
893.71	11999.56
894.026	12055.83
894.342	11970.41
894.657	11927.02
894.973	11846.34
895.289	11944.19
895.604	11798.88
895.92	11775.61
896.235	11701.94
896.55	11640.7
896.865	11707.81
897.181	11668.94
897.496	11623.07
897.811	11629.4
898.126	11526.8
898.441	11365.68
898.756	11383.53
899.071	11357.54
899.386	11372.68
899.7	11341.72
900.015	11262.85
900.33	11155.06
900.644	11135.85
900.959	11206.36
901.273	11019.7
901.588	11004.1
901.902	11011.79
902.216	10967.27
902.531	10903.77
902.845	10913.26
903.159	10800.94
903.473	10822.19
903.787	10747.16
904.101	10640.05
904.415	10723.66
904.729	10595.07
905.042	10584.68
905.356	10588.75
905.67	10541.06
905.984	10478.02
906.297	10468.07
906.611	10406.15
906.924	10373.61
907.237	10366.38
907.551	10271.47
907.864	10242.77
908.177	10209.55
908.491	10179.27
908.804	10171.13
909.117	10011.36
909.43	10016.78
909.743	9990.12
910.056	9992.83
910.368	9916.22
910.681	9933.4
910.994	9788.09
911.307	9768.66
911.619	9731.37
911.932	9663.57
912.244	9643.69
912.557	9634.2
912.869	9525.95
913.181	9557.14
913.494	9513.07
913.806	9450.02
914.118	9390.36
914.43	9398.5
914.742	9347.2
915.054	9212.29
915.366	9281.44
915.678	9209.35
915.99	9269.01
916.302	9149.69
916.613	9135.23
916.925	9073.98
917.236	9088.67
917.548	9017.71
917.859	8998.51
918.171	8888.9
918.482	8877.83
918.794	8813.43
919.105	8771.85
919.416	8791.96
919.727	8774.56
920.038	8710.38
920.349	8651.4
920.66	8600.78
920.971	8598.97
921.282	8540.44
921.593	8486.2
921.903	8466.09
922.214	8388.35
922.525	8435.81
922.835	8323.5
923.146	8326.21
923.456	8269.49
923.767	8236.72
924.077	8239.2
924.387	8238.3
924.697	8114.01
925.008	8078.76
925.318	8122.37
925.628	8099.77
925.938	8055.25
926.248	8005.54
926.558	7914.69
926.867	7898.87
927.177	7894.81
927.487	7816.39
927.796	7785.66
928.106	7756.73
928.416	7749.05
928.725	7687.81
929.034	7687.58
929.344	7646.45
929.653	7654.13
929.962	7538.88
930.271	7554.93
930.581	7499.79
930.89	7394.71
931.199	7407.14
931.508	7399.23
931.817	7383.18
932.125	7344.99
932.434	7297.08
932.743	7273.35
933.051	7239.68
933.36	7150.65
933.669	7127.37
933.977	7091.21
934.286	7129.85
934.594	7075.17
934.902	7020.03
935.21	6982.74
935.519	6973.93
935.827	6982.29
936.135	6869.3
936.443	6836.08
936.751	6819.13
937.059	6821.16
937.367	6717.66
937.674	6778
937.982	6759.92
938.29	6726.7
938.597	6685.57
938.905	6579.81
939.213	6618.91
939.52	6599.93
939.827	6560.15
940.135	6525.8
940.442	6496.43
940.749	6446.48
941.056	6465.24
941.363	6384.11
941.67	6390.44
941.977	6351.57
942.284	6277.22
942.591	6320.38
942.898	6255.53
943.205	6271.8
943.511	6189.99
943.818	6195.64
944.125	6117.68
944.431	6122.2
944.738	6099.83
945.044	6004.23
945.35	6070
945.657	5956.55
945.963	6026.61
946.269	5939.83
946.575	5952.03
946.881	5898.02
947.187	5883.11
947.493	5831.81
947.799	5844.24
948.105	5834.97
948.41	5743.45
948.716	5799.27
949.022	5746.39
949.327	5698.71
949.633	5602.66
949.938	5679.27
950.244	5646.5
950.549	5559.27
950.854	5595.66
951.16	5530.12
951.465	5533.74
951.77	5470.01
952.075	5472.95
952.38	5456
952.685	5409.67
952.99	5417.13
953.294	5432.95
953.599	5350.01
953.904	5338.72
954.209	5297.36
954.513	5319.06
954.818	5235.22
955.122	5255.55
955.426	5230.24
955.731	5149.12
956.035	5174.43
956.339	5160.87
956.643	5142.56
956.948	5106.86
957.252	5067.31
957.556	5088.1
957.86	5043.58
958.163	5035.45
958.467	4970.14
958.771	4971.27
959.075	4937.6
959.378	4907.09
959.682	4917.94
959.985	4863.02
960.289	4847.2
960.592	4816.7
960.896	4780.31
961.199	4738.05
961.502	4812.4
961.805	4752.52
962.108	4697.38
962.411	4719.97
962.714	4706.87
963.017	4635.46
963.32	4625.97
963.623	4592.07
963.926	4571.5
964.228	4598.85
964.531	4536.25
964.833	4506.65
965.136	4487.89
965.438	4444.05
965.741	4492.18
966.043	4497.16
966.345	4426.88
966.648	4419.64
966.95	4410.83
967.252	4328.8
967.554	4371.28
967.856	4344.39
968.158	4320.44
968.46	4283.83
968.761	4322.92
969.063	4210.61
969.365	4237.95
969.666	4232.98
969.968	4151.18
970.269	4177.39
970.571	4169.03
970.872	4153.44
971.174	4111.18
971.475	4133.78
971.776	4091.29
972.077	4050.39
972.378	4033.67
972.679	4061.91
972.98	4033.21
973.281	3970.62
973.582	3983.04
973.883	3935.14
974.183	3955.02
974.484	3967.23
974.785	3905.98
975.085	3935.81
975.386	3891.52
975.686	3837.51
975.986	3818.3
976.287	3827.12
976.587	3804.29
976.887	3798.64
977.187	3769.04
977.487	3755.71
977.787	3715.26
978.087	3715.48
978.387	3671.41
978.687	3670.51
978.987	3637.97
979.286	3612.89
979.586	3634.58
979.885	3637.07
980.185	3593.68
980.484	3569.04
980.784	3537.63
981.083	3513.45
981.382	3563.4
981.682	3526.33
981.981	3487.46
982.28	3479.33
982.579	3478.2
982.878	3445.88
983.177	3454.92
983.475	3444.08
983.774	3390.29
984.073	3401.14
984.372	3348.26
984.67	3401.14
984.969	3333.34
985.267	3349.84
985.566	3346
985.864	3336.96
986.162	3277.75
986.461	3268.04
986.759	3263.74
987.057	3241.82
987.355	3212.44
987.653	3228.94
987.951	3181.94
988.249	3192.11
988.547	3155.27
988.844	3128.83
989.142	3122.28
989.44	3157.76
989.737	3089.96
990.035	3095.61
990.332	3086.35
990.63	3047.93
990.927	3041.15
991.224	3034.82
991.521	2994.14
991.819	2981.26
992.116	2989.62
992.413	2990.53
992.71	2924.77
993.006	2961.83
993.303	2933.13
993.6	2905.33
993.897	2915.05
994.193	2906.46
994.49	2871.44
994.787	2826.47
995.083	2801.61
995.379	2832.57
995.676	2820.36
995.972	2771.1
996.268	2794.38
996.565	2776.75
996.861	2771.78
997.157	2758.67
997.453	2749.86
997.749	2697.2
998.044	2707.6
998.34	2716.41
998.636	2651.55
998.932	2661.5
999.227	2608.17
999.523	2637.77
999.818	2623.08
1000.114	2585.12
1000.409	2557.77
1000.704	2566.13
1001	2535.4
1001.295	2495.17
1001.59	2527.72
1001.885	2514.61
1002.18	2506.25
1002.475	2490.88
1002.77	2470.99
1003.065	2434.39
1003.359	2438
1003.654	2433.71
1003.949	2388.28
1004.243	2363.65
1004.538	2396.65
1004.832	2380.83
1005.127	2368.17
1005.421	2356.42
1005.715	2350.32
1006.009	2308.74
1006.304	2316.2
1006.598	2274.62
1006.892	2283.2
1007.186	2255.63
1007.48	2269.19
1007.773	2217.44
1008.067	2205.01
1008.361	2212.24
1008.655	2170.44
1008.948	2168.18
1009.242	2152.81
1009.535	2155.3
1009.829	2164.79
1010.122	2122.53
1010.415	2119.59
1010.708	2106.71
1011.001	2092.47
1011.295	2088.63
1011.588	2036.43
1011.881	2031.91
1012.173	2054.28
1012.466	2029.88
1012.759	2013.38
1013.052	2004.57
1013.344	2011.35
1013.637	1972.25
1013.93	1987.17
1014.222	1959.37
1014.514	1957.34
1014.807	1951.01
1015.099	1936.55
1015.391	1900.16
1015.683	1907.39
1015.976	1886.15
1016.268	1875.76
1016.56	1877.34
1016.851	1835.3
1017.143	1864.91
1017.435	1820.16
1017.727	1815.64
1018.018	1800.28
1018.31	1800.05
1018.602	1785.59
1018.893	1753.27
1019.185	1760.73
1019.476	1739.04
1019.767	1714.63
1020.058	1720.05
1020.35	1707.62
1020.641	1673.05
1020.932	1667.63
1021.223	1675.31
1021.514	1641.64
1021.804	1659.72
1022.095	1634.86
1022.386	1623.56
1022.677	1623.78
1022.967	1624.01
1023.258	1598.7
1023.548	1590.79
1023.839	1561.64
1024.129	1524.58
1024.419	1569.1
1024.709	1543.56
1025	1567.06
1025.29	1513.05
1025.58	1477.8
1025.87	1478.7
1026.16	1487.52
1026.449	1481.42
1026.739	1480.74
1027.029	1463.34
1027.319	1463.34
1027.608	1462.21
1027.898	1464.47
1028.187	1424.24
1028.477	1411.59
1028.766	1403.23
1029.055	1377.24
1029.344	1388.76
1029.634	1377.01
1029.923	1358.93
1030.212	1337.24
1030.501	1339.05
1030.79	1310.57
1031.078	1330.91
1031.367	1306.51
1031.656	1290.69
1031.945	1311.7
1032.233	1308.99
1032.522	1270.57
1032.81	1269.9
1033.099	1249.78
1033.387	1257.01
1033.675	1246.39
1033.963	1238.71
1034.251	1214.98
1034.54	1208.65
1034.828	1219.73
1035.116	1221.76
1035.403	1201.65
1035.691	1193.74
1035.979	1178.6
1036.267	1191.03
1036.554	1153.29
1036.842	1143.8
1037.129	1127.98
1037.417	1127.53
1037.704	1121.65
1037.992	1151.48
1038.279	1120.97
1038.566	1125.04
1038.853	1125.04
1039.14	1125.04
