Data from whiteboard_FLMS001491_00093.txt Node
Date: Wed Feb 08 11:28:44 GMT 2017
User: dcchb
Spectrometer: FLMS00149
Trigger mode: 0
Integration Time (sec): 2.000000E-2
Scans to average: 10
Electric dark correction enabled: true
Nonlinearity correction enabled: false
Boxcar width: 0
XAxis mode: Wavelengths
Number of Pixels in Spectrum: 2048
>>>>>Begin Spectral Data<<<<<
341.393	-9.19
341.776	-9.19
342.16	-9.19
342.543	-47.39
342.927	-49.65
343.31	-85.58
343.693	-60.04
344.077	-68.4
344.46	-61.62
344.843	-48.06
345.226	-37.89
345.61	-51.68
345.993	-13.71
346.376	-6.48
346.759	7.75
347.142	19.96
347.525	54.31
347.908	62.22
348.291	74.42
348.674	82.55
349.057	132.27
349.44	119.16
349.823	148.77
350.206	170.69
350.588	233.96
350.971	240.97
351.354	261.08
351.737	279.61
352.119	283.68
352.502	306.96
352.884	321.19
353.267	319.61
353.65	320.06
354.032	320.29
354.414	341.08
354.797	327.29
355.179	360.29
355.562	344.02
355.944	376.56
356.326	358.03
356.709	375.65
357.091	359.38
357.473	374.07
357.855	390.34
358.238	365.71
358.62	388.53
359.002	377.24
359.384	365.48
359.766	365.48
360.148	361.87
360.53	378.82
360.912	374.75
361.294	373.62
361.676	370.68
362.057	369.55
362.439	359.61
362.821	377.91
363.203	350.57
363.584	376.56
363.966	369.33
364.348	360.97
364.729	370
365.111	377.24
365.493	370.46
365.874	359.84
366.256	361.19
366.637	351.02
367.019	362.32
367.4	337.46
367.781	359.38
368.163	375.43
368.544	375.88
368.925	356.67
369.306	338.14
369.688	367.74
370.069	379.04
370.45	348.08
370.831	346.5
371.212	369.1
371.593	380.4
371.974	358.03
372.355	363.68
372.736	384.02
373.117	377.01
373.498	380.17
373.879	369.55
374.26	361.64
374.641	354.41
375.021	387.63
375.402	386.05
375.783	382.43
376.163	397.35
376.544	404.35
376.925	399.38
377.305	396.67
377.686	381.53
378.066	377.69
378.447	408.2
378.827	431.02
379.208	405.26
379.588	406.16
379.968	417.23
380.349	425.82
380.729	412.04
381.109	419.72
381.489	430.12
381.87	437.12
382.25	408.42
382.63	423.79
383.01	402.09
383.39	445.03
383.77	439.16
384.15	459.49
384.53	442.09
384.91	440.29
385.29	459.27
385.67	470.11
386.049	452.49
386.429	446.39
386.809	467.4
387.189	452.94
387.568	461.75
387.948	480.51
388.328	490.45
388.707	478.7
389.087	486.61
389.466	488.19
389.846	490.45
390.225	513.05
390.605	507.85
390.984	519.6
391.363	516.67
391.743	538.59
392.122	549.43
392.501	536.78
392.881	544.24
393.26	552.37
393.639	556.89
394.018	560.28
394.397	573.84
394.776	590.34
395.155	590.11
395.534	609.55
395.913	592.82
396.292	621.75
396.671	614.97
397.05	640.05
397.429	645.03
397.808	633.05
398.186	664.23
398.565	638.25
398.944	655.87
399.323	700.62
399.701	688.19
400.08	683.67
400.458	715.31
400.837	736.32
401.215	729.09
401.594	729.09
401.972	748.07
402.351	769.77
402.729	802.76
403.107	801.18
403.486	826.94
403.864	817.45
404.242	851.57
404.62	849.54
404.999	879.37
405.377	882.31
405.755	893.15
406.133	909.2
406.511	928.41
406.889	944.45
407.267	956.43
407.645	974.96
408.023	1009.76
408.401	1039.14
408.779	1046.82
409.156	1058.57
409.534	1066.26
409.912	1100.15
410.29	1156.88
410.667	1174.5
411.045	1163.2
411.422	1201.85
411.8	1229.42
412.178	1220.83
412.555	1242.98
412.933	1299.7
413.31	1315.06
413.687	1308.28
414.065	1337.89
414.442	1372.01
414.819	1395.06
415.197	1418.34
415.574	1434.16
415.951	1447.94
416.328	1471.67
416.705	1494.49
417.082	1497.21
417.46	1514.38
417.837	1555.06
418.214	1575.85
418.591	1595.51
418.967	1576.53
419.344	1640.25
419.721	1674.6
420.098	1668.73
420.475	1669.63
420.852	1699.69
421.228	1736.07
421.605	1741.04
421.982	1756.41
422.358	1799.35
422.735	1822.62
423.111	1824.88
423.488	1878.67
423.864	1877.54
424.241	1882.73
424.617	1943.3
424.994	1964.76
425.37	1938.78
425.746	1963.41
426.123	2011.54
426.499	1992.56
426.875	2044.31
427.251	2114.82
427.627	2120.69
428.003	2136.74
428.379	2195.49
428.756	2197.3
429.132	2204.31
429.507	2269.16
429.883	2289.5
430.259	2336.28
430.635	2355.49
431.011	2409.05
431.387	2438.88
431.763	2484.53
432.138	2541.02
432.514	2562.04
432.89	2563.85
433.265	2618.53
433.641	2650.62
434.016	2711.41
434.392	2714.58
434.767	2790.73
435.143	2780.34
435.518	2828.47
435.894	2837.06
436.269	2864.63
436.644	2931.97
437.02	2964.51
437.395	2962.7
437.77	3033.44
438.145	3078.63
438.52	3098.07
438.895	3097.16
439.271	3144.85
439.646	3194.34
440.021	3226.65
440.395	3244.51
440.77	3221.23
441.145	3275.46
441.52	3341.45
441.895	3324.05
442.27	3409.7
442.645	3411.51
443.019	3447.89
443.394	3440.43
443.769	3498.06
444.143	3521.79
444.518	3575.12
444.892	3537.38
445.267	3583.93
445.641	3618.73
446.016	3629.81
446.39	3673.19
446.764	3699.86
447.139	3729.46
447.513	3725.62
447.887	3740.31
448.262	3759.07
448.636	3770.37
449.01	3820.99
449.384	3905.28
449.758	3898.27
450.132	3932.17
450.506	3976.69
450.88	3981.66
451.254	4022.34
451.628	4085.16
452.002	4150.92
452.376	4165.38
452.75	4211.26
453.123	4251.94
453.497	4292.84
453.871	4342.56
454.244	4444.25
454.618	4490.8
454.992	4577.13
455.365	4594.75
455.739	4703.45
456.112	4739.38
456.486	4794.07
456.859	4822.32
457.232	4959.04
457.606	4944.12
457.979	5023.44
458.352	5075.87
458.725	5180.73
459.099	5222.08
459.472	5286.71
459.845	5374.62
460.218	5421.4
460.591	5435.86
460.964	5459.59
461.337	5585.46
461.71	5662.07
462.083	5782.52
462.456	5761.73
462.829	5801.27
463.201	5873.14
463.574	5909.29
463.947	6021.16
464.32	6198.1
464.692	6212.11
465.065	6283.07
465.438	6359.9
465.81	6462.5
466.183	6479.67
466.555	6675.15
466.928	6676.05
467.3	6695.94
467.672	6808.93
468.045	6996.27
468.417	6993.11
468.789	7112.43
469.161	7156.72
469.534	7329.37
469.906	7491.85
470.278	7515.35
470.65	7629.47
471.022	7747.89
471.394	7926.19
471.766	8037.83
472.138	8120.54
472.51	8280.3
472.882	8455.67
473.253	8499.28
473.625	8568.21
473.997	8786.51
474.369	8818.6
474.74	8947.18
475.112	9115.31
475.484	9296.55
475.855	9409.31
476.227	9489.99
476.598	9739.48
476.97	9891.79
477.341	10027.15
477.713	10127.49
478.084	10280.93
478.455	10490.64
478.827	10636.4
479.198	10972.89
479.569	10954.13
479.94	11377.85
480.311	11384.63
480.682	11594.34
481.053	11908.91
481.424	12093.54
481.795	12160.88
482.166	12466.86
482.537	12606.74
482.908	12946.17
483.279	13020.75
483.65	13272.49
484.021	13502.54
484.391	13720.16
484.762	13827.73
485.133	13910.67
485.503	14091
485.874	14585.9
486.244	14564.89
486.615	14928.94
486.985	15068.37
487.356	15359.89
487.726	15463.17
488.097	15779.09
488.467	15808.69
488.837	16142.02
489.207	16281.45
489.578	16503.59
489.948	16731.83
490.318	16919.4
490.688	17012.96
491.058	17199.17
491.428	17482.55
491.798	17555.54
492.168	17996.66
492.538	18016.77
492.908	18276.65
493.278	18473.94
493.648	18437.1
494.017	18745.34
494.387	18821.27
494.757	19028.04
495.126	19333.35
495.496	19381.03
495.866	19546.45
496.235	19718.42
496.605	20001.58
496.974	20110.95
497.344	20313.66
497.713	20426.2
498.082	20651.51
498.452	20662.58
498.821	20967.43
499.19	21036.13
499.559	21258.95
499.928	21459.85
500.298	21555.21
500.667	21743.91
501.036	21725.6
501.405	22023.22
501.774	22064.8
502.143	22208.98
502.512	22297.34
502.88	22587.95
503.249	22570.1
503.618	22706.37
503.987	22926.25
504.356	22963.76
504.724	23091.67
505.093	23255.28
505.462	23326.69
505.83	23403.75
506.199	23618.21
506.567	23906.56
506.936	23885.54
507.304	24132.54
507.672	24318.08
508.041	24362.37
508.409	24592.42
508.777	24708.35
509.145	24888.68
509.514	24961.22
509.882	25135
510.25	25278.5
510.618	25438.5
510.986	25639.17
511.354	25832.84
511.722	26137.01
512.09	26418.36
512.458	26374.74
512.826	26657.9
513.193	26809.08
513.561	26886.82
513.929	27130.66
514.297	27478.44
514.664	27674.15
515.032	27813.8
515.4	27965.21
515.767	28185.54
516.135	28474.12
516.502	28322.49
516.869	28818.3
517.237	29008.57
517.604	29113.66
517.972	29329.69
518.339	29469.13
518.706	29627.54
519.073	29668.9
519.44	29874.54
519.808	30263.23
520.175	30211.93
520.542	30655.31
520.909	30731.47
521.276	30718.81
521.643	31110.89
522.009	31173.26
522.376	31475.18
522.743	31574.61
523.11	31948.61
523.477	32223.63
523.843	32253.23
524.21	32734.35
524.577	32802.82
524.943	32892.99
525.31	33087.56
525.676	33340.21
526.043	33591.5
526.409	33813.19
526.776	34151.72
527.142	34255.44
527.508	34436.91
527.874	34780.17
528.241	34981.75
528.607	35184.68
528.973	35454.73
529.339	35536.76
529.705	35950.54
530.071	36198.89
530.437	36430.75
530.803	36646.56
531.169	36802.27
531.535	36794.81
531.901	37084.29
532.267	37379.88
532.632	37702.58
532.998	37797.95
533.364	38120.2
533.73	38179.18
534.095	38429.79
534.461	38573.97
534.826	38823.46
535.192	38849.9
535.557	39058.25
535.923	39180.06
536.288	39399.03
536.653	39566.49
537.019	39413.27
537.384	39700.95
537.749	39824.56
538.114	39923.99
538.479	40007.38
538.845	40017.78
539.21	40019.13
539.575	40178.45
539.94	40191.56
540.305	40528.5
540.67	40489.4
541.034	40758.09
541.399	40724.2
541.764	40844.19
542.129	40990.41
542.494	41233.11
542.858	41244.18
543.223	41174.58
543.587	41566.89
543.952	41452.31
544.316	41513.78
544.681	41658.18
545.045	41878.07
545.41	42217.04
545.774	42200.32
546.138	42316.92
546.503	42388.33
546.867	42458.16
547.231	42983.8
547.595	43076
547.959	43217.01
548.324	43223.57
548.688	43329.33
549.052	43645.02
549.416	43671.01
549.779	43843.66
550.143	43934.51
550.507	44362.97
550.871	44451.56
551.235	44460.37
551.599	44934.93
551.962	45002.73
552.326	45104.87
552.689	45370.86
553.053	45308.48
553.417	45351.42
553.78	45999.31
554.143	45657.85
554.507	45976.04
554.87	46107.33
555.234	46543.93
555.597	46342.35
555.96	46431.62
556.323	46556.13
556.686	46661.89
557.05	46983.92
557.413	47055.33
557.776	47060.75
558.139	47236.34
558.502	47452.16
558.865	47454.87
559.228	47572.15
559.59	47747.52
559.953	47874.07
560.316	48164.45
560.679	48109.54
561.041	48276.32
561.404	48416.88
561.767	48559.7
562.129	48481.73
562.492	48819.8
562.854	48823.42
563.217	48932.12
563.579	49032.45
563.941	49326.68
564.304	49409.62
564.666	49664.98
565.028	49688.03
565.39	49684.64
565.753	49865.43
566.115	50093.22
566.477	50205.98
566.839	50337.96
567.201	50685.97
567.563	50763.48
567.925	50954.66
568.287	51099.74
568.648	51068.33
569.01	51355.78
569.372	51676.9
569.734	51483.69
570.095	51854.53
570.457	52129.32
570.819	52181.3
571.18	52215.19
571.542	52410.9
571.903	52471.91
572.265	52488.63
572.626	52747.16
572.987	52725.92
573.349	52889.08
573.71	53002.07
574.071	53064.89
574.432	53176.53
574.794	53418.78
575.155	53434.6
575.516	53321.15
575.877	53510.53
576.238	53480.25
576.599	53774.48
576.96	53701.71
577.32	53695.16
577.681	53798.66
578.042	53838.65
578.403	53817.19
578.763	53703.07
579.124	53801.82
579.485	53858.32
579.845	53900.35
580.206	53863.74
580.566	53818.09
580.927	53849.73
581.287	53955.94
581.648	53842.95
582.008	53877.75
582.368	53791.88
582.728	53849.73
583.089	53781.48
583.449	53772.44
583.809	53891.31
584.169	53905.77
584.529	53832.1
584.889	54048.14
585.249	53838.2
585.609	53757.75
585.969	53916.62
586.329	53816.28
586.688	53985.09
587.048	53867.13
587.408	53787.36
587.768	53882.5
588.127	53972.66
588.487	53945.09
588.846	54157.97
589.206	53953.23
589.565	54022.38
589.925	54221.24
590.284	54150.74
590.643	54274.12
591.003	54276.38
591.362	54481.58
591.721	54378.98
592.08	54435.93
592.44	54607.22
592.799	54638.86
593.158	54676.6
593.517	54636.83
593.876	54694.9
594.235	54682.93
594.593	54691.29
594.952	54743.04
595.311	54716.15
595.67	54750.95
596.029	54858.74
596.387	54858.52
596.746	54900.32
597.104	54804.73
597.463	54818.74
597.822	54955.24
598.18	54800.66
598.538	54700.78
598.897	55012.64
599.255	54745.52
599.613	55070.49
599.972	54865.29
600.33	54945.74
600.688	54850.38
601.046	54885.86
601.404	54892.19
601.762	54814.67
602.12	54946.2
602.478	54877.72
602.836	54781.46
603.194	54614.23
603.552	54661.46
603.91	54576.49
604.268	54637.05
604.625	54574.91
604.983	54564.51
605.341	54486.55
605.698	54597.96
606.056	54617.62
606.413	54587.79
606.771	54647.9
607.128	54739.65
607.485	54555.7
607.843	54604.96
608.2	54759.99
608.557	54764.96
608.914	54687.45
609.272	54877.27
609.629	54889.7
609.986	54964.05
610.343	54909.14
610.7	55111.84
611.057	55021
611.414	55017.83
611.771	55057.15
612.127	55176.92
612.484	55223.48
612.841	55336.92
613.198	55205.62
613.554	55319.97
613.911	55529.46
614.267	55578.95
614.624	55558.84
614.98	55598.83
615.337	55830.24
615.693	55738.49
616.05	55821.2
616.406	56024.59
616.762	55911.37
617.118	55958.83
617.475	56024.13
617.831	56102.32
618.187	56082.21
618.543	56172.6
618.899	56264.13
619.255	56172.6
619.611	56218.93
619.967	56325.14
620.323	56304.8
620.678	56227.52
621.034	56161.76
621.39	56183.45
621.746	56093.28
622.101	56367.18
622.457	56156.79
622.812	56124.24
623.168	56196.79
623.523	56051.03
623.879	56138.48
624.234	55856
624.589	56023.91
624.945	55959.28
625.3	55981.2
625.655	55992.72
626.01	55926.96
626.365	55985.04
626.72	55834.76
627.075	55771.49
627.43	55647.42
627.785	55625.5
628.14	55671.83
628.495	55644.94
628.85	55559.29
629.205	55474.32
629.559	55567.2
629.914	55356.36
630.269	55449.23
630.623	55315.23
630.978	55198.39
631.332	55342.12
631.687	55354.55
632.041	55206.08
632.396	55285.17
632.75	55115.01
633.104	55199.75
633.459	55064.16
633.813	55027.32
634.167	55090.6
634.521	55098.28
634.875	55174.89
635.229	55131.5
635.583	54985.07
635.937	55073.88
636.291	55023.26
636.645	54996.59
636.999	55011.28
637.352	55118.85
637.706	54876.59
638.06	55030.94
638.413	54956.37
638.767	54961.34
639.121	55122.01
639.474	54932.19
639.828	54961.56
640.181	55063.26
640.534	55053.31
640.888	54959.3
641.241	54875.24
641.594	55000.88
641.947	55102.8
642.301	54955.01
642.654	55011.51
643.007	55039.08
643.36	55086.98
643.713	55060.32
644.066	55114.1
644.419	54936.93
644.771	54727.67
645.124	54425.31
645.477	54391.41
645.83	54140.57
646.182	54071.87
646.535	54007.69
646.888	54093.11
647.24	53936.28
647.593	54145.99
647.945	53997.07
648.298	53879.11
648.65	53768.83
649.002	53548.72
649.355	53627.36
649.707	53568.38
650.059	53600.47
650.411	53947.13
650.763	53830.75
651.115	54223.05
651.467	54068.93
651.819	53979.44
652.171	53828.94
652.523	53788.26
652.875	53715.49
653.227	53630.98
653.578	53735.83
653.93	53704.65
654.282	53516.63
654.633	53420.81
654.985	53420.81
655.337	53379.68
655.688	53374.49
656.039	53376.29
656.391	53152.57
656.742	53030.31
657.094	53111.22
657.445	53221.72
657.796	53118.22
658.147	53020.6
658.498	52941.5
658.849	53058.56
659.2	52960.94
659.551	52874.84
659.902	52972.46
660.253	52840.04
660.604	52911
660.955	52760.04
661.306	52905.57
661.656	52853.6
662.007	52837.33
662.358	52978.34
662.708	52935.4
663.059	52888.85
663.409	52679.36
663.76	52885.01
664.11	52882.3
664.461	52928.85
664.811	52963.65
665.161	52953.48
665.511	52998.9
665.862	52888.62
666.212	53015.4
666.562	53005.91
666.912	52924.1
667.262	52873.71
667.612	52973.59
667.962	53016.98
668.312	52895.63
668.662	53162.29
669.011	53090.88
669.361	53000.94
669.711	53033.93
670.06	52907.38
670.41	52925.46
670.76	53000.94
671.109	53046.36
671.459	52969.07
671.808	52851.56
672.157	52946.7
672.507	52793.48
672.856	52705.58
673.205	52795.29
673.554	52837.33
673.904	52723.88
674.253	52933.82
674.602	52781.96
674.951	52329.54
675.3	52141.52
675.649	52656.31
675.998	52592.13
676.346	52489.99
676.695	52645.92
677.044	52350.56
677.393	52513.72
677.741	52432.82
678.09	52319.37
678.438	52246.61
678.787	52137.46
679.135	52251.8
679.484	51899.72
679.832	52096.33
680.181	51762.33
680.529	51869.22
680.877	51705.15
681.225	51689.33
681.573	51806.62
681.922	51469.9
682.27	51385.39
682.618	51333.86
682.966	51266.29
683.314	51295.67
683.661	51124.38
684.009	50905.17
684.357	50824.72
684.705	50737.72
685.053	50761.22
685.4	50781.11
685.748	50501.12
686.095	50478.52
686.443	50314.68
686.79	50299.76
687.138	50253.21
687.485	50097.51
687.832	50125.98
688.18	50135.7
688.527	49933.67
688.874	49859.55
689.221	49736.16
689.568	49797.63
689.915	49641.7
690.262	49556.06
690.609	49354.25
690.956	49357.42
691.303	49336.17
691.65	49019.57
691.997	49120.36
692.344	48925.34
692.69	48950.2
693.037	48956.07
693.383	48655.51
693.73	48749.98
694.077	48471.79
694.423	48417.33
694.769	48429.98
695.116	48483.77
695.462	48391.11
695.808	48236.32
696.155	48237.45
696.501	48094.17
696.847	48248.52
697.193	47852.6
697.539	47967.4
697.885	47853.28
698.231	47761.3
698.577	47632.49
698.923	47649.44
699.269	47351.14
699.614	47305.04
699.96	47372.16
700.306	47272.5
700.651	47055.1
700.997	47042.68
701.342	47170.13
701.688	46979.63
702.033	46927.88
702.379	46929.68
702.724	46717.49
703.069	46795
703.415	46350.04
703.76	46331.28
704.105	46309.14
704.45	46214.22
704.795	46076.6
705.14	45895.36
705.485	45934.23
705.83	45770.84
706.175	45783.95
706.52	45637.97
706.865	45560.91
707.209	45465.54
707.554	45153.23
707.899	45527.24
708.243	45076.63
708.588	45106
708.932	44890.19
709.277	44838.89
709.621	44708.73
709.966	44367.49
710.31	44417.21
710.654	43917.33
710.998	44082.53
711.342	44054.51
711.687	43881.63
712.031	43607.51
712.375	43377.91
712.719	43478.7
713.063	43380.62
713.407	43441.64
713.75	43113.06
714.094	43017.7
714.438	42760.08
714.782	42893.86
715.125	42498.84
715.469	42638.05
715.812	42382.23
716.156	42121.9
716.499	42189.24
716.843	42190.83
717.186	41879.87
717.53	42091.17
717.873	41959.42
718.216	41862.25
718.559	41678.97
718.902	41271.3
719.246	41373.67
719.589	41194.69
719.932	40988.15
720.275	40920.58
720.617	41015.72
720.96	40784.76
721.303	40771.65
721.646	40809.62
721.989	40461.15
722.331	40796.96
722.674	40473.81
723.016	40433.13
723.359	40234.27
723.701	40439.01
724.044	40102.29
724.386	39878.34
724.729	40216.41
725.071	40211.22
725.413	40089.19
725.755	40015.97
726.097	39911.11
726.439	39554.74
726.782	39547.28
727.124	39936.65
727.465	39657.78
727.807	39401.52
728.149	39438.81
728.491	39355.65
728.833	39505.47
729.175	39145.03
729.516	39119.27
729.858	39046.95
730.199	39146.84
730.541	39135.54
730.882	39122.43
731.224	39068.2
731.565	38876.11
731.906	39038.59
732.248	38993.85
732.589	38930.8
732.93	38887.18
733.271	38927.41
733.612	38954.75
733.953	38879.95
734.294	38771.71
734.635	38698.26
734.976	38862.55
735.317	38507.08
735.658	38711.37
735.999	38697.81
736.339	38646.51
736.68	38655.55
737.021	38487.87
737.361	38248.1
737.702	38498.27
738.042	38414.65
738.383	38373.52
738.723	38268.22
739.063	38246.07
739.404	38215.11
739.744	38051.05
740.084	37942.8
740.424	38049.01
740.764	37945.51
741.104	38016.02
741.444	37752.07
741.784	37571.06
742.124	37736.93
742.464	37678.63
742.804	37603.6
743.143	37448.8
743.483	37388.92
743.823	37074.8
744.162	37244.29
744.502	37326.09
744.841	36951.42
745.181	37136.95
745.52	36937.63
745.86	37036.84
746.199	36950.29
746.538	36708.48
746.877	36796.84
747.216	36756.17
747.556	36553.46
747.895	36671.65
748.234	36337.65
748.573	36274.15
748.911	36282.73
749.25	36155.05
749.589	35954.83
749.928	35947.15
750.267	36005.23
750.605	35764.1
750.944	35629.64
751.283	35508.06
751.621	35342.42
751.96	35181.29
752.298	35218.35
752.636	35187.39
752.975	34816.33
753.313	34788.53
753.651	34868.53
753.989	34607.75
754.327	34527.75
754.666	34325.04
755.004	34316.68
755.342	34276.01
755.679	34148.55
756.017	34072.62
756.355	33929.12
756.693	33727.77
757.031	33839.63
757.368	33448.68
757.706	33506.53
758.044	33339.53
758.381	33402.13
758.719	33075.59
759.056	33179.54
759.394	32848.7
759.731	32808.93
760.068	32657.97
760.405	32603.06
760.743	32616.39
761.08	32533.9
761.417	32415.94
761.754	32328.94
762.091	32360.8
762.428	32234.93
762.765	31917.65
763.102	32067.93
763.438	31852.57
763.775	31754.72
764.112	31750.87
764.449	31750.2
764.785	31683.98
765.122	31362.41
765.458	31278.8
765.795	31236.54
766.131	31184.34
766.467	31110.44
766.804	31074.51
767.14	30904.79
767.476	30765.14
767.812	30651.02
768.148	30967.62
768.485	30607.63
768.821	30626.84
769.157	30502.55
769.492	30399.95
769.828	30330.12
770.164	30165.83
770.5	30147.3
770.836	30136
771.171	29936.91
771.507	29891.26
771.842	29681.1
772.178	29743.92
772.513	29576.24
772.849	29567.88
773.184	29413.76
773.519	29307.1
773.855	29321.33
774.19	29131.51
774.525	29230.94
774.86	29029.59
775.195	28875.02
775.53	28917.05
775.865	28856.26
776.2	28523.16
776.535	28464.18
776.87	28374.92
777.205	28378.99
777.539	28186.67
777.874	28301.02
778.209	28119.11
778.543	28121.37
778.878	27766.57
779.212	27859.23
779.547	27637.54
779.881	27840.47
780.215	27501.72
780.55	27591.21
780.884	27322.29
781.218	27361.61
781.552	27357.54
781.886	27160.49
782.22	26935.86
782.554	26909.65
782.888	26668.75
783.222	26640.27
783.556	26539.94
783.889	26480.96
784.223	26220.62
784.557	26149.21
784.89	26181.76
785.224	26026.05
785.557	25860.86
785.891	25718.26
786.224	25598.49
786.558	25504.71
786.891	25347.65
787.224	25298.39
787.557	25138.62
787.891	25168.67
788.224	25024.5
788.557	25033.31
788.89	24969.58
789.223	24765.75
789.556	24586.32
789.888	24564.62
790.221	24412.31
790.554	24245.53
790.887	24099.1
791.219	24133.67
791.552	24038.76
791.884	24011.19
792.217	23878.09
792.549	23605.33
792.882	23442.84
793.214	23343.64
793.546	23417.99
793.879	23156.3
794.211	23043.76
794.543	23122.4
794.875	22971.44
795.207	23061.84
795.539	22715.63
795.871	22858
796.203	22588.4
796.535	22449.2
796.867	22348.64
797.198	22355.42
797.53	22222.54
797.862	22030.45
798.193	22077.91
798.525	21952.04
798.856	21987.74
799.188	21811.02
799.519	21653.29
799.85	21601.54
800.182	21571.93
800.513	21501.43
800.844	21283.58
801.175	21371.03
801.506	21256.91
801.837	21219.17
802.168	21031.61
802.499	21039.74
802.83	20915.45
803.161	20837.26
803.491	20854.21
803.822	20787.32
804.153	20756.36
804.483	20573.99
804.814	20552.75
805.145	20449.48
805.475	20439.08
805.805	20362.93
806.136	20345.3
806.466	20332.19
806.796	20284.06
807.126	20215.58
807.457	20130.39
807.787	20154.79
808.117	20033.89
808.447	20064.63
808.777	20096.94
809.107	19968.36
809.436	19870.06
809.766	19867.12
810.096	19836.16
810.426	19730.85
810.755	19872.54
811.085	19764.52
811.414	19659.44
811.744	19572.21
812.073	19639.55
812.403	19587.13
812.732	19442.27
813.061	19466.45
813.39	19396.62
813.719	19346.45
814.049	19407.47
814.378	19444.76
814.707	19325.66
815.036	19269.39
815.365	19239.11
815.693	19065.78
816.022	19026.24
816.351	19033.02
816.68	18990.76
817.008	19020.59
817.337	18867.37
817.665	18854.49
817.994	18912.79
818.322	18841.61
818.651	18858.11
818.979	18729.52
819.307	18822.63
819.636	18777.66
819.964	18668.51
820.292	18835.51
820.62	18682.97
820.948	18694.49
821.276	18666.25
821.604	18588.96
821.932	18673.25
822.259	18703.76
822.587	18604.55
822.915	18654.27
823.243	18613.59
823.57	18571.11
823.898	18637.55
824.225	18541.96
824.553	18570.43
824.88	18574.5
825.207	18649.98
825.535	18609.52
825.862	18656.08
826.189	18673.48
826.516	18670.54
826.843	18619.47
827.17	18611.33
827.497	18605.68
827.824	18621.05
828.151	18579.92
828.478	18453.37
828.805	18587.83
829.131	18451.79
829.458	18430.09
829.785	18245.47
830.111	18293.6
830.438	18518
830.764	18399.81
831.09	18411.11
831.417	18252.25
831.743	18366.14
832.069	18274.39
832.395	18196.43
832.722	18264
833.048	18203.43
833.374	18201.85
833.7	18103.32
834.026	18126.37
834.351	18073.72
834.677	18092.7
835.003	17995.08
835.329	17942.2
835.654	18000.73
835.98	17802.54
836.306	17845.93
836.631	17761.86
836.956	17816.1
837.282	17707.85
837.607	17591.02
837.932	17516.45
838.258	17596.22
838.583	17545.6
838.908	17404.81
839.233	17480.74
839.558	17421.99
839.883	17293.4
840.208	17213.86
840.533	17188.09
840.858	17225.38
841.182	17204.59
841.507	17164.37
841.832	17102.45
842.156	16940.19
842.481	16972.51
842.805	16958.72
843.13	16785.39
843.454	16693.64
843.778	16664.94
844.103	16644.83
844.427	16632.85
844.751	16613.65
845.075	16609.58
845.399	16472.63
845.723	16389.7
846.047	16462.69
846.371	16212.53
846.695	16213.43
847.019	16046.65
847.343	15921.91
847.666	15840.11
847.99	15903.83
848.313	15764.63
848.637	15728.02
848.96	15688.02
849.284	15660.9
849.607	15612.32
849.931	15590.85
850.254	15435.14
850.577	15382.49
850.9	15231.53
851.223	15274.92
851.546	15055.04
851.869	15133.68
852.192	15164.19
852.515	15020.24
852.838	15041.48
853.161	15002.39
853.483	15009.85
853.806	14852.79
854.129	14773.47
854.451	14746.58
854.774	14713.13
855.096	14676.52
855.419	14662.06
855.741	14597.43
856.063	14567.37
856.385	14626.13
856.708	14426.58
857.03	14415.74
857.352	14454.38
857.674	14422.29
857.996	14372.35
858.318	14330.09
858.64	14317.89
858.961	14335.96
859.283	14217.32
859.605	14235.4
859.926	14254.39
860.248	14134.16
860.57	14064.56
860.891	14166.93
861.212	14168.29
861.534	14101.85
861.855	14033.83
862.176	14097.33
862.498	14073.6
862.819	14008.97
863.14	13981.62
863.461	13912.02
863.782	13994.05
864.103	14007.84
864.424	13896.43
864.745	13874.06
865.065	13893.26
865.386	13815.07
865.707	13773.95
866.027	13877.67
866.348	13821.18
866.668	13834.74
866.989	13830.22
867.309	13724.68
867.63	13749.99
867.95	13669.32
868.27	13718.58
868.59	13771.91
868.91	13667.96
869.23	13720.16
869.55	13650.33
869.87	13676.77
870.19	13709.77
870.51	13595.19
870.83	13691.69
871.15	13538.02
871.469	13568.98
871.789	13589.32
872.109	13569.43
872.428	13431.81
872.748	13488.53
873.067	13396.33
873.386	13449.21
873.706	13474.07
874.025	13412.37
874.344	13347.06
874.663	13315.88
874.982	13365.82
875.301	13333.05
875.62	13318.14
875.939	13257.35
876.258	13213.73
876.577	13213.51
876.896	13125.15
877.214	13097.35
877.533	13056.68
877.852	13052.16
878.17	13114.53
878.489	13097.81
878.807	13062.33
879.125	12892.39
879.444	12887.42
879.762	12841.09
880.08	12934.19
880.398	12837.25
880.716	12811.71
881.034	12828.66
881.352	12655.33
881.67	12674.77
881.988	12688.78
882.306	12631.83
882.624	12517.48
882.941	12565.39
883.259	12420.31
883.577	12338.28
883.894	12344.6
884.212	12402.46
884.529	12229.13
884.846	12279.07
885.164	12230.48
885.481	12192.07
885.798	12266.87
886.115	11978.51
886.432	12032.75
886.75	11997.04
887.067	12003.37
887.383	11912.75
887.7	11885.63
888.017	11810.38
888.334	11831.62
888.651	11784.85
888.967	11733.55
889.284	11614.45
889.6	11559.77
889.917	11511.41
890.233	11442.71
890.55	11414.91
890.866	11450.17
891.182	11406.32
891.498	11335.82
891.815	11277.29
892.131	11189.83
892.447	11205.88
892.763	11116.39
893.079	11103.06
893.395	11033
893.71	10961.36
894.026	11051.76
894.342	10992.78
894.657	10937.64
894.973	10869.62
895.289	10858.99
895.604	10800.46
895.92	10708.26
896.235	10684.08
896.55	10657.19
896.865	10704.42
897.181	10597.98
897.496	10627.59
897.811	10582.39
898.126	10456.74
898.441	10415.84
898.756	10368.61
899.071	10282.06
899.386	10385.33
899.7	10255.39
900.015	10207.94
900.33	10137.66
900.644	10200.71
900.959	10125.91
901.273	10018.11
901.588	9990.32
901.902	9977.44
902.216	10018.11
902.531	9962.29
902.845	9899.7
903.159	9912.35
903.473	9834.61
903.787	9805.91
904.101	9724.56
904.415	9739.02
904.729	9796.65
905.042	9763.88
905.356	9742.64
905.67	9662.87
905.984	9671.23
906.297	9596.65
906.611	9529.31
906.924	9561.63
907.237	9484.34
907.551	9452.7
907.864	9474.62
908.177	9434.85
908.491	9408.64
908.804	9352.59
909.117	9269.66
909.43	9294.52
909.743	9309.88
910.056	9216.33
910.368	9183.56
910.681	9166.38
910.994	9116.67
911.307	9063.79
911.619	8977.91
911.932	9096.55
912.244	8984.47
912.557	9001.64
912.869	8979.95
913.181	8980.85
913.494	8877.13
913.806	8851.82
914.118	8817.01
914.43	8780.86
914.742	8845.94
915.054	8793.06
915.366	8765.94
915.678	8708.32
915.99	8689.11
916.302	8597.36
916.613	8624.02
916.925	8555.55
917.236	8650.69
917.548	8570.69
917.859	8575.66
918.171	8498.15
918.482	8442.11
918.794	8412.96
919.105	8377.25
919.416	8330.25
919.727	8297.48
920.038	8331.83
920.349	8227.2
920.66	8224.04
920.971	8235.33
921.282	8284.37
921.593	8121.21
921.903	8091.84
922.214	8153.3
922.525	8045.96
922.835	7990.14
923.146	7995.57
923.456	8023.81
923.767	7868.79
924.077	7949.01
924.387	7901.56
924.697	7824.5
925.008	7819.53
925.318	7865.17
925.628	7788.57
925.938	7749.47
926.248	7664.95
926.558	7683.03
926.867	7631.96
927.177	7578.85
927.487	7563.71
927.796	7504.96
928.106	7496.82
928.416	7432.64
928.725	7405.07
929.034	7437.39
929.344	7439.87
929.653	7332.53
929.962	7300.9
930.271	7269.71
930.581	7190.39
930.89	7192.88
931.199	7196.27
931.508	7130.96
931.817	7112.65
932.125	7057.96
932.434	7075.14
932.743	7002.6
933.051	6932.09
933.36	6868.14
933.669	6858.42
933.977	6806.67
934.286	6773.9
934.594	6750.4
934.902	6728.48
935.21	6702.04
935.519	6680.35
935.827	6667.47
936.135	6558.32
936.443	6634.02
936.751	6481.93
937.059	6512.44
937.367	6420.69
937.674	6405.55
937.982	6393.57
938.29	6355.61
938.597	6302.73
938.905	6216.18
939.213	6246.23
939.52	6187.03
939.827	6137.76
940.135	6024.54
940.442	6099.57
940.749	6051.44
941.056	6108.84
941.363	6020.48
941.67	5974.83
941.977	5961.27
942.284	5917.43
942.591	5899.8
942.898	5857.32
943.205	5837.21
943.511	5701.16
943.818	5764.89
944.125	5723.54
944.431	5684.67
944.738	5623.2
945.044	5610.09
945.35	5539.36
945.657	5508.63
945.963	5528.74
946.269	5445.13
946.575	5450.77
946.881	5432.7
947.187	5348.18
947.493	5370.1
947.799	5340.5
948.105	5292.36
948.41	5207.62
948.716	5246.03
949.022	5205.58
949.327	5203.78
949.633	5146.83
949.938	5152.48
950.244	5087.39
950.549	5099.15
950.854	5029.99
951.16	5066.6
951.465	5009.66
951.77	5020.28
952.075	4974.4
952.38	4952.26
952.685	4899.6
952.99	4816.22
953.294	4901.41
953.599	4849.66
953.904	4815.31
954.209	4755.65
954.513	4747.74
954.818	4695.09
955.122	4682.43
955.426	4715.2
955.731	4666.39
956.035	4651.7
956.339	4586.62
956.643	4617.8
956.948	4569.44
957.252	4576.22
957.556	4554.75
957.86	4499.16
958.163	4525.38
958.467	4456
958.771	4450.8
959.075	4472.95
959.378	4425.04
959.682	4459.84
959.985	4381.42
960.289	4372.84
960.592	4333.74
960.896	4315.89
961.199	4329.45
961.502	4296.23
961.805	4281.77
962.108	4254.65
962.411	4278.83
962.714	4190.92
963.017	4176.23
963.32	4181.66
963.623	4133.52
963.926	4124.48
964.228	4124.26
964.531	4087.65
964.833	4084.03
965.136	4070.92
965.438	4055.33
965.741	4093.3
966.043	4032.05
966.345	4055.33
966.648	4017.59
966.95	4025.28
967.252	3952.28
967.554	3965.84
967.856	3954.54
968.158	3933.75
968.46	3926.3
968.761	3914.09
969.063	3887.43
969.365	3903.02
969.666	3850.36
969.968	3852.85
970.269	3867.77
970.571	3802.46
970.872	3814.43
971.174	3802.91
971.475	3795.23
971.776	3800.42
972.077	3806.07
972.378	3764.04
972.679	3775.56
972.98	3754.32
973.281	3727.88
973.582	3770.59
973.883	3700.99
974.183	3676.81
974.484	3660.54
974.785	3660.77
975.085	3650.6
975.386	3646.98
975.686	3687.66
975.986	3639.75
976.287	3668.45
976.587	3584.16
976.887	3580.32
977.187	3600.65
977.487	3573.54
977.787	3562.91
978.087	3543.71
978.387	3493.09
978.687	3562.24
978.987	3507.1
979.286	3438.4
979.586	3492.41
979.885	3433.88
980.185	3442.47
980.484	3437.04
980.784	3367.44
981.083	3384.84
981.382	3363.82
981.682	3412.18
981.981	3393.2
982.28	3339.64
982.579	3295.13
982.878	3339.19
983.177	3308.23
983.475	3298.06
983.774	3242.7
984.073	3278.63
984.372	3266.43
984.67	3224.17
984.969	3208.35
985.267	3229.36
985.566	3195.24
985.864	3191.17
986.162	3186.88
986.461	3158.18
986.759	3169.03
987.057	3125.86
987.355	3103.49
987.653	3097.39
987.951	3066.88
988.249	3114.34
988.547	3095.13
988.844	3051.74
989.142	3052.87
989.44	3007.45
989.737	2978.98
990.035	2985.75
990.332	2964.06
990.63	2934.68
990.927	2977.85
991.224	2923.16
991.521	2954.12
991.819	2881.12
992.116	2894.23
992.413	2885.64
992.71	2910.5
993.006	2878.41
993.303	2814.69
993.6	2816.95
993.897	2809.26
994.193	2756.16
994.49	2748.47
994.787	2760.45
995.083	2755.03
995.379	2731.3
995.676	2692.66
995.972	2696.72
996.268	2660.11
996.565	2683.39
996.861	2608.14
997.157	2640.68
997.453	2583.96
997.749	2598.87
998.044	2560.68
998.34	2577.4
998.636	2548.48
998.932	2526.56
999.227	2520.46
999.523	2510.06
999.818	2470.29
1000.114	2449.95
1000.409	2482.94
1000.704	2439.78
1001	2414.02
1001.295	2374.02
1001.59	2396.39
1001.885	2396.62
1002.18	2317.52
1002.475	2322.04
1002.77	2326.34
1003.065	2305.09
1003.359	2283.63
1003.654	2254.7
1003.949	2256.06
1004.243	2272.1
1004.538	2237.53
1004.832	2222.84
1005.127	2208.83
1005.421	2179.9
1005.715	2150.75
1006.009	2175.15
1006.304	2149.17
1006.598	2157.98
1006.892	2115.5
1007.186	2094.03
1007.48	2087.7
1007.773	2073.01
1008.067	2068.04
1008.361	2058.32
1008.655	2010.64
1008.948	1997.31
1009.242	1998.66
1009.535	1983.3
1009.829	1991.66
1010.122	1963.86
1010.415	1919.57
1010.708	1957.99
1011.001	1932
1011.295	1895.16
1011.588	1895.84
1011.881	1874.82
1012.173	1872.56
1012.466	1854.49
1012.759	1850.64
1013.052	1818.1
1013.344	1814.49
1013.637	1821.27
1013.93	1799.8
1014.222	1781.94
1014.514	1765
1014.807	1775.17
1015.099	1731.78
1015.391	1701.72
1015.683	1719.57
1015.976	1702.17
1016.268	1713.47
1016.56	1678.44
1016.851	1685.22
1017.143	1642.97
1017.435	1660.14
1017.727	1672.12
1018.018	1613.59
1018.31	1613.14
1018.602	1597.54
1018.893	1575.62
1019.185	1572.01
1019.476	1551.67
1019.767	1567.49
1020.058	1531.56
1020.35	1543.08
1020.641	1542.85
1020.932	1496.98
1021.223	1485.68
1021.514	1493.14
1021.804	1470.09
1022.095	1443.87
1022.386	1460.37
1022.677	1449.3
1022.967	1454.27
1023.258	1406.59
1023.548	1429.86
1023.839	1421.95
1024.129	1440.71
1024.419	1412.24
1024.709	1409.98
1025	1367.04
1025.29	1393.25
1025.58	1329.98
1025.87	1337.44
1026.16	1329.98
1026.449	1349.64
1026.739	1345.35
1027.029	1340.6
1027.319	1313.48
1027.608	1296.99
1027.898	1294.73
1028.187	1293.6
1028.477	1306.25
1028.766	1283.65
1029.055	1283.43
1029.344	1239.13
1029.634	1246.37
1029.923	1249.53
1030.212	1228.06
1030.501	1227.16
1030.79	1198.91
1031.078	1189.19
1031.367	1201.62
1031.656	1183.54
1031.945	1183.09
1032.233	1179.7
1032.522	1176.76
1032.81	1167.05
1033.099	1162.07
1033.387	1151.23
1033.675	1165.92
1033.963	1148.29
1034.251	1146.26
1034.54	1145.58
1034.828	1140.38
1035.116	1134.5
1035.403	1121.4
1035.691	1098.8
1035.979	1096.99
1036.267	1084.56
1036.554	1090.66
1036.842	1082.08
1037.129	1043.88
1037.417	1054.28
1037.704	1031.46
1037.992	1057.9
1038.279	1040.04
1038.566	1018.8
1038.853	1018.8
1039.14	1018.8
