Data from white_poster_card_FLMS001491_00019.txt Node
Date: Wed Feb 08 11:51:10 GMT 2017
User: dcchb
Spectrometer: FLMS00149
Trigger mode: 0
Integration Time (sec): 2.000000E-2
Scans to average: 10
Electric dark correction enabled: true
Nonlinearity correction enabled: false
Boxcar width: 0
XAxis mode: Wavelengths
Number of Pixels in Spectrum: 2048
>>>>>Begin Spectral Data<<<<<
341.393	15.48
341.776	15.48
342.16	15.48
342.543	-50.51
342.927	-67.46
343.31	-74.46
343.693	-78.3
344.077	-60
344.46	-55.25
344.843	-43.5
345.226	-41.69
345.61	-38.08
345.993	-30.62
346.376	-1.92
346.759	14.8
347.142	30.85
347.525	18.19
347.908	68.13
348.291	71.07
348.674	111.52
349.057	109.26
349.44	123.5
349.823	138.64
350.206	163.95
350.588	192.42
350.971	211.63
351.354	220.45
351.737	254.8
352.119	252.08
352.502	257.51
352.884	256.15
353.267	254.12
353.65	295.47
354.032	291.18
354.414	291.4
354.797	300.22
355.179	305.19
355.562	325.98
355.944	324.4
356.326	321.01
356.709	321.46
357.091	326.66
357.473	347.22
357.855	340.89
358.238	327.34
358.62	325.98
359.002	359.2
359.384	341.12
359.766	345.87
360.148	335.47
360.53	357.39
360.912	333.66
361.294	327.34
361.676	349.26
362.057	348.13
362.439	345.64
362.821	319.43
363.203	335.7
363.584	339.99
363.966	355.58
364.348	326.21
364.729	321.91
365.111	336.38
365.493	325.98
365.874	320.1
366.256	322.36
366.637	307.68
367.019	316.04
367.4	320.78
367.781	323.04
368.163	321.46
368.544	309.94
368.925	316.94
369.306	316.49
369.688	325.08
370.069	319.65
370.45	322.82
370.831	319.43
371.212	331.4
371.593	318.52
371.974	309.03
372.355	336.38
372.736	329.14
373.117	317.39
373.498	298.18
373.879	328.01
374.26	329.14
374.641	322.36
375.021	335.25
375.402	335.47
375.783	305.42
376.163	321.46
376.544	331.4
376.925	351.74
377.305	345.64
377.686	319.65
378.066	343.83
378.447	325.98
378.827	338.64
379.208	332.53
379.588	351.29
379.968	323.95
380.349	329.14
380.729	340.44
381.109	347.9
381.489	358.75
381.87	342.02
382.25	341.12
382.63	340.44
383.01	345.64
383.39	344.51
383.77	345.87
384.15	355.13
384.53	364.62
384.91	335.47
385.29	354.23
385.67	360.1
386.049	359.88
386.429	360.1
386.809	366.43
387.189	367.11
387.568	368.01
387.948	358.52
388.328	365.53
388.707	364.17
389.087	368.01
389.466	376.6
389.846	392.19
390.225	387.22
390.605	396.94
390.984	405.3
391.363	387.9
391.743	393.1
392.122	409.14
392.501	396.49
392.881	384.06
393.26	401.91
393.639	405.98
394.018	412.31
394.397	379.76
394.776	415.92
395.155	413.66
395.534	413.66
395.913	399.42
396.292	429.25
396.671	422.02
397.05	420.21
397.429	441.23
397.808	405.3
398.186	443.49
398.565	459.54
398.944	419.99
399.323	428.12
399.701	428.8
400.08	445.53
400.458	437.84
400.837	442.59
401.215	468.8
401.594	451.63
401.972	477.84
402.351	472.19
402.729	471.51
403.107	456.15
403.486	477.84
403.864	460.67
404.242	467.67
404.62	486.65
404.999	482.13
405.377	487.33
405.755	486.65
406.133	485.07
406.511	517.84
406.889	530.04
407.267	514.68
407.645	509.03
408.023	532.08
408.401	549.93
408.779	564.84
409.156	564.39
409.534	553.54
409.912	578.4
410.29	565.97
410.667	594.67
411.045	588.12
411.422	633.32
411.8	604.62
412.178	639.64
412.555	659.3
412.933	677.84
413.31	639.42
413.687	668.34
414.065	682.58
414.442	699.08
414.819	742.01
415.197	726.87
415.574	765.06
415.951	763.26
416.328	756.93
416.705	771.62
417.082	782.24
417.46	804.84
417.837	824.5
418.214	837.15
418.591	840.99
418.967	838.06
419.344	905.63
419.721	876.47
420.098	905.85
420.475	896.81
420.852	909.24
421.228	950.6
421.605	975.68
421.982	976.81
422.358	978.39
422.735	1000.31
423.111	1008.9
423.488	1018.39
423.864	1040.09
424.241	1051.38
424.617	1066.53
424.994	1067.88
425.37	1069.46
425.746	1101.55
426.123	1124.15
426.499	1122.57
426.875	1134.55
427.251	1146.75
427.627	1193.98
428.003	1192.17
428.379	1216.8
428.756	1229.69
429.132	1222
429.507	1265.62
429.883	1265.84
430.259	1308.33
430.635	1328.67
431.011	1331.83
431.387	1358.27
431.763	1384.71
432.138	1385.39
432.514	1430.58
432.89	1428.55
433.265	1456.12
433.641	1461.77
434.016	1478.27
434.392	1525.72
434.767	1529.34
435.143	1550.81
435.518	1565.72
435.894	1590.58
436.269	1606.62
436.644	1610.47
437.02	1637.58
437.395	1627.19
437.77	1650.69
438.145	1686.4
438.52	1716.23
438.895	1738.6
439.271	1687.75
439.646	1753.51
440.021	1761.87
440.395	1775.66
440.77	1784.02
441.145	1818.82
441.52	1828.09
441.895	1833.74
442.27	1821.99
442.645	1862.21
443.019	1866.5
443.394	1855.66
443.769	1921.64
444.143	1919.84
444.518	1944.69
444.892	1949.89
445.267	1939.05
445.641	1962.32
446.016	1967.97
446.39	2026.27
446.764	1994.64
447.139	2004.81
447.513	1998.7
447.887	2033.28
448.262	2018.82
448.636	2057.23
449.01	2087.97
449.384	2100.4
449.758	2124.35
450.132	2132.03
450.506	2154.18
450.88	2141.3
451.254	2178.36
451.628	2197.34
452.002	2202.31
452.376	2250.9
452.75	2266.72
453.123	2292.26
453.497	2313.5
453.871	2343.55
454.244	2362.08
454.618	2381.97
454.992	2393.04
455.365	2389.88
455.739	2473.27
456.112	2465.36
456.486	2497.67
456.859	2547.16
457.232	2522.98
457.606	2559.82
457.979	2594.17
458.352	2660.61
458.725	2684.79
459.099	2673.72
459.472	2712.13
459.845	2760.94
460.218	2802.75
460.591	2805.69
460.964	2825.58
461.337	2905.8
461.71	2932.24
462.083	2969.98
462.456	2970.2
462.829	2970.66
463.201	2988.28
463.574	3026.25
463.947	3097.88
464.32	3182.4
464.692	3158.22
465.065	3215.62
465.438	3218.33
465.81	3283.42
466.183	3352.79
466.555	3445.22
466.928	3419.46
467.3	3383.53
467.672	3494.71
468.045	3503.52
468.417	3588.04
468.789	3552.56
469.161	3626.23
469.534	3703.07
469.906	3763.63
470.278	3795.95
470.65	3836.17
471.022	3875.27
471.394	3967.69
471.766	4022.15
472.138	4060.35
472.51	4091.08
472.882	4178.53
473.253	4222.15
473.625	4284.07
473.997	4382.37
474.369	4395.7
474.74	4398.19
475.112	4484.51
475.484	4515.7
475.855	4639.77
476.227	4732.64
476.598	4807.9
476.97	4906.65
477.341	4938.06
477.713	5006.76
478.084	5039.98
478.455	5146.87
478.827	5229.13
479.198	5414.21
479.569	5416.02
479.94	5522.91
480.311	5619.17
480.682	5711.15
481.053	5790.7
481.424	5877.02
481.795	5985.94
482.166	6044.7
482.537	6142.78
482.908	6248.31
483.279	6280.63
483.65	6404.24
484.021	6566.49
484.391	6512.03
484.762	6677.68
485.133	6705.25
485.503	6833.61
485.874	7006.48
486.244	7014.62
486.615	7126.25
486.985	7238.34
487.356	7359.47
487.726	7355.63
488.097	7586.35
488.467	7633.13
488.837	7771.21
489.207	7902.96
489.578	8027.25
489.948	8072.22
490.318	8194.7
490.688	8225.43
491.058	8372.55
491.428	8454.13
491.798	8567.8
492.168	8670.17
492.538	8714.01
492.908	8820.67
493.278	8939.54
493.648	8995.81
494.017	9141.79
494.387	9187.89
494.757	9172.53
495.126	9339.53
495.496	9443.48
495.866	9438.73
496.235	9578.17
496.605	9636.7
496.974	9736.58
497.344	9869.01
497.713	9927.99
498.082	9963.69
498.452	10107.19
498.821	10156
499.19	10146.06
499.559	10220.86
499.928	10341.76
500.298	10398.26
500.667	10509.67
501.036	10555.99
501.405	10650.23
501.774	10652.71
502.143	10766.16
502.512	10856.55
502.88	10962.54
503.249	11022.42
503.618	11072.59
503.987	11053.83
504.356	11101.29
504.724	11251.12
505.093	11302.41
505.462	11440.94
505.83	11429.19
506.199	11545.8
506.567	11717.77
506.936	11665.12
507.304	11811.1
507.672	11921.38
508.041	11889.97
508.409	12016.07
508.777	12151.21
509.145	12257.42
509.514	12399.56
509.882	12428.94
510.25	12463.51
510.618	12522.95
510.986	12641.36
511.354	12807.91
511.722	12859.44
512.09	12978.75
512.458	12963.61
512.826	13109.37
513.193	13170.39
513.561	13273.21
513.929	13329.48
514.297	13497.84
514.664	13561.56
515.032	13719.07
515.4	13716.36
515.767	13766.3
516.135	13897.37
516.502	13830.48
516.869	14147.76
517.237	14228.44
517.604	14246.74
517.972	14417.59
518.339	14449.45
518.706	14463.01
519.073	14576
519.44	14771.7
519.808	14891.25
520.175	14855.09
520.542	15133.05
520.909	15244.91
521.276	15316.77
521.643	15454.17
522.009	15575.75
522.376	15664.56
522.743	15758.34
523.11	15945.91
523.477	16021.61
523.843	16255.96
524.21	16273.36
524.577	16340.25
524.943	16561.94
525.31	16543.18
525.676	16719.67
526.043	16855.26
526.409	16983.17
526.776	17162.83
527.142	17251.86
527.508	17372.76
527.874	17510.84
528.241	17648.69
528.607	17754
528.973	17835.35
529.339	17796.93
529.705	18042.35
530.071	18138.39
530.437	18188.79
530.803	18405.96
531.169	18426.3
531.535	18546.52
531.901	18636.46
532.267	18725.72
532.632	18853.4
532.998	18998.03
533.364	18987.64
533.73	19150.12
534.095	19172.94
534.461	19384.69
534.826	19320.96
535.192	19517.57
535.557	19654.29
535.923	19633.04
536.288	19727.96
536.653	19745.36
537.019	19801.17
537.384	19927.72
537.749	20082.75
538.114	20004.78
538.479	20192.58
538.845	20259.24
539.21	20162.75
539.575	20333.36
539.94	20320.48
540.305	20550.31
540.67	20505.34
541.034	20735.84
541.399	20716.18
541.764	20807.93
542.129	20868.26
542.494	21024.42
542.858	20971.31
543.223	21084.08
543.587	21147.35
543.952	21226.45
544.316	21239.1
544.681	21442.94
545.045	21341.02
545.41	21554.8
545.774	21623.27
546.138	21621.92
546.503	21868.46
546.867	21801.35
547.231	22096.48
547.595	22019.65
547.959	21971.74
548.324	22144.84
548.688	22165.18
549.052	22197.95
549.416	22359.3
549.779	22373.08
550.143	22503.02
550.507	22693.3
550.871	22711.61
551.235	22673.64
551.599	22865.05
551.962	22963.8
552.326	23016
552.689	23127.64
553.053	23045.16
553.417	23187.07
553.78	23477.46
554.143	23458.25
554.507	23434.53
554.87	23632.49
555.234	23810.11
555.597	23728.98
555.96	23914.51
556.323	23869.32
556.686	23958.35
557.05	24184.11
557.413	24281.73
557.776	24323.99
558.139	24482.18
558.502	24512.46
558.865	24621.39
559.228	24904.09
559.59	24899.35
559.953	24901.15
560.316	25281.03
560.679	25147.02
561.041	25425.89
561.404	25446.9
561.767	25664.97
562.129	25673.11
562.492	25919.21
562.854	25880.11
563.217	25930.96
563.579	26107.68
563.941	26205.98
564.304	26350.61
564.666	26644.16
565.028	26436.25
565.39	26548.79
565.753	26789.47
566.115	26972.74
566.477	27032.4
566.839	27025.39
567.201	27311.71
567.563	27283.92
567.925	27619.73
568.287	27543.34
568.648	27595.77
569.01	27743.11
569.372	27944.69
569.734	27857.01
570.095	28045.48
570.457	28165.7
570.819	28226.72
571.18	28221.52
571.542	28261.52
571.903	28414.73
572.265	28566.82
572.626	28623.54
572.987	28669.42
573.349	28834.38
573.71	28993.93
574.071	28905.12
574.432	29100.36
574.794	29296.97
575.155	29125.67
575.516	29115.96
575.877	29279.34
576.238	29420.13
576.599	29510.75
576.96	29556.85
577.32	29473.69
577.681	29633.23
578.042	29734.92
578.403	29743.51
578.763	29813.57
579.124	29836.39
579.485	29830.29
579.845	29960.91
580.206	29946.9
580.566	29946.9
580.927	29971.98
581.287	30072.09
581.648	29869.84
582.008	30130.17
582.368	30126.1
582.728	30147.34
583.089	30168.36
583.449	30067.8
583.809	30179.21
584.169	30287.45
584.529	30235.48
584.889	30392.99
585.249	30247.68
585.609	30167
585.969	30274.12
586.329	30255.14
586.688	30334.68
587.048	30180.79
587.408	30306.66
587.768	30344.17
588.127	30305.08
588.487	30314.34
588.846	30469.59
589.206	30271.41
589.565	30317.73
589.925	30441.8
590.284	30252.65
590.643	30407
591.003	30389.6
591.362	30644.28
591.721	30495.36
592.08	30430.73
592.44	30534.9
592.799	30483.38
593.158	30451.74
593.517	30520.21
593.876	30576.94
594.235	30442.02
594.593	30554.34
594.952	30645.41
595.311	30492.87
595.67	30520.44
596.029	30693.09
596.387	30763.6
596.746	30752.98
597.104	30685.18
597.463	30657.61
597.822	30775.57
598.18	30736.25
598.538	30827.55
598.897	30903.93
599.255	30571.29
599.613	31071.16
599.972	30923.59
600.33	31009.92
600.688	30710.49
601.046	30950.94
601.404	31074.32
601.762	30910.94
602.12	31106.87
602.478	31121.78
602.836	31237.94
603.194	30979.86
603.552	31162.23
603.91	30991.61
604.268	31173.53
604.625	31124.94
604.983	31069.8
605.341	31123.14
605.698	31189.35
606.056	31265.73
606.413	31265.28
606.771	31272.51
607.128	31382.34
607.485	31243.59
607.843	31306.18
608.2	31469.34
608.557	31726.28
608.914	31518.15
609.272	31606.29
609.629	31815.55
609.986	31801.76
610.343	31676.12
610.7	31919.5
611.057	31729.9
611.414	31789.79
611.771	31852.38
612.127	31952.49
612.484	31786.62
612.841	32004.7
613.198	31910.01
613.554	31796.11
613.911	31954.75
614.267	32065.48
614.624	31892.61
614.98	31960.85
615.337	32248.3
615.693	32098.48
616.05	32078.59
616.406	32383.89
616.762	32112.71
617.118	32180.96
617.475	32223.67
617.831	32124.69
618.187	32347.51
618.543	32161.53
618.899	32422.76
619.255	32469.54
619.611	32433.38
619.967	32487.62
620.323	32402.88
620.678	32494.63
621.034	32323.33
621.39	32372.14
621.746	32431.12
622.101	32753.6
622.457	32469.54
622.812	32368.75
623.168	32510.67
623.523	32605.58
623.879	32617.79
624.234	32494.63
624.589	32536.43
624.945	32472.71
625.3	32644
625.655	32555.87
626.01	32596.54
626.365	32554.51
626.72	32374.63
627.075	32513.61
627.43	32464.12
627.785	32484
628.14	32537.79
628.495	32542.76
628.85	32366.49
629.205	32381.63
629.559	32486.72
629.914	32348.64
630.269	32344.8
630.623	32328.75
630.978	32322.65
631.332	32392.48
631.687	32486.04
632.041	32308.64
632.396	32330.11
632.75	32217.12
633.104	32213.28
633.459	32187.74
633.813	32025.49
634.167	32124.47
634.521	31980.29
634.875	32021.64
635.229	31886.28
635.583	31912.04
635.937	31832.27
636.291	31811.71
636.645	31828.43
636.999	31733.29
637.352	31827.07
637.706	31607.64
638.06	31780.75
638.413	31621.65
638.767	31554.76
639.121	31653.74
639.474	31397.25
639.828	31474.54
640.181	31481.77
640.534	31497.14
640.888	31440.19
641.241	31257.14
641.594	31282.45
641.947	31298.95
642.301	31169.01
642.654	31259.63
643.007	31251.72
643.36	31113.42
643.713	31171.27
644.066	31264.38
644.419	30787.55
644.771	30762.69
645.124	30482.93
645.477	30338.52
645.83	30147.57
646.182	30077.74
646.535	29959.55
646.888	29958.65
647.24	29840.46
647.593	30022.15
647.945	29896.05
648.298	29758.88
648.65	29631.42
649.002	29586.68
649.355	29840.23
649.707	29652.89
650.059	29816.73
650.411	30164.07
650.763	30243.61
651.115	30455.81
651.467	30282.03
651.819	30481.12
652.171	30294.91
652.523	30294.91
652.875	30105.54
653.227	30056.05
653.578	30393.89
653.93	30161.35
654.282	29946.67
654.633	29935.15
654.985	30035.03
655.337	30021.24
655.688	30116.61
656.039	29997.74
656.391	29852.21
656.742	29908.71
657.094	29858.76
657.445	29875.26
657.796	29842.04
658.147	29781.25
658.498	29673.01
658.849	29771.99
659.2	29752.1
659.551	29741.93
659.902	29742.16
660.253	29706.22
660.604	29786.45
660.955	29562.5
661.306	29715.94
661.656	29719.78
662.007	29647.7
662.358	29512.11
662.708	29604.98
663.059	29483.63
663.409	29338.78
663.76	29606.34
664.11	29478.66
664.461	29525.21
664.811	29447.7
665.161	29589.39
665.511	29406.57
665.862	29456.29
666.212	29450.41
666.562	29517.08
666.912	29371.32
667.262	29322.05
667.612	29351.66
667.962	29388.49
668.312	29225.33
668.662	29439.11
669.011	29322.96
669.361	29292.22
669.711	29233.92
670.06	29286.57
670.41	29174.49
670.76	29107.14
671.109	29162.51
671.459	29247.71
671.808	29127.93
672.157	29149.86
672.507	28933.59
672.856	28990.54
673.205	29028.73
673.554	29014.04
673.904	28912.12
674.253	29076.64
674.602	28920.48
674.951	28562.07
675.3	28323.89
675.649	28901.05
675.998	28810.2
676.346	28748.06
676.695	28876.19
677.044	28706.25
677.393	28754.61
677.741	28780.15
678.09	28787.83
678.438	28582.19
678.787	28739.47
679.135	28588.74
679.484	28600.49
679.832	28751
680.181	28451.34
680.529	28549.87
680.877	28479.36
681.225	28460.83
681.573	28531.11
681.922	28271.46
682.27	28350.55
682.618	28368.86
682.966	28126.15
683.314	28323.89
683.661	28092.03
684.009	28062.43
684.357	28010.68
684.705	27946.5
685.053	28016.78
685.4	27989.21
685.748	27712.15
686.095	27764.58
686.443	27653.17
686.79	27623.57
687.138	27650.23
687.485	27743.79
687.832	27464.7
688.18	27543.8
688.527	27444.36
688.874	27320.07
689.221	27243.92
689.568	27148.78
689.915	27142.45
690.262	27071.94
690.609	26968.22
690.956	27001.89
691.303	26849.35
691.65	26791.27
691.997	26838.28
692.344	26506.99
692.69	26567.55
693.037	26630.15
693.383	26260.44
693.73	26459.53
694.077	26256.82
694.423	26299.53
694.769	26214.11
695.116	26104.96
695.462	26163.27
695.808	25925.53
696.155	26139.76
696.501	25843.5
696.847	25823.84
697.193	25606.22
697.539	25818.64
697.885	25482.61
698.231	25474.02
698.577	25503.62
698.923	25417.52
699.269	25174.82
699.614	25181.37
699.96	25168.94
700.306	25167.81
700.651	24939.34
700.997	25081.71
701.342	24896.63
701.688	24966.24
702.033	24843.98
702.379	24768.28
702.724	24719.46
703.069	24760.82
703.415	24579.13
703.76	24610.09
704.105	24515.85
704.45	24418
704.795	24207.61
705.14	24192.02
705.485	24136.88
705.83	24082.87
706.175	24092.59
706.52	24011.23
706.865	23940.73
707.209	23878.81
707.554	23858.47
707.899	23903.89
708.243	23723.11
708.588	23623.9
708.932	23583.22
709.277	23554.52
709.621	23609.44
709.966	23437.24
710.31	23417.8
710.654	23252.38
710.998	23275.21
711.342	23225.72
711.687	23171.03
712.031	23022.56
712.375	22925.39
712.719	22977.36
713.063	22950.47
713.407	22965.38
713.75	22812.17
714.094	22808.1
714.438	22722
714.782	22700.53
715.125	22666.64
715.469	22687.65
715.812	22575.56
716.156	22429.81
716.499	22515
716.843	22432.52
717.186	22304.16
717.53	22477.71
717.873	22439.07
718.216	22309.13
718.559	22229.36
718.902	22043.83
719.246	22101.23
719.589	22013.55
719.932	21935.58
720.275	21863.72
720.617	21959.99
720.96	21826.21
721.303	21865.07
721.646	21913.21
721.989	21770.16
722.331	21905.53
722.674	21671.41
723.016	21688.13
723.359	21561.81
723.701	21676.83
724.044	21495.59
724.386	21423.05
724.729	21576.95
725.071	21427.12
725.413	21487.68
725.755	21354.13
726.097	21213.34
726.439	21244.07
726.782	21185.54
727.124	21416.27
727.465	21175.83
727.807	21161.82
728.149	21074.59
728.491	21118.65
728.833	21144.87
729.175	21084.08
729.516	20999.79
729.858	20883.86
730.199	20949.62
730.541	20895.61
730.882	20911.88
731.224	20884.54
731.565	20673.47
731.906	20793.24
732.248	20728.61
732.589	20645.67
732.93	20584.88
733.271	20634.6
733.612	20564.09
733.953	20574.94
734.294	20440.25
734.635	20358.9
734.976	20438.9
735.317	20370.88
735.658	20275.74
735.999	20333.36
736.339	20365.91
736.68	20262.63
737.021	20208.85
737.361	20109.19
737.702	20205.91
738.042	20187.83
738.383	20072.81
738.723	20120.71
739.063	20035.97
739.404	20050.89
739.744	19982.86
740.084	19943.77
740.424	19923.66
740.764	19892.92
741.104	19938.35
741.444	19802.08
741.784	19776.32
742.124	19838.69
742.464	19760.05
742.804	19743.55
743.143	19605.47
743.483	19679.37
743.823	19638.01
744.162	19553.95
744.502	19552.37
744.841	19487.51
745.181	19555.53
745.52	19535.19
745.86	19535.64
746.199	19433.05
746.538	19377.23
746.877	19376.55
747.216	19429.66
747.556	19224.47
747.895	19314.63
748.234	19169.33
748.573	19239.38
748.911	19124.58
749.25	19200.51
749.589	19045.26
749.928	19075.77
750.267	19087.75
750.605	18984.92
750.944	18875.32
751.283	18835.55
751.621	18876
751.96	18760.3
752.298	18736.8
752.636	18764.14
752.975	18734.99
753.313	18560.3
753.651	18683.92
753.989	18520.53
754.327	18526.63
754.666	18403.92
755.004	18432.17
755.342	18435.33
755.679	18436.69
756.017	18235.57
756.355	18346.07
756.693	18238.73
757.031	18315.34
757.368	18191.73
757.706	18115.12
758.044	17956.93
758.381	17999.87
758.719	17918.74
759.056	17996.02
759.394	17912.18
759.731	17849.81
760.068	17748.12
760.405	17624.06
760.743	17606.66
761.08	17605.3
761.417	17507.68
761.754	17492.31
762.091	17452.99
762.428	17283.05
762.765	17328.47
763.102	17283.05
763.438	17272.88
763.775	17146.1
764.112	17105.2
764.449	17155.59
764.785	17132.54
765.122	16968.03
765.458	16943.4
765.795	16916.5
766.131	16872.66
766.467	16817.52
766.804	16705.66
767.14	16574.37
767.476	16698.21
767.812	16611.43
768.148	16637.87
768.485	16525.33
768.821	16411.66
769.157	16408.27
769.492	16259.12
769.828	16290.31
770.164	16107.49
770.5	16157.88
770.836	16088.5
771.171	16112.46
771.507	16013.93
771.842	15819.58
772.178	15893.03
772.513	15773.48
772.849	15762.64
773.184	15628.18
773.519	15639.93
773.855	15545.24
774.19	15534.39
774.525	15473.6
774.86	15475.41
775.195	15415.07
775.53	15260.5
775.865	15214.85
776.2	15067.74
776.535	15020.73
776.87	15052.37
777.205	14931.92
777.539	14843.34
777.874	15010.79
778.209	14810.35
778.543	14814.19
778.878	14705.94
779.212	14683.57
779.547	14510.69
779.881	14626.17
780.215	14503.23
780.55	14574.19
780.884	14393.63
781.218	14363.58
781.552	14427.53
781.886	14296.23
782.22	14177.59
782.554	14198.16
782.888	14086.75
783.222	13992.29
783.556	13987.32
783.889	13982.34
784.223	13860.31
784.557	13873.87
784.89	13865.29
785.224	13752.52
785.557	13716.81
785.891	13705.74
786.224	13598.63
786.558	13611.28
786.891	13463.94
787.224	13449.48
787.557	13406.77
787.891	13315.24
788.224	13383.49
788.557	13357.95
788.89	13316.6
789.223	13258.75
789.556	13152.99
789.888	13127.23
790.221	13125.42
790.554	13004.52
790.887	13016.95
791.219	12917.29
791.552	12884.29
791.884	12845.88
792.217	12719.78
792.549	12675.26
792.882	12692.43
793.214	12606.34
793.546	12599.78
793.879	12572.66
794.211	12484.76
794.543	12477.98
794.875	12418.54
795.207	12416.06
795.539	12369.05
795.871	12383.97
796.203	12207.25
796.535	12182.84
796.867	12209.28
797.198	12216.29
797.53	12079.34
797.862	12086.35
798.193	12077.54
798.525	12037.99
798.856	11992.11
799.188	11863.53
799.519	11808.16
799.85	11765
800.182	11776.75
800.513	11843.42
800.844	11696.53
801.175	11695.17
801.506	11705.12
801.837	11642.97
802.168	11569.98
802.499	11497.66
802.83	11551
803.161	11397.1
803.491	11453.82
803.822	11479.59
804.153	11409.3
804.483	11329.08
804.814	11311.45
805.145	11244.56
805.475	11264
805.805	11207.73
806.136	11192.81
806.466	11254.73
806.796	11150.33
807.126	11068.07
807.457	11065.13
807.787	10992.37
808.117	11041.86
808.447	10981.75
808.777	10967.51
809.107	10937.9
809.436	10880.28
809.766	10928.19
810.096	10782.43
810.426	10764.8
810.755	10797.12
811.085	10742.88
811.414	10774.52
811.744	10611.81
812.073	10586.5
812.403	10566.84
812.732	10566.16
813.061	10550.12
813.39	10497.24
813.719	10532.49
814.049	10478.03
814.378	10430.57
814.707	10378.37
815.036	10411.36
815.365	10312.16
815.693	10287.07
816.022	10313.06
816.351	10252.95
816.68	10195.78
817.008	10181.54
817.337	10180.64
817.665	10139.73
817.994	10180.18
818.322	10143.8
818.651	10042.56
818.979	10019.74
819.307	10068.55
819.636	10019.51
819.964	9958.72
820.292	9970.7
820.62	9980.42
820.948	9986.52
821.276	9916.01
821.604	9886.18
821.932	9960.98
822.259	9882.11
822.587	9900.42
822.915	9904.49
823.243	9949
823.57	9857.03
823.898	9947.42
824.225	9885.5
824.553	9862
824.88	9884.6
825.207	9904.94
825.535	9914.2
825.862	9927.54
826.189	9886.41
826.516	9880.31
826.843	9932.96
827.17	9848.44
827.497	9942.68
827.824	9950.81
828.151	9882.11
828.478	9949.68
828.805	9981.55
829.131	9854.54
829.458	9840.76
829.785	9851.38
830.111	9817.71
830.438	9858.38
830.764	9945.16
831.09	9853.87
831.417	9858.61
831.743	9866.52
832.069	9819.06
832.395	9778.84
832.722	9860.87
833.048	9790.14
833.374	9831.27
833.7	9743.59
834.026	9748.11
834.351	9815.9
834.677	9807.31
835.003	9825.62
835.329	9763.7
835.654	9744.26
835.98	9699.74
836.306	9735.9
836.631	9710.14
836.956	9691.61
837.282	9699.97
837.607	9664.49
837.932	9677.37
838.258	9647.32
838.583	9593.76
838.908	9559.18
839.233	9588.56
839.558	9530.03
839.883	9521.44
840.208	9525.29
840.533	9456.59
840.858	9488.9
841.182	9446.64
841.507	9442.58
841.832	9372.52
842.156	9372.3
842.481	9395.35
842.805	9352.86
843.13	9342.92
843.454	9355.12
843.778	9228.12
844.103	9259.53
844.427	9227.22
844.751	9248.23
845.075	9267.89
845.399	9214.56
845.723	9077.61
846.047	9149.02
846.371	9096.37
846.695	9112.64
847.019	8979.09
847.343	8947.22
847.666	8943.38
847.99	8854.12
848.313	8902.48
848.637	8850.05
848.96	8809.15
849.284	8818.64
849.607	8740
849.931	8721.47
850.254	8629.04
850.577	8576.61
850.9	8579.77
851.223	8570.06
851.546	8537.29
851.869	8408.25
852.192	8425.88
852.515	8380.01
852.838	8405.99
853.161	8360.12
853.483	8275.38
853.806	8340.46
854.129	8239.44
854.451	8250.74
854.774	8249.16
855.096	8171.88
855.419	8226.79
855.741	8152.89
856.063	8166.9
856.385	8144.76
856.708	8069.28
857.03	8084.87
857.352	8058.88
857.674	8020.47
857.996	7922.39
858.318	7937.31
858.64	7969.17
858.961	7901.6
859.283	7879.23
859.605	7806.91
859.926	7843.52
860.248	7811.66
860.57	7831.09
860.891	7765.33
861.212	7730.98
861.534	7761.49
861.855	7714.71
862.176	7765.11
862.498	7753.58
862.819	7735.5
863.14	7692.57
863.461	7657.54
863.782	7587.26
864.103	7626.81
864.424	7624.32
864.745	7642.4
865.065	7589.74
865.386	7568.28
865.707	7603.75
866.027	7584.09
866.348	7545.9
866.668	7560.14
866.989	7501.61
867.309	7537.77
867.63	7483.98
867.95	7434.95
868.27	7421.61
868.59	7365.8
868.91	7421.84
869.23	7338.45
869.55	7357.43
869.87	7378.45
870.19	7357.89
870.51	7380.94
870.83	7343.2
871.15	7363.31
871.469	7374.61
871.789	7343.2
872.109	7345.46
872.428	7266.36
872.748	7243.99
873.067	7284.67
873.386	7246.25
873.706	7248.96
874.025	7197.44
874.344	7154.73
874.663	7236.31
874.982	7183.43
875.301	7185.91
875.62	7145.01
875.939	7130.32
876.258	7171
876.577	7076.76
876.896	7085.12
877.214	7063.43
877.533	7111.79
877.852	7088.29
878.17	7017.33
878.489	7053.03
878.807	7043.54
879.125	7014.39
879.444	6966.03
879.762	6957.9
880.08	7003.09
880.398	6964.68
880.716	6974.39
881.034	6928.74
881.352	6948.4
881.67	6907.05
881.988	6908.86
882.306	6874.51
882.624	6891.23
882.941	6827.73
883.259	6812.59
883.577	6829.76
883.894	6813.95
884.212	6743.44
884.529	6777.56
884.846	6743.44
885.164	6780.05
885.481	6737.56
885.798	6751.57
886.115	6668.64
886.432	6697.11
886.75	6655.08
887.067	6649.43
887.383	6624.57
887.7	6616.21
888.017	6583.67
888.334	6661.63
888.651	6594.74
888.967	6563.56
889.284	6514.97
889.6	6524.69
889.917	6508.19
890.233	6484.91
890.55	6455.54
890.866	6448.98
891.182	6408.08
891.498	6429.1
891.815	6413.5
892.131	6411.24
892.447	6391.58
892.763	6314.52
893.079	6301.64
893.395	6326.5
893.71	6284.02
894.026	6205.83
894.342	6254.19
894.657	6245.82
894.973	6167.41
895.289	6210.57
895.604	6204.92
895.92	6105.04
896.235	6109.1
896.55	6088.09
896.865	6093.74
897.181	6067.98
897.496	6126.96
897.811	6027.07
898.126	6006.73
898.441	6001.09
898.756	5929.67
899.071	5968.32
899.386	5918.15
899.7	5866.63
900.015	5890.35
900.33	5884.25
900.644	5824.82
900.959	5857.13
901.273	5801.09
901.588	5743.92
901.902	5724.71
902.216	5710.02
902.531	5729.45
902.845	5706.63
903.159	5635.9
903.473	5642.22
903.787	5616.69
904.101	5611.26
904.415	5610.81
904.729	5630.93
905.042	5557.71
905.356	5555.9
905.67	5553.64
905.984	5501.89
906.297	5488.56
906.611	5456.92
906.924	5524.26
907.237	5439.52
907.551	5413.98
907.864	5368.79
908.177	5380.76
908.491	5361.33
908.804	5283.14
909.117	5305.96
909.43	5229.35
909.743	5232.52
910.056	5309.35
910.368	5248.79
910.681	5206.76
910.994	5193.87
911.307	5163.14
911.619	5090.37
911.932	5132.86
912.244	5095.35
912.557	5037.27
912.869	5034.78
913.181	5054.44
913.494	4998.85
913.806	4994.56
914.118	4890.61
914.43	4923.37
914.742	4907.1
915.054	4917.05
915.366	4908.23
915.678	4894.67
915.99	4853.54
916.302	4854.22
916.613	4795.47
916.925	4829.59
917.236	4785.98
917.548	4782.81
917.859	4773.09
918.171	4741.01
918.482	4686.77
918.794	4665.3
919.105	4676.6
919.416	4672.31
919.727	4592.53
920.038	4604.96
920.349	4548.24
920.66	4589.37
920.971	4507.79
921.282	4532.88
921.593	4518.19
921.903	4515.93
922.214	4491.97
922.525	4448.58
922.835	4419.66
923.146	4405.19
923.456	4423.73
923.767	4393.22
924.077	4371.98
924.387	4375.14
924.697	4348.93
925.008	4300.34
925.318	4309.83
925.628	4293.11
925.938	4267.8
926.248	4251.3
926.558	4252.66
926.867	4215.37
927.177	4221.24
927.487	4194.35
927.796	4167.69
928.106	4121.13
928.416	4124.07
928.725	4102.15
929.034	4058.54
929.344	4108.03
929.653	4033.45
929.962	4065.54
930.271	4033
930.581	3997.97
930.89	3999.33
931.199	4002.95
931.508	3957.98
931.817	3977.18
932.125	3932.89
932.434	3903.97
932.743	3898.32
933.051	3851.54
933.36	3895.38
933.669	3841.82
933.977	3842.5
934.286	3820.58
934.594	3841.14
934.902	3840.24
935.21	3743.07
935.519	3773.57
935.827	3759.34
936.135	3740.81
936.443	3717.53
936.751	3691.99
937.059	3738.77
937.367	3658.1
937.674	3654.03
937.982	3672.11
938.29	3615.61
938.597	3650.19
938.905	3574.71
939.213	3587.59
939.52	3534.26
939.827	3550.75
940.135	3560.7
940.442	3513.24
940.749	3528.16
941.056	3533.81
941.363	3477.76
941.67	3487.93
941.977	3445.22
942.284	3438.89
942.591	3454.49
942.898	3371.32
943.205	3411.1
943.511	3411.55
943.818	3376.52
944.125	3323.64
944.431	3360.48
944.738	3333.58
945.044	3347.37
945.35	3292
945.657	3309.18
945.963	3266.92
946.269	3250.87
946.575	3238.45
946.881	3218.79
947.187	3257.2
947.493	3194.15
947.799	3205.23
948.105	3185.34
948.41	3148.5
948.716	3116.87
949.022	3137.66
949.327	3104.21
949.633	3101.73
949.938	3072.35
950.244	3104.66
950.549	3059.24
950.854	3034.38
951.16	3034.61
951.465	3042.29
951.77	3033.93
952.075	3012.24
952.38	2958.23
952.685	2971.33
952.99	2974.5
953.294	2962.97
953.599	2898.34
953.904	2933.37
954.209	2903.09
954.513	2868.74
954.818	2865.12
955.122	2936.98
955.426	2869.87
955.731	2868.96
956.035	2841.62
956.339	2831
956.643	2834.16
956.948	2806.82
957.252	2809.98
957.556	2796.42
957.86	2781.51
958.163	2760.04
958.467	2767.95
958.771	2751.91
959.075	2763.43
959.378	2725.69
959.682	2724.79
959.985	2665.58
960.289	2695.41
960.592	2700.15
960.896	2670.55
961.199	2656.99
961.502	2656.31
961.805	2667.61
962.108	2625.81
962.411	2598.69
962.714	2591.23
963.017	2577.67
963.32	2598.46
963.623	2593.94
963.926	2590.1
964.228	2555.3
964.531	2572.7
964.833	2554.4
965.136	2522.53
965.438	2495.64
965.741	2472.14
966.043	2492.93
966.345	2507.17
966.648	2486.6
966.95	2451.12
967.252	2424.68
967.554	2453.38
967.856	2467.39
968.158	2422.2
968.46	2396.21
968.761	2372.48
969.063	2388.98
969.365	2348.07
969.666	2373.16
969.968	2321.18
970.269	2365.25
970.571	2360.5
970.872	2296.78
971.174	2311.92
971.475	2290.67
971.776	2304.46
972.077	2298.13
972.378	2272.14
972.679	2275.99
972.98	2220.39
973.281	2269.43
973.582	2262.43
973.883	2259.71
974.183	2248.87
974.484	2219.26
974.785	2197.8
975.085	2202.31
975.386	2214.29
975.686	2195.54
975.986	2167.06
976.287	2163.9
976.587	2165.93
976.887	2164.12
977.187	2154.63
977.487	2132.49
977.787	2119.38
978.087	2131.36
978.387	2083.67
978.687	2105.14
978.987	2060.62
979.286	2094.07
979.586	2060.17
979.885	2054.3
980.185	2047.52
980.484	2045.26
980.784	2021.98
981.083	2051.81
981.382	2057.01
981.682	2032.6
981.981	2048.87
982.28	2023.11
982.579	1991.47
982.878	1994.41
983.177	1971.81
983.475	1972.26
983.774	1957.35
984.073	1981.53
984.372	1936.79
984.67	1942.89
984.969	1945.82
985.267	1909.44
985.566	1917.12
985.864	1922.32
986.162	1905.37
986.461	1874.41
986.759	1877.58
987.057	1856.79
987.355	1848.88
987.653	1868.31
987.951	1889.78
988.249	1824.47
988.547	1805.04
988.844	1796.68
989.142	1822.89
989.44	1836.22
989.737	1788.77
990.035	1796
990.332	1780.86
990.63	1770.24
990.927	1734.53
991.224	1757.81
991.521	1757.35
991.819	1758.03
992.116	1750.12
992.413	1725.27
992.71	1702.22
993.006	1669.9
993.303	1720.29
993.6	1713.74
993.897	1718.71
994.193	1683.46
994.49	1669.67
994.787	1666.51
995.083	1658.37
995.379	1615.44
995.676	1643.23
995.972	1646.17
996.268	1650.92
996.565	1620.18
996.861	1614.31
997.157	1616.34
997.453	1612.73
997.749	1596.46
998.044	1573.18
998.34	1559.39
998.636	1567.53
998.932	1559.85
999.227	1556
999.523	1538.83
999.818	1536.8
1000.114	1525.27
1000.409	1524.59
1000.704	1512.16
1001	1508.55
1001.295	1491.37
1001.59	1508.1
1001.885	1482.56
1002.18	1494.54
1002.475	1495.21
1002.77	1462.45
1003.065	1466.29
1003.359	1457.02
1003.654	1455.67
1003.949	1461.54
1004.243	1457.02
1004.538	1439.4
1004.832	1430.58
1005.127	1447.31
1005.421	1419.06
1005.715	1389.23
1006.009	1405.5
1006.304	1366.4
1006.598	1367.76
1006.892	1377.03
1007.186	1330.47
1007.48	1342.9
1007.773	1330.47
1008.067	1359.63
1008.361	1312.39
1008.655	1352.85
1008.948	1320.98
1009.242	1323.69
1009.535	1296.12
1009.829	1297.03
1010.122	1311.26
1010.415	1291.15
1010.708	1319.85
1011.001	1259.29
1011.295	1254.09
1011.588	1263.13
1011.881	1262.45
1012.173	1217.48
1012.466	1240.53
1012.759	1246.41
1013.052	1243.24
1013.344	1201.89
1013.637	1234.66
1013.93	1182
1014.222	1227.65
1014.514	1216.58
1014.807	1185.39
1015.099	1205.28
1015.391	1170.93
1015.683	1168.9
1015.976	1160.08
1016.268	1156.24
1016.56	1143.36
1016.851	1158.05
1017.143	1148.33
1017.435	1131.38
1017.727	1127.77
1018.018	1123.47
1018.31	1119.63
1018.602	1097.49
1018.893	1091.61
1019.185	1112.63
1019.476	1059.07
1019.767	1101.33
1020.058	1051.84
1020.35	1092.29
1020.641	1052.29
1020.932	1106.98
1021.223	1068.79
1021.514	1083.7
1021.804	1040.09
1022.095	1039.41
1022.386	1046.87
1022.677	1035.79
1022.967	1026.3
1023.258	1021.33
1023.548	1013.19
1023.839	975.68
1024.129	1003.02
1024.419	992.63
1024.709	989.92
1025	959.18
1025.29	959.86
1025.58	972.97
1025.87	974.55
1026.16	960.31
1026.449	954.89
1026.739	931.39
1027.029	940.43
1027.319	930.26
1027.608	940.65
1027.898	933.65
1028.187	919.86
1028.477	910.82
1028.766	883.03
1029.055	902.46
1029.344	881.9
1029.634	876.7
1029.923	865.63
1030.212	880.99
1030.501	894.78
1030.79	842.35
1031.078	854.1
1031.367	829.02
1031.656	849.13
1031.945	870.82
1032.233	843.93
1032.522	854.33
1032.81	833.09
1033.099	821.56
1033.387	831.73
1033.675	842.35
1033.963	835.12
1034.251	796.02
1034.54	819.98
1034.828	819.53
1035.116	788.79
1035.403	814.33
1035.691	790.6
1035.979	764.84
1036.267	785.4
1036.554	794.67
1036.842	773.88
1037.129	779.98
1037.417	762.8
1037.704	775.46
1037.992	747.66
1038.279	749.92
1038.566	756.7
1038.853	756.7
1039.14	756.7
