Data from white_steel_sheet_FLMS001491_025.txt Node
Date: Tue Feb 07 10:57:37 GMT 2017
User: dcchb
Spectrometer: FLMS00149
Trigger mode: 0
Integration Time (sec): 2.000000E-2
Scans to average: 10
Electric dark correction enabled: true
Nonlinearity correction enabled: false
Boxcar width: 0
XAxis mode: Wavelengths
Number of Pixels in Spectrum: 2048
>>>>>Begin Spectral Data<<<<<
341.393	-10.72
341.776	-10.72
342.16	-10.72
342.543	-73.54
342.927	-56.82
343.31	-78.51
343.693	-65.86
344.077	-66.31
344.46	-51.62
344.843	-43.94
345.226	-34.22
345.61	-29.02
345.993	-26.09
346.376	-11.17
346.759	11.2
347.142	32.22
347.525	60.46
347.908	57.98
348.291	67.92
348.674	73.57
349.057	103.4
349.44	126.23
349.823	153.34
350.206	167.81
350.588	200.35
350.971	222.04
351.354	236.05
351.737	273.57
352.119	271.31
352.502	260.01
352.884	298.2
353.267	276.96
353.65	309.72
354.032	316.05
354.414	312.66
354.797	354.02
355.179	340.46
355.562	335.03
355.944	335.71
356.326	346.11
356.709	340.46
357.091	356.28
357.473	350.63
357.855	329.61
358.238	341.59
358.62	345.65
359.002	355.82
359.384	368.03
359.766	365.77
360.148	349.04
360.53	370.29
360.912	350.4
361.294	344.3
361.676	352.43
362.057	334.13
362.439	330.29
362.821	343.17
363.203	347.24
363.584	342.27
363.966	339.78
364.348	345.2
364.729	332.1
365.111	325.99
365.493	341.14
365.874	342.72
366.256	324.19
366.637	331.19
367.019	316.5
367.4	330.06
367.781	333.45
368.163	323.51
368.544	338.2
368.925	321.47
369.306	339.55
369.688	327.12
370.069	343.85
370.45	335.03
370.831	328.25
371.212	326.22
371.593	340.01
371.974	340.68
372.355	332.55
372.736	328.48
373.117	323.96
373.498	343.39
373.879	359.44
374.26	325.77
374.641	346.78
375.021	357.63
375.402	350.85
375.783	355.82
376.163	357.18
376.544	321.25
376.925	349.04
377.305	346.11
377.686	348.37
378.066	351.98
378.447	369.16
378.827	365.77
379.208	365.99
379.588	352.66
379.968	370.29
380.349	353.34
380.729	368.48
381.109	369.61
381.489	367.58
381.87	369.38
382.25	365.99
382.63	368.48
383.01	382.26
383.39	364.41
383.77	363.73
384.15	370.74
384.53	402.38
384.91	374.58
385.29	396.95
385.67	391.76
386.049	415.48
386.429	380.91
386.809	396.5
387.189	402.15
387.568	419.1
387.948	388.59
388.328	406.44
388.707	420
389.087	396.5
389.466	409.38
389.846	419.78
390.225	432.66
390.605	444.86
390.984	430.4
391.363	419.78
391.743	453.67
392.122	425.65
392.501	455.48
392.881	473.79
393.26	464.75
393.639	460.68
394.018	470.4
394.397	466.78
394.776	475.82
395.155	500.23
395.534	479.89
395.913	492.54
396.292	510.17
396.671	512.88
397.05	509.49
397.429	518.31
397.808	520.11
398.186	525.99
398.565	525.76
398.944	528.25
399.323	550.4
399.701	562.6
400.08	542.26
400.458	549.94
400.837	584.52
401.215	587.46
401.594	576.61
401.972	582.94
402.351	598.76
402.729	609.15
403.107	636.27
403.486	624.29
403.864	644.63
404.242	646.89
404.62	651.86
404.999	638.75
405.377	663.39
405.755	659.54
406.133	664.52
406.511	681.92
406.889	695.93
407.267	715.59
407.645	727.79
408.023	720.79
408.401	762.14
408.779	740.9
409.156	778.64
409.534	762.14
409.912	771.63
410.29	814.79
410.667	800.11
411.045	810.5
411.422	819.54
411.8	827
412.178	863.61
412.555	872.19
412.933	862.93
413.31	875.13
413.687	883.04
414.065	916.71
414.442	899.09
414.819	943.38
415.197	945.41
415.574	967.33
415.951	1003.72
416.328	973.21
416.705	991.29
417.082	992.64
417.46	1017.05
417.837	1008.91
418.214	1008.91
418.591	1049.14
418.967	1034.22
419.344	1059.99
419.721	1073.77
420.098	1068.35
420.475	1103.6
420.852	1108.57
421.228	1123.04
421.605	1128.46
421.982	1133.2
422.358	1146.31
422.735	1181.56
423.111	1157.84
423.488	1174.11
423.864	1197.38
424.241	1210.26
424.617	1192.19
424.994	1228.12
425.37	1235.12
425.746	1246.65
426.123	1261.56
426.499	1281
426.875	1304.5
427.251	1296.36
427.627	1332.97
428.003	1343.59
428.379	1357.61
428.756	1382.01
429.132	1370.94
429.507	1398.51
429.883	1436.47
430.259	1445.29
430.635	1477.38
431.011	1448.9
431.387	1531.61
431.763	1543.36
432.138	1574.32
432.514	1566.19
432.89	1572.52
433.265	1592.85
433.641	1636.69
434.016	1639.18
434.392	1671.04
434.767	1693.87
435.143	1708.1
435.518	1719.4
435.894	1745.62
436.269	1769.8
436.644	1787.88
437.02	1800.53
437.395	1827.65
437.77	1874.2
438.145	1847.99
438.52	1868.78
438.895	1896.35
439.271	1919.4
439.646	1945.39
440.021	1969.79
440.395	1972.28
440.77	1972.73
441.145	1998.04
441.52	2045.27
441.895	2022.67
442.27	2053.18
442.645	2076.91
443.019	2087.98
443.394	2098.83
443.769	2068.77
444.143	2093.41
444.518	2157.13
444.892	2156.68
445.267	2180.18
445.641	2214.31
446.016	2216.11
446.39	2237.36
446.764	2247.3
447.139	2222.89
447.513	2278.94
447.887	2286.39
448.262	2286.85
448.636	2298.37
449.01	2324.81
449.384	2342.89
449.758	2376.79
450.132	2398.03
450.506	2437.13
450.88	2446.16
451.254	2438.26
451.628	2491.81
452.002	2534.75
452.376	2551.47
452.75	2532.04
453.123	2575.2
453.497	2600.28
453.871	2603.67
454.244	2699.49
454.618	2711.24
454.992	2761.18
455.365	2747.17
455.739	2852.48
456.112	2837.79
456.486	2840.05
456.859	2902.2
457.232	2932.93
457.606	2958.24
457.979	3003.66
458.352	3038.69
458.725	3016.77
459.099	3099.03
459.472	3178.35
459.845	3200.49
460.218	3219.48
460.591	3228.74
460.964	3286.37
461.337	3372.92
461.71	3355.07
462.083	3454.73
462.456	3426.48
462.829	3431.22
463.201	3507.15
463.574	3527.94
463.947	3581.73
464.32	3620.6
464.692	3674.38
465.065	3693.59
465.438	3755.28
465.81	3843.42
466.183	3833.02
466.555	3939.01
466.928	3954.6
467.3	3975.62
467.672	4033.02
468.045	4135.39
468.417	4145.33
468.789	4190.53
469.161	4221.94
469.534	4284.08
469.906	4375.38
470.278	4422.84
470.65	4454.47
471.022	4571.53
471.394	4618.31
471.766	4693.56
472.138	4657.18
472.51	4812.2
472.882	4889.94
473.253	4934.91
473.625	5028.7
473.997	5099.2
474.369	5124.74
474.74	5194.34
475.112	5279.54
475.484	5345.3
475.855	5420.1
476.227	5501.9
476.598	5707.32
476.97	5675.23
477.341	5802.69
477.713	5897.37
478.084	5960.65
478.455	6151.15
478.827	6170.81
479.198	6335.78
479.569	6349.56
479.94	6491.26
480.311	6525.83
480.682	6741.19
481.053	6911.36
481.424	7035.2
481.795	7035.42
482.166	7171.92
482.537	7195.87
482.908	7369.2
483.279	7542.08
483.65	7683.99
484.021	7796.31
484.391	7872.01
484.762	7963.76
485.133	8042.63
485.503	8104.55
485.874	8265.9
486.244	8471.54
486.615	8568.04
486.985	8659.79
487.356	8840.57
487.726	8903.85
488.097	9044.86
488.467	9117.4
488.837	9267.45
489.207	9386.32
489.578	9506.32
489.948	9589.48
490.318	9775.92
490.688	9815.24
491.058	10009.58
491.428	10128.22
491.798	10206.41
492.168	10322.57
492.538	10430.59
492.908	10650.69
493.278	10723.46
493.648	10793.29
494.017	10843.91
494.387	11019.5
494.757	11129.55
495.126	11223.56
495.496	11282.77
495.866	11373.84
496.235	11499.49
496.605	11602.76
496.974	11600.95
497.344	11745.13
497.713	11859.93
498.082	11916.88
498.452	12050.88
498.821	12147.83
499.19	12251.78
499.559	12339.92
499.928	12390.08
500.298	12486.8
500.667	12689.06
501.036	12612.68
501.405	12776.29
501.774	12770.64
502.143	12953.23
502.512	12948.49
502.88	13146.45
503.249	13117.97
503.618	13292.66
503.987	13384.41
504.356	13425.99
504.724	13565.42
505.093	13521.35
505.462	13631.63
505.83	13774.23
506.199	13875.92
506.567	14143.26
506.936	13981.23
507.304	14256.93
507.672	14348.45
508.041	14465.28
508.409	14535.79
508.777	14616.47
509.145	14736.69
509.514	14802.68
509.882	14879.51
510.25	15026.4
510.618	15120.18
510.986	15195.43
511.354	15362.66
511.722	15443.11
512.09	15589.1
512.458	15632.94
512.826	15796.55
513.193	15888.97
513.561	15905.7
513.929	16060.27
514.297	16242.19
514.664	16316.08
515.032	16482.41
515.4	16604.89
515.767	16724.21
516.135	16865.67
516.502	16655.96
516.869	17050.53
517.237	17088.72
517.604	17202.16
517.972	17393.57
518.339	17417.97
518.706	17541.13
519.073	17641.7
519.44	17731.19
519.808	18058.18
520.175	18043.95
520.542	18199.87
520.909	18405.97
521.276	18316.26
521.643	18651.16
522.009	18793.53
522.376	18883.47
522.743	19125.95
523.11	19316.23
523.477	19506.73
523.843	19521.87
524.21	19776.33
524.577	19828.76
524.943	19981.07
525.31	20104.68
525.676	20330.21
526.043	20334.06
526.409	20484.33
526.776	20850.2
527.142	20846.58
527.508	20986.24
527.874	21109.63
528.241	21286.35
528.607	21390.75
528.973	21547.81
529.339	21614.7
529.705	21801.36
530.071	21991.19
530.437	22082.71
530.803	22130.84
531.169	22385.75
531.535	22334.91
531.901	22453.32
532.267	22576.71
532.632	22764.05
532.998	22896.25
533.364	23048.33
533.73	23049.24
534.095	23264.15
534.461	23356.35
534.826	23501.2
535.192	23512.28
535.557	23752.5
535.923	23785.72
536.288	23870.69
536.653	23998.14
537.019	23908.88
537.384	24187.74
537.749	24191.36
538.114	24273.39
538.479	24354.06
538.845	24444.68
539.21	24446.04
539.575	24576.2
539.94	24756.31
540.305	24847.61
540.67	24893.26
541.034	25028.62
541.399	25196.53
541.764	25205.79
542.129	25253.7
542.494	25462.28
542.858	25480.14
543.223	25577.76
543.587	25700.02
543.952	25657.08
544.316	25832.67
544.681	25916.06
545.045	25892.55
545.41	26101.81
545.774	26161.02
546.138	26175.03
546.503	26262.04
546.867	26222.04
547.231	26567.11
547.595	26586.32
547.959	26716.03
548.324	26717.39
548.688	26846.65
549.052	26885.07
549.416	27026.31
549.779	27159.86
550.143	27247.32
550.507	27335
550.871	27350.37
551.235	27479.63
551.599	27695.67
551.962	27601.89
552.326	27715.56
552.689	27942.9
553.053	27786.52
553.417	27902.9
553.78	28331.13
554.143	28171.14
554.507	28364.35
554.87	28421.53
555.234	28770.67
555.597	28626.04
555.96	28800.73
556.323	28981.29
556.686	28981.96
557.05	29222.41
557.413	29276.87
557.776	29247.72
558.139	29396.64
558.502	29621.5
558.865	29647.94
559.228	29910.75
559.59	29899
559.953	30021.71
560.316	30273.68
560.679	30377.63
561.041	30636.84
561.404	30623.28
561.767	30843.16
562.129	30835.02
562.492	31053.77
562.854	31112.53
563.217	31087.45
563.579	31351.62
563.941	31493.54
564.304	31647.2
564.666	31857.59
565.028	31754.77
565.39	31993.86
565.753	32130.81
566.115	32226.4
566.477	32407.64
566.839	32512.49
567.201	32535.54
567.563	32654.18
567.925	32954.74
568.287	32974.63
568.648	33089.43
569.01	33173.94
569.372	33347.72
569.734	33372.81
570.095	33528.96
570.457	33631.56
570.819	33756.53
571.18	33805.11
571.542	33938.22
571.903	33963.98
572.265	34084.43
572.626	34306.8
572.987	34242.39
573.349	34401.48
573.71	34505.66
574.071	34453.23
574.432	34701.36
574.794	34966.67
575.155	34908.14
575.516	34719.89
575.877	34903.39
576.238	35087.79
576.599	35134.12
576.96	35163.04
577.32	35096.83
577.681	35241.23
578.042	35359.42
578.403	35307.67
578.763	35380.89
579.124	35511.06
579.485	35574.56
579.845	35552.64
580.206	35431.51
580.566	35698.85
580.927	35714.89
581.287	35802.8
581.648	35696.36
582.008	35862.91
582.368	35758.51
582.728	35847.77
583.089	35840.31
583.449	35843.7
583.809	35858.62
584.169	35944.72
584.529	35779.75
584.889	36076.24
585.249	35813.87
585.609	35737.49
585.969	35989.46
586.329	35868.79
586.688	35941.33
587.048	35821.78
587.408	35726.87
587.768	35746.53
588.127	35888.45
588.487	35762.35
588.846	36005.51
589.206	35695.23
589.565	35838.05
589.925	36122.79
590.284	35878.05
590.643	35950.82
591.003	36118.95
591.362	36171.15
591.721	36054.32
592.08	36072.85
592.44	35970.93
592.799	36097.48
593.158	35941.1
593.517	36123.25
593.876	36085.96
594.235	35882.8
594.593	35912.4
594.952	36043.47
595.311	35932.29
595.67	36049.8
596.029	36243.02
596.387	36085.73
596.746	36267.2
597.104	36004.38
597.463	36195.56
597.822	36173.87
598.18	36039.18
598.538	36069.91
598.897	36278.27
599.255	36042.34
599.613	36504.93
599.972	36222.45
600.33	36299.29
600.688	36267.87
601.046	36335.67
601.404	36435.78
601.762	36342.9
602.12	36451.15
602.478	36510.13
602.836	36465.16
603.194	36304.48
603.552	36265.84
603.91	36330.7
604.268	36363.24
604.625	36296.12
604.983	36389.23
605.341	36338.61
605.698	36491.6
606.056	36528.43
606.413	36597.58
606.771	36694.3
607.128	36716.45
607.485	36502.44
607.843	36606.4
608.2	36640.29
608.557	36771.36
608.914	36614.53
609.272	36815.88
609.629	36972.71
609.986	37024.92
610.343	36899.72
610.7	37084.58
611.057	37022.66
611.414	37043.9
611.771	37027.63
612.127	37256.1
612.484	37099.26
612.841	37272.14
613.198	37110.34
613.554	37150.56
613.911	37308.52
614.267	37266.94
614.624	37300.16
614.98	37398.47
615.337	37715.97
615.693	37470.55
616.05	37423.55
616.406	37702.64
616.762	37581.51
617.118	37532.47
617.475	37527.5
617.831	37711.68
618.187	37653.6
618.543	37683.43
618.899	37995.06
619.255	37979.24
619.611	37778.12
619.967	37933.82
620.323	38082.52
620.678	37893.82
621.034	37735.41
621.39	37852.47
621.746	37835.74
622.101	38165.23
622.457	37825.57
622.812	37982.41
623.168	38169.74
623.523	37984.67
623.879	38164.32
624.234	38008.39
624.589	38146.69
624.945	38005.46
625.3	38180.14
625.655	38132.01
626.01	38110.76
626.365	38172.68
626.72	38085.91
627.075	38015.62
627.43	38090.2
627.785	37863.31
628.14	38028.73
628.495	37988.28
628.85	37931.79
629.205	37731.56
629.559	37906.25
629.914	37893.37
630.269	37846.59
630.623	37713.26
630.978	37729.76
631.332	37818.79
631.687	37871.9
632.041	37751.45
632.396	37886.36
632.75	37650.89
633.104	37591.91
633.459	37478.24
633.813	37500.61
634.167	37508.07
634.521	37379.48
634.875	37563.66
635.229	37455.64
635.583	37241.41
635.937	37341.52
636.291	37255.87
636.645	37319.6
636.999	36985.6
637.352	37186.72
637.706	36919.83
638.06	37033.5
638.413	36988.53
638.767	36810.01
639.121	36999.15
639.474	36798.71
639.828	36756.67
640.181	36674.64
640.534	36789.67
640.888	36657.24
641.241	36514.87
641.594	36578.37
641.947	36562.56
642.301	36473.52
642.654	36527.75
643.007	36389.68
643.36	36240.76
643.713	36253.41
644.066	36618.83
644.419	36174.54
644.771	35998.5
645.124	35691.84
645.477	35522.58
645.83	35298.63
646.182	35186.77
646.535	35192.42
646.888	35363.72
647.24	35008.47
647.593	35263.83
647.945	35133.21
648.298	35011.64
648.65	34890.96
649.002	34972.99
649.355	35040.34
649.707	34717.18
650.059	34963.5
650.411	35364.17
650.763	35267.67
651.115	35742.92
651.467	35645.29
651.819	35638.51
652.171	35514.9
652.523	35516.48
652.875	35412.53
653.227	35355.36
653.578	35565.52
653.93	35432.19
654.282	35283.04
654.633	35309.93
654.985	35183.61
655.337	35280.1
655.688	35192.42
656.039	35299.99
656.391	34971.86
656.742	35095.93
657.094	35049.83
657.445	35250.5
657.796	35153.55
658.147	34965.76
658.498	34881.47
658.849	35138.41
659.2	34959.21
659.551	34789.49
659.902	34951.75
660.253	34756.73
660.604	34717.41
660.955	34567.81
661.306	34772.77
661.656	34654.36
662.007	34643.74
662.358	34594.7
662.708	34528.03
663.059	34518.32
663.409	34389.28
663.76	34429.28
664.11	34476.96
664.461	34408.49
664.811	34389.51
665.161	34224.09
665.511	34112.9
665.862	34088.72
666.212	34157.2
666.562	34096.63
666.912	33893.25
667.262	33842.63
667.612	33814.83
667.962	33763.31
668.312	33613.03
668.662	33859.8
669.011	33683.08
669.361	33505.01
669.711	33342.98
670.06	33244
670.41	33301.17
670.76	33102.76
671.109	33241.06
671.459	33035.42
671.808	32805.37
672.157	33088.3
672.507	32910
672.856	32755.2
673.205	32794.75
673.554	32847.85
673.904	32670.91
674.253	32736.44
674.602	32502.55
674.951	32128.55
675.3	31925.84
675.649	32451.93
675.998	32477.47
676.346	32447.41
676.695	32518.82
677.044	32277.24
677.393	32169
677.741	32209.68
678.09	32143.46
678.438	32080.41
678.787	32174.42
679.135	32199.51
679.484	31907.08
679.832	32068.89
680.181	32025.27
680.529	31998.38
680.877	31976.46
681.225	31991.83
681.573	32172.16
681.922	31860.98
682.27	31968.1
682.618	32043.13
682.966	31921.77
683.314	32052.62
683.661	31937.82
684.009	31776.47
684.357	31795
684.705	31846.52
685.053	32025.05
685.4	31917.03
685.748	31777.37
686.095	31700.99
686.443	31589.8
686.79	31699.63
687.138	31774.43
687.485	31830.48
687.832	31710.25
688.18	31887.2
688.527	31659.63
688.874	31706.41
689.221	31661.44
689.568	31568.79
689.915	31621.67
690.262	31536.7
690.609	31584.16
690.956	31485.4
691.303	31568.56
691.65	31458.06
691.997	31518.85
692.344	31248.12
692.69	31339.42
693.037	31319.53
693.383	31042.93
693.73	31191.17
694.077	31002.25
694.423	31036.15
694.769	31132.19
695.116	31015.58
695.462	30920.22
695.808	30953.21
696.155	31059.65
696.501	30727.68
696.847	30794.12
697.193	30565.2
697.539	30616.5
697.885	30551.19
698.231	30505.54
698.577	30365.2
698.923	30436.61
699.269	30304.87
699.614	29956.85
699.96	30015.16
700.306	30074.59
700.651	29901.26
700.997	29944.2
701.342	29841.6
701.688	29807.25
702.033	29729.06
702.379	29688.61
702.724	29573.81
703.069	29605.9
703.415	29351.67
703.76	29359.58
704.105	29208.4
704.45	29248.17
704.795	29114.39
705.14	28959.82
705.485	28974.51
705.83	28835.53
706.175	28850.44
706.52	28844.34
706.865	28758.69
707.209	28641.86
707.554	28626.49
707.899	28661.29
708.243	28435.99
708.588	28426.5
708.932	28303.79
709.277	28253.4
709.621	28276.45
709.966	28121.2
710.31	28209.33
710.654	27915.1
710.998	28031.71
711.342	28039.16
711.687	27804.37
712.031	27727.76
712.375	27652.51
712.719	27657.25
713.063	27667.42
713.407	27610.25
713.75	27593.98
714.094	27552.85
714.438	27472.4
714.782	27483.92
715.125	27352.18
715.469	27378.16
715.812	27234.89
716.156	27023.37
716.499	26925.52
716.843	27103.14
717.186	26926.42
717.53	27156.02
717.873	27010.26
718.216	26934.33
718.559	26963.49
718.902	26598.98
719.246	26723.49
719.589	26688.46
719.932	26545.64
720.275	26540.22
720.617	26554.68
720.96	26511.75
721.303	26404.4
721.646	26500.9
721.989	26362.37
722.331	26338.19
722.674	26281.92
723.016	26273.56
723.359	26297.29
723.701	26149.27
724.044	25920.12
724.386	25869.05
724.729	26023.17
725.071	25970.52
725.413	25877.19
725.755	25857.3
726.097	25681.71
726.439	25664.09
726.782	25784.53
727.124	25864.53
727.465	25613.92
727.807	25592.9
728.149	25421.83
728.491	25477.88
728.833	25578.89
729.175	25422.28
729.516	25462.28
729.858	25389.06
730.199	25259.35
730.541	25281.95
730.882	25166.7
731.224	25256.19
731.565	25053.03
731.906	25239.92
732.248	25113.59
732.589	25047.38
732.93	25001.05
733.271	24923.77
733.612	24893.94
733.953	25048.28
734.294	24781.85
734.635	24792.02
734.976	24962.18
735.317	24688.29
735.658	24660.04
735.999	24587.5
736.339	24588.86
736.68	24735.3
737.021	24552.48
737.361	24317.68
737.702	24594.06
738.042	24479.48
738.383	24352.93
738.723	24446.04
739.063	24320.62
739.404	24370.11
739.744	24247.85
740.084	24222.99
740.424	24161.98
740.764	24150.9
741.104	24303.44
741.444	24011.02
741.784	23881.08
742.124	23985.26
742.464	23943.23
742.804	23936.22
743.143	23872.95
743.483	24063.22
743.823	23830.91
744.162	23775.55
744.502	23804.92
744.841	23714.31
745.181	23755.21
745.52	23590.69
745.86	23721.09
746.199	23507.53
746.538	23558.15
746.877	23540.3
747.216	23591.15
747.556	23485.61
747.895	23467.76
748.234	23233.64
748.573	23329.68
748.911	23314.32
749.25	23260.08
749.589	22984.38
749.928	23218.95
750.267	23123.59
750.605	23064.61
750.944	23002.69
751.283	22926.98
751.621	22980.99
751.96	22828.23
752.298	22870.49
752.636	22866.87
752.975	22649.93
753.313	22569.03
753.651	22701.9
753.989	22559.99
754.327	22510.27
754.666	22359.77
755.004	22424.17
755.342	22378.52
755.679	22280.67
756.017	22220.56
756.355	22190.96
756.693	22171.52
757.031	22022.15
757.368	22033.45
757.706	21947.57
758.044	21906.67
758.381	21987.57
758.719	21818.76
759.056	21849.5
759.394	21695.38
759.731	21582.38
760.068	21478.21
760.405	21456.06
760.743	21407.02
761.08	21469.85
761.417	21277.76
761.754	21273.69
762.091	21294.48
762.428	21089.52
762.765	21119.8
763.102	21097.88
763.438	20923.19
763.775	20801.39
764.112	20916.41
764.449	20847.04
764.785	20695.4
765.122	20572.92
765.458	20506.93
765.795	20475.29
766.131	20456.09
766.467	20367.28
766.804	20316.66
767.14	20131.12
767.476	20176.55
767.812	20160.27
768.148	20060.16
768.485	19963.22
768.821	19850.23
769.157	19816.56
769.492	19751.47
769.828	19737.69
770.164	19659.5
770.5	19653.4
770.836	19529.11
771.171	19401.42
771.507	19341.31
771.842	19254.54
772.178	19241.43
772.513	19224.03
772.849	19093.64
773.184	18986.29
773.519	18911.49
773.855	18853.87
774.19	18803.7
774.525	18715.12
774.86	18767.09
775.195	18697.49
775.53	18612.97
775.865	18508.12
776.2	18348.12
776.535	18310.61
776.87	18256.14
777.205	18215.24
777.539	18090.72
777.874	18228.35
778.209	18000.33
778.543	18035.81
778.878	17887.79
779.212	17758.53
779.547	17776.38
779.881	17675.82
780.215	17700.45
780.55	17631.53
780.884	17537.52
781.218	17458.43
781.552	17395.38
781.886	17345.89
782.22	17280.12
782.554	17188.83
782.888	17110.64
783.222	17104.31
783.556	16975.5
783.889	16919
784.223	16838.78
784.557	16723.76
784.89	16805.79
785.224	16724.43
785.557	16619.13
785.891	16526.47
786.224	16569.41
786.558	16539.35
786.891	16264.56
787.224	16238.8
787.557	16285.57
787.891	16201.06
788.224	16150.66
788.557	16220.04
788.89	16108.86
789.223	16117.22
789.556	15956.54
789.888	15857.79
790.221	15815.98
790.554	15752.03
790.887	15742.99
791.219	15660.73
791.552	15580.06
791.884	15435.2
792.217	15396.11
792.549	15419.83
792.882	15327.41
793.214	15268.88
793.546	15299.16
793.879	15182.78
794.211	15105.94
794.543	15200.86
794.875	15058.49
795.207	15138.03
795.539	15009
795.871	15001.77
796.203	14858.04
796.535	14732.4
796.867	14784.37
797.198	14683.36
797.53	14776.01
797.862	14674.77
798.193	14636.58
798.525	14560.42
798.856	14492.18
799.188	14331.5
799.519	14305.06
799.85	14284.27
800.182	14258.51
800.513	14238.17
800.844	14171.96
801.175	14202.24
801.506	14081.79
801.837	14076.82
802.168	14097.84
802.499	14086.54
802.83	13868.46
803.161	13827.79
803.491	13855.36
803.822	13848.8
804.153	13766.54
804.483	13668.24
804.814	13653.33
805.145	13662.37
805.475	13673.21
805.805	13510.28
806.136	13584.85
806.466	13525.65
806.796	13483.16
807.126	13357.06
807.457	13435.03
807.787	13344.86
808.117	13238.88
808.447	13199.1
808.777	13273.9
809.107	13167.01
809.436	13098.54
809.766	13117.75
810.096	13086.79
810.426	13028.71
810.755	13063.96
811.085	12983.06
811.414	12925.66
811.744	12884.76
812.073	12802.73
812.403	12856.51
812.732	12805.21
813.061	12724.54
813.39	12705.1
813.719	12729.96
814.049	12724.76
814.378	12718.89
814.707	12641.38
815.036	12582.85
815.365	12519.35
815.693	12360.93
816.022	12396.19
816.351	12438.67
816.68	12305.11
817.008	12346.7
817.337	12282.52
817.665	12145.57
817.994	12257.88
818.322	12252.69
818.651	12209.52
818.979	12127.04
819.307	12112.8
819.636	12119.58
819.964	12022.41
820.292	12071.22
820.62	12058.12
820.948	12077.32
821.276	12042.52
821.604	11994.61
821.932	12097.44
822.259	12007.95
822.587	11968.4
822.915	12021.28
823.243	11984.9
823.57	11983.31
823.898	11963.88
824.225	11972.47
824.553	11950.32
824.88	11923.43
825.207	11980.15
825.535	11904.9
825.862	11931.79
826.189	11945.8
826.516	11970.66
826.843	11967.72
827.17	11983.77
827.497	11970.43
827.824	11998.91
828.151	11938.12
828.478	11925.92
828.805	12081.84
829.131	11880.27
829.458	11923.66
829.785	11820.38
830.111	11850.44
830.438	11962.75
830.764	11915.29
831.09	11922.98
831.417	11901.96
831.743	11842.53
832.069	11851.34
832.395	11832.13
832.722	11851.79
833.048	11758.69
833.374	11874.62
833.7	11825.58
834.026	11848.18
834.351	11792.81
834.677	11757.33
835.003	11815.86
835.329	11778.35
835.654	11702.64
835.98	11676.88
836.306	11695.19
836.631	11619.71
836.956	11671.01
837.282	11683.44
837.607	11640.72
837.932	11561.41
838.258	11549.43
838.583	11591.91
838.908	11513.95
839.233	11505.59
839.558	11408.41
839.883	11467.17
840.208	11399.15
840.533	11355.76
840.858	11424.46
841.182	11415.87
841.507	11369.32
841.832	11333.61
842.156	11331.13
842.481	11302.43
842.805	11308.76
843.13	11242.09
843.454	11153.28
843.778	11163
844.103	11125.71
844.427	11165.48
844.751	11152.6
845.075	11043.23
845.399	11038.25
845.723	10933.17
846.047	10942.21
846.371	10911.93
846.695	10901.54
847.019	10785.15
847.343	10781.54
847.666	10783.8
847.99	10709.68
848.313	10640.75
848.637	10558.04
848.96	10586.97
849.284	10626.97
849.607	10512.39
849.931	10502
850.254	10393.98
850.577	10377.71
850.9	10235.56
851.223	10322.34
851.546	10222.68
851.869	10198.28
852.192	10222.91
852.515	10159.18
852.838	10091.84
853.161	10068.34
853.483	10015.46
853.806	9972.29
854.129	9939.53
854.451	9901.11
854.774	9826.99
855.096	9886.42
855.419	9803.94
855.741	9755.58
856.063	9714.45
856.385	9724.39
856.708	9712.87
857.03	9682.13
857.352	9697.27
857.674	9604.85
857.996	9661.12
858.318	9520.1
858.64	9557.39
858.961	9446.88
859.283	9508.58
859.605	9388.58
859.926	9440.1
860.248	9405.08
860.57	9410.05
860.891	9375.47
861.212	9316.04
861.534	9284.4
861.855	9311.29
862.176	9286.89
862.498	9331.41
862.819	9281.24
863.14	9185.65
863.461	9186.78
863.782	9179.32
864.103	9171.19
864.424	9124.86
864.745	9145.65
865.065	9107.91
865.386	9054.35
865.707	9071.98
866.027	9127.12
866.348	9045.99
866.668	9017.07
866.989	8929.61
867.309	8944.07
867.63	8975.48
867.95	8982.04
868.27	8944.07
868.59	8931.87
868.91	8871.76
869.23	8876.05
869.55	8828.82
869.87	8876.96
870.19	8910.18
870.51	8904.75
870.83	8841.25
871.15	8795.83
871.469	8773.68
871.789	8807.35
872.109	8806.22
872.428	8692.78
872.748	8753.8
873.067	8744.08
873.386	8705.21
873.706	8653.68
874.025	8643.52
874.344	8661.82
874.663	8662.05
874.982	8677.41
875.301	8536.4
875.62	8605.32
875.939	8554.03
876.258	8568.26
876.577	8549.96
876.896	8577.75
877.214	8471.99
877.533	8500.24
877.852	8505.67
878.17	8472.67
878.489	8503.86
878.807	8447.81
879.125	8441.94
879.444	8425.67
879.762	8451.66
880.08	8440.81
880.398	8394.26
880.716	8378.89
881.034	8372.11
881.352	8370.08
881.67	8295.73
881.988	8325.33
882.306	8241.04
882.624	8217.54
882.941	8220.02
883.259	8226.13
883.577	8184.09
883.894	8160.14
884.212	8170.76
884.529	8162.17
884.846	8124.43
885.164	8081.5
885.481	8078.56
885.798	8080.37
886.115	8039.69
886.432	8050.54
886.75	8034.49
887.067	8035.85
887.383	7942.74
887.7	7913.59
888.017	7837.66
888.334	7879.02
888.651	7881.95
888.967	7927.83
889.284	7824.33
889.6	7864.33
889.917	7762.63
890.233	7803.31
890.55	7764.44
890.866	7748.4
891.182	7681.96
891.498	7637.21
891.815	7670.43
892.131	7667.04
892.447	7575.07
892.763	7592.02
893.079	7600.15
893.395	7534.39
893.71	7591.57
894.026	7469.08
894.342	7445.58
894.657	7454.17
894.973	7394.51
895.289	7416.88
895.604	7418.69
895.92	7333.04
896.235	7283.1
896.55	7320.61
896.865	7267.51
897.181	7296.43
897.496	7272.7
897.811	7229.54
898.126	7194.74
898.441	7151.35
898.756	7131.92
899.071	7116.78
899.386	7083.56
899.7	7003.56
900.015	6964.01
900.33	7007.4
900.644	6955.42
900.959	7011.47
901.273	6921.75
901.588	6933.73
901.902	6851.02
902.216	6847.18
902.531	6857.57
902.845	6839.27
903.159	6774.64
903.473	6767.41
903.787	6696.45
904.101	6671.82
904.415	6663.45
904.729	6651.7
905.042	6605.15
905.356	6557.92
905.67	6608.31
905.984	6486.51
906.297	6526.96
906.611	6486.28
906.924	6485.38
907.237	6494.65
907.551	6400.64
907.864	6341.66
908.177	6415.1
908.491	6353.41
908.804	6317.7
909.117	6292.84
909.43	6300.3
909.743	6268.44
910.056	6265.5
910.368	6218.04
910.681	6214.2
910.994	6131.72
911.307	6168.55
911.619	6058.27
911.932	6107.76
912.244	6081.1
912.557	6050.14
912.869	6004.71
913.181	6016.92
913.494	6025.28
913.806	5971.27
914.118	5960.87
914.43	5914.32
914.742	5895.11
915.054	5864.83
915.366	5837.94
915.678	5774.89
915.99	5728.56
916.302	5698.28
916.613	5743.25
916.925	5727.66
917.236	5703.93
917.548	5632.07
917.859	5651.96
918.171	5656.7
918.482	5641.56
918.794	5592.75
919.105	5571.28
919.416	5478.4
919.727	5577.83
920.038	5528.57
920.349	5455.8
920.66	5421
920.971	5468.01
921.282	5404.96
921.593	5316.37
921.903	5306.43
922.214	5285.41
922.525	5288.12
922.835	5270.72
923.146	5275.92
923.456	5263.72
923.767	5218.52
924.077	5217.84
924.387	5117.73
924.697	5198.86
925.008	5168.58
925.318	5084.29
925.628	5114.57
925.938	5043.16
926.248	5040.45
926.558	5021.92
926.867	5016.27
927.177	4997.51
927.487	4989.37
927.796	4930.17
928.106	4928.13
928.416	4915.03
928.725	4847.23
929.034	4842.26
929.344	4832.77
929.653	4821.7
929.962	4756.61
930.271	4774.24
930.581	4746.89
930.89	4695.37
931.199	4715.48
931.508	4723.39
931.817	4669.83
932.125	4653.56
932.434	4620.34
932.743	4564.75
933.051	4584.87
933.36	4537.41
933.669	4505.09
933.977	4531.08
934.286	4485.88
934.594	4534.02
934.902	4448.15
935.21	4438.65
935.519	4459.9
935.827	4439.33
936.135	4375.61
936.443	4365.89
936.751	4382.61
937.059	4350.07
937.367	4321.14
937.674	4346.45
937.982	4308.26
938.29	4269.85
938.597	4308.04
938.905	4228.72
939.213	4177.19
939.52	4218.1
939.827	4202.95
940.135	4187.36
940.442	4150.98
940.749	4148.72
941.056	4155.05
941.363	4089.96
941.67	4082.51
941.977	4056.29
942.284	4061.04
942.591	4026.91
942.898	3996.18
943.205	4018.55
943.511	3948.27
943.818	3972.68
944.125	3910.08
944.431	3925.9
944.738	3886.8
945.044	3917.54
945.35	3888.39
945.657	3853.13
945.963	3862.62
946.269	3808.84
946.575	3785.34
946.881	3832.57
947.187	3789.63
947.493	3770.88
947.799	3746.7
948.105	3752.34
948.41	3711.89
948.716	3680.26
949.022	3680.93
949.327	3669.64
949.633	3636.19
949.938	3638.45
950.244	3630.77
950.549	3563.88
950.854	3572.91
951.16	3530.2
951.465	3580.6
951.77	3543.76
952.075	3524.1
952.38	3486.82
952.685	3512.13
952.99	3499.24
953.294	3499.24
953.599	3429.42
953.904	3451.56
954.209	3399.36
954.513	3379.47
954.818	3395.07
955.122	3367.04
955.426	3378.12
955.731	3332.02
956.035	3351.23
956.339	3299.25
956.643	3304
956.948	3262.41
957.252	3285.01
957.556	3310.32
957.86	3273.94
958.163	3238.01
958.467	3227.39
958.771	3198.91
959.075	3209.31
959.378	3205.47
959.682	3153.49
959.985	3169.99
960.289	3141.74
960.592	3114.4
960.896	3110.1
961.199	3092.25
961.502	3075.75
961.805	3089.09
962.108	3063.55
962.411	3028.07
962.714	2998.92
963.017	3028.07
963.32	3042.31
963.623	2948.52
963.926	2993.27
964.228	2950.11
964.531	2972.93
964.833	2953.72
965.136	2941.74
965.438	2943.33
965.741	2926.38
966.043	2914.63
966.345	2866.27
966.648	2876.89
966.95	2852.48
967.252	2839.15
967.554	2766.83
967.856	2853.61
968.158	2764.57
968.46	2775.42
968.761	2804.35
969.063	2760.51
969.365	2765.93
969.666	2773.16
969.968	2729.77
970.269	2702.65
970.571	2709.66
970.872	2694.75
971.174	2695.65
971.475	2711.69
971.776	2670.57
972.077	2681.41
972.378	2652.03
972.679	2671.24
972.98	2618.14
973.281	2605.48
973.582	2600.06
973.883	2602.54
974.183	2553.05
974.484	2595.54
974.785	2602.54
975.085	2544.69
975.386	2546.5
975.686	2536.11
975.986	2513.06
976.287	2501.76
976.587	2474.19
976.887	2486.39
977.187	2469.44
977.487	2481.19
977.787	2454.53
978.087	2440.51
978.387	2417.92
978.687	2429.67
978.987	2400.97
979.286	2405.71
979.586	2406.39
979.885	2393.74
980.185	2337.92
980.484	2355.09
980.784	2341.76
981.083	2371.14
981.382	2311.03
981.682	2348.77
981.981	2314.42
982.28	2320.52
982.579	2295.66
982.878	2254.53
983.177	2260.86
983.475	2262.21
983.774	2222.67
984.073	2195.1
984.372	2192.84
984.67	2170.92
984.969	2189.45
985.267	2178.15
985.566	2194.65
985.864	2166.85
986.162	2162.1
986.461	2131.6
986.759	2109
987.057	2126.4
987.355	2123.01
987.653	2139.51
987.951	2126.85
988.249	2101.99
988.547	2097.93
988.844	2076.91
989.142	2054.54
989.44	2050.92
989.737	2047.98
990.035	2054.31
990.332	2039.62
990.63	2027.42
990.927	2028.32
991.224	1984.93
991.521	1985.84
991.819	2013.41
992.116	1999.85
992.413	1995.55
992.71	1954.2
993.006	1958.27
993.303	1949.45
993.6	1925.95
993.897	1956.69
994.193	1929.79
994.49	1949.45
994.787	1885.95
995.083	1886.18
995.379	1912.62
995.676	1860.87
995.972	1853.64
996.268	1864.03
996.565	1867.42
996.861	1845.05
997.157	1829.91
997.453	1829.91
997.749	1820.19
998.044	1789.46
998.34	1774.54
998.636	1782.68
998.932	1774.77
999.227	1776.8
999.523	1758.72
999.818	1724.83
1000.114	1758.5
1000.409	1739.52
1000.704	1706.97
1001	1689.12
1001.295	1704.72
1001.59	1715.56
1001.885	1692.06
1002.18	1687.09
1002.475	1690.48
1002.77	1665.85
1003.065	1703.36
1003.359	1656.58
1003.654	1653.64
1003.949	1655.68
1004.243	1606.41
1004.538	1617.94
1004.832	1613.87
1005.127	1601.89
1005.421	1617.03
1005.715	1578.39
1006.009	1588.33
1006.304	1546.08
1006.598	1545.62
1006.892	1571.39
1007.186	1527.54
1007.48	1537.04
1007.773	1512.4
1008.067	1496.13
1008.361	1516.25
1008.655	1475.34
1008.948	1500.43
1009.242	1482.57
1009.535	1483.48
1009.829	1456.81
1010.122	1452.74
1010.415	1436.25
1010.708	1431.95
1011.001	1452.29
1011.295	1429.02
1011.588	1428.79
1011.881	1403.93
1012.173	1400.09
1012.466	1391.28
1012.759	1389.02
1013.052	1384.27
1013.344	1360.32
1013.637	1370.03
1013.93	1334.78
1014.222	1320.54
1014.514	1344.5
1014.807	1340.66
1015.099	1332.07
1015.391	1325.06
1015.683	1310.6
1015.976	1320.77
1016.268	1307.44
1016.56	1289.58
1016.851	1295.69
1017.143	1277.83
1017.435	1242.58
1017.727	1252.98
1018.018	1249.81
1018.31	1270.6
1018.602	1233.99
1018.893	1256.14
1019.185	1238.51
1019.476	1216.82
1019.767	1221.56
1020.058	1219.53
1020.35	1213.43
1020.641	1191.51
1020.932	1161
1021.223	1161.23
1021.514	1168.23
1021.804	1128.69
1022.095	1154.22
1022.386	1143.6
1022.677	1131.4
1022.967	1127.1
1023.258	1137.05
1023.548	1115.8
1023.839	1102.47
1024.129	1111.74
1024.419	1127.33
1024.709	1097.5
1025	1086.65
1025.29	1088.91
1025.58	1084.84
1025.87	1054.56
1026.16	1059.31
1026.449	1061.79
1026.739	1030.83
1027.029	1025.41
1027.319	1017.28
1027.608	1032.64
1027.898	1003.26
1028.187	1005.07
1028.477	1007.33
1028.766	1005.98
1029.055	1010.72
1029.344	1000.33
1029.634	1000.55
1029.923	994.68
1030.212	1005.07
1030.501	966.88
1030.79	944.96
1031.078	958.29
1031.367	956.26
1031.656	953.77
1031.945	942.48
1032.233	936.15
1032.522	920.55
1032.81	913.55
1033.099	909.71
1033.387	924.85
1033.675	915.58
1033.963	875.13
1034.251	896.83
1034.54	881.46
1034.828	881.01
1035.116	879.2
1035.403	864.96
1035.691	869.93
1035.979	875.58
1036.267	862.25
1036.554	845.98
1036.842	864.06
1037.129	854.79
1037.417	853.66
1037.704	834.23
1037.992	803.95
1038.279	798.75
1038.566	783.61
1038.853	783.61
1039.14	783.61
