Data from White_paper_FLMS001491_063.txt Node
Date: Tue Feb 07 10:35:24 GMT 2017
User: dcchb
Spectrometer: FLMS00149
Trigger mode: 0
Integration Time (sec): 2.000000E-2
Scans to average: 10
Electric dark correction enabled: true
Nonlinearity correction enabled: false
Boxcar width: 0
XAxis mode: Wavelengths
Number of Pixels in Spectrum: 2048
>>>>>Begin Spectral Data<<<<<
341.393	-22.46
341.776	-22.46
342.16	-22.46
342.543	-54.32
342.927	-68.56
343.31	-61.33
343.693	-72.17
344.077	-85.96
344.46	-30.37
344.843	-66.75
345.226	-44.38
345.61	-21.55
345.993	-25.17
346.376	-22.68
346.759	11.21
347.142	29.29
347.525	64.32
347.908	41.27
348.291	75.62
348.674	105.68
349.057	102.96
349.44	130.08
349.823	127.6
350.206	180.7
350.588	222.51
350.971	220.02
351.354	250.53
351.737	252.11
352.119	280.13
352.502	288.27
352.884	299.12
353.267	298.89
353.65	320.13
354.032	315.84
354.414	308.38
354.797	330.98
355.179	346.12
355.562	368.27
355.944	351.54
356.326	360.58
356.709	364.2
357.091	372.79
357.473	372.79
357.855	394.48
358.238	393.13
358.62	374.37
359.002	356.52
359.384	386.8
359.766	368.27
360.148	373.69
360.53	392
360.912	360.58
361.294	375.27
361.676	362.84
362.057	356.06
362.439	361.71
362.821	343.18
363.203	389.74
363.584	382.96
363.966	344.31
364.348	376.85
364.729	368.49
365.111	360.36
365.493	377.08
365.874	358.1
366.256	347.25
366.637	369.4
367.019	343.41
367.4	382.05
367.781	360.81
368.163	342.05
368.544	358.55
368.925	347.48
369.306	371.66
369.688	366.01
370.069	370.53
370.45	363.07
370.831	365.33
371.212	362.84
371.593	356.52
371.974	369.85
372.355	406.23
372.736	373.69
373.117	394.26
373.498	363.75
373.879	361.04
374.26	382.5
374.641	379.79
375.021	366.23
375.402	369.17
375.783	363.52
376.163	381.15
376.544	389.28
376.925	380.24
377.305	408.94
377.686	389.06
378.066	419.79
378.447	393.8
378.827	394.26
379.208	396.74
379.588	407.81
379.968	396.74
380.349	420.02
380.729	408.72
381.109	425.44
381.489	411.43
381.87	418.66
382.25	427.7
382.63	431.32
383.01	428.83
383.39	432.45
383.77	441.94
384.15	422.28
384.53	418.21
384.91	435.16
385.29	454.37
385.67	433.35
386.049	447.36
386.429	470.41
386.809	480.35
387.189	461.37
387.568	466.57
387.948	494.14
388.328	462.28
388.707	471.77
389.087	484.2
389.466	493.01
389.846	481.03
390.225	476.06
390.605	486.91
390.984	491.88
391.363	510.64
391.743	515.16
392.122	510.18
392.501	517.87
392.881	540.92
393.26	533.46
393.639	556.51
394.018	521.03
394.397	575.95
394.776	535.95
395.155	579.56
395.534	550.64
395.913	570.3
396.292	564.87
396.671	585.44
397.05	579.34
397.429	606.23
397.808	606.68
398.186	610.07
398.565	599.45
398.944	597.87
399.323	606.23
399.701	634.02
400.08	615.04
400.458	671.08
400.837	669.5
401.215	662.27
401.594	637.19
401.972	691.87
402.351	681.25
402.729	711.08
403.107	709.05
403.486	716.28
403.864	705.66
404.242	750.4
404.62	755.15
404.999	771.65
405.377	754.92
405.755	803.96
406.133	817.75
406.511	812.32
406.889	827.69
407.267	859.1
407.645	877.18
408.023	909.27
408.401	921.25
408.779	911.98
409.156	907.91
409.534	973
409.912	1002.15
410.29	1039.44
410.667	1073.56
411.045	1074.69
411.422	1077.63
411.8	1136.16
412.178	1167.12
412.555	1190.84
412.933	1213.67
413.31	1253.44
413.687	1269.71
414.065	1285.98
414.442	1312.2
414.819	1353.78
415.197	1394.23
415.574	1413.21
415.951	1439.43
416.328	1451.18
416.705	1463.38
417.082	1515.13
417.46	1572.98
417.837	1572.76
418.214	1571.4
418.591	1596.94
418.967	1648.69
419.344	1669.02
419.721	1677.16
420.098	1695.24
420.475	1744.5
420.852	1771.17
421.228	1788.34
421.605	1781.34
421.982	1819.98
422.358	1877.61
422.735	1907.89
423.111	1910.6
423.488	1957.83
423.864	1964.61
424.241	2002.57
424.617	2052.52
424.994	2015.91
425.37	2072.63
425.746	2059.52
426.123	2119.41
426.499	2143.14
426.875	2185.85
427.251	2204.38
427.627	2264.49
428.003	2308.1
428.379	2336.8
428.756	2327.76
429.132	2393.75
429.507	2414.09
429.883	2432.85
430.259	2510.36
430.635	2511.04
431.011	2506.29
431.387	2603.69
431.763	2689.11
432.138	2679.62
432.514	2739.28
432.89	2723.01
433.265	2764.14
433.641	2847.07
434.016	2887.97
434.392	2915.77
434.767	2975.88
435.143	2994.64
435.518	3026.05
435.894	3075.99
436.269	3116.22
436.644	3165.71
437.02	3178.36
437.395	3210.23
437.77	3235.76
438.145	3293.84
438.52	3321.64
438.895	3369.32
439.271	3405.93
439.646	3454.29
440.021	3479.82
440.395	3502.2
440.77	3492.93
441.145	3544.45
441.52	3581.52
441.895	3573.15
442.27	3652.47
442.645	3621.51
443.019	3729.76
443.394	3699.03
443.769	3759.14
444.143	3741.74
444.518	3807.05
444.892	3802.53
445.267	3784.22
445.641	3847.72
446.016	3870.77
446.39	3924.33
446.764	3915.29
447.139	3941.96
447.513	3969.75
447.887	4006.59
448.262	4015.18
448.636	4035.29
449.01	4085.23
449.384	4082.75
449.758	4137.21
450.132	4153.93
450.506	4195.29
450.88	4247.49
451.254	4277.32
451.628	4311.89
452.002	4377.65
452.376	4382.17
452.75	4423.08
453.123	4437.54
453.497	4546.46
453.871	4507.14
454.244	4655.84
454.618	4687.48
454.992	4720.24
455.365	4701.26
455.739	4849.51
456.112	4886.79
456.486	4931.09
456.859	4973.57
457.232	5131.31
457.606	5084.98
457.979	5157.75
458.352	5245.2
458.725	5320.23
459.099	5348.7
459.472	5444.52
459.845	5510.05
460.218	5499.21
460.591	5611.29
460.964	5656.94
461.337	5827.56
461.71	5862.36
462.083	5959.31
462.456	5993.2
462.829	5932.64
463.201	6144.39
463.574	6098.74
463.947	6204.05
464.32	6387.54
464.692	6387.54
465.065	6452.17
465.438	6538.73
465.81	6613.98
466.183	6692.17
466.555	6899.85
466.928	6910.92
467.3	6861.2
467.672	7042.22
468.045	7218.93
468.417	7157.02
468.789	7308.88
469.161	7349.55
469.534	7513.39
469.906	7675.19
470.278	7705.7
470.65	7821.18
471.022	7964.9
471.394	8109.08
471.766	8185.91
472.138	8275.86
472.51	8414.38
472.882	8534.61
473.253	8660.25
473.625	8800.59
473.997	8943.63
474.369	9029.96
474.74	9100.47
475.112	9271.31
475.484	9453.45
475.855	9580.91
476.227	9650.73
476.598	9926.43
476.97	10069.03
477.341	10208.69
477.713	10363.48
478.084	10420.43
478.455	10751.95
478.827	10886.18
479.198	11172.28
479.569	11163.92
479.94	11513.96
480.311	11613.85
480.682	11821.07
481.053	12078.69
481.424	12287.95
481.795	12373.38
482.166	12522.3
482.537	12784.44
482.908	13053.13
483.279	13136.97
483.65	13330.86
484.021	13611.53
484.391	13726.56
484.762	13816.05
485.133	14012.88
485.503	14154.57
485.874	14572.87
486.244	14669.81
486.615	14956.58
486.985	15067.09
487.356	15281.77
487.726	15511.37
488.097	15832.49
488.467	15912.49
488.837	16190.9
489.207	16333.95
489.578	16564.45
489.948	16746.37
490.318	16943.65
490.688	17086.92
491.058	17266.13
491.428	17574.37
491.798	17576.18
492.168	17963.74
492.538	18082.6
492.908	18201.92
493.278	18478.3
493.648	18534.8
494.017	18718.52
494.387	18914.67
494.757	19058.4
495.126	19299.75
495.496	19274.21
495.866	19430.36
496.235	19624.26
496.605	19918.04
496.974	19956
497.344	20248.87
497.713	20205.49
498.082	20467.85
498.452	20692.93
498.821	20672.14
499.19	20728.64
499.559	20995.97
499.928	21176.31
500.298	21263.99
500.667	21503.53
501.036	21462.85
501.405	21705.56
501.774	21785.56
502.143	21902.39
502.512	22153.01
502.88	22329.72
503.249	22259.44
503.618	22441.36
503.987	22482.71
504.356	22661.69
504.724	22833.21
505.093	22941.91
505.462	23047.22
505.83	23283.14
506.199	23408.57
506.567	23717.71
506.936	23713.19
507.304	23977.36
507.672	24062.11
508.041	24237.02
508.409	24389.33
508.777	24497.12
509.145	24641.3
509.514	24747.06
509.882	24955.42
510.25	24970.56
510.618	25166.03
510.986	25316.99
511.354	25551.11
511.722	25736.41
512.09	25970.76
512.458	25908.16
512.826	26215.95
513.193	26404.42
513.561	26485.77
513.929	26623.85
514.297	26798.31
514.664	27140.9
515.032	27139.99
515.4	27349.25
515.767	27421.34
516.135	27627.44
516.502	27601
516.869	28113.98
517.237	28070.14
517.604	28123.47
517.972	28524.14
518.339	28585.38
518.706	28708.54
519.073	28763.68
519.44	28974.97
519.808	29354.85
520.175	29387.17
520.542	29809.98
520.909	29797.78
521.276	29917.77
521.643	30242.51
522.009	30551.43
522.376	30583.52
522.743	30777.41
523.11	31182.6
523.477	31338.07
523.843	31457.62
524.21	31833.2
524.577	31905.29
524.943	32159.52
525.31	32394.09
525.676	32631.6
526.043	32823.46
526.409	32862.55
526.776	33370.34
527.142	33500.28
527.508	33574.4
527.874	33889.87
528.241	34066.82
528.607	34063.2
528.973	34460.25
529.339	34468.84
529.705	34779.34
530.071	35076.96
530.437	35196.05
530.803	35433.11
531.169	35650.05
531.535	35767.56
531.901	35836.49
532.267	35992.19
532.632	36342.69
532.998	36399.18
533.364	36537.94
533.73	36609.35
534.095	36962.79
534.461	37087.3
534.826	37246.85
535.192	37197.13
535.557	37609.55
535.923	37710.56
536.288	37791.01
536.653	38021.51
537.019	38008.18
537.384	38200.94
537.749	38242.53
538.114	38550.31
538.479	38574.04
538.845	38807.03
539.21	38831.21
539.575	38981.49
539.94	39207.47
540.305	39324.3
540.67	39290.63
541.034	39472.55
541.399	39623.73
541.764	39886.1
542.129	39927.23
542.494	40055.81
542.858	40190.5
543.223	40131.74
543.587	40442.69
543.952	40515.69
544.316	40668.9
544.681	40667.32
545.045	40989.57
545.41	41147.53
545.774	41295.78
546.138	41212.84
546.503	41512.5
546.867	41425.49
547.231	41953.16
547.595	41909.32
547.959	41942.99
548.324	42114.74
548.688	42114.74
549.052	42411.91
549.416	42383.43
549.779	42610.77
550.143	42561.73
550.507	43018.67
550.871	43129.63
551.235	43021.16
551.599	43342.73
551.962	43519.22
552.326	43657.52
552.689	43880.57
553.053	43656.62
553.417	43780.68
553.78	44237.85
554.143	44022.03
554.507	44216.61
554.87	44475.81
555.234	44847.32
555.597	44596.93
555.96	44972.07
556.323	45060.43
556.686	45068.56
557.05	45560.3
557.413	45504.26
557.776	45704.48
558.139	45822.44
558.502	45869.44
558.865	45964.13
559.228	46220.62
559.59	46417
559.953	46543.55
560.316	46875.29
560.679	46920.04
561.041	47111.67
561.404	47374.94
561.767	47465.79
562.129	47414.71
562.492	47673.24
562.854	47841.82
563.217	47786.46
563.579	47883.85
563.941	48237.97
564.304	48360.68
564.666	48618.75
565.028	48731.29
565.39	48816.48
565.753	49057.83
566.115	49110.71
566.477	49379.63
566.839	49406.53
567.201	49663.02
567.563	49721.09
567.925	49992.5
568.287	49994.08
568.648	50074.76
569.01	50283.56
569.372	50367.4
569.734	50393.62
570.095	50733.95
570.457	50775.3
570.819	50881.06
571.18	50934.62
571.542	51072.24
571.903	51182.3
572.265	51334.61
572.626	51429.3
572.987	51367.15
573.349	51655.51
573.71	51637.88
574.071	51879.23
574.432	51968.04
574.794	52065.44
575.155	52034.03
575.516	52049.17
575.877	52157.64
576.238	52314.02
576.599	52500.23
576.96	52512.66
577.32	52466.56
577.681	52661.58
578.042	52605.09
578.403	52752.88
578.763	52718.08
579.124	52780.67
579.485	52871.97
579.845	53026.77
580.206	52994.91
580.566	53047.33
580.927	53144.51
581.287	53252.98
581.648	53155.13
582.008	53277.84
582.368	53195.8
582.728	53403.03
583.089	53314.22
583.449	53289.81
583.809	53346.99
584.169	53453.43
584.529	53433.76
584.889	53589.01
585.249	53471.96
585.609	53437.83
585.969	53575.46
586.329	53515.8
586.688	53555.8
587.048	53638.28
587.408	53526.64
587.768	53673.76
588.127	53606.87
588.487	53664.27
588.846	53791.04
589.206	53682.35
589.565	53721.44
589.925	53828.33
590.284	53800.08
590.643	53758.05
591.003	53917.14
591.362	53887.09
591.721	53822.45
592.08	53871.27
592.44	53974.54
592.799	53921.21
593.158	53912.85
593.517	53988.78
593.876	54051.15
594.235	53927.76
594.593	53965.28
594.952	54094.99
595.311	53884.83
595.67	54001.89
596.029	54200.52
596.387	54290.01
596.746	54268.32
597.104	54122.11
597.463	54175.67
597.822	54246.62
598.18	54230.81
598.538	54149.68
598.897	54309.45
599.255	54091.15
599.613	54551.25
599.972	54331.59
600.33	54416.11
600.688	54296.34
601.046	54461.99
601.404	54530.91
601.762	54420.18
602.12	54683.9
602.478	54645.94
602.836	54632.38
603.194	54426.73
603.552	54571.36
603.91	54463.57
604.268	54664.69
604.625	54624.92
604.983	54711.25
605.341	54552.38
605.698	54752.15
606.056	54703.11
606.413	54671.47
606.771	54785.14
607.128	54871.01
607.485	54789.44
607.843	54746.72
608.2	54982.65
608.557	54986.27
608.914	54953.5
609.272	55052.7
609.629	55049.99
609.986	55244.79
610.343	55092.25
610.7	55246.82
611.057	55188.29
611.414	55163.44
611.771	55205.24
612.127	55333.6
612.484	55297.9
612.841	55373.6
613.198	55209.31
613.554	55290.66
613.911	55433.71
614.267	55377.44
614.624	55381.28
614.98	55370.66
615.337	55495.63
615.693	55460.38
616.05	55441.85
616.406	55655.4
616.762	55517.1
617.118	55539.92
617.475	55502.41
617.831	55498.12
618.187	55537.44
618.543	55592.13
618.899	55758.22
619.255	55701.05
619.611	55698.11
619.967	55766.13
620.323	55818.11
620.678	55679.81
621.034	55645.23
621.39	55692.69
621.746	55689.98
622.101	55959.35
622.457	55670.77
622.812	55763.42
623.168	55846.58
623.523	55783.08
623.879	55847.94
624.234	55668.51
624.589	55845.23
624.945	55785.79
625.3	55807.71
625.655	55793.02
626.01	55797.32
626.365	55906.69
626.72	55815.4
627.075	55830.09
627.43	55769.3
627.785	55809.52
628.14	55851.33
628.495	55799.13
628.85	55822.18
629.205	55717.77
629.559	55883.19
629.914	55751.44
630.269	55833.02
630.623	55671.22
630.978	55725.91
631.332	55913.47
631.687	55863.98
632.041	55736.98
632.396	55801.39
632.75	55668.96
633.104	55744.21
633.459	55641.39
633.813	55611.11
634.167	55657.43
634.521	55691.56
634.875	55625.57
635.229	55670.09
635.583	55538.57
635.937	55571.56
636.291	55455.86
636.645	55516.42
636.999	55456.08
637.352	55499.7
637.706	55371.11
638.06	55498.34
638.413	55406.59
638.767	55422.64
639.121	55415.18
639.474	55292.47
639.828	55328.18
640.181	55348.29
640.534	55443.88
640.888	55315.75
641.241	55070.78
641.594	55170.22
641.947	55358.23
642.301	55273.26
642.654	55296.77
643.007	55254.73
643.36	55275.75
643.713	55215.19
644.066	55293.15
644.419	55049.99
644.771	54969.32
645.124	54627.41
645.477	54685.48
645.83	54444.59
646.182	54372.95
646.535	54283.91
646.888	54325.94
647.24	54241.65
647.593	54421.76
647.945	54342.67
648.298	54246.85
648.65	54178.83
649.002	54115.33
649.355	54186.51
649.707	54142.45
650.059	54247.3
650.411	54661.3
650.763	54588.99
651.115	54946.27
651.467	54902.43
651.819	54781.07
652.171	54751.92
652.523	54740.4
652.875	54759.38
653.227	54600.97
653.578	54857
653.93	54699.27
654.282	54572.04
654.633	54544.92
654.985	54667.86
655.337	54588.08
655.688	54626.95
656.039	54676.44
656.391	54480.74
656.742	54491.82
657.094	54531.81
657.445	54675.54
657.796	54661.75
658.147	54471.25
658.498	54516.22
658.849	54563.45
659.2	54537.69
659.551	54411.82
659.902	54515.77
660.253	54460.86
660.604	54495.43
660.955	54317.36
661.306	54456.56
661.656	54376.11
662.007	54394.19
662.358	54367.75
662.708	54341.09
663.059	54353.74
663.409	54229
663.76	54452.49
664.11	54363.23
664.461	54377.47
664.811	54363.91
665.161	54344.48
665.511	54184.48
665.862	54237.36
666.212	54313.97
666.562	54384.93
666.912	54269
667.262	54152.84
667.612	54217.25
667.962	54340.86
668.312	54171.37
668.662	54316.91
669.011	54233.07
669.361	54082.34
669.711	54114.88
670.06	54038.27
670.41	54027.42
670.76	53886.41
671.109	54125.72
671.459	54024.26
671.808	54006.86
672.157	54014.77
672.507	53784.49
672.856	53871.04
673.205	53803.02
673.554	53832.4
673.904	53820.42
674.253	53942.45
674.602	53952.62
674.951	53399.64
675.3	53220.44
675.649	53740.65
675.998	53692.74
676.346	53694.77
676.695	53829.46
677.044	53569.35
677.393	53637.6
677.741	53653.87
678.09	53558.73
678.438	53440.77
678.787	53545.63
679.135	53431.5
679.484	53262.7
679.832	53286.2
680.181	53190.38
680.529	53251.4
680.877	53184.05
681.225	53102.02
681.573	53281
681.922	53054.79
682.27	53106.09
682.618	52949.71
682.966	52980.22
683.314	52901.8
683.661	52960.33
684.009	52735.25
684.357	52578.42
684.705	52498.65
685.053	52688.25
685.4	52550.85
685.748	52317.64
686.095	52447.8
686.443	52245.77
686.79	52218.2
687.138	52245.55
687.485	52263.17
687.832	52042.39
688.18	52092.78
688.527	51912.9
688.874	51937.08
689.221	51805.56
689.568	51625.9
689.915	51639.01
690.262	51583.87
690.609	51550.42
690.956	51382.29
691.303	51367.15
691.65	51273.82
691.997	51180.94
692.344	50846.94
692.69	50891.91
693.037	50953.83
693.383	50695.08
693.73	50754.96
694.077	50603.56
694.423	50520.85
694.769	50605.59
695.116	50434.3
695.462	50316.11
695.808	50174.64
696.155	50233.4
696.501	49944.14
696.847	49979.62
697.193	49819.4
697.539	49840.41
697.885	49670.47
698.231	49518.84
698.577	49551.83
698.923	49340.09
699.269	49284.72
699.614	49054.44
699.96	49044.73
700.306	49038.85
700.651	48883.6
700.997	48753.21
701.342	48737.84
701.688	48649.71
702.033	48594.8
702.379	48547.79
702.724	48477.28
703.069	48446.33
703.415	48039.78
703.76	48066.45
704.105	48098.31
704.45	47939.9
704.795	47676.18
705.14	47689.06
705.485	47563.64
705.83	47404.54
706.175	47605.9
706.52	47350.76
706.865	47188.96
707.209	47114.16
707.554	47065.8
707.899	47074.16
708.243	46830.1
708.588	46697.22
708.932	46576.09
709.277	46583.55
709.621	46512.14
709.966	46278.92
710.31	46364.35
710.654	46087.29
710.998	46209.1
711.342	46214.07
711.687	46028.76
712.031	45857.92
712.375	45732.05
712.719	45836
713.063	45784.02
713.407	45701.99
713.75	45445.73
714.094	45682.1
714.438	45329.57
714.782	45320.98
715.125	45018.39
715.469	45232.4
715.812	44876.93
716.156	44871.05
716.499	44681.9
716.843	45012.07
717.186	44671.74
717.53	44816.36
717.873	44814.33
718.216	44677.38
718.559	44474.68
718.902	44093.67
719.246	44279.43
719.589	44126.89
719.932	43944.97
720.275	44025.88
720.617	44102.71
720.96	44009.15
721.303	43917.86
721.646	43833.34
721.989	43651.42
722.331	43753.12
722.674	43595.15
723.016	43561.03
723.359	43610.97
723.701	43453.01
724.044	43252.34
724.386	43011.89
724.729	43291.66
725.071	43196.97
725.413	43150.87
725.755	42969.18
726.097	43009.18
726.439	42651
726.782	42768.06
727.124	42907.26
727.465	42700.94
727.807	42695.52
728.149	42491.91
728.491	42386.82
728.833	42445.13
729.175	42419.36
729.516	42180.05
729.858	42278.13
730.199	42310.44
730.541	42062.76
730.882	42025.48
731.224	42241.06
731.565	42058.24
731.906	41922.88
732.248	41995.87
732.589	41835.2
732.93	41755.2
733.271	41762.88
733.612	41760.17
733.953	41759.5
734.294	41512.27
734.635	41318.6
734.976	41516.56
735.317	41273.86
735.658	41177.36
735.999	41278.6
736.339	41145.27
736.68	41220.98
737.021	41077.25
737.361	41088.1
737.702	41084.26
738.042	41140.08
738.383	40886.75
738.723	40952.51
739.063	40741.67
739.404	40929.23
739.744	40723.82
740.084	40604.5
740.424	40718.17
740.764	40443.15
741.104	40706.42
741.444	40417.38
741.784	40366.76
742.124	40402.69
742.464	40350.94
742.804	40291.29
743.143	40119.09
743.483	40304.84
743.823	39916.15
744.162	39991.63
744.502	40126.32
744.841	39896.72
745.181	39994.8
745.52	39717.97
745.86	39889.49
746.199	39733.11
746.538	39720.9
746.877	39728.36
747.216	39689.49
747.556	39562.72
747.895	39549.84
748.234	39438.2
748.573	39428.03
748.911	39239.11
749.25	39197.3
749.589	39104.2
749.928	39171.99
750.267	39106.01
750.605	39042.96
750.944	38911.21
751.283	38688.84
751.621	38800.93
751.96	38555.96
752.298	38575.85
752.636	38664.89
752.975	38413.82
753.313	38251.34
753.651	38473.25
753.989	38274.16
754.327	38118.69
754.666	38038.24
755.004	38007.28
755.342	37963.44
755.679	37942.19
756.017	37691.81
756.355	37792.37
756.693	37594.63
757.031	37720.05
757.368	37569.1
757.706	37501.08
758.044	37361.19
758.381	37229.9
758.719	37054.99
759.056	37187.19
759.394	36949.23
759.731	36837.59
760.068	36745.39
760.405	36617.71
760.743	36573.64
761.08	36557.82
761.417	36328.68
761.754	36262.46
762.091	36332.97
762.428	36003.49
762.765	35892.76
763.102	35884.17
763.438	35821.12
763.775	35628.81
764.112	35656.6
764.449	35748.58
764.785	35269.72
765.122	35245.32
765.458	35070.41
765.795	34978.88
766.131	35128.26
766.467	34918.09
766.804	34757.65
767.14	34653.69
767.476	34623.19
767.812	34465.9
768.148	34504.09
768.485	34235.17
768.821	34098.45
769.157	33994.05
769.492	34034.27
769.828	33836.77
770.164	33579.37
770.5	33534.63
770.836	33533.5
771.171	33327.63
771.507	33263.67
771.842	33023.23
772.178	33076.11
772.513	33018.03
772.849	32797.7
773.184	32668.43
773.519	32706.17
773.855	32447.65
774.19	32412.62
774.525	32271.38
774.86	32227.32
775.195	32144.61
775.53	31971.28
775.865	31752.75
776.2	31582.14
776.535	31516.83
776.87	31410.61
777.205	31353.44
777.539	31048.14
777.874	31284.97
778.209	31024.86
778.543	30803.85
778.878	30725.89
779.212	30809.73
779.547	30426.23
779.881	30654.93
780.215	30448.15
780.55	30368.61
780.884	30130.87
781.218	30107.15
781.552	30186.92
781.886	29984.44
782.22	29732.47
782.554	29667.61
782.888	29359.37
783.222	29456.54
783.556	29188.75
783.889	29183.78
784.223	29072.37
784.557	29010.9
784.89	28974.75
785.224	28718.93
785.557	28845.03
785.891	28594.42
786.224	28476.23
786.558	28450.92
786.891	28255.44
787.224	28097.03
787.557	28092.51
787.891	27974.77
788.224	28019.07
788.557	27949.01
788.89	27881.89
789.223	27779.3
789.556	27519.87
789.888	27427.22
790.221	27327.78
790.554	27219.54
790.887	27140.9
791.219	27177.96
791.552	27021.8
791.884	26889.15
792.217	26851.64
792.549	26751.08
792.882	26577.97
793.214	26392.44
793.546	26519.22
793.879	26281.48
794.211	26217.3
794.543	26286.46
794.875	26174.82
795.207	26166.23
795.539	26024.99
795.871	26022.73
796.203	25744.32
796.535	25742.06
796.867	25556.76
797.198	25570.09
797.53	25440.38
797.862	25404.9
798.193	25374.16
798.525	25182.08
798.856	25164
799.188	24964.91
799.519	24910.67
799.85	24689.21
800.182	24800.62
800.513	24818.02
800.844	24423
801.175	24706.84
801.506	24640.62
801.837	24434.75
802.168	24302.33
802.499	24285.15
802.83	24161.54
803.161	24098.26
803.491	24078.38
803.822	24130.13
804.153	23857.59
804.483	23829.35
804.814	23741.21
805.145	23612.63
805.475	23633.19
805.805	23567.66
806.136	23573.76
806.466	23445.63
806.796	23440.65
807.126	23217.84
807.457	23189.81
807.787	23223.94
808.117	23161.11
808.447	23050.16
808.777	23018.97
809.107	22942.81
809.436	22920.22
809.766	22845.42
810.096	22757.28
810.426	22601.35
810.755	22724.29
811.085	22628.47
811.414	22581.92
811.744	22335.37
812.073	22385.77
812.403	22209.73
812.732	22210.63
813.061	22146.9
813.39	22118.88
813.719	22156.85
814.049	22077.3
814.378	21976.29
814.707	21898.77
815.036	21886.8
815.365	21704.2
815.693	21470.31
816.022	21589.86
816.351	21539.91
816.68	21397.77
817.008	21459.01
817.337	21299.69
817.665	21307.83
817.994	21259.7
818.322	21302.18
818.651	21052.7
818.979	21193.48
819.307	21160.71
819.636	21023.09
819.964	21029.19
820.292	21009.08
820.62	21072.58
820.948	20890.44
821.276	20995.3
821.604	20862.64
821.932	21025.58
822.259	20949.87
822.587	20888.18
822.915	20918.91
823.243	20962.3
823.57	20738.8
823.898	20766.83
824.225	20896.54
824.553	20821.97
824.88	20840.72
825.207	20926.6
825.535	20826.94
825.862	20802.08
826.189	20751.46
826.516	20998.01
826.843	20855.41
827.17	20876.2
827.497	20824.23
827.824	20764.12
828.151	20799.59
828.478	20826.94
828.805	20871.23
829.131	20679.37
829.458	20748.3
829.785	20657.45
830.111	20600.73
830.438	20829.2
830.764	20703.1
831.09	20730.67
831.417	20689.09
831.743	20790.56
832.069	20699.94
832.395	20611.35
832.722	20737.68
833.048	20586.49
833.374	20616.77
833.7	20445.03
834.026	20518.02
834.351	20598.02
834.677	20520.51
835.003	20535.19
835.329	20603.22
835.654	20474.18
835.98	20377.01
836.306	20390.57
836.631	20302.43
836.956	20288.87
837.282	20381.53
837.607	20245.94
837.932	20164.58
838.258	20215.88
838.583	20081.87
838.908	19966.85
839.233	20121.19
839.558	20042.55
839.883	20000.97
840.208	19956.68
840.533	19973.85
840.858	20020.18
841.182	19904.93
841.507	19891.82
841.832	19784.03
842.156	19806.17
842.481	19788.77
842.805	19718.27
843.13	19627.2
843.454	19564.6
843.778	19539.97
844.103	19493.41
844.427	19435.56
844.751	19406.18
845.075	19416.58
845.399	19317.37
845.723	19218.62
846.047	19222.91
846.371	19113.54
846.695	19072.63
847.019	18934.11
847.343	18778.4
847.666	18759.42
847.99	18653.89
848.313	18572.53
848.637	18478.07
848.96	18500.67
849.284	18389.94
849.607	18255.93
849.931	18239.89
850.254	18115.82
850.577	18081.47
850.9	17952.44
851.223	17883.06
851.546	17794.25
851.869	17675.61
852.192	17807.13
852.515	17549.74
852.838	17596.97
853.161	17530.75
853.483	17441.94
853.806	17354.71
854.129	17283.75
854.451	17336.41
854.774	17155.4
855.096	17130.54
855.419	17072.46
855.741	17078.34
856.063	16881.05
856.385	16906.36
856.708	16861.84
857.03	16818.68
857.352	16706.82
857.674	16745.92
857.996	16641.06
858.318	16685.35
858.64	16614.17
858.961	16542.76
859.283	16515.87
859.605	16374.85
859.926	16420.05
860.248	16323.55
860.57	16279.26
860.891	16286.27
861.212	16187.06
861.534	16183.9
861.855	16153.39
862.176	16191.35
862.498	16146.16
862.819	16090.34
863.14	15978.03
863.461	16088.53
863.782	15973.05
864.103	15976.22
864.424	15853.06
864.745	15884.24
865.065	15831.59
865.386	15803.34
865.707	15753.63
866.027	15765.83
866.348	15726.73
866.668	15713.85
866.989	15706.17
867.309	15594.99
867.63	15553.4
867.95	15643.12
868.27	15501.65
868.59	15613.29
868.91	15508.89
869.23	15467.53
869.55	15435.44
869.87	15497.36
870.19	15381.43
870.51	15418.72
870.83	15403.8
871.15	15259.85
871.469	15266.63
871.789	15361.77
872.109	15267.54
872.428	15115.22
872.748	15236.8
873.067	15128.56
873.386	15250.14
873.706	15166.75
874.025	15019.41
874.344	15024.15
874.663	15102.12
874.982	14977.6
875.301	15023.7
875.62	14878.62
875.939	14926.3
876.258	14922.46
876.577	14839.75
876.896	14784.61
877.214	14787.32
877.533	14707.1
877.852	14805.63
878.17	14820.99
878.489	14772.86
878.807	14775.8
879.125	14764.05
879.444	14642.92
879.762	14640.89
880.08	14642.24
880.398	14491.29
880.716	14512.3
881.034	14486.31
881.352	14503.26
881.67	14452.19
881.988	14356.6
882.306	14424.17
882.624	14356.6
882.941	14272.99
883.259	14255.59
883.577	14187.79
883.894	14190.28
884.212	14158.41
884.529	14141.46
884.846	14151.86
885.164	14024.86
885.481	13960.68
885.798	14073.44
886.115	13953.67
886.432	13982.37
886.75	13920.91
887.067	13845.43
887.383	13898.76
887.7	13888.82
888.017	13663.96
888.334	13801.59
888.651	13690.18
888.967	13682.49
889.284	13661.7
889.6	13544.87
889.917	13525.66
890.233	13562.72
890.55	13453.57
890.866	13409.51
891.182	13422.61
891.498	13370.41
891.815	13325.89
892.131	13224.88
892.447	13251.32
892.763	13197.76
893.079	13202.73
893.395	13103.98
893.71	13000.25
894.026	12990.76
894.342	12904.66
894.657	12859.01
894.973	12894.49
895.289	12866.7
895.604	12864.66
895.92	12816.08
896.235	12757.55
896.55	12757.55
896.865	12628.96
897.181	12570.21
897.496	12611.79
897.811	12552.13
898.126	12530.89
898.441	12385.35
898.756	12448.63
899.071	12308.74
899.386	12367.5
899.7	12192.59
900.015	12137.68
900.33	12049.99
900.644	12083.89
900.959	12098.35
901.273	12038.69
901.588	11964.8
901.902	11973.16
902.216	11842.09
902.531	11839.15
902.845	11801.19
903.159	11802.99
903.473	11646.84
903.787	11612.04
904.101	11555.77
904.415	11524.13
904.729	11526.62
905.042	11470.57
905.356	11412.27
905.67	11411.82
905.984	11443.68
906.297	11352.84
906.611	11273.29
906.924	11283.23
907.237	11245.72
907.551	11210.47
907.864	11150.58
908.177	11061.09
908.491	10936.12
908.804	10931.38
909.117	10905.62
909.43	10756.02
909.743	10799.18
910.056	10815.9
910.368	10714.66
910.681	10751.72
910.994	10613.65
911.307	10639.18
911.619	10544.5
911.932	10518.51
912.244	10481.45
912.557	10408.46
912.869	10335.46
913.181	10300.66
913.494	10381.11
913.806	10277.84
914.118	10220.89
914.43	10127.33
914.742	10138.41
915.054	10083.72
915.366	9994.91
915.678	9977.73
915.99	9945.19
916.302	9890.73
916.613	9847.34
916.925	9831.97
917.236	9837.4
917.548	9795.59
917.859	9719.89
918.171	9661.81
918.482	9621.36
918.794	9585.2
919.105	9613.9
919.416	9471.53
919.727	9472.43
920.038	9409.61
920.349	9387.69
920.66	9325.32
920.971	9338.43
921.282	9293.23
921.593	9241.25
921.903	9207.36
922.214	9150.18
922.525	9106.12
922.835	9047.81
923.146	8990.87
923.456	8990.41
923.767	8963.75
924.077	8855.05
924.387	8903.18
924.697	8776.41
925.008	8817.76
925.318	8729.63
925.628	8800.81
925.938	8766.01
926.248	8578.67
926.558	8570.54
926.867	8577.54
927.177	8517.21
927.487	8449.86
927.796	8423.65
928.106	8356.08
928.416	8303.2
928.725	8375.97
929.034	8263.2
929.344	8248.96
929.653	8273.82
929.962	8158.34
930.271	8127.84
930.581	8065.47
930.89	8090.55
931.199	8019.37
931.508	8003.32
931.817	7983.89
932.125	7970.55
932.434	7909.09
932.743	7855.98
933.051	7853.95
933.36	7807.17
933.669	7735.08
933.977	7727.4
934.286	7732.82
934.594	7660.73
934.902	7564.91
935.21	7591.58
935.519	7586.61
935.827	7610.56
936.135	7479.72
936.443	7379.38
936.751	7388.87
937.059	7387.97
937.367	7305.26
937.674	7335.99
937.982	7325.6
938.29	7304.13
938.597	7237.01
938.905	7146.17
939.213	7176.68
939.52	7118.6
939.827	7100.97
940.135	7020.3
940.442	6997.25
940.749	7012.84
941.056	7042.44
941.363	6924.03
941.67	6932.16
941.977	6839.51
942.284	6803.58
942.591	6803.13
942.898	6776.69
943.205	6777.14
943.511	6699.85
943.818	6705.5
944.125	6557.26
944.431	6644.03
944.738	6619.18
945.044	6568.78
945.35	6519.74
945.657	6514.77
945.963	6518.84
946.269	6432.06
946.575	6447.43
946.881	6410.37
947.187	6377.6
947.493	6357.04
947.799	6337.6
948.105	6310.03
948.41	6263.25
948.716	6208.34
949.022	6201.79
949.327	6177.38
949.633	6105.29
949.938	6126.76
950.244	6146.65
950.549	6072.98
950.854	6011.51
951.16	5993.88
951.465	6029.36
951.77	5913.88
952.075	5882.92
952.38	5860.78
952.685	5931.96
952.99	5804.28
953.294	5811.97
953.599	5802.02
953.904	5743.04
954.209	5749.59
954.513	5689.94
954.818	5717.28
955.122	5642.25
955.426	5619.88
955.731	5644.96
956.035	5562.03
956.339	5521.35
956.643	5524.97
956.948	5504.63
957.252	5499.88
957.556	5495.14
957.86	5416.04
958.163	5440.68
958.467	5443.16
958.771	5345.31
959.075	5338.76
959.378	5302.15
959.682	5357.74
959.985	5285.88
960.289	5226.9
960.592	5240.91
960.896	5202.72
961.199	5151.64
961.502	5187.8
961.805	5160.01
962.108	5098.31
962.411	5126.33
962.714	5028.48
963.017	5044.98
963.32	5041.14
963.623	4978.54
963.926	4955.27
964.228	4950.07
964.531	4945.1
964.833	4947.36
965.136	4885.44
965.438	4868.49
965.741	4808.38
966.043	4837.53
966.345	4774.48
966.648	4784.2
966.95	4699.9
967.252	4740.58
967.554	4738.55
967.856	4675.05
968.158	4636.18
968.46	4626.69
968.761	4577.65
969.063	4609.29
969.365	4535.62
969.666	4559.57
969.968	4513.69
970.269	4477.09
970.571	4477.09
970.872	4476.18
971.174	4404.09
971.475	4420.59
971.776	4417.2
972.077	4409.74
972.378	4341.95
972.679	4374.72
972.98	4342.17
973.281	4310.31
973.582	4337.43
973.883	4263.08
974.183	4214.27
974.484	4192.57
974.785	4199.35
975.085	4202.74
975.386	4195.06
975.686	4167.49
975.986	4128.62
976.287	4170.43
976.587	4049.53
976.887	4049.07
977.187	4084.78
977.487	4066.02
977.787	3981.73
978.087	3969.75
978.387	3976.76
978.687	4002.07
978.987	3938.12
979.286	3901.06
979.586	3939.7
979.885	3911
980.185	3907.61
980.484	3848.63
980.784	3814.5
981.083	3815.41
981.382	3811.57
981.682	3825.35
981.981	3795.07
982.28	3744
982.579	3683.21
982.878	3722.3
983.177	3689.08
983.475	3687.28
983.774	3672.59
984.073	3648.18
984.372	3624.9
984.67	3610.22
984.969	3617.9
985.267	3562.53
985.566	3572.48
985.864	3531.12
986.162	3540.39
986.461	3493.83
986.759	3489.99
987.057	3454.74
987.355	3458.81
987.653	3492.48
987.951	3502.87
988.249	3429.66
988.547	3434.18
988.844	3375.19
989.142	3350.79
989.44	3351.47
989.737	3315.08
990.035	3319.38
990.332	3271.47
990.63	3300.62
990.927	3254.29
991.224	3294.52
991.521	3274.18
991.819	3237.57
992.116	3202.09
992.413	3212.26
992.71	3184.69
993.006	3190.57
993.303	3183.79
993.6	3127.06
993.897	3136.56
994.193	3141.08
994.49	3073.28
994.787	3072.38
995.083	3050.46
995.379	3048.42
995.676	3019.04
995.972	2975.43
996.268	2985.83
996.565	2955.77
996.861	2947.41
997.157	2963.68
997.453	2935.66
997.749	2912.16
998.044	2922.32
998.34	2879.61
998.636	2850.91
998.932	2857.92
999.227	2800.97
999.523	2848.2
999.818	2839.39
1000.114	2770.92
1000.409	2770.01
1000.704	2768.66
1001	2706.51
1001.295	2716.91
1001.59	2740.18
1001.885	2698.38
1002.18	2671.26
1002.475	2707.87
1002.77	2645.72
1003.065	2650.92
1003.359	2595.78
1003.654	2610.24
1003.949	2572.05
1004.243	2582.22
1004.538	2582.9
1004.832	2556.91
1005.127	2539.06
1005.421	2520.07
1005.715	2550.13
1006.009	2497.25
1006.304	2481.88
1006.598	2460.87
1006.892	2429.46
1007.186	2425.16
1007.48	2408.89
1007.773	2413.41
1008.067	2390.59
1008.361	2349.91
1008.655	2357.59
1008.948	2356.92
1009.242	2299.97
1009.535	2285.28
1009.829	2296.58
1010.122	2264.71
1010.415	2257.93
1010.708	2259.06
1011.001	2243.02
1011.295	2207.77
1011.588	2236.24
1011.881	2204.83
1012.173	2184.49
1012.466	2191.95
1012.759	2170.25
1013.052	2160.31
1013.344	2118.05
1013.637	2106.07
1013.93	2119.41
1014.222	2081.67
1014.514	2094.32
1014.807	2078.05
1015.099	2043.25
1015.391	2022.91
1015.683	2067.21
1015.976	2015.46
1016.268	1979.98
1016.56	2003.7
1016.851	1982.69
1017.143	1967.1
1017.435	1955.34
1017.727	1949.02
1018.018	1931.62
1018.31	1932.07
1018.602	1906.76
1018.893	1901.56
1019.185	1897.72
1019.476	1854.78
1019.767	1862.47
1020.058	1828.34
1020.35	1825.86
1020.641	1783.37
1020.932	1827.89
1021.223	1769.81
1021.514	1776.82
1021.804	1738.4
1022.095	1739.76
1022.386	1739.08
1022.677	1717.61
1022.967	1715.12
1023.258	1699.76
1023.548	1709.7
1023.839	1692.75
1024.129	1643.71
1024.419	1666.76
1024.709	1663.15
1025	1633.77
1025.29	1634.67
1025.58	1620.89
1025.87	1610.04
1026.16	1571.4
1026.449	1601.23
1026.739	1547.22
1027.029	1566.65
1027.319	1563.94
1027.608	1535.47
1027.898	1535.69
1028.187	1514.68
1028.477	1516.26
1028.766	1493.66
1029.055	1486.66
1029.344	1477.84
1029.634	1466.77
1029.923	1467.9
1030.212	1446.66
1030.501	1434.23
1030.79	1407.11
1031.078	1435.36
1031.367	1375.02
1031.656	1408.92
1031.945	1353.1
1032.233	1372.08
1032.522	1339.77
1032.81	1344.51
1033.099	1352.42
1033.387	1331.41
1033.675	1335.02
1033.963	1344.29
1034.251	1315.13
1034.54	1306.77
1034.828	1293.89
1035.116	1295.93
1035.403	1276.04
1035.691	1250.73
1035.979	1252.31
1036.267	1231.07
1036.554	1229.04
1036.842	1247.57
1037.129	1246.89
1037.417	1212.76
1037.704	1187.45
1037.992	1185.65
1038.279	1186.1
1038.566	1169.6
1038.853	1169.6
1039.14	1169.6
