Data from White_reflection_standard_FLMS001491_034.txt Node
Date: Tue Feb 07 10:32:02 GMT 2017
User: dcchb
Spectrometer: FLMS00149
Trigger mode: 0
Integration Time (sec): 2.000000E-2
Scans to average: 10
Electric dark correction enabled: true
Nonlinearity correction enabled: false
Boxcar width: 0
XAxis mode: Wavelengths
Number of Pixels in Spectrum: 2048
>>>>>Begin Spectral Data<<<<<
341.393	-10.4
341.776	-10.4
342.16	-10.4
342.543	-58.3
342.927	-78.87
343.31	-67.57
343.693	-87
344.077	-58.76
344.46	-63.73
344.843	-51.07
345.226	-51.3
345.61	-47.91
345.993	-17.85
346.376	11.53
346.759	19.21
347.142	30.96
347.525	27.8
347.908	63.28
348.291	77.96
348.674	104.4
349.057	110.05
349.44	111.86
349.823	122.48
350.206	178.53
350.588	225.3
350.971	241.58
351.354	269.15
351.737	295.36
352.119	294.23
352.502	301.46
352.884	326.32
353.267	309.14
353.65	334.91
354.032	343.27
354.414	344.85
354.797	348.69
355.179	368.8
355.562	369.48
355.944	376.26
356.326	377.84
356.709	388.46
357.091	409.93
357.473	380.55
357.855	384.4
358.238	424.17
358.62	404.51
359.002	404.74
359.384	403.15
359.766	414.45
360.148	405.19
360.53	398.18
360.912	415.81
361.294	412.64
361.676	425.53
362.057	395.24
362.439	419.88
362.821	410.16
363.203	398.18
363.584	409.03
363.966	411.74
364.348	407.45
364.729	391.63
365.111	408.35
365.493	406.32
365.874	397.5
366.256	420.55
366.637	403.15
367.019	405.64
367.4	439.54
367.781	434.34
368.163	426.88
368.544	430.5
368.925	423.27
369.306	430.95
369.688	442.02
370.069	448.35
370.45	419.88
370.831	418.29
371.212	437.73
371.593	429.37
371.974	456.26
372.355	456.03
372.736	454.23
373.117	460.55
373.498	432.98
373.879	442.47
374.26	446.77
374.641	441.34
375.021	454
375.402	434.56
375.783	486.99
376.163	509.59
376.544	495.13
376.925	491.51
377.305	472.76
377.686	479.31
378.066	480.44
378.447	477.28
378.827	519.76
379.208	507.56
379.588	492.19
379.968	531.74
380.349	509.14
380.729	499.87
381.109	536.26
381.489	536.03
381.87	532.19
382.25	557.95
382.63	564.96
383.01	547.78
383.39	574.45
383.77	577.39
384.15	580.55
384.53	581
384.91	576.48
385.29	600.44
385.67	603.37
386.049	618.06
386.429	623.26
386.809	608.12
387.189	644.5
387.568	632.53
387.948	638.85
388.328	664.39
388.707	652.19
389.087	636.14
389.466	682.24
389.846	687.44
390.225	663.03
390.605	672.3
390.984	684.95
391.363	697.38
391.743	733.54
392.122	710.04
392.501	739.87
392.881	737.16
393.26	756.36
393.639	757.72
394.018	762.47
394.397	775.35
394.776	790.49
395.155	780.54
395.534	789.58
395.913	807.66
396.292	827.32
396.671	831.84
397.05	848.79
397.429	836.81
397.808	827.1
398.186	854.44
398.565	866.42
398.944	878.85
399.323	879.98
399.701	890.15
400.08	898.51
400.458	900.32
400.837	919.07
401.215	920.88
401.594	938.73
401.972	929.69
402.351	953.87
402.729	952.52
403.107	962.69
403.486	966.08
403.864	980.77
404.242	999.07
404.62	1012.4
404.999	1066.19
405.377	1064.15
405.755	1047.88
406.133	1066.64
406.511	1098.28
406.889	1096.47
407.267	1106.86
407.645	1133.98
408.023	1141.66
408.401	1144.38
408.779	1164.94
409.156	1178.5
409.534	1196.35
409.912	1245.39
410.29	1229.35
410.667	1234.09
411.045	1277.71
411.422	1305.95
411.8	1296.92
412.178	1340.53
412.555	1344.15
412.933	1374.43
413.31	1371.04
413.687	1397.25
414.065	1408.32
414.442	1444.26
414.819	1466.18
415.197	1440.87
415.574	1480.87
415.951	1456.46
416.328	1520.19
416.705	1526.06
417.082	1568.77
417.46	1539.39
417.837	1562.22
418.214	1597.47
418.591	1587.3
418.967	1606.29
419.344	1623.46
419.721	1634.31
420.098	1701.42
420.475	1678.83
420.852	1719.28
421.228	1700.29
421.605	1739.16
421.982	1765.38
422.358	1749.33
422.735	1790.91
423.111	1806.05
423.488	1835.21
423.864	1847.41
424.241	1896
424.617	1884.7
424.994	1935.09
425.37	1943
425.746	1940.29
426.123	1964.02
426.499	1975.09
426.875	2016.9
427.251	2084.46
427.627	2117.01
428.003	2146.16
428.379	2165.37
428.756	2147.74
429.132	2228.87
429.507	2221.41
429.883	2275.19
430.259	2293.95
430.635	2297.34
431.011	2333.5
431.387	2370.33
431.763	2451.23
432.138	2470.67
432.514	2533.04
432.89	2500.73
433.265	2569.65
433.641	2596.77
434.016	2618.01
434.392	2667.73
434.767	2713.83
435.143	2712.25
435.518	2781.4
435.894	2765.8
436.269	2811.9
436.644	2838.57
437.02	2888.74
437.395	2904.1
437.77	2987.72
438.145	2984.1
438.52	3029.3
438.895	3034.27
439.271	3067.26
439.646	3140.03
440.021	3186.36
440.395	3157.43
440.77	3168.5
441.145	3166.92
441.52	3266.58
441.895	3270.2
442.27	3322.4
442.645	3298.67
443.019	3361.04
443.394	3359.01
443.769	3382.96
444.143	3416.18
444.518	3460.25
444.892	3438.55
445.267	3503.86
445.641	3553.58
446.016	3530.98
446.39	3591.54
446.764	3629.96
447.139	3632.67
447.513	3683.29
447.887	3672.45
448.262	3704.76
448.636	3742.73
449.01	3820.24
449.384	3831.09
449.758	3839
450.132	3916.96
450.506	3929.61
450.88	3967.58
451.254	3935.94
451.628	4009.61
452.002	4033.79
452.376	4125.77
452.75	4161.02
453.123	4215.26
453.497	4231.53
453.871	4276.5
454.244	4340.68
454.618	4409.6
454.992	4490.5
455.365	4466.55
455.739	4615.25
456.112	4605.3
456.486	4664.74
456.859	4733.43
457.232	4836.71
457.606	4834.22
457.979	4865.18
458.352	4971.85
458.725	5023.37
459.099	5089.13
459.472	5189.69
459.845	5245.74
460.218	5297.04
460.591	5330.71
460.964	5367.77
461.337	5507.65
461.71	5535.45
462.083	5689.34
462.456	5631.49
462.829	5680.08
463.201	5837.13
463.574	5811.82
463.947	5914.19
464.32	6079.16
464.692	6069.44
465.065	6093.4
465.438	6204.81
465.81	6335.43
466.183	6361.87
466.555	6527.06
466.928	6484.35
467.3	6556.21
467.672	6700.61
468.045	6826.71
468.417	6877.33
468.789	6989.87
469.161	7002.08
469.534	7174.27
469.906	7352.8
470.278	7411.78
470.65	7499.24
471.022	7600.03
471.394	7733.36
471.766	7847.25
472.138	7922.28
472.51	8081.14
472.882	8195.72
473.253	8273.23
473.625	8439.78
473.997	8614.46
474.369	8677.96
474.74	8726.78
475.112	8889.71
475.484	9147.56
475.855	9258.74
476.227	9383.71
476.598	9570.82
476.97	9715.68
477.341	9854.43
477.713	10082.67
478.084	10125.61
478.455	10365.83
478.827	10545.49
479.198	10805.37
479.569	10825.93
479.94	11134.4
480.311	11209.87
480.682	11504.33
481.053	11729.18
481.424	12010.53
481.795	12037.65
482.166	12241.94
482.537	12416.4
482.908	12662.49
483.279	12748.82
483.65	13038.53
484.021	13327.79
484.391	13455.24
484.762	13573.88
485.133	13810.03
485.503	13895.23
485.874	14170.93
486.244	14359.62
486.615	14519.39
486.985	14829.21
487.356	15025.82
487.726	15259.94
488.097	15500.38
488.467	15578.57
488.837	15929.3
489.207	16081.61
489.578	16361.6
489.948	16430.98
490.318	16730.86
490.688	16816.96
491.058	17027.8
491.428	17338.3
491.798	17489.71
492.168	17847.44
492.538	17851.51
492.908	18117.94
493.278	18246.53
493.648	18351.61
494.017	18682.67
494.387	18759.51
494.757	18911.37
495.126	19126.73
495.496	19239.95
495.866	19384.35
496.235	19516.1
496.605	19697.34
496.974	19989.3
497.344	20156.08
497.713	20229.52
498.082	20310.2
498.452	20505.68
498.821	20699.12
499.19	20812.56
499.559	21032.89
499.928	21100.91
500.298	21175.04
500.667	21498.19
501.036	21491.64
501.405	21789.48
501.774	21742.71
502.143	21961
502.512	22197.16
502.88	22365.51
503.249	22486.64
503.618	22542.91
503.987	22648.44
504.356	22892.96
504.724	22999.4
505.093	22966.63
505.462	23260.18
505.83	23345.83
506.199	23518.7
506.567	23818.58
506.936	23776.78
507.304	24168.86
507.672	24259.25
508.041	24346.7
508.409	24539.24
508.777	24892.9
509.145	25043.41
509.514	25104.42
509.882	25385.32
510.25	25352.55
510.618	25572.43
510.986	25732.88
511.354	25904.18
511.722	26217.39
512.09	26445.63
512.458	26305.07
512.826	26632.29
513.193	26757.94
513.561	26911.38
513.929	27202.45
514.297	27342.11
514.664	27630.91
515.032	27731.7
515.4	28042.2
515.767	28154.06
516.135	28380.5
516.502	28275.41
516.869	28806.7
517.237	28806.02
517.604	28805.12
517.972	29300.92
518.339	29398.32
518.706	29425.67
519.073	29701.14
519.44	29917.41
519.808	30208.25
520.175	30188.36
520.542	30681.45
520.909	30775.01
521.276	31034.89
521.643	31356.46
522.009	31434.2
522.376	31646.63
522.743	32025.15
523.11	32284.57
523.477	32562.08
523.843	32759.36
524.21	33009.3
524.577	33334.04
524.943	33357.99
525.31	33670.98
525.676	33939.22
526.043	34193
526.409	34343.96
526.776	34638.86
527.142	34750.72
527.508	34985.29
527.874	35364.04
528.241	35515.68
528.607	35575.56
528.973	35961.31
529.339	36027.75
529.705	36358.82
530.071	36645.36
530.437	36715.42
530.803	36961.74
531.169	37261.39
531.535	37322.86
531.901	37401.05
532.267	37674.04
532.632	37896.18
532.998	37937.53
533.364	38279.45
533.73	38357.18
534.095	38690.06
534.461	38679.89
534.826	38965.08
535.192	39078.97
535.557	39257.05
535.923	39372.52
536.288	39554.21
536.653	39719.86
537.019	39766.64
537.384	39906.07
537.749	40123.92
538.114	40245.72
538.479	40336.11
538.845	40562.32
539.21	40617.46
539.575	40805.03
539.94	40893.16
540.305	41188.3
540.67	41122.53
541.034	41322.08
541.399	41458.34
541.764	41564.78
542.129	41754.16
542.494	41796.19
542.858	42069.63
543.223	42112.34
543.587	42388.72
543.952	42292.22
544.316	42449.96
544.681	42604.3
545.045	42747.12
545.41	43060.11
545.774	43089.71
546.138	43013.78
546.503	43165.87
546.867	43467.56
547.231	43711.39
547.595	43779.19
547.959	43882.46
548.324	44010.82
548.688	44082.91
549.052	44210.59
549.416	44345.95
549.779	44398.83
550.143	44550.92
550.507	44935.32
550.871	45030.45
551.235	44951.13
551.599	45281.75
551.962	45483.1
552.326	45461.63
552.689	45651
553.053	45739.36
553.417	45889.64
553.78	46242.17
554.143	46258.44
554.507	46379.57
554.87	46528.72
555.234	46979.1
555.597	46634.03
555.96	46967.58
556.323	47176.16
556.686	47164.64
557.05	47470.16
557.413	47574.34
557.776	47746.77
558.139	47962.81
558.502	48020.66
558.865	48050.26
559.228	48427.65
559.59	48429.46
559.953	48608.44
560.316	49094.3
560.679	49033.51
561.041	49154.64
561.404	49476.89
561.767	49639.6
562.129	49528.19
562.492	49937.44
562.854	49858.35
563.217	49885.24
563.579	50197.32
563.941	50343.31
564.304	50540.82
564.666	50734.71
565.028	50757.76
565.39	50938.55
565.753	51095.38
566.115	51339.44
566.477	51402.04
566.839	51545.76
567.201	51741.01
567.563	51735.14
567.925	51941.46
568.287	51986.2
568.648	52073.66
569.01	52250.38
569.372	52453.31
569.734	52373.99
570.095	52613.31
570.457	52678.16
570.819	52804.71
571.18	52806.52
571.542	53019.4
571.903	52999.96
572.265	53180.52
572.626	53282.89
572.987	53297.81
573.349	53387.75
573.71	53510.68
574.071	53591.13
574.432	53686.27
574.794	53929.88
575.155	53815.99
575.516	53733.05
575.877	53910.9
576.238	53967.85
576.599	54077
576.96	54099.37
577.32	54184.34
577.681	54335.75
578.042	54326.48
578.403	54374.62
578.763	54307.05
579.124	54390.43
579.485	54513.59
579.845	54599.47
580.206	54528.28
580.566	54594.95
580.927	54565.57
581.287	54639.92
581.648	54584.55
582.008	54780.25
582.368	54693.7
582.728	54757.43
583.089	54685.57
583.449	54791.33
583.809	54650.09
584.169	54818.67
584.529	54756.75
584.889	54975.05
585.249	54801.04
585.609	54741.61
585.969	54828.84
586.329	54697.09
586.688	54823.42
587.048	54842.85
587.408	54756.53
587.768	54790.2
588.127	54743.19
588.487	54754.94
588.846	54900.48
589.206	54795.62
589.565	54836.75
589.925	54916.75
590.284	54789.29
590.643	54879.91
591.003	54953.58
591.362	54986.8
591.721	54950.87
592.08	54938.22
592.44	54956.75
592.799	55086.69
593.158	54947.03
593.517	54912.91
593.876	54995.16
594.235	54879.23
594.593	54994.49
594.952	55010.3
595.311	54995.62
595.67	55003.75
596.029	55229.28
596.387	55170.53
596.746	55219.11
597.104	55074.48
597.463	55115.16
597.822	55253.01
598.18	55123.3
598.538	55160.13
598.897	55277.19
599.255	55071.77
599.613	55454.59
599.972	55347.47
600.33	55396.51
600.688	55246.91
601.046	55292.11
601.404	55455.94
601.762	55383.85
602.12	55426.57
602.478	55487.81
602.836	55460.24
603.194	55285.78
603.552	55400.58
603.91	55405.55
604.268	55533.23
604.625	55417.75
604.983	55574.13
605.341	55512.66
605.698	55572.1
606.056	55641.25
606.413	55620.68
606.771	55709.27
607.128	55699.1
607.485	55556.05
607.843	55711.08
608.2	55840.34
608.557	55899.1
608.914	55739.1
609.272	55929.83
609.629	55883.05
609.986	56034.23
610.343	55908.59
610.7	56084.63
611.057	56077.17
611.414	55969.38
611.771	56175.02
612.127	56214.57
612.484	56152.87
612.841	56236.04
613.198	56167.56
613.554	56128.69
613.911	56320.78
614.267	56244.62
614.624	56239.43
614.98	56297.95
615.337	56426.76
615.693	56377.5
616.05	56276.49
616.406	56494.11
616.762	56345.86
617.118	56427.67
617.475	56342.02
617.831	56471.96
618.187	56499.53
618.543	56498.63
618.899	56628.79
619.255	56488.91
619.611	56553.77
619.967	56606.2
620.323	56629.25
620.678	56559.64
621.034	56445.75
621.39	56551.28
621.746	56544.95
622.101	56823.82
622.457	56558.29
622.812	56559.87
623.168	56654.56
623.523	56643.48
623.879	56676.48
624.234	56612.07
624.589	56607.55
624.945	56702.24
625.3	56648.91
625.655	56640.09
626.01	56639.19
626.365	56638.96
626.72	56638.74
627.075	56672.86
627.43	56587.21
627.785	56529.81
628.14	56606.87
628.495	56665.85
628.85	56619.3
629.205	56565.29
629.559	56593.77
629.914	56474
630.269	56529.14
630.623	56371.17
630.978	56359.65
631.332	56535.46
631.687	56538.4
632.041	56368.01
632.396	56422.47
632.75	56300.21
633.104	56364.17
633.459	56248.69
633.813	56130.5
634.167	56143.83
634.521	56195.36
634.875	56210.05
635.229	56099.32
635.583	55968.47
635.937	55984.74
636.291	55936.38
636.645	55924.18
636.999	55842.83
637.352	55981.8
637.706	55787.91
638.06	55940.9
638.413	55772.54
638.767	55690.06
639.121	55801.24
639.474	55630.4
639.828	55579.1
640.181	55688.71
640.534	55664.3
640.888	55552.44
641.241	55359.45
641.594	55545.66
641.947	55551.53
642.301	55428.37
642.654	55441.48
643.007	55462.5
643.36	55376.4
643.713	55275.38
644.066	55422.27
644.419	55160.81
644.771	55026.58
645.124	54725.79
645.477	54683.31
645.83	54543.42
646.182	54387.95
646.535	54319.48
646.888	54405.58
647.24	54124.68
647.593	54353.37
647.945	54208.97
648.298	54162.42
648.65	54189.08
649.002	53961.97
649.355	54129.65
649.707	54046.26
650.059	54174.39
650.411	54481.28
650.763	54509.53
651.115	54743.19
651.467	54587.49
651.819	54667.72
652.171	54614.84
652.523	54552.69
652.875	54492.35
653.227	54335.75
653.578	54526.7
653.93	54513.82
654.282	54297.1
654.633	54295.3
654.985	54319.93
655.337	54260.95
655.688	54247.39
656.039	54355.18
656.391	54135.53
656.742	54119.71
657.094	54114.28
657.445	54215.3
657.796	54109.99
658.147	54081.52
658.498	54001.97
658.849	54130.1
659.2	53982.54
659.551	54036.32
659.902	54039.94
660.253	54001.07
660.604	54007.85
660.955	53797.46
661.306	53930.33
661.656	53846.72
662.007	53932.59
662.358	53890.33
662.708	53865.93
663.059	53812.6
663.409	53619.16
663.76	53845.59
664.11	53793.84
664.461	53778.92
664.811	53779.15
665.161	53761.3
665.511	53650.11
665.862	53702.99
666.212	53753.84
666.562	53771.24
666.912	53714.97
667.262	53611.02
667.612	53670.45
667.962	53653.96
668.312	53541.42
668.662	53693.96
669.011	53557.01
669.361	53559.27
669.711	53452.38
670.06	53427.3
670.41	53401.53
670.76	53391.14
671.109	53417.58
671.459	53420.29
671.808	53336
672.157	53471.59
672.507	53240.41
672.856	53219.17
673.205	53249.9
673.554	53357.69
673.904	53190.01
674.253	53347.98
674.602	53173.74
674.951	52748.67
675.3	52585.96
675.649	53092.62
675.998	53026.18
676.346	53082.22
676.695	53184.59
677.044	52936.01
677.393	52910.25
677.741	53078.15
678.09	52854.43
678.438	52862.34
678.787	52893.07
679.135	52849.23
679.484	52606.3
679.832	52818.5
680.181	52575.57
680.529	52659.41
680.877	52517.04
681.225	52554.55
681.573	52757.48
681.922	52496.02
682.27	52390.26
682.618	52404.95
682.966	52302.58
683.314	52338.51
683.661	52293.99
684.009	52156.14
684.357	51966.09
684.705	52007.67
685.053	52019.88
685.4	51931.29
685.748	51887.9
686.095	51775.59
686.443	51625.31
686.79	51577.85
687.138	51698.53
687.485	51556.84
687.832	51405.65
688.18	51571.53
688.527	51222.38
688.874	51273.68
689.221	51167.69
689.568	51128.6
689.915	50912.11
690.262	50936.74
690.609	50755.05
690.956	50796.4
691.303	50697.42
691.65	50447.26
691.997	50548.05
692.344	50274.84
692.69	50303.76
693.037	50414.27
693.383	49900.83
693.73	50047.95
694.077	49900.38
694.423	49863.77
694.769	49734.29
695.116	49613.61
695.462	49480.51
695.808	49490.45
696.155	49491.35
696.501	49235.09
696.847	49296.33
697.193	48885.04
697.539	49093.62
697.885	48820.64
698.231	48677.14
698.577	48559.4
698.923	48678.49
699.269	48502.45
699.614	48228.79
699.96	48225.4
700.306	48145.63
700.651	48009.81
700.997	47905.63
701.342	47810.95
701.688	47810.49
702.033	47694.79
702.379	47628.8
702.724	47476.27
703.069	47606.66
703.415	46967.35
703.76	47144.98
704.105	47029.05
704.45	47088.03
704.795	46703.4
705.14	46700.02
705.485	46679.45
705.83	46475.39
706.175	46478.55
706.52	46338.67
706.865	46278.11
707.209	46175.51
707.554	46037.21
707.899	46091.9
708.243	45775.97
708.588	45791.34
708.932	45346.6
709.277	45558.8
709.621	45533.72
709.966	45321.07
710.31	45300.5
710.654	45063.45
710.998	45187.51
711.342	44982.09
711.687	44929.67
712.031	44694.64
712.375	44647.19
712.719	44622.78
713.063	44625.04
713.407	44658.26
713.75	44290.13
714.094	44396.8
714.438	44197.71
714.782	44247.88
715.125	43928.56
715.469	44198.39
715.812	43759.98
716.156	43749.58
716.499	43608.57
716.843	43646.31
717.186	43473.43
717.53	43680.21
717.873	43642.69
718.216	43365.64
718.559	43302.82
718.902	42975.59
719.246	43091.52
719.589	42971.53
719.932	42820.34
720.275	42814.47
720.617	42717.29
720.96	42663.74
721.303	42724.53
721.646	42663.06
721.989	42254.48
722.331	42472.1
722.674	42279.34
723.016	42397.08
723.359	42279.11
723.701	42259
724.044	41882.06
724.386	41924.77
724.729	41991.89
725.071	41967.71
725.413	41891.1
725.755	41718.68
726.097	41605.46
726.439	41385.35
726.782	41376.54
727.124	41633.93
727.465	41221.51
727.807	41300.83
728.149	41174.51
728.491	41129.31
728.833	41113.27
729.175	40974.52
729.516	40886.16
729.858	40829.66
730.199	40812.26
730.541	40787.63
730.882	40677.57
731.224	40817.68
731.565	40506.05
731.906	40531.59
732.248	40547.86
732.589	40297.25
732.93	40189.68
733.271	40183.8
733.612	40255.21
733.953	40184.48
734.294	40124.37
734.635	39866.3
734.976	40053.18
735.317	39850.7
735.658	39750.82
735.999	39696.81
736.339	39647.55
736.68	39864.26
737.021	39519.19
737.361	39456.59
737.702	39529.13
738.042	39333.88
738.383	39248.69
738.723	39246.2
739.063	39051.4
739.404	39155.81
739.744	38988.13
740.084	38958.75
740.424	38956.26
740.764	38724.41
741.104	39006.21
741.444	38665.2
741.784	38600.57
742.124	38792.2
742.464	38638.98
742.804	38491.64
743.143	38349.73
743.483	38375.94
743.823	38199.22
744.162	38364.41
744.502	38393.34
744.841	38017.98
745.181	38228.15
745.52	37988.38
745.86	38092.78
746.199	38071.54
746.538	37800.81
746.877	37890.08
747.216	37930.08
747.556	37652.12
747.895	37537.54
748.234	37561.05
748.573	37572.57
748.911	37459.58
749.25	37418.45
749.589	37147.95
749.928	37210.55
750.267	37204.22
750.605	37177.1
750.944	36998.58
751.283	36881.06
751.621	36933.27
751.96	36707.74
752.298	36807.85
752.636	36724.01
752.975	36468.42
753.313	36383.22
753.651	36551.36
753.989	36261.87
754.327	36371.02
754.666	35968.09
755.004	36117.24
755.342	35871.37
755.679	35864.82
756.017	35737.14
756.355	35740.53
756.693	35554.32
757.031	35601.32
757.368	35353.87
757.706	35332.63
758.044	35173.76
758.381	35253.54
758.719	35076.37
759.056	35165.63
759.394	35000.66
759.731	34686.32
760.068	34791.63
760.405	34568.58
760.743	34467.79
761.08	34545.76
761.417	34352.32
761.754	34230.74
762.091	34091.76
762.428	34143.96
762.765	33901.48
763.102	33917.75
763.438	33671.21
763.775	33521.38
764.112	33656.29
764.449	33538.55
764.785	33393.92
765.122	33302.18
765.458	33056.53
765.795	33039.81
766.131	32916.42
766.467	32976.99
766.804	32707.39
767.14	32595.08
767.476	32592.59
767.812	32429.2
768.148	32444.8
768.485	32115.99
768.821	32054.75
769.157	31892.04
769.492	31736.57
769.828	31810.91
770.164	31583.8
770.5	31457.03
770.836	31547.42
771.171	31281.66
771.507	31142.68
771.842	30932.52
772.178	30894.78
772.513	30844.84
772.849	30694.33
773.184	30608.91
773.519	30662.24
773.855	30492.53
774.19	30382.03
774.525	30159.88
774.86	30273.1
775.195	30208.02
775.53	29972.09
775.865	29833.79
776.2	29639.9
776.535	29415.95
776.87	29429.28
777.205	29308.61
777.539	29258.21
777.874	29244.88
778.209	28940.48
778.543	28884.66
778.878	28765.35
779.212	28870.2
779.547	28579.36
779.881	28631.79
780.215	28359.71
780.55	28420.04
780.884	28147.73
781.218	28285.81
781.552	28204.23
781.886	27943.67
782.22	27879.49
782.554	27690.8
782.888	27553.17
783.222	27471.59
783.556	27302.56
783.889	27213.3
784.223	27175.1
784.557	27040.87
784.89	26956.35
785.224	26816.7
785.557	26786.19
785.891	26745.96
786.224	26532.86
786.558	26588.23
786.891	26334.67
787.224	26301.68
787.557	26206.32
787.891	26031.86
788.224	26162.25
788.557	25988.02
788.89	25914.8
789.223	25724.97
789.556	25680.91
789.888	25582.83
790.221	25474.36
790.554	25282.5
790.887	25328.37
791.219	25206.79
791.552	25132.22
791.884	25012
792.217	24961.15
792.549	24864.2
792.882	24663.76
793.214	24578.79
793.546	24633.7
793.879	24499.92
794.211	24405.46
794.543	24447.27
794.875	24345.8
795.207	24287.95
795.539	24157.56
795.871	24108.07
796.203	23958.47
796.535	23789.2
796.867	23734.52
797.198	23731.35
797.53	23755.31
797.862	23483.68
798.193	23598.7
798.525	23365.49
798.856	23457.91
799.188	23184.25
799.519	23101.31
799.85	23017.47
800.182	23003.24
800.513	23022.9
800.844	22788.78
801.175	22907.42
801.506	22845.95
801.837	22612.74
802.168	22716.01
802.499	22612.06
802.83	22424.95
803.161	22288.91
803.491	22346.31
803.822	22361.67
804.153	22301.33
804.483	22093.43
804.814	21985.18
805.145	21934.11
805.475	21949.71
805.805	21916.71
806.136	21888.46
806.466	21895.24
806.796	21747.22
807.126	21516.27
807.457	21539.77
807.787	21571.86
808.117	21450.06
808.447	21315.82
808.777	21402.83
809.107	21339.55
809.436	21185.43
809.766	21194.02
810.096	21125.77
810.426	21094.81
810.755	20995.83
811.085	20937.98
811.414	20944.53
811.744	20744.77
812.073	20660.47
812.403	20669.74
812.732	20541.61
813.061	20524.21
813.39	20458.45
813.719	20388.62
814.049	20539.8
814.378	20319.47
814.707	20237.66
815.036	20271.33
815.365	20134.16
815.693	20054.16
816.022	20010.55
816.351	19943.88
816.68	19851.23
817.008	19841.96
817.337	19744.34
817.665	19760.84
817.994	19738.24
818.322	19695.75
818.651	19592.25
818.979	19477
819.307	19690.56
819.636	19568.53
819.964	19330.11
820.292	19477.91
820.62	19538.92
820.948	19337.34
821.276	19400.62
821.604	19406.5
821.932	19416.21
822.259	19452.82
822.587	19318.59
822.915	19390.45
823.243	19406.27
823.57	19317.68
823.898	19357.01
824.225	19299.61
824.553	19307.97
824.88	19305.48
825.207	19313.84
825.535	19266.39
825.862	19283.79
826.189	19280.62
826.516	19295.31
826.843	19375.31
827.17	19295.09
827.497	19269.55
827.824	19297.12
828.151	19240.85
828.478	19187.07
828.805	19281.07
829.131	19155.65
829.458	19165.6
829.785	19163.34
830.111	19171.25
830.438	19314.97
830.764	19215.09
831.09	19115.66
831.417	19096.67
831.743	19230.68
832.069	19041.08
832.395	19077.01
832.722	19161.3
833.048	19056.9
833.374	19100.51
833.7	18958.37
834.026	18998.37
834.351	18955.66
834.677	18985.94
835.003	18952.95
835.329	18926.28
835.654	18871.82
835.98	18700.53
836.306	18910.24
836.631	18667.08
836.956	18837.02
837.282	18839.28
837.607	18800.41
837.932	18613.75
838.258	18669.57
838.583	18591.38
838.908	18611.04
839.233	18577.82
839.558	18593.86
839.883	18389.12
840.208	18410.14
840.533	18342.34
840.858	18432.74
841.182	18410.36
841.507	18372.85
841.832	18246.53
842.156	18245.4
842.481	18213.98
842.805	18185.28
843.13	18143.7
843.454	18164.49
843.778	17995.69
844.103	17999.3
844.427	17881.34
844.751	17996.59
845.075	17804.96
845.399	17803.83
845.723	17740.1
846.047	17741.23
846.371	17556.83
846.695	17586.43
847.019	17409.03
847.343	17404.51
847.666	17277.29
847.99	17242.94
848.313	17204.52
848.637	17009.72
848.96	17034.81
849.284	16949.84
849.607	16904.87
849.931	16852.44
850.254	16603.18
850.577	16619.68
850.9	16495.84
851.223	16472.79
851.546	16423.52
851.869	16272.79
852.192	16364.99
852.515	16209.74
852.838	16165.45
853.161	16201.83
853.483	16060.59
853.806	16049.52
854.129	15970.43
854.451	15989.86
854.774	15828.06
855.096	15705.8
855.419	15720.26
855.741	15704.22
856.063	15611.34
856.385	15599.14
856.708	15626.48
857.03	15450.89
857.352	15549.65
857.674	15432.14
857.996	15426.71
858.318	15327.51
858.64	15333.16
858.961	15263.33
859.283	15231.24
859.605	15163.67
859.926	15161.18
860.248	15033.5
860.57	15008.19
860.891	14977.69
861.212	14957.12
861.534	14982.2
861.855	14896.11
862.176	14939.72
862.498	14949.21
862.819	14907.86
863.14	14712.61
863.461	14754.19
863.782	14750.12
864.103	14732.49
864.424	14663.12
864.745	14605.49
865.065	14543.35
865.386	14504.93
865.707	14486.62
866.027	14513.52
866.348	14490.69
866.668	14473.52
866.989	14467.64
867.309	14395.55
867.63	14347.42
867.95	14375.44
868.27	14260.19
868.59	14271.72
868.91	14231.49
869.23	14247.76
869.55	14063.13
869.87	14211.38
870.19	14245.95
870.51	14189.46
870.83	14155.33
871.15	14010.25
871.469	14063.36
871.789	14142.23
872.109	14113.98
872.428	14012.51
872.748	13994.89
873.067	13931.16
873.386	14045.73
873.706	14001.21
874.025	13899.3
874.344	13813.42
874.663	13860.2
874.982	13823.14
875.301	13860.88
875.62	13764.61
875.939	13740.2
876.258	13713.54
876.577	13697.72
876.896	13664.27
877.214	13612.98
877.533	13646.19
877.852	13590.38
878.17	13642.58
878.489	13638.29
878.807	13667.21
879.125	13513.77
879.444	13570.26
879.762	13447.1
880.08	13434.68
880.398	13398.97
880.716	13465.18
881.034	13372.76
881.352	13340.89
881.67	13326.88
881.988	13229.03
882.306	13254.57
882.624	13252.08
882.941	13125.08
883.259	13209.37
883.577	13110.84
883.894	13154.23
884.212	13024.29
884.529	13067.45
884.846	13061.35
885.164	13000.34
885.481	12859.77
885.798	12951.75
886.115	12832.43
886.432	12906.33
886.75	12799.89
887.067	12798.99
887.383	12735.71
887.7	12801.7
888.017	12638.99
888.334	12690.74
888.651	12653.9
888.967	12615.49
889.284	12550.86
889.6	12509.95
889.917	12422.5
890.233	12454.14
890.55	12443.51
890.866	12493.68
891.182	12335.95
891.498	12323.97
891.815	12278.1
892.131	12232.22
892.447	12168.72
892.763	12133.47
893.079	12106.8
893.395	12107.48
893.71	11999.91
894.026	11975.05
894.342	11960.82
894.657	11968.27
894.973	11824.55
895.289	11897.09
895.604	11919.01
895.92	11795.17
896.235	11695.96
896.55	11739.8
896.865	11679.47
897.181	11633.37
897.496	11624.78
897.811	11556.31
898.126	11549.98
898.441	11403.99
898.756	11418.68
899.071	11394.95
899.386	11366.93
899.7	11246.94
900.015	11257.11
900.33	11143.21
900.644	11171.68
900.959	11186.15
901.273	11055.08
901.588	11060.27
901.902	10994.74
902.216	10945.02
902.531	10940.5
902.845	10917.45
903.159	10819.38
903.473	10815.53
903.787	10710
904.101	10667.74
904.415	10684.92
904.729	10672.26
905.042	10603.11
905.356	10541.64
905.67	10467.07
905.984	10484.92
906.297	10458.71
906.611	10424.36
906.924	10413.51
907.237	10373.74
907.551	10316.11
907.864	10239.96
908.177	10225.04
908.491	10208.55
908.804	10123.58
909.117	10029.11
909.43	10024.82
909.743	10023.47
910.056	9991.83
910.368	9941.89
910.681	9910.47
910.994	9905.28
911.307	9764.94
911.619	9719.52
911.932	9715.68
912.244	9648.33
912.557	9683.14
912.869	9574.89
913.181	9551.39
913.494	9530.6
913.806	9462.12
914.118	9476.14
914.43	9362.47
914.742	9379.87
915.054	9323.37
915.366	9303.48
915.678	9266.2
915.99	9173.09
916.302	9106.65
916.613	9076.37
916.925	9053.32
917.236	9033.43
917.548	8973.55
917.859	9006.32
918.171	8935.36
918.482	8861.24
918.794	8774.01
919.105	8797.73
919.416	8725.65
919.727	8717.51
920.038	8738.3
920.349	8582.83
920.66	8628.02
920.971	8599.1
921.282	8538.76
921.593	8478.65
921.903	8505.77
922.214	8461.25
922.525	8435.48
922.835	8359.1
923.146	8326.56
923.456	8335.83
923.767	8230.07
924.077	8236.85
924.387	8205.43
924.697	8176.28
925.008	8113.01
925.318	8025.55
925.628	8041.14
925.938	8031.88
926.248	7997.76
926.558	7947.59
926.867	7866.01
927.177	7840.02
927.487	7888.38
927.796	7804.31
928.106	7809.51
928.416	7695.62
928.725	7734.49
929.034	7649.97
929.344	7611.1
929.653	7604.77
929.962	7588.28
930.271	7514.83
930.581	7446.13
930.89	7398.68
931.199	7402.29
931.508	7395.74
931.817	7337.43
932.125	7353.7
932.434	7336.98
932.743	7242.3
933.051	7185.8
933.36	7206.36
933.669	7177.89
933.977	7122.75
934.286	7091.56
934.594	7068.74
934.902	7001.4
935.21	6988.29
935.519	7048.4
935.827	6941.06
936.135	6863.32
936.443	6926.15
936.751	6843.21
937.059	6818.13
937.367	6795.08
937.674	6748.75
937.982	6801.4
938.29	6713.5
938.597	6710.33
938.905	6613.61
939.213	6585.82
939.52	6564.8
939.827	6583.78
940.135	6527.06
940.442	6563.44
940.749	6449.55
941.056	6441.64
941.363	6376.78
941.67	6353.28
941.977	6326.61
942.284	6311.02
942.591	6308.99
942.898	6288.2
943.205	6201.42
943.511	6226.73
943.818	6181.76
944.125	6113.51
944.431	6060.18
944.738	6097.69
945.044	6048.65
945.35	6075.09
945.657	6026.96
945.963	6026.51
946.269	5942.22
946.575	5924.59
946.881	5863.12
947.187	5855.89
947.493	5824.71
947.799	5834.65
948.105	5788.1
948.41	5744.71
948.716	5735.44
949.022	5722.34
949.327	5730.7
949.633	5682.34
949.938	5624.71
950.244	5637.59
950.549	5595.79
950.854	5546.52
951.16	5536.13
951.465	5512.85
951.77	5467.43
952.075	5487.54
952.38	5491.38
952.685	5463.59
952.99	5403.47
953.294	5433.98
953.599	5388.78
953.904	5319.41
954.209	5335.23
954.513	5289.58
954.818	5262.46
955.122	5238.96
955.426	5231.5
955.731	5178.17
956.035	5182.91
956.339	5125.74
956.643	5167.1
956.948	5077.15
957.252	5097.72
957.556	5092.52
957.86	5041.22
958.163	5018.17
958.467	5013.43
958.771	4971.62
959.075	5009.13
959.378	4907.44
959.682	4901.34
959.985	4873.32
960.289	4864.5
960.592	4874.22
960.896	4874.45
961.199	4812.53
961.502	4770.72
961.805	4764.39
962.108	4707.22
962.411	4700.44
962.714	4675.36
963.017	4665.87
963.32	4661.57
963.623	4634.23
963.926	4580.44
964.228	4571.41
964.531	4577.05
964.833	4543.38
965.136	4537.51
965.438	4476.04
965.741	4500.9
966.043	4446.44
966.345	4421.13
966.648	4454.57
966.95	4401.47
967.252	4381.13
967.554	4390.39
967.856	4372.54
968.158	4312.88
968.46	4334.8
968.761	4286.67
969.063	4274.69
969.365	4231.08
969.666	4224.07
969.968	4174.58
970.269	4153.79
970.571	4159.21
970.872	4145.43
971.174	4102.94
971.475	4073.79
971.776	4132.55
972.077	4074.92
972.378	4063.85
972.679	4004.87
972.98	4051.87
973.281	3986.79
973.582	4007.13
973.883	3932.55
974.183	3935.04
974.484	3890.29
974.785	3891.65
975.085	3909.73
975.386	3930.52
975.686	3847.13
975.986	3859.79
976.287	3808.71
976.587	3791.99
976.887	3766
977.187	3762.16
977.487	3733.69
977.787	3719.22
978.087	3735.72
978.387	3753.57
978.687	3716.74
978.987	3645.78
979.286	3661.82
979.586	3594.26
979.885	3619.34
980.185	3625.44
980.484	3592.45
980.784	3556.52
981.083	3607.14
981.382	3548.83
981.682	3535.05
981.981	3522.39
982.28	3496.41
982.579	3465.22
982.878	3464.32
983.177	3429.74
983.475	3460.25
983.774	3386.35
984.073	3395.84
984.372	3371.66
984.67	3371.66
984.969	3355.17
985.267	3334.15
985.566	3279.24
985.864	3295.96
986.162	3243.53
986.461	3286.24
986.759	3271.78
987.057	3223.64
987.355	3242.63
987.653	3212.12
987.951	3195.4
988.249	3226.58
988.547	3174.15
988.844	3168.5
989.142	3164.66
989.44	3106.81
989.737	3105.46
990.035	3097.09
990.332	3066.59
990.63	3089.41
990.927	3042.41
991.224	3053.48
991.521	3009.41
991.819	3030.65
992.116	3007.38
992.413	2943.88
992.71	2916.53
993.006	2974.84
993.303	2927.83
993.6	2913.14
993.897	2894.84
994.193	2905.01
994.49	2866.37
994.787	2830.66
995.083	2782.07
995.379	2865.46
995.676	2827.27
995.972	2797.44
996.268	2770.1
996.565	2756.54
996.861	2754.96
997.157	2730.32
997.453	2710.66
997.749	2744.11
998.044	2702.53
998.34	2692.13
998.636	2669.99
998.932	2663.66
999.227	2631.8
999.523	2670.44
999.818	2570.33
1000.114	2564.45
1000.409	2590.44
1000.704	2563.55
1001	2564
1001.295	2565.58
1001.59	2542.98
1001.885	2519.03
1002.18	2483.1
1002.475	2455.3
1002.77	2471.12
1003.065	2426.6
1003.359	2443.1
1003.654	2420.05
1003.949	2384.12
1004.243	2405.13
1004.538	2377.79
1004.832	2400.61
1005.127	2395.19
1005.421	2368.98
1005.715	2323.1
1006.009	2323.78
1006.304	2303.22
1006.598	2283.1
1006.892	2270.9
1007.186	2257.79
1007.48	2284.46
1007.773	2233.84
1008.067	2205.59
1008.361	2193.84
1008.655	2197
1008.948	2184.12
1009.242	2178.25
1009.535	2161.53
1009.829	2119.04
1010.122	2148.87
1010.415	2114.07
1010.708	2132.6
1011.001	2090.79
1011.295	2090.79
1011.588	2081.98
1011.881	2053.28
1012.173	2063.22
1012.466	2059.38
1012.759	2022.09
1013.052	2020.74
1013.344	2018.25
1013.637	1980.51
1013.93	1954.07
1014.222	1946.84
1014.514	1945.71
1014.807	1935.77
1015.099	1929.89
1015.391	1918.59
1015.683	1885.6
1015.976	1870.23
1016.268	1873.62
1016.56	1851.93
1016.851	1849.67
1017.143	1853.74
1017.435	1836.34
1017.727	1825.49
1018.018	1841.53
1018.31	1804.02
1018.602	1778.71
1018.893	1805.83
1019.185	1738.49
1019.476	1756.56
1019.767	1745.72
1020.058	1722.67
1020.35	1702.55
1020.641	1700.97
1020.932	1674.76
1021.223	1658.26
1021.514	1640.63
1021.804	1635.89
1022.095	1615.55
1022.386	1639.96
1022.677	1623.91
1022.967	1601.77
1023.258	1585.5
1023.548	1594.76
1023.839	1594.08
1024.129	1585.5
1024.419	1576.68
1024.709	1563.8
1025	1534.42
1025.29	1493.97
1025.58	1517.47
1025.87	1507.98
1026.16	1507.98
1026.449	1476.35
1026.739	1467.08
1027.029	1446.97
1027.319	1458.27
1027.608	1438.83
1027.898	1435.89
1028.187	1414.88
1028.477	1407.87
1028.766	1393.86
1029.055	1397.48
1029.344	1374.88
1029.634	1375.33
1029.923	1347.76
1030.212	1362.9
1030.501	1330.36
1030.79	1338.95
1031.078	1324.03
1031.367	1315.45
1031.656	1331.26
1031.945	1307.99
1032.233	1285.84
1032.522	1285.16
1032.81	1260.31
1033.099	1267.31
1033.387	1275.22
1033.675	1249.46
1033.963	1226.63
1034.251	1245.62
1034.54	1235.45
1034.828	1193.64
1035.116	1202
1035.403	1205.39
1035.691	1193.87
1035.979	1182.57
1036.267	1187.99
1036.554	1169.23
1036.842	1163.36
1037.129	1138.5
1037.417	1128.78
1037.704	1116.58
1037.992	1144.15
1038.279	1134.43
1038.566	1111.84
1038.853	1111.84
1039.14	1111.84
