Data from white_steel_sheet_FLMS001491_004.txt Node
Date: Tue Feb 07 10:57:18 GMT 2017
User: dcchb
Spectrometer: FLMS00149
Trigger mode: 0
Integration Time (sec): 2.000000E-2
Scans to average: 10
Electric dark correction enabled: true
Nonlinearity correction enabled: false
Boxcar width: 0
XAxis mode: Wavelengths
Number of Pixels in Spectrum: 2048
>>>>>Begin Spectral Data<<<<<
341.393	-11.84
341.776	-11.84
342.16	-11.84
342.543	-52.96
342.927	-63.59
343.31	-58.39
343.693	-75.34
344.077	-56.13
344.46	-55.68
344.843	-64.04
345.226	-43.47
345.61	-34.89
345.993	-13.87
346.376	-11.61
346.759	3.53
347.142	29.07
347.525	45.11
347.908	51.67
348.291	83.3
348.674	90.53
349.057	110.19
349.44	145.9
349.823	138.67
350.206	162.4
350.588	200.14
350.971	206.46
351.354	227.71
351.737	246.46
352.119	272.22
352.502	272.22
352.884	279.68
353.267	280.13
353.65	285.11
354.032	309.06
354.414	287.82
354.797	316.07
355.179	316.29
355.562	346.57
355.944	353.13
356.326	318.32
356.709	344.76
357.091	331.43
357.473	354.48
357.855	368.04
358.238	337.31
358.62	361.71
359.002	340.25
359.384	335.73
359.766	338.66
360.148	352.22
360.53	329.17
360.912	341.83
361.294	342.73
361.676	346.8
362.057	351.77
362.439	338.89
362.821	323.52
363.203	328.27
363.584	314.94
363.966	328.04
364.348	323.07
364.729	335.05
365.111	319.45
365.493	304.54
365.874	305.9
366.256	318.32
366.637	306.35
367.019	312.68
367.4	321.04
367.781	311.09
368.163	319
368.544	317.42
368.925	318.32
369.306	328.95
369.688	317.2
370.069	284.2
370.45	309.06
370.831	330.08
371.212	306.12
371.593	330.3
371.974	306.35
372.355	324.43
372.736	312
373.117	321.49
373.498	320.36
373.879	320.81
374.26	330.53
374.641	324.2
375.021	328.49
375.402	346.12
375.783	334.37
376.163	345.44
376.544	338.44
376.925	318.1
377.305	345.22
377.686	356.52
378.066	341.38
378.447	360.36
378.827	324.43
379.208	369.4
379.588	353.58
379.968	365.56
380.349	353.13
380.729	335.5
381.109	340.92
381.489	365.78
381.87	357.42
382.25	364.88
382.63	343.41
383.01	372.56
383.39	369.62
383.77	378.89
384.15	395.61
384.53	369.4
384.91	379.11
385.29	376.85
385.67	383.41
386.049	402.62
386.429	394.71
386.809	396.51
387.189	392.22
387.568	398.1
387.948	378.21
388.328	368.27
388.707	387.25
389.087	388.15
389.466	396.06
389.846	412.11
390.225	386.57
390.605	407.14
390.984	406.01
391.363	437.64
391.743	422.28
392.122	442.16
392.501	431.99
392.881	434.93
393.26	466.12
393.639	457.53
394.018	443.29
394.397	464.08
394.776	454.82
395.155	480.35
395.534	463.18
395.913	487.36
396.292	490.98
396.671	490.3
397.05	485.33
397.429	507.47
397.808	497.76
398.186	517.87
398.565	505.44
398.944	524.42
399.323	523.07
399.701	531.88
400.08	535.72
400.458	556.28
400.837	553.8
401.215	591.09
401.594	571.65
401.972	583.63
402.351	583.18
402.729	585.89
403.107	591.09
403.486	615.49
403.864	620.92
404.242	624.08
404.62	646.45
404.999	639.9
405.377	654.14
405.755	650.07
406.133	690.29
406.511	696.85
406.889	705.21
407.267	705.43
407.645	712.89
408.023	713.79
408.401	742.04
408.779	742.27
409.156	740.46
409.534	784.3
409.912	773.23
410.29	780.91
410.667	798.76
411.045	808.26
411.422	843.51
411.8	834.47
412.178	842.6
412.555	859.55
412.933	899.1
413.31	898.42
413.687	883.73
414.065	902.94
414.442	925.77
414.819	924.41
415.197	930.96
415.574	967.8
415.951	985.88
416.328	990.17
416.705	992.88
417.082	1004.18
417.46	993.79
417.837	997.63
418.214	1031.98
418.591	1038.76
418.967	1045.76
419.344	1056.84
419.721	1078.98
420.098	1084.63
420.475	1111.75
420.852	1121.92
421.228	1147
421.605	1154.46
421.982	1182.48
422.358	1176.61
422.735	1165.76
423.111	1169.15
423.488	1174.57
423.864	1189.94
424.241	1207.57
424.617	1236.04
424.994	1248.92
425.37	1266.55
425.746	1244.63
426.123	1288.69
426.499	1268.81
426.875	1300.45
427.251	1339.77
427.627	1350.84
428.003	1351.74
428.379	1378.41
428.756	1376.83
429.132	1409.14
429.507	1457.5
429.883	1444.17
430.259	1472.42
430.635	1470.84
431.011	1487.33
431.387	1511.97
431.763	1543.15
432.138	1568.46
432.514	1583.15
432.89	1609.36
433.265	1631.74
433.641	1644.39
434.016	1678.06
434.392	1685.75
434.767	1715.12
435.143	1697.72
435.518	1741.79
435.894	1775.01
436.269	1787.66
436.644	1816.59
437.02	1848.23
437.395	1805.07
437.77	1859.3
438.145	1904.95
438.52	1913.99
438.895	1967.55
439.271	1950.37
439.646	1948.11
440.021	1969.13
440.395	2000.99
440.77	2008.22
441.145	2043.03
441.52	2061.78
441.895	2057.49
442.27	2089.35
442.645	2082.35
443.019	2125.28
443.394	2149.69
443.769	2138.62
444.143	2143.36
444.518	2182.46
444.892	2191.27
445.267	2217.26
445.641	2229.69
446.016	2267.2
446.39	2271.27
446.764	2282.79
447.139	2281.66
447.513	2302
447.887	2367.54
448.262	2349.01
448.636	2364.6
449.01	2404.37
449.384	2396.91
449.758	2431.26
450.132	2474.43
450.506	2490.02
450.88	2473.3
451.254	2498.38
451.628	2538.38
452.002	2561.88
452.376	2605.04
452.75	2610.69
453.123	2664.48
453.497	2654.08
453.871	2706.06
454.244	2752.84
454.618	2788.32
454.992	2789.22
455.365	2829.67
455.739	2884.36
456.112	2891.36
456.486	2957.13
456.859	2946.5
457.232	3041.42
457.606	2992.83
457.979	3102.43
458.352	3095.88
458.725	3139.27
459.099	3147.4
459.472	3195.31
459.845	3224.24
460.218	3311.01
460.591	3338.58
460.964	3349.88
461.337	3402.31
461.71	3438.69
462.083	3520.27
462.456	3476.66
462.829	3532.03
463.201	3600.72
463.574	3628.75
463.947	3671.91
464.32	3738.57
464.692	3734.96
465.065	3806.14
465.438	3899.02
465.81	3913.03
466.183	3965.01
466.555	4024.44
466.928	4072.12
467.3	4071.9
467.672	4090.66
468.045	4261.5
468.417	4261.95
468.789	4298.56
469.161	4331.55
469.534	4355.05
469.906	4470.98
470.278	4551.66
470.65	4522.96
471.022	4628.27
471.394	4722.05
471.766	4813.57
472.138	4866
472.51	4937.19
472.882	5026.22
473.253	5069.16
473.625	5152.32
473.997	5249.49
474.369	5275.48
474.74	5346.44
475.112	5405.87
475.484	5548.47
475.855	5632.54
476.227	5645.87
476.598	5800.67
476.97	5875.47
477.341	5981.68
477.713	6062.58
478.084	6105.29
478.455	6256.02
478.827	6355.23
479.198	6527.65
479.569	6557.93
479.94	6688.1
480.311	6775.78
480.682	6951.6
481.053	7075.66
481.424	7161.08
481.795	7248.09
482.166	7372.38
482.537	7424.58
482.908	7666.83
483.279	7741.18
483.65	7850.1
484.021	8017.78
484.391	8094.17
484.762	8196.76
485.133	8299.13
485.503	8362.63
485.874	8590.2
486.244	8626.81
486.615	8803.3
486.985	8959.45
487.356	9102.73
487.726	9150.41
488.097	9305.21
488.467	9361.93
488.837	9567.12
489.207	9720.11
489.578	9809.15
489.948	9874.46
490.318	10060.89
490.688	10048.46
491.058	10257.05
491.428	10386.08
491.798	10502.92
492.168	10763.25
492.538	10780.2
492.908	10951.49
493.278	11112.62
493.648	11095.22
494.017	11210.69
494.387	11364.14
494.757	11440.07
495.126	11586.5
495.496	11678.25
495.866	11703.56
496.235	11878.92
496.605	11870.11
496.974	12034.4
497.344	12177.22
497.713	12222.19
498.082	12376.09
498.452	12556.42
498.821	12582.86
499.19	12603.2
499.559	12778.56
499.928	12765.46
500.298	12890.88
500.667	12983.08
501.036	13054.71
501.405	13172.9
501.774	13178.33
502.143	13365.67
502.512	13358.89
502.88	13591.87
503.249	13531.08
503.618	13734.7
503.987	13770.4
504.356	13792.09
504.724	13924.75
505.093	13975.14
505.462	14116.15
505.83	14218.3
506.199	14300.56
506.567	14508.46
506.936	14581.23
507.304	14733.77
507.672	14702.13
508.041	14867.77
508.409	14929.92
508.777	15070.03
509.145	15210.36
509.514	15335.11
509.882	15359.06
510.25	15477.47
510.618	15643.12
510.986	15635.66
511.354	15899.16
511.722	16011.02
512.09	16117.01
512.458	16162.88
512.826	16313.38
513.193	16429.31
513.561	16533.27
513.929	16610.33
514.297	16847.83
514.664	16903.43
515.032	16973.48
515.4	17151.78
515.767	17259.8
516.135	17408.72
516.502	17366.24
516.869	17646.46
517.237	17806.45
517.604	17746.12
517.972	17922.83
518.339	18134.13
518.706	18077.86
519.073	18267.91
519.44	18437.85
519.808	18618.18
520.175	18630.39
520.542	18889.59
520.909	19066.08
521.276	18991.96
521.643	19296.36
522.009	19362.12
522.376	19530.7
522.743	19679.4
523.11	19846.4
523.477	20028.09
523.843	20229.21
524.21	20338.36
524.577	20528.42
524.943	20513.5
525.31	20745.13
525.676	21000.27
526.043	21200.04
526.409	21222.86
526.776	21440.26
527.142	21517.32
527.508	21639.12
527.874	21881.6
528.241	21971.77
528.607	21982.39
528.973	22200.46
529.339	22383.51
529.705	22534.92
530.071	22766.77
530.437	22923.61
530.803	22950.95
531.169	23065.3
531.535	23077.95
531.901	23198.18
532.267	23390.26
532.632	23702.34
532.998	23661.21
533.364	23927.42
533.73	23865.5
534.095	24059.4
534.461	23992.05
534.826	24262.55
535.192	24319.73
535.557	24623
535.923	24515.65
536.288	24673.39
536.653	24817.12
537.019	24687.4
537.384	24985.92
537.749	25113.15
538.114	25170.78
538.479	25173.94
538.845	25286.26
539.21	25265.47
539.575	25460.71
539.94	25512.01
540.305	25719.01
540.67	25702.52
541.034	25789.29
541.399	25979.12
541.764	25979.35
542.129	26191.32
542.494	26141.15
542.858	26295.04
543.223	26374.81
543.587	26627.01
543.952	26504.98
544.316	26616.84
544.681	26637.63
545.045	26879.66
545.41	27041.24
545.774	27048.7
546.138	26996.04
546.503	27152.65
546.867	27174.79
547.231	27439.42
547.595	27490.04
547.959	27516.71
548.324	27535.24
548.688	27765.51
549.052	27852.97
549.416	27930.25
549.779	27999.41
550.143	28060.87
550.507	28279.62
550.871	28292.73
551.235	28336.35
551.599	28592.16
551.962	28588.32
552.326	28713.51
552.689	28908.31
553.053	28782.89
553.417	28879.61
553.78	29300.16
554.143	29235.98
554.507	29333.61
554.87	29397.11
555.234	29667.38
555.597	29566.82
555.96	29772.47
556.323	29817.89
556.686	29795.06
557.05	30024.44
557.413	30263.98
557.776	30215.84
558.139	30561.37
558.502	30475.5
558.865	30704.19
559.228	30838.65
559.59	30885.2
559.953	30876.84
560.316	31408.13
560.679	31288.36
561.041	31418.07
561.404	31630.95
561.767	31801.11
562.129	31752.07
562.492	32175.57
562.854	32134.89
563.217	32186.41
563.579	32266.19
563.941	32428.67
564.304	32630.92
564.666	32840.63
565.028	32924.93
565.39	32998.82
565.753	33171.02
566.115	33250.57
566.477	33543.89
566.839	33469.54
567.201	33775.98
567.563	33693.72
567.925	33933.49
568.287	34057.78
568.648	34041.51
569.01	34140.26
569.372	34315.85
569.734	34406.92
570.095	34521.04
570.457	34787.7
570.819	34695.73
571.18	34690.98
571.542	34931.2
571.903	35032.67
572.265	35213.23
572.626	35313.34
572.987	35469.72
573.349	35437.63
573.71	35475.59
574.071	35590.62
574.432	35774.79
574.794	35935.92
575.155	35834.23
575.516	35910.61
575.877	36142.92
576.238	36089.59
576.599	36179.53
576.96	36210.71
577.32	36264.72
577.681	36325.06
578.042	36481.89
578.403	36406.64
578.763	36495.68
579.124	36657.48
579.485	36710.59
579.845	36783.35
580.206	36734.99
580.566	36668.56
580.927	36699.06
581.287	36899.96
581.648	36767.76
582.008	36831.72
582.368	36818.83
582.728	36984.03
583.089	36825.16
583.449	36927.98
583.809	36937.25
584.169	37071.93
584.529	36876.23
584.889	37141.99
585.249	37002.56
585.609	36821.09
585.969	36942.67
586.329	36869
586.688	37100.18
587.048	36983.58
587.408	36908.55
587.768	37003.91
588.127	37009.79
588.487	36869.45
588.846	37202.33
589.206	36949
589.565	37038.26
589.925	37218.6
590.284	37087.08
590.643	37011.15
591.003	37034.2
591.362	37092.05
591.721	37206.85
592.08	37196.23
592.44	37296.79
592.799	37297.01
593.158	37072.61
593.517	37106.28
593.876	37334.53
594.235	37134.98
594.593	37077.13
594.952	37091.14
595.311	37119.62
595.67	37022.22
596.029	37501.3
596.387	37293.62
596.746	37499.49
597.104	37170.24
597.463	37246.62
597.822	37367.97
598.18	37324.36
598.538	37217.92
598.897	37398.25
599.255	37210.24
599.613	37740.39
599.972	37388.99
600.33	37528.87
600.688	37243
601.046	37553.05
601.404	37575.2
601.762	37484.13
602.12	37723.22
602.478	37590.57
602.836	37616.33
603.194	37353.06
603.552	37576.1
603.91	37386.73
604.268	37551.02
604.625	37426.73
604.983	37638.02
605.341	37560.96
605.698	37509.44
606.056	37682.54
606.413	37690.45
606.771	37786.04
607.128	37910.1
607.485	37626.04
607.843	37774.97
608.2	37973.15
608.557	37907.39
608.914	37872.37
609.272	38081.85
609.629	38174.96
609.986	38160.04
610.343	37971.35
610.7	38361.17
611.057	38258.8
611.414	38290.43
611.771	38213.6
612.127	38351.9
612.484	38319.59
612.841	38534.5
613.198	38312.13
613.554	38481.16
613.911	38428.51
614.267	38487.26
614.624	38650.2
614.98	38589.41
615.337	38635.51
615.693	38701.95
616.05	38544.21
616.406	39017.87
616.762	38823.98
617.118	38687.03
617.475	38734.26
617.831	38861.04
618.187	38881.38
618.543	38858.1
618.899	39115.04
619.255	39062.84
619.611	39042.28
619.967	39024.88
620.323	39202.27
620.678	39019.91
621.034	38918.21
621.39	38969.51
621.746	39120.92
622.101	39538.54
622.457	39080.02
622.812	39276.17
623.168	39268.94
623.523	39354.59
623.879	39380.57
624.234	38989.17
624.589	39168.6
624.945	39271.2
625.3	39252.89
625.655	39250.86
626.01	39282.95
626.365	39324.08
626.72	39254.02
627.075	39239.79
627.43	39159.34
627.785	38996.18
628.14	38980.81
628.495	39030.53
628.85	39100.81
629.205	38970.19
629.559	39304.87
629.914	38934.71
630.269	39054.03
630.623	38911.21
630.978	38941.94
631.332	38988.95
631.687	39089.06
632.041	38832.34
632.396	39011.54
632.75	38708.95
633.104	38884.09
633.459	38661.05
633.813	38744.21
634.167	38597.09
634.521	38530.43
634.875	38694.72
635.229	38523.42
635.583	38442.52
635.937	38549.41
636.291	38402.07
636.645	38476.42
636.999	38323.65
637.352	38422.41
637.706	38068.74
638.06	38214.28
638.413	38067.61
638.767	38077.11
639.121	38120.95
639.474	37805.7
639.828	37931.8
640.181	37899.03
640.534	37893.16
640.888	37689.09
641.241	37743.78
641.594	37796.44
641.947	37749.43
642.301	37736.32
642.654	37704.91
643.007	37602.99
643.36	37660.62
643.713	37393.96
644.066	37569.77
644.419	37475.54
644.771	37084.36
645.124	36881.21
645.477	36645.28
645.83	36492.97
646.182	36289.13
646.535	36318.73
646.888	36293.42
647.24	36079.19
647.593	36487.77
647.945	36338.39
648.298	36056.59
648.65	35972.75
649.002	35946.77
649.355	35993.55
649.707	35934.11
650.059	36052.07
650.411	36419.97
650.763	36538.16
651.115	36843.92
651.467	36691.83
651.819	36644.6
652.171	36637.82
652.523	36620.87
652.875	36698.84
653.227	36431.5
653.578	36725.5
653.93	36444.15
654.282	36334.55
654.633	36300.2
654.985	36338.62
655.337	36348.79
655.688	36385.17
656.039	36340.2
656.391	36109.47
656.742	36135.24
657.094	36212.07
657.445	36290.71
657.796	36086.65
658.147	36130.26
658.498	36161
658.849	36048.68
659.2	36081
659.551	35990.16
659.902	36096.59
660.253	35988.57
660.604	35928.46
660.955	35786.77
661.306	35809.82
661.656	35745.19
662.007	35750.16
662.358	35718.3
662.708	35606.44
663.059	35554.46
663.409	35348.14
663.76	35540.45
664.11	35497.51
664.461	35614.8
664.811	35429.27
665.161	35363.05
665.511	35245.32
665.862	35138.88
666.212	35289.38
666.562	35194.47
666.912	35078.77
667.262	34957.64
667.612	34842.39
667.962	34872.44
668.312	34770.75
668.662	34898.21
669.011	34712
669.361	34510.42
669.711	34485.79
670.06	34408.28
670.41	34327.15
670.76	34190.2
671.109	34347.03
671.459	34174.84
671.808	34088.51
672.157	34196.98
672.507	33796.99
672.856	33812.59
673.205	33876.76
673.554	33879.48
673.904	33749.08
674.253	33892.58
674.602	33809.2
674.951	33279.04
675.3	32991.14
675.649	33444.23
675.998	33458.24
676.346	33486.27
676.695	33426.83
677.044	33270
677.393	33372.37
677.741	33413.73
678.09	33199.72
678.438	33034.07
678.787	33309.55
679.135	33164.69
679.484	33119.5
679.832	33245.14
680.181	33147.52
680.529	33151.36
680.877	32952.95
681.225	32931.25
681.573	33145.03
681.922	33065.71
682.27	32927.19
682.618	33019.16
682.966	32971.03
683.314	33079.05
683.661	33001.76
684.009	32853.06
684.357	32789.34
684.705	32863.46
685.053	32867.75
685.4	32934.19
685.748	32714.76
686.095	32794.76
686.443	32745.04
686.79	32676.34
687.138	32771.03
687.485	32866.62
687.832	32757.92
688.18	32902.33
688.527	32687.19
688.874	32756.34
689.221	32746.62
689.568	32658.27
689.915	32667.08
690.262	32746.4
690.609	32466.63
690.956	32546.86
691.303	32442.68
691.65	32391.83
691.997	32452.85
692.344	32375.11
692.69	32360.42
693.037	32369.91
693.383	32153.65
693.73	32271.84
694.077	32030.94
694.423	32070.48
694.769	31844.73
695.116	32045.63
695.462	31998.4
695.808	31889.47
696.155	31893.77
696.501	31769.7
696.847	31733.09
697.193	31588.69
697.539	31686.54
697.885	31463.27
698.231	31379.88
698.577	31386.66
698.923	31410.16
699.269	31132.88
699.614	31088.36
699.96	30979.67
700.306	31127.91
700.651	30967.46
700.997	30935.15
701.342	30852.89
701.688	30802.27
702.033	30593.46
702.379	30810.4
702.724	30560.24
703.069	30620.35
703.415	30376.97
703.76	30312.34
704.105	30289.74
704.45	30165.45
704.795	30120.25
705.14	29987.38
705.485	29948.05
705.83	29837.32
706.175	29944.21
706.52	29769.3
706.865	29657.67
707.209	29596.43
707.554	29618.8
707.899	29687.27
708.243	29501.29
708.588	29448.86
708.932	29247.28
709.277	29255.87
709.621	29098.81
709.966	29068.53
710.31	29096.78
710.654	28925.93
710.998	28910.79
711.342	28830.57
711.687	28887.52
712.031	28693.4
712.375	28672.16
712.719	28748.09
713.063	28605.72
713.407	28618.37
713.75	28472.61
714.094	28494.31
714.438	28334.31
714.782	28271.04
715.125	28304.26
715.469	28364.14
715.812	28131.83
716.156	27906.53
716.499	28032.4
716.843	27983.81
717.186	27924.38
717.53	27994.43
717.873	27912.4
718.216	27748.56
718.559	27924.6
718.902	27597.83
719.246	27696.81
719.589	27553.54
719.932	27432.64
720.275	27409.59
720.617	27509.7
720.96	27334.34
721.303	27459.76
721.646	27419.99
721.989	27128.47
722.331	27313.55
722.674	27161.91
723.016	27141.8
723.359	27134.12
723.701	27125.08
724.044	26946.1
724.386	26864.52
724.729	26983.84
725.071	26844.41
725.413	26871.98
725.755	26838.53
726.097	26674.69
726.439	26665.43
726.782	26537.75
727.124	26758.53
727.465	26486.22
727.807	26460.46
728.149	26393.35
728.491	26333.46
728.833	26392.89
729.175	26280.58
729.516	26234.48
729.858	26215.95
730.199	26248.72
730.541	26207.36
730.882	26119.45
731.224	26053.24
731.565	25880.82
731.906	25927.14
732.248	26058.21
732.589	25821.61
732.93	25715.62
733.271	25857.54
733.612	25726.92
733.953	25822.51
734.294	25665.46
734.635	25548.85
734.976	25650.09
735.317	25578.9
735.658	25527.38
735.999	25594.27
736.339	25511.79
736.68	25482.41
737.021	25367.84
737.361	25171.91
737.702	25408.29
738.042	25281.51
738.383	25237.9
738.723	25245.58
739.063	25204.45
739.404	25220.27
739.744	25190.67
740.084	24961.07
740.424	25114.74
740.764	24988.18
741.104	25128.97
741.444	24907.51
741.784	24779.83
742.124	24820.51
742.464	24892.14
742.804	24776.44
743.143	24730.79
743.483	24794.52
743.823	24676.1
744.162	24653.05
744.502	24677.23
744.841	24528.08
745.181	24594.52
745.52	24411.93
745.86	24514.98
746.199	24348.2
746.538	24316.79
746.877	24444.02
747.216	24364.25
747.556	24324.47
747.895	24233.18
748.234	24216.23
748.573	24126.06
748.911	24117.02
749.25	24020.53
749.589	23832.28
749.928	23936.91
750.267	23960.64
750.605	23814.2
750.944	23859.63
751.283	23760.19
751.621	23839.29
751.96	23628.9
752.298	23609.46
752.636	23589.58
752.975	23578.96
753.313	23471.39
753.651	23527.43
753.989	23379.41
754.327	23357.49
754.666	23204.05
755.004	23286.99
755.342	23213.99
755.679	23127.22
756.017	22910.95
756.355	23004.51
756.693	22893.78
757.031	22951.18
757.368	22812.2
757.706	22763.84
758.044	22735.14
758.381	22687.68
758.719	22650.39
759.056	22611.52
759.394	22484.97
759.731	22409.04
760.068	22301.93
760.405	22234.58
760.743	22237.3
761.08	22176.73
761.417	22054.7
761.754	22067.13
762.091	22034.82
762.428	21988.72
762.765	21653.81
763.102	21846.12
763.438	21715.05
763.775	21623.08
764.112	21630.76
764.449	21658.1
764.785	21433.7
765.122	21369.07
765.458	21203.43
765.795	21239.36
766.131	21224.22
766.467	21137.66
766.804	21114.16
767.14	20906.94
767.476	20890.21
767.812	20863.55
768.148	20875.3
768.485	20687.28
768.821	20687.73
769.157	20488.64
769.492	20577
769.828	20492.48
770.164	20325.03
770.5	20222.43
770.836	20266.28
771.171	20198.71
771.507	20146.5
771.842	19978.6
772.178	19988.99
772.513	19932.95
772.849	19826.29
773.184	19751.26
773.519	19851.82
773.855	19714.43
774.19	19518.5
774.525	19415
774.86	19460.42
775.195	19378.61
775.53	19274.44
775.865	19241.9
776.2	19018.62
776.535	18984.95
776.87	19076.02
777.205	18812.98
777.539	18720.78
777.874	18804.62
778.209	18683.49
778.543	18612.53
778.878	18555.36
779.212	18488.69
779.547	18407.57
779.881	18457.51
780.215	18251.64
780.55	18295.48
780.884	18230.62
781.218	18068.82
781.552	18060.01
781.886	17844.19
782.22	17900.01
782.554	17845.1
782.888	17685.33
783.222	17532.79
783.556	17546.8
783.889	17574.37
784.223	17427.71
784.557	17380.25
784.89	17308.61
785.224	17240.82
785.557	17161.72
785.891	17133.25
786.224	17152.68
786.558	17110.88
786.891	17003.08
787.224	16787.04
787.557	16857.1
787.891	16795.41
788.224	16772.36
788.557	16748.63
788.89	16723.09
789.223	16705.01
789.556	16576.88
789.888	16468.41
790.221	16433.16
790.554	16327.85
790.887	16277.45
791.219	16205.82
791.552	16216.66
791.884	16033.17
792.217	16039.27
792.549	15978.48
792.882	15872.72
793.214	15761.31
793.546	15759.05
793.879	15662.1
794.211	15639.73
794.543	15607.19
794.875	15649.9
795.207	15680.18
795.539	15540.98
795.871	15515.89
796.203	15319.29
796.535	15233.41
796.867	15290.36
797.198	15219.18
797.53	15275.22
797.862	15168.78
798.193	15130.14
798.525	14956.81
798.856	15088.33
799.188	14784.84
799.519	14826.87
799.85	14733.54
800.182	14845.63
800.513	14782.35
800.844	14590.04
801.175	14693.77
801.506	14738.06
801.837	14521.57
802.168	14590.27
802.499	14534.45
802.83	14393.44
803.161	14422.36
803.491	14364.96
803.822	14371.74
804.153	14190.73
804.483	14137.17
804.814	14169.71
805.145	14097.17
805.475	14117.06
805.805	14013.78
806.136	14055.59
806.466	14028.47
806.796	13845.65
807.126	13891.08
807.457	13809.5
807.787	13838.87
808.117	13710.97
808.447	13666
808.777	13675.94
809.107	13697.41
809.436	13561.59
809.766	13588.48
810.096	13474.14
810.426	13478.66
810.755	13457.64
811.085	13484.76
811.414	13403.63
811.744	13292.67
812.073	13297.19
812.403	13280.47
812.732	13193.47
813.061	13223.52
813.39	13200.02
813.719	13076.63
814.049	13156.63
814.378	13065.79
814.707	13041.61
815.036	13077.99
815.365	12953.47
815.693	12872.57
816.022	12887.94
816.351	12846.13
816.68	12702.41
817.008	12802.52
817.337	12677.1
817.665	12647.49
817.994	12744.66
818.322	12737.89
818.651	12604.33
818.979	12550.09
819.307	12692.01
819.636	12535.4
819.964	12510.09
820.292	12513.03
820.62	12543.31
820.948	12400.27
821.276	12560.04
821.604	12429.87
821.932	12504.22
822.259	12430.77
822.587	12437.78
822.915	12473.71
823.243	12396.2
823.57	12328.86
823.898	12383.54
824.225	12333.15
824.553	12368.4
824.88	12417.89
825.207	12457.89
825.535	12378.57
825.862	12324.34
826.189	12368.18
826.516	12417.44
826.843	12433.26
827.17	12327.95
827.497	12369.76
827.824	12334.28
828.151	12359.36
828.478	12287.05
828.805	12400.95
829.131	12353.94
829.458	12368.86
829.785	12287.28
830.111	12291.34
830.438	12341.06
830.764	12333.6
831.09	12349.65
831.417	12322.53
831.743	12301.74
832.069	12236.88
832.395	12246.82
832.722	12327.95
833.048	12231.91
833.374	12239.82
833.7	12202.53
834.026	12155.08
834.351	12200.27
834.677	12186.94
835.003	12248.18
835.329	12181.52
835.654	12133.83
835.98	12181.06
836.306	12112.59
836.631	12000.5
836.956	12195.07
837.282	12069.43
837.607	11986.72
837.932	11926.61
838.258	11923.67
838.583	12026.27
838.908	11898.59
839.233	12073.04
839.558	11900.39
839.883	11917.79
840.208	11891.58
840.533	11827.17
840.858	11810
841.182	11841.86
841.507	11848.87
841.832	11759.38
842.156	11733.39
842.481	11744.47
842.805	11721.87
843.13	11616.56
843.454	11647.29
843.778	11572.49
844.103	11561.65
844.427	11510.8
844.751	11440.74
845.075	11457.69
845.399	11386.06
845.723	11438.94
846.047	11325.27
846.371	11304.7
846.695	11248.66
847.019	11193.52
847.343	11180.41
847.666	11134.54
847.99	11082.34
848.313	11030.13
848.637	10939.29
848.96	10977.25
849.284	10937.03
849.607	10881.89
849.931	10790.59
850.254	10789.01
850.577	10701.55
850.9	10654.78
851.223	10584.27
851.546	10575.46
851.869	10533.65
852.192	10499.53
852.515	10441.67
852.838	10400.55
853.161	10449.36
853.483	10418.62
853.806	10309.25
854.129	10307.67
854.451	10327.78
854.774	10238.06
855.096	10146.09
855.419	10191.06
855.741	10099.54
856.063	10107.9
856.385	10017.73
856.708	10047.11
857.03	10095.02
857.352	9945.64
857.674	9988.81
857.996	9963.72
858.318	9944.96
858.64	9924.63
858.961	9817.96
859.283	9738.19
859.605	9776.38
859.926	9741.81
860.248	9735.7
860.57	9807.12
860.891	9728.02
861.212	9670.4
861.534	9706.78
861.855	9689.83
862.176	9674.46
862.498	9572.77
862.819	9596.73
863.14	9568.25
863.461	9483.28
863.782	9532.77
864.103	9484.64
864.424	9546.56
864.745	9424.75
865.065	9429.95
865.386	9444.86
865.707	9424.3
866.027	9398.76
866.348	9429.95
866.668	9397.63
866.989	9309.73
867.309	9266.34
867.63	9276.51
867.95	9267.24
868.27	9185.44
868.59	9295.49
868.91	9241.48
869.23	9198.32
869.55	9128.49
869.87	9242.16
870.19	9181.14
870.51	9186.11
870.83	9165.1
871.15	9130.52
871.469	9142.73
871.789	9089.85
872.109	9168.94
872.428	9017.08
872.748	9097.53
873.067	8976.85
873.386	9065.44
873.706	8984.54
874.025	8948.38
874.344	8921.71
874.663	8997.64
874.982	8926.23
875.301	8894.14
875.62	8844.43
875.939	8936.18
876.258	8853.69
876.577	8793.58
876.896	8815.28
877.214	8791.55
877.533	8776.86
877.852	8805.79
878.17	8790.64
878.489	8746.35
878.807	8787.25
879.125	8799.68
879.444	8793.81
879.762	8727.82
880.08	8735.5
880.398	8673.13
880.716	8740.93
881.034	8670.87
881.352	8630.2
881.67	8664.09
881.988	8682.17
882.306	8598.11
882.624	8582.74
882.941	8579.58
883.259	8477.66
883.577	8491.67
883.894	8446.92
884.212	8458.22
884.529	8453.03
884.846	8461.61
885.164	8437.21
885.481	8301.39
885.798	8354.95
886.115	8279.47
886.432	8326.93
886.75	8298.23
887.067	8281.28
887.383	8239.25
887.7	8274.95
888.017	8140.72
888.334	8215.29
888.651	8203.99
888.967	8158.8
889.284	8096.43
889.6	8101.4
889.917	8081.06
890.233	8124.67
890.55	8058.23
890.866	8035.18
891.182	8034.96
891.498	7983.66
891.815	7947.95
892.131	7924.9
892.447	7926.26
892.763	7891.23
893.079	7832.93
893.395	7789.77
893.71	7795.64
894.026	7784.12
894.342	7758.81
894.657	7759.94
894.973	7709.09
895.289	7665.25
895.604	7648.08
895.92	7615.08
896.235	7631.8
896.55	7617.34
896.865	7593.84
897.181	7525.37
897.496	7551.13
897.811	7449.89
898.126	7448.08
898.441	7432.94
898.756	7374.64
899.071	7254.19
899.386	7370.57
899.7	7278.59
900.015	7300.29
900.33	7257.58
900.644	7237.01
900.959	7249.89
901.273	7219.84
901.588	7172.61
901.902	7164.47
902.216	7139.16
902.531	7143.91
902.845	7107.52
903.159	7012.16
903.473	7040.63
903.787	6910.02
904.101	6921.09
904.415	6958.6
904.729	6884.93
905.042	6872.5
905.356	6852.39
905.67	6821.66
905.984	6794.31
906.297	6775.78
906.611	6671.6
906.924	6656.46
907.237	6654.66
907.551	6627.09
907.864	6603.81
908.177	6659.85
908.491	6610.14
908.804	6579.63
909.117	6533.3
909.43	6485.85
909.743	6420.09
910.056	6499.63
910.368	6360.65
910.681	6442.23
910.994	6443.81
911.307	6353.42
911.619	6295.12
911.932	6347.09
912.244	6314.33
912.557	6245.63
912.869	6184.16
913.181	6189.36
913.494	6216.7
913.806	6205.85
914.118	6181
914.43	6102.13
914.742	6059.19
915.054	6039.76
915.366	6041.11
915.678	5999.98
915.99	5944.62
916.302	5913.43
916.613	5924.28
916.925	5934.9
917.236	5931.51
917.548	5889.93
917.859	5881.57
918.171	5861.46
918.482	5779.88
918.794	5801.8
919.105	5745.53
919.416	5724.74
919.727	5714.34
920.038	5720.67
920.349	5673.89
920.66	5588.02
920.971	5579.2
921.282	5596.38
921.593	5567
921.903	5537.62
922.214	5509.83
922.525	5501.69
922.835	5470.73
923.146	5397.51
923.456	5509.15
923.767	5387.57
924.077	5412.2
924.387	5377.85
924.697	5316.39
925.008	5301.02
925.318	5295.82
925.628	5285.88
925.938	5273.67
926.248	5216.5
926.558	5194.13
926.867	5213.34
927.177	5178.76
927.487	5136.73
927.796	5095.37
928.106	5065.77
928.416	5096.96
928.725	5042.49
929.034	5038.65
929.344	4998.88
929.653	4984.19
929.962	4987.58
930.271	4913.46
930.581	4946.23
930.89	4909.84
931.199	4871.88
931.508	4826.68
931.817	4824.65
932.125	4835.72
932.434	4829.84
932.743	4769.28
933.051	4803.18
933.36	4777.64
933.669	4727.7
933.977	4666.69
934.286	4708.94
934.594	4646.12
934.902	4586.01
935.21	4615.84
935.519	4640.25
935.827	4561.6
936.135	4579.68
936.443	4501.04
936.751	4513.69
937.059	4469.85
937.367	4462.17
937.674	4495.16
937.982	4432.34
938.29	4462.85
938.597	4402.74
938.905	4356.41
939.213	4373.13
939.52	4373.81
939.827	4340.59
940.135	4322.29
940.442	4332.46
940.749	4281.38
941.056	4306.69
941.363	4257.66
941.67	4246.36
941.977	4192.8
942.284	4169.3
942.591	4169.75
942.898	4188.73
943.205	4139.02
943.511	4128.62
943.818	4110.99
944.125	4096.98
944.431	4052.24
944.738	4000.71
945.044	4024.89
945.35	3977.89
945.657	3990.77
945.963	3987.38
946.269	3963.65
946.575	3924.78
946.881	3936.76
947.187	3905.58
947.493	3882.3
947.799	3866.71
948.105	3841.4
948.41	3863.54
948.716	3838.01
949.022	3818.8
949.327	3771.79
949.633	3781.06
949.938	3753.04
950.244	3763.88
950.549	3747.16
950.854	3736.31
951.16	3710.1
951.465	3679.37
951.77	3664.68
952.075	3649.76
952.38	3624.68
952.685	3601.18
952.99	3640.72
953.294	3569.54
953.599	3590.78
953.904	3570.67
954.209	3544.68
954.513	3528.86
954.818	3518.47
955.122	3492.93
955.426	3467.17
955.731	3421.75
956.035	3428.53
956.339	3419.03
956.643	3432.82
956.948	3389.88
957.252	3367.06
957.556	3392.82
957.86	3344.46
958.163	3324.57
958.467	3318.02
958.771	3345.14
959.075	3288.42
959.378	3284.57
959.682	3301.07
959.985	3259.94
960.289	3277.12
960.592	3232.37
960.896	3220.17
961.199	3204.8
961.502	3166.61
961.805	3165.26
962.108	3163.45
962.411	3171.81
962.714	3128.19
963.017	3136.33
963.32	3126.84
963.623	3103.79
963.926	3086.84
964.228	3067.18
964.531	3096.11
964.833	3111.25
965.136	3033.28
965.438	3055.88
965.741	2972.49
966.043	2993.28
966.345	2993.51
966.648	2953.06
966.95	2939.72
967.252	2912.38
967.554	2984.24
967.856	2922.78
968.158	2890.46
968.46	2914.41
968.761	2872.38
969.063	2830.35
969.365	2862.21
969.666	2861.76
969.968	2795.1
970.269	2792.16
970.571	2847.07
970.872	2803.91
971.174	2776.79
971.475	2771.82
971.776	2770.92
972.077	2723.91
972.378	2746.06
972.679	2697.47
972.98	2725.72
973.281	2710.35
973.582	2709.22
973.883	2665.83
974.183	2657.02
974.484	2661.77
974.785	2617.02
975.085	2636.91
975.386	2632.39
975.686	2630.81
975.986	2580.41
976.287	2569.57
976.587	2575.21
976.887	2610.47
977.187	2564.14
977.487	2573.63
977.787	2548.1
978.087	2530.24
978.387	2521.43
978.687	2480.3
978.987	2501.54
979.286	2493.18
979.586	2487.99
979.885	2434.65
980.185	2458.61
980.484	2456.57
980.784	2405.73
981.083	2420.19
981.382	2370.47
981.682	2405.95
981.981	2335.22
982.28	2372.06
982.579	2339.29
982.878	2346.07
983.177	2328.44
983.475	2336.8
983.774	2314.43
984.073	2278.05
984.372	2274.66
984.67	2304.94
984.969	2280.76
985.267	2275.11
985.566	2285.28
985.864	2263.58
986.162	2237.6
986.461	2255.22
986.759	2215.68
987.057	2189.46
987.355	2201.44
987.653	2171.61
987.951	2156.02
988.249	2175
988.547	2144.94
988.844	2141.55
989.142	2146.98
989.44	2106.07
989.737	2111.27
990.035	2130.25
990.332	2088
990.63	2092.29
990.927	2098.62
991.224	2080.76
991.521	2071.27
991.819	2036.02
992.116	2025.85
992.413	2047.32
992.71	2026.98
993.006	1998.28
993.303	1999.86
993.6	2011.39
993.897	2027.43
994.193	1986.98
994.49	1968.68
994.787	1983.37
995.083	1951.5
995.379	1946.08
995.676	1920.32
995.972	1920.77
996.268	1930.26
996.565	1911.73
996.861	1917.15
997.157	1912.63
997.453	1881.45
997.749	1860.21
998.044	1851.39
998.34	1857.72
998.636	1885.74
998.932	1823.6
999.227	1817.27
999.523	1805.52
999.818	1821.34
1000.114	1810.26
1000.409	1764.16
1000.704	1759.64
1001	1780.89
1001.295	1763.26
1001.59	1738.85
1001.885	1781.11
1002.18	1740.21
1002.475	1757.61
1002.77	1731.85
1003.065	1709.7
1003.359	1702.92
1003.654	1705.18
1003.949	1719.19
1004.243	1662.7
1004.538	1665.63
1004.832	1646.65
1005.127	1670.15
1005.421	1620.89
1005.715	1610.95
1006.009	1639.42
1006.304	1611.17
1006.598	1590.61
1006.892	1573.43
1007.186	1572.53
1007.48	1557.84
1007.773	1572.76
1008.067	1554.22
1008.361	1548.58
1008.655	1523.49
1008.948	1534.56
1009.242	1525.75
1009.535	1516.49
1009.829	1511.74
1010.122	1495.02
1010.415	1501.8
1010.708	1491.4
1011.001	1452.76
1011.295	1462.7
1011.588	1460.89
1011.881	1457.05
1012.173	1443.04
1012.466	1410.95
1012.759	1446.43
1013.052	1452.08
1013.344	1420.44
1013.637	1373.21
1013.93	1389.03
1014.222	1374.12
1014.514	1359.2
1014.807	1339.32
1015.099	1382.93
1015.391	1358.75
1015.683	1338.86
1015.976	1329.37
1016.268	1319.88
1016.56	1313.78
1016.851	1313.55
1017.143	1318.3
1017.435	1299.99
1017.727	1282.82
1018.018	1267
1018.31	1302.71
1018.602	1286.89
1018.893	1279.2
1019.185	1243.05
1019.476	1256.83
1019.767	1250.05
1020.058	1204.86
1020.35	1227.68
1020.641	1197.85
1020.932	1208.47
1021.223	1188.58
1021.514	1172.54
1021.804	1192.2
1022.095	1149.26
1022.386	1162.14
1022.677	1134.35
1022.967	1165.76
1023.258	1154.69
1023.548	1152.65
1023.839	1138.64
1024.129	1165.53
1024.419	1081.69
1024.709	1111.3
1025	1115.82
1025.29	1071.53
1025.58	1097.29
1025.87	1079.43
1026.16	1090.28
1026.449	1058.19
1026.739	1065.42
1027.029	1071.75
1027.319	1043.5
1027.608	1050.96
1027.898	1058.42
1028.187	1026.78
1028.477	1018.65
1028.766	1042.6
1029.055	1020.91
1029.344	1015.26
1029.634	999.89
1029.923	1002.6
1030.212	1004.18
1030.501	994.24
1030.79	987.46
1031.078	977.74
1031.367	960.34
1031.656	973.22
1031.945	956.73
1032.233	922.15
1032.522	936.61
1032.81	935.26
1033.099	919.21
1033.387	907.46
1033.675	915.82
1033.963	911.08
1034.251	909.95
1034.54	925.54
1034.828	918.99
1035.116	894.36
1035.403	880.34
1035.691	912.66
1035.979	876.95
1036.267	862.04
1036.554	866.56
1036.842	844.86
1037.129	859.78
1037.417	839.89
1037.704	843.73
1037.992	866.56
1038.279	826.33
1038.566	833.11
1038.853	833.11
1039.14	833.11
