Data from White_reflection_standard_FLMS001491_090.txt Node
Date: Tue Feb 07 10:32:13 GMT 2017
User: dcchb
Spectrometer: FLMS00149
Trigger mode: 0
Integration Time (sec): 2.000000E-2
Scans to average: 10
Electric dark correction enabled: true
Nonlinearity correction enabled: false
Boxcar width: 0
XAxis mode: Wavelengths
Number of Pixels in Spectrum: 2048
>>>>>Begin Spectral Data<<<<<
341.393	-22.67
341.776	-22.67
342.16	-22.67
342.543	-76.23
342.927	-50.46
343.31	-61.09
343.693	-83.46
344.077	-48.43
344.46	-62.67
344.843	-62.89
345.226	-55.44
345.61	-43.91
345.993	-22.67
346.376	17.1
346.759	2.42
347.142	18.46
347.525	34.96
347.908	81.06
348.291	70.21
348.674	94.62
349.057	121.73
349.44	118.8
349.823	135.75
350.206	171.22
350.588	228.62
350.971	244.89
351.354	274.72
351.737	284.22
352.119	311.56
352.502	287.83
352.884	319.02
353.267	318.11
353.65	337.55
354.032	340.26
354.414	344.1
354.797	373.25
355.179	377.32
355.562	370.32
355.944	359.24
356.326	367.6
356.709	382.74
357.091	395.63
357.473	387.94
357.855	369.19
358.238	401.05
358.62	375.51
359.002	397.89
359.384	401.73
359.766	386.13
360.148	406.47
360.53	398.56
360.912	395.63
361.294	400.6
361.676	411.22
362.057	421.39
362.439	399.24
362.821	418.45
363.203	406.47
363.584	406.47
363.966	416.42
364.348	420.48
364.729	399.01
365.111	393.14
365.493	426.58
365.874	399.69
366.256	397.89
366.637	396.08
367.019	408.96
367.4	400.82
367.781	436.98
368.163	394.04
368.544	416.87
368.925	420.48
369.306	425.91
369.688	437.21
370.069	431.78
370.45	415.51
370.831	439.47
371.212	430.43
371.593	436.3
371.974	437.66
372.355	464.1
372.736	453.02
373.117	472.23
373.498	438.34
373.879	447.38
374.26	451.44
374.641	435.62
375.021	436.98
375.402	446.92
375.783	512.01
376.163	509.29
376.544	498.67
376.925	482.63
377.305	487.6
377.686	470.88
378.066	474.72
378.447	485.57
378.827	505.9
379.208	515.4
379.588	530.76
379.968	508.62
380.349	532.12
380.729	522.4
381.109	521.27
381.489	531.89
381.87	547.03
382.25	548.62
382.63	559.69
383.01	542.06
383.39	560.59
383.77	573.7
384.15	565.56
384.53	590.42
384.91	596.07
385.29	609.86
385.67	601.27
386.049	605.11
386.429	610.99
386.809	625.9
387.189	657.99
387.568	613.47
387.948	633.36
388.328	646.92
388.707	658.22
389.087	641.27
389.466	661.38
389.846	667.93
390.225	669.29
390.605	699.57
390.984	700.48
391.363	707.03
391.743	704.09
392.122	712.9
392.501	724.66
392.881	737.31
393.26	740.7
393.639	735.96
394.018	763.07
394.397	777.54
394.776	767.37
395.155	780.93
395.534	795.61
395.913	799.46
396.292	803.07
396.671	813.02
397.05	847.14
397.429	826.57
397.808	820.02
398.186	829.29
398.565	881.94
398.944	861.38
399.323	876.97
399.701	879.91
400.08	909.51
400.458	909.74
400.837	913.58
401.215	932.79
401.594	927.81
401.972	946.12
402.351	926.23
402.729	955.38
403.107	948.61
403.486	982.05
403.864	965.1
404.242	1002.61
404.62	1027.02
404.999	1027.25
405.377	1042.61
405.755	1034.25
406.133	1082.39
406.511	1062.05
406.889	1089.17
407.267	1113.12
407.645	1136.62
408.023	1147.02
408.401	1125.32
408.779	1173.68
409.156	1170.97
409.534	1213.91
409.912	1217.75
410.29	1236.73
410.667	1269.95
411.045	1298.65
411.422	1272.66
411.8	1280.8
412.178	1337.75
412.555	1358.54
412.933	1344.98
413.31	1393.34
413.687	1393.79
414.065	1405.77
414.442	1408.48
414.819	1452.32
415.197	1467.01
415.574	1487.57
415.951	1499.78
416.328	1506.56
416.705	1511.98
417.082	1517.4
417.46	1551.75
417.837	1527.8
418.214	1612.54
418.591	1612.99
418.967	1616.38
419.344	1637.17
419.721	1651.41
420.098	1682.82
420.475	1715.14
420.852	1737.06
421.228	1748.81
421.605	1746.55
421.982	1724.4
422.358	1772.09
422.735	1821.8
423.111	1787.9
423.488	1853.89
423.864	1842.37
424.241	1871.74
424.617	1927.56
424.994	1934.57
425.37	1938.64
425.746	1972.98
426.123	1983.83
426.499	2009.37
426.875	2057.73
427.251	2093.21
427.627	2109.25
428.003	2115.81
428.379	2159.65
428.756	2166.65
429.132	2199.19
429.507	2241.45
429.883	2263.37
430.259	2340.43
430.635	2326.2
431.011	2333.88
431.387	2365.97
431.763	2442.13
432.138	2479.41
432.514	2494.33
432.89	2537.04
433.265	2565.96
433.641	2601.67
434.016	2647.54
434.392	2669.92
434.767	2734.32
435.143	2717.15
435.518	2761.66
435.894	2838.95
436.269	2860.42
436.644	2862.45
437.02	2895.45
437.395	2914.66
437.77	2940.19
438.145	2977.7
438.52	3033.52
438.895	3089.57
439.271	3045.05
439.646	3135.21
440.021	3168.66
440.395	3156.68
440.77	3158.49
441.145	3183.35
441.52	3295.21
441.895	3289.79
442.27	3292.5
442.645	3305.38
443.019	3385.6
443.394	3406.17
443.769	3465.37
444.143	3348.99
444.518	3455.43
444.892	3464.47
445.267	3454.98
445.641	3502.44
446.016	3549.89
446.39	3574.75
446.764	3586.95
447.139	3656.33
447.513	3643
447.887	3681.87
448.262	3720.74
448.636	3734.75
449.01	3785.59
449.384	3818.59
449.758	3844.8
450.132	3919.37
450.506	3898.58
450.88	3985.81
451.254	3984.23
451.628	4002.54
452.002	4075.98
452.376	4094.96
452.75	4185.36
453.123	4155.07
453.497	4220.84
453.871	4230.55
454.244	4409.08
454.618	4384.22
454.992	4435.29
455.365	4506.93
455.739	4585.8
456.112	4615.18
456.486	4672.8
456.859	4701.5
457.232	4808.39
457.606	4814.72
457.979	4851.78
458.352	4967.71
458.725	5059.01
459.099	5041.83
459.472	5185.78
459.845	5213.13
460.218	5296.06
460.591	5341.48
460.964	5379.67
461.337	5488.37
461.71	5558.2
462.083	5643.85
462.456	5732.43
462.829	5672.1
463.201	5774.92
463.574	5800
463.947	5896.95
464.32	6044.74
464.692	6076.83
465.065	6101.69
465.438	6245.19
465.81	6285.64
466.183	6351.85
466.555	6496.93
466.928	6553.43
467.3	6552.53
467.672	6656.48
468.045	6899.41
468.417	6904.61
468.789	6940.76
469.161	7070.93
469.534	7143.24
469.906	7308.21
470.278	7390.02
470.65	7497.81
471.022	7633.85
471.394	7812.38
471.766	7848.31
472.138	7935.09
472.51	8082.65
472.882	8241.52
473.253	8265.7
473.625	8441.29
473.997	8641.74
474.369	8684.9
474.74	8748.85
475.112	8953.37
475.484	9144.77
475.855	9280.82
476.227	9300.93
476.598	9540.7
476.97	9692.56
477.341	9892.55
477.713	10111.08
478.084	10087.57
478.455	10433.33
478.827	10501.35
479.198	10747.67
479.569	10837.61
479.94	11041.9
480.311	11172.07
480.682	11444.37
481.053	11736.34
481.424	11993.74
481.795	12056.11
482.166	12266.73
482.537	12421.75
482.908	12644.57
483.279	12735.41
483.65	12992.13
484.021	13333.14
484.391	13465.11
484.762	13591.21
485.133	13714.6
485.503	13884.08
485.874	14234.36
486.244	14318.87
486.615	14569.49
486.985	14752.99
487.356	15156.14
487.726	15219.87
488.097	15534.21
488.467	15511.61
488.837	15914.09
489.207	16029.79
489.578	16245.6
489.948	16431.59
490.318	16680.62
490.688	16724.24
491.058	17087.62
491.428	17283.32
491.798	17405.35
492.168	17789.29
492.538	17836.3
492.908	17991.77
493.278	18303.85
493.648	18373.01
494.017	18565.99
494.387	18769.83
494.757	18808.93
495.126	19139.31
495.496	19195.81
495.866	19360.1
496.235	19604.39
496.605	19779.75
496.974	19833.31
497.344	20116.01
497.713	20166.4
498.082	20358.94
498.452	20652.27
498.821	20730.91
499.19	20695.88
499.559	21033.05
499.928	21117.79
500.298	21334.96
500.667	21496.31
501.036	21518.46
501.405	21641.85
501.774	21747.15
502.143	22012.01
502.512	22046.58
502.88	22269.63
503.249	22355.5
503.618	22492.9
503.987	22653.35
504.356	22806.79
504.724	22916.61
505.093	23068.93
505.462	23221.69
505.83	23509.82
506.199	23597.73
506.567	23861.45
506.936	23882.01
507.304	24241.55
507.672	24319.74
508.041	24442.9
508.409	24691.03
508.777	24763.35
509.145	24997.69
509.514	25035.43
509.882	25211.24
510.25	25284.91
510.618	25613.72
510.986	25587.73
511.354	25916.31
511.722	26114.5
512.09	26413.47
512.458	26385.68
512.826	26739.57
513.193	26785.21
513.561	26858.66
513.929	27205.99
514.297	27451.18
514.664	27507.91
515.032	27774.11
515.4	27962.13
515.767	27986.31
516.135	28225.85
516.502	28216.59
516.869	28790.58
517.237	28948.32
517.604	28733.86
517.972	29113.97
518.339	29353.28
518.706	29483.45
519.073	29636.44
519.44	29878.69
519.808	30236.65
520.175	30294.05
520.542	30722.74
520.909	30899.68
521.276	30905.33
521.643	31325.21
522.009	31405.43
522.376	31670.06
522.743	31908.69
523.11	32316.14
523.477	32580.32
523.843	32738.5
524.21	32871.38
524.577	33298.26
524.943	33415.55
525.31	33542.1
525.676	33914.07
526.043	34190.22
526.409	34365.35
526.776	34753.82
527.142	34898.67
527.508	35046.69
527.874	35355.38
528.241	35439.22
528.607	35637.41
528.973	36027.23
529.339	35947.91
529.705	36219.32
530.071	36696.14
530.437	36782.92
530.803	37160.76
531.169	37260.19
531.535	37215.45
531.901	37332.06
532.267	37587.19
532.632	37855.66
532.998	37987.86
533.364	38302.88
533.73	38332.03
534.095	38519.37
534.461	38854.95
534.826	38915.74
535.192	39046.13
535.557	39364.77
535.923	39298.11
536.288	39584.65
536.653	39735.16
537.019	39702.39
537.384	40082.49
537.749	40042.72
538.114	40198.87
538.479	40313.45
538.845	40446.1
539.21	40522.48
539.575	40708.69
539.94	40935.58
540.305	41158.62
540.67	41038.4
541.034	41453.08
541.399	41426.18
541.764	41636.12
542.129	41745.95
542.494	41899.84
542.858	42018.26
543.223	42064.81
543.587	42314.07
543.952	42177.58
544.316	42404.69
544.681	42540.73
545.045	42580.96
545.41	42927.16
545.774	43013.04
546.138	43224.1
546.503	43283.54
546.867	43251.67
547.231	43738.21
547.595	43738.44
547.959	44050.07
548.324	43944.08
548.688	44145.21
549.052	44205.55
549.416	44309.05
549.779	44438.08
550.143	44619.55
550.507	44858.18
550.871	44919.88
551.235	44910.84
551.599	45362.35
551.962	45440.99
552.326	45494.1
552.689	45749.23
553.053	45576.58
553.417	45770.7
553.78	46377.24
554.143	46070.81
554.507	46440.29
554.87	46641.64
555.234	46795.54
555.597	46805.93
555.96	47034.17
556.323	47203.66
556.686	47170.89
557.05	47505.35
557.413	47638.9
557.776	47641.39
558.139	47875.05
558.502	48108.27
558.865	48044.99
559.228	48437.98
559.59	48542.83
559.953	48553.91
560.316	49098.3
560.679	48960.22
561.041	49318.18
561.404	49442.92
561.767	49557.04
562.129	49604.5
562.492	49968.79
562.854	49914.32
563.217	50096.69
563.579	50182.79
563.941	50459.17
564.304	50552.95
564.666	50752.04
565.028	50772.38
565.39	50930.34
565.753	51141.41
566.115	51282.42
566.477	51437.22
566.839	51559.48
567.201	51706.14
567.563	51698.46
567.925	51950.43
568.287	51906.59
568.648	52008.96
569.01	52184.09
569.372	52372.79
569.734	52345.67
570.095	52602.84
570.457	52744.76
570.819	52705.89
571.18	52908.59
571.542	52996.5
571.903	53065.2
572.265	53081.02
572.626	53283.05
572.987	53296.38
573.349	53455.47
573.71	53443.95
574.071	53544.74
574.432	53645.52
574.794	53911.96
575.155	53812.75
575.516	53807.55
575.877	53914.67
576.238	54037.83
576.599	54105.4
576.96	54137.49
577.32	54188.34
577.681	54284.83
578.042	54307.65
578.403	54283.93
578.763	54355.79
579.124	54403.92
579.485	54535.67
579.845	54645.05
580.206	54556.69
580.566	54511.72
580.927	54592.39
581.287	54709
581.648	54596.23
582.008	54680.98
582.368	54672.39
582.728	54728.43
583.089	54705.61
583.449	54650.24
583.809	54737.7
584.169	54805.49
584.529	54739.06
584.889	54913.51
585.249	54771.14
585.609	54745.83
585.969	54859.05
586.329	54760.52
586.688	54828.09
587.048	54840.3
587.408	54798.71
587.768	54813.63
588.127	54775.21
588.487	54790.13
588.846	54968.88
589.206	54694.31
589.565	54727.76
589.925	54937.47
590.284	54790.58
590.643	54928.65
591.003	54944.02
591.362	54979.5
591.721	54990.57
592.08	54898.15
592.44	55003.68
592.799	54936.11
593.158	54869.67
593.517	54948.77
593.876	55024.02
594.235	54965.26
594.593	54941.99
594.952	55094.53
595.311	54977.47
595.67	55025.15
596.029	55221.75
596.387	55228.53
596.746	55228.31
597.104	55060.85
597.463	55130.91
597.822	55254.07
598.18	55083
598.538	55125.71
598.897	55333.16
599.255	55078.48
599.613	55459.94
599.972	55346.72
600.33	55324.58
600.688	55221.08
601.046	55346.5
601.404	55481.86
601.762	55315.09
602.12	55508.07
602.478	55529.54
602.836	55499.26
603.194	55322.54
603.552	55404.8
603.91	55367.97
604.268	55512.59
604.625	55471.01
604.983	55549.43
605.341	55410.22
605.698	55646.6
606.056	55650.22
606.413	55615.19
606.771	55695.41
607.128	55707.17
607.485	55636.88
607.843	55700.39
608.2	55810.44
608.557	55911.68
608.914	55850.66
609.272	55962.98
609.629	55937.22
609.986	56008.4
610.343	55871.45
610.7	56074.84
611.057	56086.14
611.414	56016.31
611.771	56065.8
612.127	56172.46
612.484	56197.32
612.841	56250.65
613.198	56131.33
613.554	56193.25
613.911	56280.26
614.267	56315.74
614.624	56147.38
614.98	56267.15
615.337	56421.27
615.693	56378.79
616.05	56299.47
616.406	56512.12
616.762	56388.5
617.118	56371.78
617.475	56349.18
617.831	56457.43
618.187	56476.18
618.543	56505.56
618.899	56636.86
619.255	56601.83
619.611	56538.33
619.967	56575.39
620.323	56652
620.678	56483.19
621.034	56541.04
621.39	56502.62
621.746	56488.39
622.101	56728.16
622.457	56509.63
622.812	56622.85
623.168	56666.91
623.523	56603.86
623.879	56677.76
624.234	56558.67
624.589	56650.64
624.945	56721.83
625.3	56619.46
625.655	56704.43
626.01	56578.55
626.365	56593.92
626.72	56615.62
627.075	56608.84
627.43	56582.85
627.785	56529.74
628.14	56558.67
628.495	56622.4
628.85	56547.37
629.205	56436.86
629.559	56669.63
629.914	56450.2
630.269	56435.51
630.623	56492.91
630.978	56365.45
631.332	56464.43
631.687	56475.28
632.041	56364.55
632.396	56394.83
632.75	56184.21
633.104	56374.04
633.459	56182.63
633.813	56218.79
634.167	56181.05
634.521	56185.12
634.875	56230.54
635.229	56104.67
635.583	56001.85
635.937	55996.42
636.291	56028.29
636.645	56075.97
636.999	55843.43
637.352	55922.98
637.706	55815.18
638.06	55953.03
638.413	55803.89
638.767	55714.62
639.121	55825.58
639.474	55650.67
639.828	55652.48
640.181	55651.12
640.534	55623.55
640.888	55509.66
641.241	55419.49
641.594	55454.29
641.947	55638.01
642.301	55465.14
642.654	55479.83
643.007	55388.53
643.36	55353.05
643.713	55291.81
644.066	55313.05
644.419	55149.44
644.771	54913.74
645.124	54771.14
645.477	54694.76
645.83	54467.65
646.182	54375.45
646.535	54263.36
646.888	54367.54
647.24	54185.4
647.593	54362.79
647.945	54277.6
648.298	54104.04
648.65	54055.68
649.002	53962.35
649.355	54031.96
649.707	54016.36
650.059	54146.98
650.411	54485.28
650.763	54493.64
651.115	54658.61
651.467	54651.83
651.819	54561.88
652.171	54496.12
652.523	54493.86
652.875	54534.31
653.227	54403.7
653.578	54513.52
653.93	54399.4
654.282	54321.21
654.633	54243.02
654.985	54273.76
655.337	54170.48
655.688	54227.88
656.039	54352.17
656.391	54132.74
656.742	54101.56
657.094	54102.01
657.445	54148.34
657.796	54103.82
658.147	54095
658.498	54081.9
658.849	54131.61
659.2	54052.75
659.551	53932.3
659.902	54092.97
660.253	53986.31
660.604	54062.91
660.955	53960.09
661.306	53986.31
661.656	53917.61
662.007	53942.92
662.358	53871.51
662.708	53887.1
663.059	53801.9
663.409	53590.38
663.76	53898.63
664.11	53929.36
664.461	53900.43
664.811	53863.37
665.161	53738.18
665.511	53715.35
665.862	53739.08
666.212	53822.47
666.562	53812.75
666.912	53623.38
667.262	53640.33
667.612	53564.17
667.962	53559.43
668.312	53573.44
668.662	53629.03
669.011	53591.51
669.361	53483.27
669.711	53512.42
670.06	53443.27
670.41	53410.95
670.76	53350.62
671.109	53483.49
671.459	53369.37
671.808	53358.75
672.157	53379.09
672.507	53096.61
672.856	53282.37
673.205	53219.77
673.554	53296.38
673.904	53219.32
674.253	53369.83
674.602	53253.9
674.951	52746.79
675.3	52669.96
675.649	53140.23
675.998	53010.29
676.346	53149.72
676.695	53174.35
677.044	52907.46
677.393	52881.02
677.741	52993.56
678.09	52923.51
678.438	52933
678.787	52914.47
679.135	52963.73
679.484	52673.57
679.832	52691.65
680.181	52686.45
680.529	52678.54
680.877	52587.47
681.225	52502.28
681.573	52693.23
681.922	52495.5
682.27	52376.63
682.618	52415.27
682.966	52356.52
683.314	52319.91
683.661	52300.25
684.009	52136.41
684.357	52027.49
684.705	51942.97
685.053	51965.12
685.4	51953.59
685.748	51658.68
686.095	51694.16
686.443	51587.5
686.79	51504.34
687.138	51672.02
687.485	51624.56
687.832	51479.25
688.18	51536.88
688.527	51268.19
688.874	51301.18
689.221	51211.69
689.568	51134.4
689.915	50988.19
690.262	50902.32
690.609	50916.1
690.956	50691.48
691.303	50699.16
691.65	50529.45
691.997	50557.92
692.344	50287.87
692.69	50191.83
693.037	50193.41
693.383	49922.91
693.73	50098.5
694.077	49915.23
694.423	49806.08
694.769	49720.88
695.116	49621.9
695.462	49568.8
695.808	49456.48
696.155	49432.75
696.501	49230.05
696.847	49311.63
697.193	48993.67
697.539	48974.46
697.885	48762.04
698.231	48717.52
698.577	48648.59
698.923	48589.84
699.269	48507.13
699.614	48188.49
699.96	48179.68
700.306	48232.11
700.651	47972.45
700.997	48056.07
701.342	47877.99
701.688	47736.08
702.033	47662.4
702.379	47691.33
702.724	47647.72
703.069	47593.93
703.415	47096.77
703.76	47188.29
704.105	47045.92
704.45	47031.01
704.795	46782.88
705.14	46732.26
705.485	46619.49
705.83	46440.52
706.175	46490.23
706.52	46342.89
706.865	46109.45
707.209	46202.78
707.554	46084.14
707.899	46134.76
708.243	45804.6
708.588	45819.29
708.932	45562.12
709.277	45500.88
709.621	45535.23
709.966	45370.71
710.31	45365.06
710.654	45094.34
710.998	45159.87
711.342	45046.88
711.687	44938.41
712.031	44845.3
712.375	44575.25
712.719	44467.23
713.063	44580.9
713.407	44564.63
713.75	44377.97
714.094	44380.91
714.438	44175.49
714.782	44225.89
715.125	44101.37
715.469	43994.48
715.812	43900.47
716.156	43712.45
716.499	43630.65
716.843	43595.85
717.186	43556.75
717.53	43634.49
717.873	43644.88
718.216	43508.84
718.559	43216.42
718.902	42928.74
719.246	43049.87
719.589	42820.72
719.932	42826.83
720.275	42799.71
720.617	42739.82
720.96	42846.71
721.303	42692.59
721.646	42504.57
721.989	42394.97
722.331	42491.02
722.674	42426.38
723.016	42242.89
723.359	42253.51
723.701	42198.59
724.044	41895.1
724.386	41781.2
724.729	41919.28
725.071	41947.75
725.413	41695.56
725.755	41656.91
726.097	41601.32
726.439	41432.51
726.782	41346.64
727.124	41606.07
727.465	41297.37
727.807	41181.22
728.149	41124.95
728.491	41182.8
728.833	41236.59
729.175	40994.11
729.516	41106.65
729.858	40843.38
730.199	40831.62
730.541	40650.61
730.882	40761.8
731.224	40665.3
731.565	40497.85
731.906	40482.71
732.248	40577.17
732.589	40270.06
732.93	40176.5
733.271	40324.29
733.612	40231.64
733.953	40205.2
734.294	40011.53
734.635	39916.17
734.976	39965.21
735.317	39846.34
735.658	39710.52
735.999	39837.07
736.339	39605.67
736.68	39692.9
737.021	39488.16
737.361	39403.87
737.702	39681.6
738.042	39479.8
738.383	39316.41
738.723	39384.88
739.063	39134.95
739.404	39168.17
739.744	38983.99
740.084	38889.98
740.424	39043.87
740.764	38903.31
741.104	39015.63
741.444	38721.17
741.784	38657.22
742.124	38751.23
742.464	38686.6
742.804	38579.71
743.143	38413.61
743.483	38500.61
743.823	38214.52
744.162	38340.39
744.502	38308.75
744.841	38007.07
745.181	38158.25
745.52	38024.24
745.86	38123.22
746.199	37969.1
746.538	37763.23
746.877	37973.39
747.216	37764.13
747.556	37671.93
747.895	37705.38
748.234	37550.58
748.573	37446.4
748.911	37406.63
749.25	37431.71
749.589	37248.89
749.928	37239.63
750.267	37337.25
750.605	37121.89
750.944	36974.32
751.283	36834.89
751.621	36934.33
751.96	36661.56
752.298	36597.16
752.636	36772.97
752.975	36484.85
753.313	36439.42
753.651	36508.8
753.989	36385.87
754.327	36244.4
754.666	35963.28
755.004	36143.39
755.342	36034.91
755.679	35963.28
756.017	35730.74
756.355	35834.69
756.693	35683.74
757.031	35602.84
757.368	35381.15
757.706	35361.94
758.044	35205.56
758.381	35230.42
758.719	35136.63
759.056	35145.45
759.394	34966.47
759.731	34755.4
760.068	34735.06
760.405	34590.43
760.743	34398.8
761.08	34552.69
761.417	34245.13
761.754	34327.61
762.091	34195.87
762.428	33971.47
762.765	33903.67
763.102	33823.9
763.438	33820.74
763.775	33640.85
764.112	33607.18
764.449	33557.69
764.785	33400.18
765.122	33165.84
765.458	33049.23
765.795	33072.96
766.131	32995.22
766.467	32839.52
766.804	32658.28
767.14	32658.51
767.476	32593.2
767.812	32410.15
768.148	32396.59
768.485	32117.5
768.821	31938.3
769.157	31955.7
769.492	31807
769.828	31798.42
770.164	31614.69
770.5	31514.81
770.836	31464.41
771.171	31200.01
771.507	31248.37
771.842	30962.51
772.178	30956.86
772.513	30896.74
772.849	30817.42
773.184	30687.71
773.519	30514.83
773.855	30435.51
774.19	30490.43
774.525	30280.49
774.86	30212.69
775.195	30088.86
775.53	29904.23
775.865	29802.99
776.2	29605.25
776.535	29506.5
776.87	29472.37
777.205	29238.48
777.539	29195.55
777.874	29148.54
778.209	28966.63
778.543	29075.32
778.878	28807.76
779.212	28670.36
779.547	28558.95
779.881	28576.13
780.215	28438.73
780.55	28461.55
780.884	28226.76
781.218	28093.88
781.552	28179.98
781.886	27982.02
782.22	27787
782.554	27806.66
782.888	27537.28
783.222	27462.26
783.556	27227.46
783.889	27304.3
784.223	27187.01
784.557	27104.75
784.89	27091.87
785.224	26818.66
785.557	26695.27
785.891	26757.42
786.224	26647.14
786.558	26621.6
786.891	26260.93
787.224	26215.29
787.557	26166.02
787.891	26121.28
788.224	26105.23
788.557	26047.83
788.89	25873.37
789.223	25813.94
789.556	25606.71
789.888	25595.87
790.221	25482.42
790.554	25303.67
790.887	25239.49
791.219	25311.81
791.552	25152.94
791.884	25000.4
792.217	24976.22
792.549	24790.01
792.882	24674.31
793.214	24593.41
793.546	24636.12
793.879	24505.27
794.211	24364.49
794.543	24470.7
794.875	24314.54
795.207	24416.69
795.539	24207.2
795.871	24163.36
796.203	24032.74
796.535	23776.03
796.867	23787.1
797.198	23688.12
797.53	23715.46
797.862	23505.75
798.193	23517.05
798.525	23428.01
798.856	23454.68
799.188	23167.91
799.519	23138.3
799.85	23011.98
800.182	23059.21
800.513	23015.6
800.844	22718.43
801.175	22909.38
801.506	22967.91
801.837	22635.04
802.168	22705.1
802.499	22643.4
802.83	22485.44
803.161	22478.89
803.491	22371.32
803.822	22404.54
804.153	22219.01
804.483	21980.82
804.814	21979.24
805.145	22001.16
805.475	21942.86
805.805	21862.18
806.136	21866.7
806.466	21950.99
806.796	21841.39
807.126	21604.79
807.457	21514.84
807.787	21488.18
808.117	21361.18
808.447	21312.36
808.777	21403.66
809.107	21297.45
809.436	21146.27
809.766	21207.73
810.096	21092.93
810.426	21079.6
810.755	21011.58
811.085	20950.56
811.414	20907.63
811.744	20718.25
812.073	20640.97
812.403	20710.57
812.732	20604.81
813.061	20582.67
813.39	20321.65
813.719	20367.08
814.049	20414.99
814.378	20379.05
814.707	20303.8
815.036	20243.46
815.365	20144.71
815.693	19928.22
816.022	20041.21
816.351	19958.95
816.68	19808.22
817.008	19930.25
817.337	19743.14
817.665	19781.56
817.994	19747.43
818.322	19714.89
818.651	19581.79
818.979	19547.21
819.307	19624.95
819.636	19465.41
819.964	19531.85
820.292	19503.82
820.62	19414.56
820.948	19412.07
821.276	19456.37
821.604	19357.39
821.932	19392.19
822.259	19306.54
822.587	19454.79
822.915	19249.82
823.243	19393.32
823.57	19321.68
823.898	19264.06
824.225	19245.98
824.553	19270.38
824.88	19384.05
825.207	19410.04
825.535	19225.19
825.862	19294.56
826.189	19221.8
826.516	19322.13
826.843	19329.59
827.17	19203.27
827.497	19321.68
827.824	19306.09
828.151	19264.28
828.478	19269.25
828.805	19258.63
829.131	19159.43
829.458	19245.98
829.785	19091.4
830.111	19196.03
830.438	19271.06
830.764	19129.82
831.09	19255.02
831.417	19042.37
831.743	19176.83
832.069	19204.4
832.395	19091.18
832.722	19069.48
833.048	19101.12
833.374	19054.34
833.7	18902.03
834.026	19001.92
834.351	19062.25
834.677	19046.43
835.003	19011.63
835.329	18886.44
835.654	18894.12
835.98	18822.71
836.306	18895.93
836.631	18753.33
836.956	18898.19
837.282	18755.37
837.607	18715.37
837.932	18717.4
838.258	18676.05
838.583	18696.61
838.908	18563.28
839.233	18594.02
839.558	18538.88
839.883	18438.31
840.208	18400.35
840.533	18440.12
840.858	18280.13
841.182	18457.3
841.507	18394.93
841.832	18273.35
842.156	18260.24
842.481	18255.04
842.805	18258.21
843.13	18048.04
843.454	18140.24
843.778	18054.6
844.103	18039
844.427	17972.11
844.751	17915.62
845.075	17836.07
845.399	17847.14
845.723	17677.2
846.047	17756.52
846.371	17621.61
846.695	17581.61
847.019	17472.92
847.343	17384.78
847.666	17302.53
847.99	17124.22
848.313	17172.13
848.637	17089.42
848.96	17095.75
849.284	17037.9
849.607	16930.56
849.931	16859.6
850.254	16736.21
850.577	16679.49
850.9	16512.04
851.223	16489.67
851.546	16417.8
851.869	16286.51
852.192	16446.73
852.515	16289.67
852.838	16195.21
853.161	16138.94
853.483	15985.72
853.806	15986.85
854.129	16007.19
854.451	15892.17
854.774	15882.45
855.096	15824.15
855.419	15773.53
855.741	15680.87
856.063	15614.21
856.385	15719.52
856.708	15538.96
857.03	15502.35
857.352	15472.97
857.674	15458.96
857.996	15369.24
858.318	15291.73
858.64	15235.91
858.961	15220.55
859.283	15246.31
859.605	15156.59
859.926	15119.76
860.248	15106.65
860.57	15032.3
860.891	15041.12
861.212	14932.87
861.534	14903.27
861.855	14856.26
862.176	14927.67
862.498	14918.86
862.819	14888.8
863.14	14757.51
863.461	14779.65
863.782	14715.7
864.103	14658.53
864.424	14610.17
864.745	14712.08
865.065	14594.35
865.386	14486.55
865.707	14522.94
866.027	14492.43
866.348	14485.42
866.668	14499.44
866.989	14449.49
867.309	14297.63
867.63	14334.24
867.95	14440.91
868.27	14332.66
868.59	14355.26
868.91	14225.32
869.23	14333.11
869.55	14221.93
869.87	14226.22
870.19	14198.88
870.51	14243.85
870.83	14180.57
871.15	14058.54
871.469	14086.56
871.789	14162.95
872.109	14058.54
872.428	13935.83
872.748	14018.09
873.067	13987.36
873.386	14068.26
873.706	13916.63
874.025	13883.63
874.344	13813.8
874.663	13942.61
874.982	13849.28
875.301	13799.79
875.62	13839.11
875.939	13717.76
876.258	13768.38
876.577	13631.44
876.896	13673.02
877.214	13585.79
877.533	13670.08
877.852	13630.98
878.17	13639.8
878.489	13636.86
878.807	13563.64
879.125	13551.89
879.444	13595.96
879.762	13476.19
880.08	13391.22
880.398	13361.16
880.716	13367.71
881.034	13360.93
881.352	13287.49
881.67	13307.6
881.988	13405
882.306	13304.21
882.624	13164.1
882.941	13137.44
883.259	13185.57
883.577	13140.83
883.894	13034.84
884.212	13050.21
884.529	13000.72
884.846	13032.58
885.164	12930.21
885.481	12952.36
885.798	12974.73
886.115	12841.63
886.432	12851.57
886.75	12807.73
887.067	12780.61
887.383	12740.39
887.7	12738.8
888.017	12661.07
888.334	12585.59
888.651	12648.86
888.967	12687.05
889.284	12547.17
889.6	12539.26
889.917	12377.23
890.233	12538.81
890.55	12427.17
890.866	12364.12
891.182	12353.95
891.498	12302.66
891.815	12290.91
892.131	12235.09
892.447	12172.04
892.763	12163.9
893.079	12057.69
893.395	12038.71
893.71	12054.75
894.026	12034.64
894.342	11974.53
894.657	11831.93
894.973	11912.38
895.289	11916
895.604	11946.51
895.92	11784.03
896.235	11763.46
896.55	11681.88
896.865	11653.86
897.181	11673.29
897.496	11637.36
897.811	11452.96
898.126	11502.23
898.441	11503.81
898.756	11398.73
899.071	11311.04
899.386	11367.99
899.7	11278.05
900.015	11280.08
900.33	11168.68
900.644	11122.35
900.959	11186.3
901.273	11155.57
901.588	11067.89
901.902	10968.68
902.216	11027.44
902.531	10928
902.845	10866.31
903.159	10747.22
903.473	10736.82
903.787	10743.83
904.101	10656.82
904.415	10741.34
904.729	10648.69
905.042	10585.41
905.356	10527.11
905.67	10560.78
905.984	10476.26
906.297	10463.84
906.611	10381.8
906.924	10379.77
907.237	10435.14
907.551	10282.6
907.864	10271.75
908.177	10189.72
908.491	10223.39
908.804	10152.43
909.117	10088.7
909.43	10067.46
909.743	9960.8
910.056	9947.46
910.368	9916.28
910.681	9818.2
910.994	9829.05
911.307	9756.28
911.619	9730.75
911.932	9734.59
912.244	9663.18
912.557	9634.93
912.869	9606.91
913.181	9617.98
913.494	9561.03
913.806	9456.4
914.118	9448.27
914.43	9389.96
914.742	9363.98
915.054	9266.8
915.366	9239.23
915.678	9268.16
915.99	9213.7
916.302	9085.57
916.613	9111.33
916.925	9126.02
917.236	9066.36
917.548	8947.94
917.859	9030.88
918.171	8929.64
918.482	8861.62
918.794	8878.57
919.105	8818
919.416	8725.35
919.727	8677.67
920.038	8687.38
920.349	8668.18
920.66	8587.5
920.971	8621.17
921.282	8573.72
921.593	8460.27
921.903	8418.24
922.214	8438.13
922.525	8399.48
922.835	8350.9
923.146	8274.29
923.456	8310.9
923.767	8241.75
924.077	8159.71
924.387	8181.41
924.697	8119.04
925.008	8100.51
925.318	8116.55
925.628	8112.48
925.938	8003.56
926.248	7967.63
926.558	7972.6
926.867	7926.73
927.177	7837.46
927.487	7782.32
927.796	7784.58
928.106	7739.61
928.416	7748.43
928.725	7717.47
929.034	7606.74
929.344	7672.95
929.653	7594.53
929.962	7540.52
930.271	7561.09
930.581	7506.17
930.89	7470.47
931.199	7420.75
931.508	7397.7
931.817	7397.47
932.125	7318.61
932.434	7300.08
932.743	7253.07
933.051	7210.14
933.36	7215.11
933.669	7134.88
933.977	7084.26
934.286	7113.64
934.594	7050.14
934.902	7035.22
935.21	6950.93
935.519	7023.02
935.827	6979.41
936.135	6894.89
936.443	6893.53
936.751	6806.53
937.059	6794.33
937.367	6758.62
937.674	6781.9
937.982	6792.97
938.29	6673.43
938.597	6653.77
938.905	6619.19
939.213	6647.21
939.52	6561.56
939.827	6625.97
940.135	6548.23
940.442	6502.36
940.749	6501.91
941.056	6459.87
941.363	6383.49
941.67	6361.8
941.977	6321.35
942.284	6303.27
942.591	6323.83
942.898	6256.26
943.205	6260.1
943.511	6197.73
943.818	6164.74
944.125	6117.73
944.431	6103.27
944.738	6075.02
945.044	6081.13
945.35	6014.69
945.657	6083.39
945.963	5972.88
946.269	5995.03
946.575	5911.86
946.881	5919.55
947.187	5791.19
947.493	5850.17
947.799	5804.07
948.105	5752.32
948.41	5729.27
948.716	5751.64
949.022	5707.8
949.327	5707.12
949.633	5672.32
949.938	5637.3
950.244	5649.72
950.549	5622.38
950.854	5537.18
951.16	5563.4
951.465	5522.95
951.77	5448.6
952.075	5482.5
952.38	5441.59
952.685	5441.59
952.99	5392.33
953.294	5393.69
953.599	5344.65
953.904	5341.94
954.209	5293.8
954.513	5295.16
954.818	5240.7
955.122	5231.88
955.426	5247.48
955.731	5200.24
956.035	5163.86
956.339	5137.87
956.643	5096.97
956.948	5083.86
957.252	5065.56
957.556	5023.98
957.86	5009.74
958.163	4997.54
958.467	4965.9
958.771	4987.59
959.075	4953.25
959.378	4900.14
959.682	4889.29
959.985	4819.92
960.289	4851.33
960.592	4817.43
960.896	4826.24
961.199	4756.87
961.502	4787.83
961.805	4725
962.108	4685.46
962.411	4702.63
962.714	4695.4
963.017	4651.56
963.32	4643.42
963.623	4600.26
963.926	4587.61
964.228	4558
964.531	4537.89
964.833	4568.4
965.136	4511
965.438	4457.44
965.741	4485.91
966.043	4480.26
966.345	4449.53
966.648	4430.77
966.95	4382.41
967.252	4305.58
967.554	4357.55
967.856	4333.6
968.158	4297.67
968.46	4306.03
968.761	4217.9
969.063	4281.4
969.365	4219.48
969.666	4210.67
969.968	4169.99
970.269	4192.81
970.571	4183.77
970.872	4185.81
971.174	4121.63
971.475	4097
971.776	4077.34
972.077	4058.35
972.378	4029.2
972.679	3995.98
972.98	4033.27
973.281	3988.3
973.582	3998.47
973.883	4009.32
974.183	3920.05
974.484	3901.52
974.785	3910.34
975.085	3905.59
975.386	3848.64
975.686	3864.01
975.986	3842.99
976.287	3781.75
976.587	3798.25
976.887	3754.63
977.187	3806.38
977.487	3788.53
977.787	3753.05
978.087	3727.06
978.387	3689.55
978.687	3685.48
978.987	3693.62
979.286	3665.14
979.586	3640.96
979.885	3631.92
980.185	3559.16
980.484	3577.91
980.784	3591.02
981.083	3533.85
981.382	3530.01
981.682	3470.8
981.981	3522.77
982.28	3474.19
982.579	3461.08
982.878	3464.02
983.177	3438.03
983.475	3424.47
983.774	3436.22
984.073	3430.35
984.372	3387.41
984.67	3370.24
984.969	3341.08
985.267	3317.36
985.566	3342.44
985.864	3300.86
986.162	3289.79
986.461	3245.04
986.759	3257.24
987.057	3226.51
987.355	3231.48
987.653	3210.92
987.951	3143.58
988.249	3181.09
988.547	3170.92
988.844	3130.69
989.142	3163.24
989.44	3110.58
989.737	3102.45
990.035	3096.57
990.332	3062
990.63	3053.63
990.927	3061.77
991.224	3054.09
991.521	3006.4
991.819	2988.55
992.116	2947.65
992.413	2994.43
992.71	2968.21
993.006	2939.06
993.303	2958.04
993.6	2885.05
993.897	2886.86
994.193	2916.46
994.49	2845.96
994.787	2850.48
995.083	2851.38
995.379	2806.64
995.676	2792.17
995.972	2798.5
996.268	2757.37
996.565	2779.07
996.861	2762.34
997.157	2733.19
997.453	2733.19
997.749	2702.68
998.044	2695.45
998.34	2670.37
998.636	2648.45
998.932	2668.79
999.227	2645.96
999.523	2608.9
999.818	2597.83
1000.114	2607.54
1000.409	2588.79
1000.704	2564.16
1001	2568
1001.295	2525.96
1001.59	2502.24
1001.885	2488.68
1002.18	2536.59
1002.475	2503.14
1002.77	2445.29
1003.065	2485.06
1003.359	2427.21
1003.654	2432.41
1003.949	2394.89
1004.243	2396.93
1004.538	2353.31
1004.832	2368.45
1005.127	2325.97
1005.421	2347.21
1005.715	2327.78
1006.009	2310.83
1006.304	2324.16
1006.598	2274.45
1006.892	2288.23
1007.186	2277.38
1007.48	2243.49
1007.773	2217.5
1008.067	2229.25
1008.361	2211.85
1008.655	2187.44
1008.948	2201.23
1009.242	2172.3
1009.535	2146.09
1009.829	2129.36
1010.122	2146.31
1010.415	2127.33
1010.708	2095.92
1011.001	2104.05
1011.295	2090.27
1011.588	2082.36
1011.881	2059.08
1012.173	2071.51
1012.466	2020.67
1012.759	1987.45
1013.052	2010.95
1013.344	1972.98
1013.637	1969.6
1013.93	1962.36
1014.222	1981.8
1014.514	1963.72
1014.807	1919.65
1015.099	1909.94
1015.391	1921.91
1015.683	1890.95
1015.976	1901.8
1016.268	1897.96
1016.56	1857.96
1016.851	1830.84
1017.143	1836.04
1017.435	1823.61
1017.727	1830.16
1018.018	1832.88
1018.31	1759.88
1018.602	1755.36
1018.893	1792.42
1019.185	1754.01
1019.476	1704.97
1019.767	1737.74
1020.058	1708.36
1020.35	1730.05
1020.641	1664.97
1020.932	1690.51
1021.223	1697.96
1021.514	1675.14
1021.804	1620.23
1022.095	1646.44
1022.386	1628.59
1022.677	1614.58
1022.967	1642.15
1023.258	1566.22
1023.548	1582.03
1023.839	1601.02
1024.129	1560.57
1024.419	1546.33
1024.709	1523.28
1025	1506.78
1025.29	1528.48
1025.58	1516.5
1025.87	1512.21
1026.16	1506.1
1026.449	1467.24
1026.739	1471.53
1027.029	1454.13
1027.319	1458.42
1027.608	1402.15
1027.898	1415.49
1028.187	1424.52
1028.477	1426.11
1028.766	1402.15
1029.055	1399.67
1029.344	1405.99
1029.634	1380.01
1029.923	1370.97
1030.212	1337.07
1030.501	1356.28
1030.79	1348.37
1031.078	1302.72
1031.367	1314.02
1031.656	1275.83
1031.945	1285.55
1032.233	1288.26
1032.522	1266.79
1032.81	1275.6
1033.099	1241.7
1033.387	1255.26
1033.675	1263.17
1033.963	1227.47
1034.251	1233.8
1034.54	1227.69
1034.828	1206.45
1035.116	1206.23
1035.403	1200.58
1035.691	1171.88
1035.979	1173.01
1036.267	1189.5
1036.554	1166.45
1036.842	1147.02
1037.129	1153.12
1037.417	1147.24
1037.704	1128.49
1037.992	1127.13
1038.279	1121.03
1038.566	1113.8
1038.853	1113.8
1039.14	1113.8
