Data from white_wall_FLMS001491_044.txt Node
Date: Tue Feb 07 11:04:34 GMT 2017
User: dcchb
Spectrometer: FLMS00149
Trigger mode: 0
Integration Time (sec): 2.000000E-2
Scans to average: 10
Electric dark correction enabled: true
Nonlinearity correction enabled: false
Boxcar width: 0
XAxis mode: Wavelengths
Number of Pixels in Spectrum: 2048
>>>>>Begin Spectral Data<<<<<
341.393	-5.89
341.776	-5.89
342.16	-5.89
342.543	-45.21
342.927	-69.16
343.31	-79.56
343.693	-69.16
344.077	-70.97
344.46	-51.76
344.843	-46.79
345.226	-49.28
345.61	-43.85
345.993	-9.28
346.376	-12.44
346.759	25.97
347.142	21.91
347.525	37.27
347.908	67.1
348.291	91.51
348.674	89.7
349.057	99.64
349.44	115.24
349.823	158.63
350.206	167.21
350.588	190.72
350.971	225.06
351.354	237.49
351.737	269.58
352.119	243.6
352.502	272.52
352.884	279.98
353.267	317.94
353.65	304.61
354.032	299.86
354.414	333.08
354.797	329.69
355.179	309.81
355.562	336.25
355.944	320.88
356.326	338.51
356.709	348.45
357.091	345.74
357.473	349.36
357.855	344.16
358.238	360.43
358.62	361.33
359.002	337.6
359.384	348
359.766	330.6
360.148	357.72
360.53	348.45
360.912	355
361.294	346.19
361.676	343.25
362.057	345.29
362.439	337.6
362.821	319.75
363.203	352.29
363.584	346.64
363.966	342.58
364.348	337.83
364.729	336.02
365.111	351.16
365.493	337.15
365.874	338.06
366.256	319.3
366.637	330.15
367.019	316.14
367.4	326.08
367.781	336.93
368.163	326.3
368.544	336.02
368.925	322.69
369.306	330.82
369.688	322.92
370.069	339.19
370.45	326.53
370.831	332.63
371.212	308.68
371.593	334.21
371.974	343.48
372.355	339.64
372.736	335.8
373.117	331.05
373.498	322.69
373.879	325.63
374.26	330.6
374.641	329.69
375.021	332.41
375.402	333.76
375.783	351.16
376.163	383.7
376.544	348.23
376.925	343.93
377.305	345.97
377.686	343.48
378.066	350.71
378.447	345.06
378.827	345.97
379.208	324.27
379.588	350.49
379.968	359.75
380.349	369.69
380.729	355.91
381.109	371.28
381.489	355
381.87	376.7
382.25	365.85
382.63	357.94
383.01	350.94
383.39	377.38
383.77	385.96
384.15	377.15
384.53	364.04
384.91	398.17
385.29	403.14
385.67	380.31
386.049	386.19
386.429	399.07
386.809	379.18
387.189	402.01
387.568	405.17
387.948	404.04
388.328	420.09
388.707	412.86
389.087	419.86
389.466	413.31
389.846	429.58
390.225	439.75
390.605	432.52
390.984	435
391.363	429.35
391.743	453.99
392.122	456.47
392.501	448.79
392.881	446.3
393.26	442.46
393.639	449.92
394.018	472.29
394.397	492.85
394.776	499.41
395.155	500.09
395.534	496.7
395.913	487.43
396.292	502.12
396.671	509.8
397.05	512.97
397.429	525.62
397.808	526.98
398.186	565.39
398.565	560.88
398.944	546.19
399.323	572.17
399.701	604.72
400.08	567.88
400.458	603.13
400.837	589.35
401.215	619.63
401.594	654.88
401.972	623.47
402.351	630.7
402.729	670.02
403.107	667.31
403.486	672.28
403.864	692.62
404.242	679.52
404.62	682.23
404.999	708.67
405.377	746.41
405.755	754.77
406.133	745.73
406.511	766.52
406.889	812.62
407.267	801.55
407.645	800.42
408.023	830.25
408.401	837.93
408.779	841.77
409.156	877.7
409.534	865.73
409.912	886.06
410.29	898.72
410.667	947.98
411.045	952.05
411.422	946.4
411.8	976.23
412.178	962.67
412.555	992.95
412.933	1028.66
413.31	1041.99
413.687	1033.63
414.065	1081.31
414.442	1084.25
414.819	1093.06
415.197	1105.04
415.574	1131.48
415.951	1132.16
416.328	1124.93
416.705	1136
417.082	1145.49
417.46	1157.47
417.837	1193.85
418.214	1168.77
418.591	1212.84
418.967	1205.83
419.344	1228.43
419.721	1243.12
420.098	1245.83
420.475	1302.32
420.852	1284.47
421.228	1294.87
421.605	1314.98
421.982	1333.28
422.358	1355.66
422.735	1355.66
423.111	1358.37
423.488	1395.88
423.864	1418.48
424.241	1389.1
424.617	1443.56
424.994	1467.97
425.37	1465.94
425.746	1458.03
426.123	1477.01
426.499	1507.06
426.875	1517.46
427.251	1561.3
427.627	1572.37
428.003	1596.78
428.379	1582.54
428.756	1639.04
429.132	1639.94
429.507	1678.81
429.883	1693.5
430.259	1744.57
430.635	1715.42
431.011	1720.62
431.387	1814.85
431.763	1814.63
432.138	1785.25
432.514	1885.13
432.89	1864.57
433.265	1919.71
433.641	1953.38
434.016	1963.78
434.392	1969.2
434.767	2020.27
435.143	1994.74
435.518	2052.59
435.894	2044
436.269	2094.17
436.644	2118.8
437.02	2122.19
437.395	2130.78
437.77	2145.01
438.145	2196.31
438.52	2203.09
438.895	2258.91
439.271	2289.19
439.646	2302.98
440.021	2308.85
440.395	2345.69
440.77	2342.3
441.145	2357.21
441.52	2401.05
441.895	2443.31
442.27	2442.18
442.645	2443.54
443.019	2466.36
443.394	2457.55
443.769	2526.7
444.143	2539.81
444.518	2519.24
444.892	2538.45
445.267	2543.65
445.641	2587.94
446.016	2621.84
446.39	2651.67
446.764	2643.08
447.139	2658
447.513	2679.46
447.887	2705
448.262	2753.59
448.636	2744.77
449.01	2767.82
449.384	2816.18
449.758	2803.75
450.132	2873.36
450.506	2878.1
450.88	2905.22
451.254	2933.69
451.628	2909.29
452.002	2982.96
452.376	3020.25
452.75	3069.51
453.123	3086.91
453.497	3149.51
453.871	3174.59
454.244	3204.65
454.618	3225.21
454.992	3283.97
455.365	3221.6
455.739	3332.55
456.112	3391.99
456.486	3437.86
456.859	3444.19
457.232	3528.48
457.606	3560.34
457.979	3574.36
458.352	3665.2
458.725	3697.97
459.099	3717.63
459.472	3803.05
459.845	3840.79
460.218	3888.25
460.591	3917.85
460.964	3935.93
461.337	4034.23
461.71	4085.75
462.083	4115.81
462.456	4144.28
462.829	4165.53
463.201	4254.79
463.574	4273.09
463.947	4328.23
464.32	4435.12
464.692	4491.85
465.065	4513.77
465.438	4553.99
465.81	4634.44
466.183	4722.12
466.555	4816.81
466.928	4781.1
467.3	4833.31
467.672	4886.64
468.045	5050.7
468.417	5038.27
468.789	5103.13
469.161	5143.58
469.534	5264.03
469.906	5386.28
470.278	5392.39
470.65	5557.13
471.022	5579.73
471.394	5732.04
471.766	5741.3
472.138	5830.34
472.51	6007.06
472.882	6069.88
473.253	6126.6
473.625	6207.28
473.997	6304.23
474.369	6403.89
474.74	6411.34
475.112	6586.71
475.484	6720.71
475.855	6777.89
476.227	6884.1
476.598	7054.94
476.97	7138.33
477.341	7313.92
477.713	7335.61
478.084	7459.9
478.455	7718.43
478.827	7728.82
479.198	8018.31
479.569	7962.94
479.94	8236.38
480.311	8309.15
480.682	8559.53
481.053	8719.3
481.424	8786.42
481.795	8925.4
482.166	9059.41
482.537	9187.77
482.908	9385.28
483.279	9489
483.65	9628.21
484.021	9842.89
484.391	9991.14
484.762	10052.38
485.133	10198.81
485.503	10363.1
485.874	10548.41
486.244	10673.38
486.615	10912.69
486.985	11022.97
487.356	11270.88
487.726	11276.07
488.097	11523.3
488.467	11611.66
488.837	11845.55
489.207	11981.82
489.578	12252.32
489.948	12253
490.318	12440.56
490.688	12525.76
491.058	12762.36
491.428	12937.27
491.798	13001.45
492.168	13352.18
492.538	13335.68
492.908	13569.57
493.278	13722.34
493.648	13794.43
494.017	13947.42
494.387	14145.15
494.757	14218.82
495.126	14374.75
495.496	14531.13
495.866	14622.43
496.235	14733.61
496.605	14901.74
496.974	14982.64
497.344	15090.89
497.713	15197.1
498.082	15383.76
498.452	15590.99
498.821	15537.2
499.19	15675.05
499.559	15868.95
499.928	16020.58
500.298	16083.18
500.667	16266
501.036	16268.94
501.405	16541.02
501.774	16542.38
502.143	16643.62
502.512	16721.13
502.88	16972.19
503.249	17026.66
503.618	17131.29
503.987	17206.31
504.356	17308.01
504.724	17543.03
505.093	17495.57
505.462	17668
505.83	17898.5
506.199	17975.78
506.567	18197.25
506.936	18266.4
507.304	18496.45
507.672	18535.54
508.041	18618.93
508.409	18790.9
508.777	18936.66
509.145	19047.85
509.514	19056.21
509.882	19322.19
510.25	19434.5
510.618	19650.32
510.986	19690.77
511.354	19903.42
511.722	20146.12
512.09	20187.93
512.458	20194.03
512.826	20438.32
513.193	20563.06
513.561	20614.81
513.929	20862.49
514.297	20985.42
514.664	21273.1
515.032	21272.19
515.4	21407.33
515.767	21592.41
516.135	21729.13
516.502	21626.31
516.869	22178.61
517.237	22262
517.604	22170.25
517.972	22404.82
518.339	22630.58
518.706	22658.15
519.073	22791.48
519.44	23050.45
519.808	23241.86
520.175	23236.44
520.542	23650.44
520.909	23694.5
521.276	23710.1
521.643	24054.95
522.009	24136.07
522.376	24268.05
522.743	24514.37
523.11	24893.57
523.477	24981.7
523.843	25128.59
524.21	25427.57
524.577	25585.08
524.943	25632.31
525.31	25841.57
525.676	26045.18
526.043	26279.75
526.409	26360.65
526.776	26756.57
527.142	26638.61
527.508	26916.79
527.874	27104.58
528.241	27260.51
528.607	27315.2
528.973	27557
529.339	27724
529.705	28018.23
530.071	28145.23
530.437	28422.97
530.803	28405.34
531.169	28563.75
531.535	28549.29
531.901	28782.05
532.267	28902.5
532.632	29146.34
532.998	29227.01
533.364	29397.63
533.73	29365.99
534.095	29799.2
534.461	29709.71
534.826	29922.36
535.192	29970.27
535.557	30214.11
535.923	30259.53
536.288	30428.56
536.653	30647.99
537.019	30545.17
537.384	30801.21
537.749	30934.09
538.114	31068.77
538.479	31083.24
538.845	31353.51
539.21	31219.05
539.575	31409.1
539.94	31581.3
540.305	31708.76
540.67	31764.12
541.034	31971.35
541.399	32093.83
541.764	32151
542.129	32298.35
542.494	32382.19
542.858	32489.08
543.223	32614.5
543.587	32867.37
543.952	32778.79
544.316	32888.16
544.681	33009.29
545.045	33151.66
545.41	33367.92
545.774	33489.27
546.138	33314.14
546.503	33643.4
546.867	33690.85
547.231	33974.46
547.595	34034.35
547.959	34174.91
548.324	34320.21
548.688	34359.53
549.052	34582.13
549.416	34521.56
549.779	34703.71
550.143	34832.74
550.507	35010.14
550.871	35326.97
551.235	35183.02
551.599	35463.23
551.962	35633.4
552.326	35676.11
552.689	36133.73
553.053	35928.53
553.417	36041.3
553.78	36587.05
554.143	36585.92
554.507	36539.36
554.87	36869.07
555.234	37246.01
555.597	37066.13
555.96	37241.04
556.323	37510.41
556.686	37494.37
557.05	37795.6
557.413	37988.82
557.776	38026.33
558.139	38374.34
558.502	38541.8
558.865	38469.48
559.228	38843.26
559.59	38982.69
559.953	39191.72
560.316	39405.96
560.679	39493.41
561.041	39649.56
561.404	39839.84
561.767	40198.25
562.129	39979.73
562.492	40401.64
562.854	40473.05
563.217	40406.38
563.579	40689.31
563.941	40919.14
564.304	41036.2
564.666	41360.93
565.028	41318.67
565.39	41588.27
565.753	41800.02
566.115	42006.79
566.477	42160.91
566.839	42183.96
567.201	42512.99
567.563	42487.23
567.925	42805.19
568.287	42817.39
568.648	42891.97
569.01	43145.97
569.372	43417.6
569.734	43273.2
570.095	43599.52
570.457	43731.27
570.819	43916.12
571.18	43807.65
571.542	44178.03
571.903	44079.73
572.265	44406.28
572.626	44427.74
572.987	44543
573.349	44773.27
573.71	44894.4
574.071	44907.96
574.432	45092.13
574.794	45207.61
575.155	45257.1
575.516	45035.19
575.877	45316.53
576.238	45610.31
576.599	45542.52
576.96	45683.3
577.32	45779.12
577.681	45875.62
578.042	45999.91
578.403	45893.47
578.763	45969.17
579.124	46027.93
579.485	45971.43
579.845	46244.65
580.206	46123.29
580.566	46219.56
580.927	46172.33
581.287	46406
581.648	46290.52
582.008	46513.34
582.368	46373.23
582.728	46504.07
583.089	46500.23
583.449	46535.26
583.809	46567.35
584.169	46557.18
584.529	46571.19
584.889	46833.33
585.249	46597.4
585.609	46585.43
585.969	46709.04
586.329	46592.21
586.688	46692.09
587.048	46693.9
587.408	46659.78
587.768	46660.68
588.127	46660.91
588.487	46581.36
588.846	46996.72
589.206	46714.46
589.565	46695.71
589.925	47010.05
590.284	46740.68
590.643	46835.14
591.003	46784.74
591.362	46879.88
591.721	46985.87
592.08	46875.14
592.44	46951.75
592.799	46921.46
593.158	46909.49
593.517	46763.28
593.876	46975.47
594.235	46870.39
594.593	46991.74
594.952	46947.23
595.311	46935.02
595.67	47104.96
596.029	47270.61
596.387	47058.86
596.746	47361.68
597.104	47088.69
597.463	47091.63
597.822	47245.07
598.18	47054.57
598.538	47071.97
598.897	47252.75
599.255	47032.42
599.613	47573.2
599.972	47268.8
600.33	47426.99
600.688	47198.07
601.046	47514.22
601.404	47686.87
601.762	47462.01
602.12	47640.54
602.478	47513.54
602.836	47700.65
603.194	47409.36
603.552	47612.52
603.91	47400.1
604.268	47691.39
604.625	47663.37
604.983	47805.06
605.341	47585.4
605.698	47851.84
606.056	47959.63
606.413	47784.27
606.771	48026.29
607.128	48100.87
607.485	47980.65
607.843	47801.44
608.2	48185.84
608.557	48266.29
608.914	48111.26
609.272	48257.7
609.629	48403.68
609.986	48414.76
610.343	48178.83
610.7	48424.02
611.057	48456.79
611.414	48489.11
611.771	48469.22
612.127	48688.42
612.484	48611.82
612.841	48645.03
613.198	48575.21
613.554	48681.19
613.911	48854.75
614.267	48771.13
614.624	48805.03
614.98	48831.47
615.337	49077.34
615.693	49019.94
616.05	48967.74
616.406	49217.22
616.762	49061.07
617.118	49059.03
617.475	49035.08
617.831	49112.14
618.187	49137
618.543	49224.45
618.899	49379.03
619.255	49292.48
619.611	49310.33
619.967	49387.39
620.323	49489.53
620.678	49294.06
621.034	49164.12
621.39	49214.29
621.746	49262.87
622.101	49659.47
622.457	49377.22
622.812	49466.93
623.168	49579.93
623.523	49600.72
623.879	49559.13
624.234	49325.92
624.589	49563.88
624.945	49500.15
625.3	49596.87
625.655	49565.69
626.01	49458.35
626.365	49523.66
626.72	49538.34
627.075	49531.34
627.43	49591.45
627.785	49494.05
628.14	49447.27
628.495	49484.79
628.85	49542.64
629.205	49307.62
629.559	49579.7
629.914	49380.38
630.269	49480.04
630.623	49330.89
630.978	49319.37
631.332	49387.39
631.687	49429.65
632.041	49309.88
632.396	49298.35
632.75	49135.64
633.104	49288.86
633.459	49094.29
633.813	49163.66
634.167	49009.32
634.521	49065.14
634.875	49060.62
635.229	49046.83
635.583	48847.52
635.937	48773.39
636.291	48747.63
636.645	48819.27
636.999	48739.5
637.352	48840.28
637.706	48653.62
638.06	48772.71
638.413	48638.93
638.767	48528.43
639.121	48593.96
639.474	48321.2
639.828	48397.36
640.181	48568.65
640.534	48393.52
640.888	48229
641.241	48139.51
641.594	48291.6
641.947	48268.32
642.301	48129.12
642.654	48184.48
643.007	48221.09
643.36	48155.78
643.713	48108.33
644.066	48166.4
644.419	47958.72
644.771	47763.25
645.124	47343.83
645.477	47226.09
645.83	47010.05
646.182	46909.71
646.535	46732.77
646.888	46806.21
647.24	46586.33
647.593	46723.73
647.945	46656.84
648.298	46572.32
648.65	46324.87
649.002	46286.45
649.355	46413.91
649.707	46377.98
650.059	46516.73
650.411	46924.4
650.763	47112.19
651.115	47238.07
651.467	47189.93
651.819	47184.73
652.171	47048.24
652.523	47021.8
652.875	46997.17
653.227	46788.36
653.578	47057.96
653.93	46983.84
654.282	46766.89
654.633	46734.12
654.985	46777.74
655.337	46883.72
655.688	46721.24
656.039	46946.55
656.391	46446.45
656.742	46610.96
657.094	46605.54
657.445	46741.58
657.796	46534.58
658.147	46655.71
658.498	46534.58
658.849	46600.79
659.2	46410.74
659.551	46391.76
659.902	46523.51
660.253	46434.47
660.604	46441.7
660.955	46162.39
661.306	46227.02
661.656	46344.3
662.007	46348.82
662.358	46215.49
662.708	46152.44
663.059	46239.45
663.409	46043.75
663.76	46334.81
664.11	46276.51
664.461	46190.86
664.811	46268.37
665.161	46181.37
665.511	46129.39
665.862	46108.15
666.212	46206.23
666.562	46227.24
666.912	46080.13
667.262	46016.86
667.612	46048.49
667.962	46038.78
668.312	46049.62
668.662	46215.72
669.011	46013.24
669.361	45904.09
669.711	45846.24
670.06	45812.34
670.41	45643.76
670.76	45602.85
671.109	45844.66
671.459	45806.92
671.808	45642.63
672.157	45702.96
672.507	45434.72
672.856	45608.05
673.205	45678.33
673.554	45578.22
673.904	45482.63
674.253	45745.9
674.602	45474.04
674.951	44904.57
675.3	44758.81
675.649	45244.22
675.998	45327.38
676.346	45275.18
676.695	45326.03
677.044	45168.06
677.393	45193.15
677.741	45067.05
678.09	45024.79
678.438	45084.68
678.787	44887.17
679.135	45063.21
679.484	44796.1
679.832	44802.65
680.181	44662.99
680.529	44747.96
680.877	44641.75
681.225	44565.82
681.573	44950.44
681.922	44408.99
682.27	44360.63
682.618	44297.58
682.966	44224.81
683.314	44289.67
683.661	44289.22
684.009	43901.43
684.357	43942.33
684.705	43834.09
685.053	43892.84
685.4	43827.08
685.748	43452.85
686.095	43572.63
686.443	43394.1
686.79	43371.95
687.138	43434.1
687.485	43400.88
687.832	43175.12
688.18	43370.37
688.527	43176.25
688.874	43028.91
689.221	42873.89
689.568	42715.25
689.915	42767.22
690.262	42833.44
690.609	42572.65
690.956	42534.91
691.303	42535.59
691.65	42181.7
691.997	42217.41
692.344	42048.6
692.69	41847.47
693.037	41984.87
693.383	41579.23
693.73	41789.85
694.077	41551.89
694.423	41434.38
694.769	41211.33
695.116	41202.07
695.462	41084.33
695.808	41105.35
696.155	41071
696.501	40801.85
696.847	40832.58
697.193	40482.09
697.539	40646.15
697.885	40360.73
698.231	40258.14
698.577	40290
698.923	40182.43
699.269	40019.27
699.614	39899.73
699.96	39926.85
700.306	39790.8
700.651	39753.74
700.997	39549.91
701.342	39454.09
701.688	39330.48
702.033	39361.44
702.379	39291.16
702.724	39077.83
703.069	39143.14
703.415	38654.56
703.76	38822.92
704.105	38803.94
704.45	38655.47
704.795	38582.47
705.14	38503.61
705.485	38325.76
705.83	38372.54
706.175	38125.54
706.52	38119.89
706.865	38029.04
707.209	38000.57
707.554	37734.81
707.899	37933.68
708.243	37749.05
708.588	37754.47
708.932	37349.06
709.277	37494.82
709.621	37397.87
709.966	37245.79
710.31	37289.85
710.654	36966.25
710.998	37014.83
711.342	37021.39
711.687	36946.13
712.031	36715.4
712.375	36619.59
712.719	36585.01
713.063	36603.54
713.407	36660.04
713.75	36373.04
714.094	36354.51
714.438	36383.21
714.782	36294.4
715.125	36146.83
715.469	36153.61
715.812	35961.75
716.156	35757.01
716.499	35778.71
716.843	35748.42
717.186	35549.33
717.53	35827.97
717.873	35694.64
718.216	35555.21
718.559	35477.47
718.902	35217.14
719.246	35393.18
719.589	35071.38
719.932	35105.5
720.275	35067.09
720.617	35094.43
720.96	35127.88
721.303	34964.49
721.646	34955
721.989	34768.11
722.331	34863.7
722.674	34804.27
723.016	34751.61
723.359	34762.46
723.701	34719.3
724.044	34383.94
724.386	34336.26
724.729	34355.92
725.071	34381.91
725.413	34315.02
725.755	34247.22
726.097	34087.45
726.439	34045.87
726.782	34080.67
727.124	34110.05
727.465	33825.99
727.807	33926.1
728.149	33854.91
728.491	33816.72
728.833	33752.32
729.175	33625.99
729.516	33520.91
729.858	33506.45
730.199	33590.74
730.541	33492.66
730.882	33433.68
731.224	33510.07
731.565	33148.27
731.906	33231.2
732.248	33288.15
732.589	33167.7
732.93	33009.29
733.271	33075.5
733.612	33049.29
733.953	33019.46
734.294	32827.37
734.635	32765.68
734.976	32903.3
735.317	32639.58
735.658	32663.76
735.999	32568.85
736.339	32630.31
736.68	32690.43
737.021	32518.23
737.361	32478.68
737.702	32609.3
738.042	32464.44
738.383	32334.95
738.723	32384.9
739.063	32327.72
739.404	32315.07
739.744	32164.56
740.084	32104.45
740.424	32164.11
740.764	32091.12
741.104	32147.84
741.444	31906.72
741.784	31852.26
742.124	31890.45
742.464	31732.48
742.804	31639.15
743.143	31565.03
743.483	31567.97
743.823	31438.03
744.162	31499.72
744.502	31362.78
744.841	31316.9
745.181	31493.62
745.52	31304.02
745.86	31368.65
746.199	31264.02
746.538	31216.57
746.877	31167.98
747.216	31107.19
747.556	31141.77
747.895	31069
748.234	30895.22
748.573	30810.93
748.911	30942.68
749.25	30797.59
749.589	30713.08
749.928	30656.58
750.267	30674.66
750.605	30608.9
750.944	30491.39
751.283	30437.15
751.621	30452.74
751.96	30331.84
752.298	30246.87
752.636	30307.66
752.975	30162.81
753.313	29988.12
753.651	30080.55
753.989	29962.36
754.327	29903.83
754.666	29793.55
755.004	29847.56
755.342	29740.22
755.679	29717.17
756.017	29534.58
756.355	29677.17
756.693	29528.25
757.031	29550.62
757.368	29377.74
757.706	29331.19
758.044	29312.44
758.381	29202.61
758.719	28987.47
759.056	29145.66
759.394	29036.51
759.731	28849.85
760.068	28849.4
760.405	28642.4
760.743	28557.2
761.08	28631.32
761.417	28455.96
761.754	28344.78
762.091	28360.37
762.428	28228.85
762.765	28003.32
763.102	28189.98
763.438	27945.24
763.775	27873.38
764.112	27830.21
764.449	27859.37
764.785	27554.29
765.122	27527.85
765.458	27434.74
765.795	27345.93
766.131	27263.22
766.467	27295.54
766.804	27013.29
767.14	26909.79
767.476	26902.1
767.812	26784.82
768.148	26910.24
768.485	26747.53
768.821	26663.92
769.157	26655.56
769.492	26522
769.828	26453.75
770.164	26249.92
770.5	26024.16
770.836	26150.48
771.171	26007.66
771.507	25836.59
771.842	25674.79
772.178	25725.41
772.513	25742.13
772.849	25595.47
773.184	25410.84
773.519	25421.46
773.855	25305.54
774.19	25115.71
774.525	25165.88
774.86	25077.52
775.195	25078.87
775.53	24867.13
775.865	24705.32
776.2	24534.71
776.535	24430.76
776.87	24463.07
777.205	24279.12
777.539	24193.93
777.874	24219.69
778.209	24133.59
778.543	23996.19
778.878	23942.86
779.212	23923.2
779.547	23761.85
779.881	23754.39
780.215	23595.98
780.55	23626.94
780.884	23502.42
781.218	23426.04
781.552	23385.59
781.886	23369.99
782.22	23185.59
782.554	23107.4
782.888	22886.16
783.222	22819.95
783.556	22673.29
783.889	22640.07
784.223	22497.02
784.557	22494.99
784.89	22564.36
785.224	22299.74
785.557	22202.34
785.891	22152.85
786.224	22122.12
786.558	22116.24
786.891	21856.81
787.224	21789.7
787.557	21751.28
787.891	21683.26
788.224	21673.77
788.557	21712.86
788.89	21489.14
789.223	21556.03
789.556	21288.92
789.888	21254.79
790.221	21257.51
790.554	21030.85
790.887	21070.84
791.219	20991.75
791.552	20977.29
791.884	20874.24
792.217	20819.1
792.549	20608.94
792.882	20587.69
793.214	20471.99
793.546	20482.16
793.879	20389.28
794.211	20226.8
794.543	20272.22
794.875	20220.25
795.207	20311.77
795.539	20125.78
795.871	20099.8
796.203	19880.82
796.535	19770.99
796.867	19840.37
797.198	19669.3
797.53	19658
797.862	19547.04
798.193	19617.1
798.525	19491.9
798.856	19591.11
799.188	19320.16
799.519	19281.74
799.85	19098.24
800.182	19240.61
800.513	19240.16
800.844	18977.79
801.175	19125.36
801.506	19065.93
801.837	18952.03
802.168	18841.98
802.499	18783.22
802.83	18591.14
803.161	18710.23
803.491	18566.5
803.822	18632.26
804.153	18440.18
804.483	18432.5
804.814	18301.43
805.145	18341.65
805.475	18260.07
805.805	18175.55
806.136	18229.34
806.466	18188.43
806.796	18014.43
807.126	17862.79
807.457	17905.96
807.787	17865.73
808.117	17768.78
808.447	17742.34
808.777	17783.25
809.107	17787.54
809.436	17749.12
809.766	17738.95
810.096	17644.95
810.426	17620.09
810.755	17552.74
811.085	17511.84
811.414	17529.69
811.744	17319.08
812.073	17278.18
812.403	17254.22
812.732	17185.3
813.061	17201.12
813.39	17131.51
813.719	16990.5
814.049	17155.02
814.378	17096.94
814.707	17011.06
815.036	16905.76
815.365	16852.42
815.693	16656.72
816.022	16754.12
816.351	16571.08
816.68	16612.88
817.008	16574.92
817.337	16499.67
817.665	16336.96
817.994	16456.95
818.322	16374.02
818.651	16368.37
818.979	16385.09
819.307	16400.46
819.636	16296.73
819.964	16196.62
820.292	16157.53
820.62	16184.19
820.948	16095.38
821.276	16135.15
821.604	16148.49
821.932	16143.52
822.259	16236.17
822.587	16171.31
822.915	16111.65
823.243	16138.09
823.57	16115.04
823.898	16143.29
824.225	15998.44
824.553	16023.52
824.88	16008.83
825.207	16196.62
825.535	16058.32
825.862	16030.98
826.189	15987.81
826.516	16099.22
826.843	16080.24
827.17	16117.53
827.497	16060.35
827.824	16049.28
828.151	16049.28
828.478	16043.63
828.805	16134.25
829.131	16045.44
829.458	16004.76
829.785	15937.42
830.111	15998.44
830.438	16047.93
830.764	16075.72
831.09	16079.56
831.417	15899.23
831.743	16039.56
832.069	16059
832.395	15897.19
832.722	15943.52
833.048	15868.5
833.374	15868.5
833.7	15792.34
834.026	15972.45
834.351	15850.87
834.677	15887.93
835.003	15827.59
835.329	15857.65
835.654	15867.14
835.98	15750.98
836.306	15812.23
836.631	15729.29
836.956	15714.6
837.282	15662.85
837.607	15710.53
837.932	15598.22
838.258	15569.97
838.583	15528.17
838.908	15588.28
839.233	15594.38
839.558	15446.59
839.883	15528.84
840.208	15392.8
840.533	15493.59
840.858	15338.57
841.182	15368.17
841.507	15264.67
841.832	15167.72
842.156	15210.66
842.481	15191.9
842.805	15180.15
843.13	15123.43
843.454	15136.09
843.778	15053.15
844.103	14965.24
844.427	15037.56
844.751	15059.7
845.075	14892.48
845.399	14860.84
845.723	14748.75
846.047	14835.3
846.371	14628.3
846.695	14629.88
847.019	14567.96
847.343	14501.75
847.666	14369.78
847.99	14372.49
848.313	14394.86
848.637	14227.18
848.96	14259.05
849.284	14251.14
849.607	14176.34
849.931	14040.97
850.254	14023.12
850.577	13988.09
850.9	13870.81
851.223	13810.24
851.546	13808.44
851.869	13703.81
852.192	13735.67
852.515	13650.7
852.838	13621.77
853.161	13549.23
853.483	13472.85
853.806	13459.07
854.129	13422.23
854.451	13373.65
854.774	13341.78
855.096	13250.94
855.419	13249.13
855.741	13238.28
856.063	13142.24
856.385	13079.87
856.708	13058.85
857.03	12974.79
857.352	13005.52
857.674	12921.45
857.996	12801.68
858.318	12815.47
858.64	12884.39
858.961	12797.62
859.283	12701.12
859.605	12736.37
859.926	12685.53
860.248	12715.36
860.57	12545.87
860.891	12595.81
861.212	12572.76
861.534	12528.7
861.855	12460
862.176	12536.15
862.498	12417.96
862.819	12519.88
863.14	12329.38
863.461	12344.75
863.782	12347.23
864.103	12300
864.424	12332.99
864.745	12281.7
865.065	12225.65
865.386	12179.33
865.707	12112.66
866.027	12206.67
866.348	12095.49
866.668	12106.11
866.989	12043.06
867.309	11972.78
867.63	11970.97
867.95	12060.01
868.27	11970.52
868.59	11953.12
868.91	11949.73
869.23	11967.13
869.55	11799.45
869.87	11930.75
870.19	11907.24
870.51	11874.48
870.83	11951.31
871.15	11744.31
871.469	11759.22
871.789	11840.13
872.109	11779.79
872.428	11673.8
872.748	11766.91
873.067	11703.18
873.386	11718.32
873.706	11709.73
874.025	11610.98
874.344	11590.87
874.663	11651.2
874.982	11580.02
875.301	11625.44
875.62	11599.45
875.939	11515.62
876.258	11515.39
876.577	11512.45
876.896	11462.28
877.214	11462.96
877.533	11502.96
877.852	11478.33
878.17	11414.6
878.489	11401.72
878.807	11309.07
879.125	11355.85
879.444	11294.15
879.762	11260.71
880.08	11299.8
880.398	11257.77
880.716	11273.14
881.034	11238.56
881.352	11218.67
881.67	11183.65
881.988	11192.23
882.306	11096.87
882.624	11015.52
882.941	11032.69
883.259	11029.98
883.577	11021.39
883.894	10956.08
884.212	10993.14
884.529	10972.8
884.846	10864.56
885.164	10860.27
885.481	10905.91
885.798	10848.29
886.115	10779.36
886.432	10760.83
886.75	10791.57
887.067	10735.52
887.383	10623.66
887.7	10725.35
888.017	10640.84
888.334	10732.13
888.651	10598.58
888.967	10538.69
889.284	10531.46
889.6	10539.37
889.917	10409.2
890.233	10465.7
890.55	10379.83
890.866	10427.06
891.182	10321.75
891.498	10399.03
891.815	10323.1
892.131	10278.13
892.447	10258.25
892.763	10244.69
893.079	10193.16
893.395	10164.69
893.71	10124.24
894.026	10141.64
894.342	10047.41
894.657	10013.96
894.973	9971.48
895.289	9991.14
895.604	9954.3
895.92	9830.69
896.235	9821.2
896.55	9866.39
896.865	9833.17
897.181	9803.8
897.496	9796.34
897.811	9719.73
898.126	9621.2
898.441	9648.77
898.756	9584.82
899.071	9566.06
899.386	9545.27
899.7	9491.04
900.015	9451.49
900.33	9390.02
900.644	9354.99
900.959	9380.53
901.273	9264.15
901.588	9213.3
901.902	9244.71
902.216	9122.23
902.531	9180.76
902.845	9198.16
903.159	9056.92
903.473	9064.38
903.787	9022.35
904.101	9015.57
904.415	8998.17
904.729	8908.23
905.042	8946.64
905.356	8869.13
905.67	8863.26
905.984	8882.92
906.297	8846.31
906.611	8770.15
906.924	8715.46
907.237	8738.06
907.551	8697.61
907.864	8661.45
908.177	8672.07
908.491	8585.3
908.804	8525.19
909.117	8520.89
909.43	8407.45
909.743	8476.15
910.056	8430.72
910.368	8387.34
910.681	8329.71
910.994	8308.24
911.307	8192.54
911.619	8153.67
911.932	8219.2
912.244	8148.7
912.557	8131.07
912.869	8064.41
913.181	8109.83
913.494	8057.18
913.806	7985.09
914.118	7966.56
914.43	7901.47
914.742	7889.72
915.054	7849.72
915.366	7820.12
915.678	7787.13
915.99	7760.01
916.302	7637.98
916.613	7684.98
916.925	7662.38
917.236	7565.21
917.548	7603.85
917.859	7561.82
918.171	7533.35
918.482	7513.69
918.794	7443.41
919.105	7487.25
919.416	7338.1
919.727	7347.82
920.038	7388.72
920.349	7291.32
920.66	7266.91
920.971	7191.21
921.282	7204.54
921.593	7150.98
921.903	7108.73
922.214	7102.17
922.525	7080.93
922.835	7049.07
923.146	7043.87
923.456	6996.41
923.767	6957.09
924.077	6982.4
924.387	6900.82
924.697	6898.56
925.008	6810.43
925.318	6830.31
925.628	6835.51
925.938	6757.32
926.248	6736.31
926.558	6667.61
926.867	6642.52
927.177	6651.34
927.487	6628.96
927.796	6586.93
928.106	6580.6
928.416	6520.27
928.725	6508.06
929.034	6482.75
929.344	6508.29
929.653	6414.28
929.962	6391.68
930.271	6324.79
930.581	6355.75
930.89	6328.86
931.199	6266.26
931.508	6257.22
931.817	6226.04
932.125	6230.78
932.434	6157.34
932.743	6159.6
933.051	6115.53
933.36	6082.76
933.669	6057.68
933.977	6039.15
934.286	5966.61
934.594	6012.03
934.902	5936.78
935.21	5937.68
935.519	5945.37
935.827	5876.67
936.135	5857.23
936.443	5822.43
936.751	5772.72
937.059	5767.52
937.367	5750.57
937.674	5784.69
937.982	5720.74
938.29	5645.94
938.597	5660.63
938.905	5603.68
939.213	5601.65
939.52	5545.15
939.827	5650.01
940.135	5526.62
940.442	5525.94
940.749	5513.97
941.056	5489.11
941.363	5417.7
941.67	5433.29
941.977	5390.13
942.284	5360.07
942.591	5341.31
942.898	5372.5
943.205	5307.87
943.511	5272.62
943.818	5312.61
944.125	5286.17
944.431	5296.34
944.738	5202.79
945.044	5157.59
945.35	5124.6
945.657	5117.59
945.963	5130.7
946.269	5049.57
946.575	5097.48
946.881	4991.95
947.187	5026.52
947.493	4993.3
947.799	4996.46
948.105	4954.21
948.41	4901.33
948.716	4907.43
949.022	4882.34
949.327	4829.92
949.633	4795.34
949.938	4838.5
950.244	4836.02
950.549	4733.65
950.854	4778.17
951.16	4745.85
951.465	4736.58
951.77	4668.11
952.075	4718.05
952.38	4679.86
952.685	4623.82
952.99	4579.75
953.294	4600.32
953.599	4602.8
953.904	4548.57
954.209	4508.12
954.513	4488.46
954.818	4487.55
955.122	4475.57
955.426	4444.16
955.731	4451.85
956.035	4496.59
956.339	4422.47
956.643	4405.29
956.948	4330.49
957.252	4305.18
957.556	4292.08
957.86	4308.8
958.163	4289.36
958.467	4224.73
958.771	4253.66
959.075	4278.97
959.378	4243.49
959.682	4190.16
959.985	4175.24
960.289	4159.65
960.592	4129.14
960.896	4116.94
961.199	4055.47
961.502	4097.05
961.805	4041.91
962.108	3998.52
962.411	4008.02
962.714	4011.41
963.017	3976.38
963.32	3994.91
963.623	3941.8
963.926	3931.86
964.228	3958.98
964.531	3929.83
964.833	3871.07
965.136	3878.3
965.438	3852.54
965.741	3816.38
966.043	3831.98
966.345	3800.79
966.648	3789.49
966.95	3750.62
967.252	3756.72
967.554	3737.74
967.856	3704.52
968.158	3688.93
968.46	3700.23
968.761	3692.09
969.063	3641.02
969.365	3643.51
969.666	3661.36
969.968	3613
970.269	3588.59
970.571	3563.96
970.872	3538.65
971.174	3549.95
971.475	3536.39
971.776	3511.98
972.077	3507.24
972.378	3507.24
972.679	3463.17
972.98	3475.37
973.281	3431.53
973.582	3419.11
973.883	3398.54
974.183	3389.5
974.484	3351.76
974.785	3358.99
975.085	3364.42
975.386	3353.8
975.686	3317.86
975.986	3328.49
976.287	3332.78
976.587	3266.79
976.887	3247.13
977.187	3276.51
977.487	3220.01
977.787	3216.85
978.087	3195.38
978.387	3189.05
978.687	3212.78
978.987	3137.76
979.286	3118.55
979.586	3099.79
979.885	3110.19
980.185	3055.5
980.484	3079.68
980.784	3091.88
981.083	3049.4
981.382	3046.46
981.682	3051.88
981.981	3045.56
982.28	2993.81
982.579	2961.04
982.878	2993.13
983.177	2953.58
983.475	2940.47
983.774	2932.56
984.073	2964.2
984.372	2910.19
984.67	2878.78
984.969	2887.37
985.267	2879.01
985.566	2875.62
985.864	2841.95
986.162	2871.32
986.461	2787.71
986.759	2802.85
987.057	2782.06
987.355	2797.88
987.653	2778.44
987.951	2745.9
988.249	2751.78
988.547	2727.82
988.844	2732.8
989.142	2714.04
989.44	2668.39
989.737	2670.65
990.035	2673.59
990.332	2670.65
990.63	2640.14
990.927	2645.34
991.224	2600.14
991.521	2576.19
991.819	2614.15
992.116	2596.98
992.413	2563.31
992.71	2566.25
993.006	2509.98
993.303	2543.42
993.6	2526.25
993.897	2533.48
994.193	2496.19
994.49	2492.12
994.787	2479.92
995.083	2464.55
995.379	2435.63
995.676	2457.55
995.972	2437.66
996.268	2414.61
996.565	2420.49
996.861	2382.75
997.157	2381.17
997.453	2364.44
997.749	2336.2
998.044	2326.03
998.34	2358.34
998.636	2319.92
998.932	2298.46
999.227	2291.9
999.523	2277.21
999.818	2246.71
1000.114	2268.17
1000.409	2256.65
1000.704	2265.91
1001	2268.17
1001.295	2214.84
1001.59	2192.02
1001.885	2182.98
1002.18	2165.13
1002.475	2138.01
1002.77	2115.41
1003.065	2139.59
1003.359	2107.28
1003.654	2106.15
1003.949	2095.75
1004.243	2104.79
1004.538	2061.85
1004.832	2086.03
1005.127	2071.8
1005.421	2064.56
1005.715	2043.77
1006.009	2043.1
1006.304	2008.75
1006.598	2012.81
1006.892	1989.76
1007.186	2002.87
1007.48	1963.32
1007.773	1944.57
1008.067	1912.03
1008.361	1909.77
1008.655	1909.09
1008.948	1926.94
1009.242	1876.32
1009.535	1888.07
1009.829	1891.01
1010.122	1855.08
1010.415	1891.91
1010.708	1843.33
1011.001	1808.75
1011.295	1825.25
1011.588	1835.42
1011.881	1796.1
1012.173	1832.93
1012.466	1804.91
1012.759	1777.79
1013.052	1745.7
1013.344	1725.14
1013.637	1759.04
1013.93	1738.02
1014.222	1721.52
1014.514	1705.25
1014.807	1729.88
1015.099	1684.24
1015.391	1662.77
1015.683	1704.35
1015.976	1646.72
1016.268	1643.11
1016.56	1627.06
1016.851	1624.12
1017.143	1622.32
1017.435	1592.94
1017.727	1565.37
1018.018	1611.02
1018.31	1605.37
1018.602	1582.77
1018.893	1559.94
1019.185	1553.17
1019.476	1542.54
1019.767	1544.58
1020.058	1521.53
1020.35	1501.42
1020.641	1523.56
1020.932	1467.07
1021.223	1493.73
1021.514	1467.29
1021.804	1442.66
1022.095	1442.43
1022.386	1456.22
1022.677	1461.42
1022.967	1428.2
1023.258	1414.64
1023.548	1413.73
1023.839	1387.29
1024.129	1388.88
1024.419	1384.81
1024.709	1384.58
1025	1329.44
1025.29	1365.83
1025.58	1325.83
1025.87	1331.02
1026.16	1340.06
1026.449	1336.45
1026.739	1286.28
1027.029	1314.08
1027.319	1279.73
1027.608	1278.14
1027.898	1239.05
1028.187	1254.64
1028.477	1236.34
1028.766	1239.95
1029.055	1228.65
1029.344	1216
1029.634	1234.76
1029.923	1211.03
1030.212	1222.33
1030.501	1190.46
1030.79	1180.97
1031.078	1175.55
1031.367	1159.05
1031.656	1164.7
1031.945	1150.69
1032.233	1171.71
1032.522	1121.76
1032.81	1128.32
1033.099	1134.42
1033.387	1136.45
1033.675	1105.27
1033.963	1091.03
1034.251	1104.14
1034.54	1106.62
1034.828	1074.99
1035.116	1101.43
1035.403	1080.86
1035.691	1027.76
1035.979	1044.7
1036.267	1025.04
1036.554	1049
1036.842	1007.42
1037.129	1020.3
1037.417	1028.89
1037.704	988.66
1037.992	1020.52
1038.279	1004.71
1038.566	1019.17
1038.853	1019.17
1039.14	1019.17
