Data from white_wall_FLMS001491_023.txt Node
Date: Tue Feb 07 11:04:00 GMT 2017
User: dcchb
Spectrometer: FLMS00149
Trigger mode: 0
Integration Time (sec): 2.000000E-2
Scans to average: 10
Electric dark correction enabled: true
Nonlinearity correction enabled: false
Boxcar width: 0
XAxis mode: Wavelengths
Number of Pixels in Spectrum: 2048
>>>>>Begin Spectral Data<<<<<
341.393	-14.82
341.776	-14.82
342.16	-14.82
342.543	-61.82
342.927	-64.53
343.31	-81.48
343.693	-62.05
344.077	-54.59
344.46	-69.28
344.843	-57.53
345.226	-54.14
345.61	-30.18
345.993	-25.21
346.376	-1.26
346.759	21.57
347.142	21.34
347.525	40.1
347.908	57.72
348.291	74.45
348.674	107.67
349.057	112.86
349.44	103.6
349.823	129.36
350.206	175.24
350.588	201.9
350.971	212.97
351.354	217.49
351.737	268.34
352.119	275.12
352.502	276.25
352.884	269.92
353.267	284.84
353.65	275.35
354.032	315.8
354.414	328
354.797	340.88
355.179	329.36
355.562	335.91
355.944	341.11
356.326	346.76
356.709	363.25
357.091	348.34
357.473	339.52
357.855	346.98
358.238	334.1
358.62	352.63
359.002	345.17
359.384	350.82
359.766	339.3
360.148	346.76
360.53	339.3
360.912	330.94
361.294	334.33
361.676	345.63
362.057	344.5
362.439	350.6
362.821	360.99
363.203	338.17
363.584	350.82
363.966	332.52
364.348	339.3
364.729	343.82
365.111	334.78
365.493	353.54
365.874	340.43
366.256	338.17
366.637	352.86
367.019	334.1
367.4	335.91
367.781	318.73
368.163	331.16
368.544	347.89
368.925	335.68
369.306	342.46
369.688	338.4
370.069	353.08
370.45	326.87
370.831	335.91
371.212	321.9
371.593	351.73
371.974	332.52
372.355	327.77
372.736	341.11
373.117	337.04
373.498	324.61
373.879	346.08
374.26	331.62
374.641	329.81
375.021	336.59
375.402	334.1
375.783	350.37
376.163	332.07
376.544	328.9
376.925	356.93
377.305	348.79
377.686	332.75
378.066	358.96
378.447	360.09
378.827	359.19
379.208	348.34
379.588	349.92
379.968	370.26
380.349	362.8
380.729	353.08
381.109	365.51
381.489	372.97
381.87	352.18
382.25	377.49
382.63	386.08
383.01	366.42
383.39	345.85
383.77	361.45
384.15	388.56
384.53	375.68
384.91	400.31
385.29	392.18
385.67	384.27
386.049	375.91
386.429	401.22
386.809	423.14
387.189	408.45
387.568	405.29
387.948	393.08
388.328	391.73
388.707	401.44
389.087	401.9
389.466	434.21
389.846	429.69
390.225	444.83
390.605	455
390.984	431.73
391.363	416.13
391.743	445.28
392.122	432.86
392.501	463.36
392.881	427.66
393.26	476.02
393.639	464.27
394.018	467.43
394.397	476.92
394.776	480.09
395.155	499.97
395.534	494.1
395.913	504.04
396.292	508.79
396.671	540.2
397.05	516.47
397.429	539.07
397.808	557.82
398.186	517.83
398.565	542.01
398.944	560.54
399.323	567.54
399.701	566.64
400.08	594.21
400.458	608.67
400.837	624.04
401.215	626.07
401.594	639.4
401.972	637.37
402.351	627.88
402.729	658.16
403.107	662.68
403.486	682.11
403.864	683.47
404.242	713.3
404.62	699.52
404.999	725.5
405.377	737.03
405.755	756.24
406.133	754.88
406.511	766.63
406.889	770.02
407.267	807.31
407.645	810.93
408.023	816.12
408.401	833.75
408.779	869.23
409.156	893.18
409.534	883.01
409.912	924.82
410.29	942.67
410.667	918.49
411.045	959.85
411.422	946.06
411.8	958.72
412.178	991.26
412.555	999.85
412.933	997.81
413.31	1029.68
413.687	1030.35
414.065	1074.19
414.442	1058.15
414.819	1089.56
415.197	1083.69
415.574	1149
415.951	1118.26
416.328	1137.24
416.705	1156.9
417.082	1163.91
417.46	1184.02
417.837	1188.77
418.214	1198.26
418.591	1192.61
418.967	1229.67
419.344	1233.74
419.721	1271.25
420.098	1248.88
420.475	1295.66
420.852	1280.07
421.228	1285.26
421.605	1333.85
421.982	1306.51
422.358	1337.46
422.735	1360.06
423.111	1368.65
423.488	1385.37
423.864	1396.67
424.241	1446.16
424.617	1417.69
424.994	1445.71
425.37	1434.64
425.746	1448.42
426.123	1496.33
426.499	1487.52
426.875	1539.49
427.251	1521.64
427.627	1602.99
428.003	1592.83
428.379	1612.03
428.756	1628.98
429.132	1634.63
429.507	1678.92
429.883	1706.49
430.259	1743.1
430.635	1700.17
431.011	1764.12
431.387	1786.94
431.763	1815.19
432.138	1813.84
432.514	1868.3
432.89	1875.53
433.265	1927.05
433.641	1937.45
434.016	1968.86
434.392	1987.84
434.767	2041.18
435.143	1993.04
435.518	2065.13
435.894	2101.96
436.269	2131.12
436.644	2145.13
437.02	2165.24
437.395	2127.27
437.77	2203.43
438.145	2203.2
438.52	2241.4
438.895	2257.67
439.271	2270.1
439.646	2345.35
440.021	2337.89
440.395	2348.06
440.77	2342.64
441.145	2340.15
441.52	2410.2
441.895	2452.92
442.27	2442.29
442.645	2431.9
443.019	2502.41
443.394	2511.45
443.769	2541.5
444.143	2516.42
444.518	2593.25
444.892	2566.36
445.267	2618.79
445.641	2628.96
446.016	2647.71
446.39	2667.15
446.764	2689.07
447.139	2680.25
447.513	2712.34
447.887	2734.04
448.262	2742.85
448.636	2736.52
449.01	2811.32
449.384	2828.05
449.758	2849.97
450.132	2859.68
450.506	2877.76
450.88	2873.7
451.254	2934.94
451.628	2973.13
452.002	3022.62
452.376	3069.4
452.75	3096.51
453.123	3083.41
453.497	3104.42
453.871	3167.47
454.244	3202.27
454.618	3307.13
454.992	3278.66
455.365	3314.81
455.739	3380.35
456.112	3428.94
456.486	3437.52
456.859	3526.11
457.232	3557.97
457.606	3563.62
457.979	3635.26
458.352	3710.74
458.725	3714.35
459.099	3753.9
459.472	3847.46
459.845	3882.03
460.218	3893.56
460.591	3936.49
460.964	3963.38
461.337	4064.85
461.71	4113.66
462.083	4178.07
462.456	4208.35
462.829	4197.73
463.201	4311.4
463.574	4304.62
463.947	4389.59
464.32	4486.99
464.692	4507.32
465.065	4544.84
465.438	4595.91
465.81	4710.03
466.183	4722.46
466.555	4860.08
466.928	4852.63
467.3	4878.39
467.672	4955.67
468.045	5096.01
468.417	5082.45
468.789	5115.44
469.161	5231.6
469.534	5263.24
469.906	5432.72
470.278	5488.32
470.65	5536.9
471.022	5599.05
471.394	5743.22
471.766	5798.82
472.138	5831.13
472.51	6008.3
472.882	6119.03
473.253	6130.33
473.625	6229.09
473.997	6385.24
474.369	6446.03
474.74	6477.89
475.112	6627.04
475.484	6741.62
475.855	6823.2
476.227	6908.17
476.598	7110.65
476.97	7136.86
477.341	7352.67
477.713	7400.13
478.084	7527.58
478.455	7727.81
478.827	7782.27
479.198	8049.15
479.569	7994.92
479.94	8280.33
480.311	8335.02
480.682	8539.31
481.053	8769.36
481.424	8869.47
481.795	9021.56
482.166	9149.24
482.537	9238.5
482.908	9446.86
483.279	9534.31
483.65	9757.58
484.021	9943.34
484.391	10010.68
484.762	10159.61
485.133	10205.03
485.503	10388.3
485.874	10599.37
486.244	10725.92
486.615	10970.21
486.985	11027.38
487.356	11300.14
487.726	11345.79
488.097	11580.81
488.467	11649.74
488.837	11886.57
489.207	12048.14
489.578	12197.07
489.948	12383.5
490.318	12480.9
490.688	12576.72
491.058	12816.49
491.428	13001.34
491.798	13087.89
492.168	13345.96
492.538	13396.81
492.908	13572.4
493.278	13818.04
493.648	13866.63
494.017	14017.36
494.387	14071.37
494.757	14304.13
495.126	14475.2
495.496	14511.13
495.866	14625.7
496.235	14773.72
496.605	14959.93
496.974	15012.81
497.344	15164.45
497.713	15276.99
498.082	15393.82
498.452	15570.99
498.821	15651.21
499.19	15672
499.559	15911.32
499.928	15991.99
500.298	16118.77
500.667	16378.88
501.036	16324.19
501.405	16511.98
501.774	16554.47
502.143	16657.06
502.512	16883.5
502.88	16946.09
503.249	17086.2
503.618	17130.5
503.987	17309.25
504.356	17371.17
504.724	17540.43
505.093	17661.33
505.462	17755.79
505.83	17820.87
506.199	18079.62
506.567	18252.95
506.936	18276.68
507.304	18562.55
507.672	18593.96
508.041	18683
508.409	18911.47
508.777	19074.63
509.145	19117.34
509.514	19200.5
509.882	19372.02
510.25	19413.6
510.618	19635.74
510.986	19662.18
511.354	19981.72
511.722	20107.37
512.09	20310.75
512.458	20290.41
512.826	20560.91
513.193	20493.57
513.561	20772.43
513.929	20916.39
514.297	21131.52
514.664	21328.35
515.032	21404.51
515.4	21607.89
515.767	21743.93
516.135	21855.8
516.502	21713.88
516.869	22172.4
517.237	22218.72
517.604	22209.01
517.972	22461.43
518.339	22726.05
518.706	22775.55
519.073	22917.91
519.44	23160.62
519.808	23419.82
520.175	23439.48
520.542	23690.78
520.909	23788.63
521.276	23865.46
521.643	24163.31
522.009	24278.1
522.376	24460.25
522.743	24686
523.11	24875.38
523.477	25045.77
523.843	25280.11
524.21	25521.46
524.577	25607.79
524.943	25877.38
525.31	26026.99
525.676	26163.7
526.043	26383.81
526.409	26559.63
526.776	26829
527.142	26812.5
527.508	27050.01
527.874	27153.06
528.241	27345.37
528.607	27567.28
528.973	27687.96
529.339	27792.59
529.705	27946.71
530.071	28342.86
530.437	28448.16
530.803	28508.05
531.169	28749.4
531.535	28793.69
531.901	28864.65
532.267	29053.12
532.632	29134.93
532.998	29408.82
533.364	29502.83
533.73	29641.81
534.095	29815.59
534.461	29926.32
534.826	30081.12
535.192	30165.41
535.557	30465.74
535.923	30473.42
536.288	30572.85
536.653	30779.18
537.019	30837.93
537.384	30902.11
537.749	31114.99
538.114	31126.06
538.479	31228.43
538.845	31506.62
539.21	31437.24
539.575	31646.05
539.94	31841.97
540.305	31974.85
540.67	31867.28
541.034	32101.85
541.399	32200.83
541.764	32371
542.129	32488.28
542.494	32489.19
542.858	32738.22
543.223	32839.46
543.587	32909.29
543.952	32955.62
544.316	33142.5
544.681	33149.28
545.045	33397.86
545.41	33557.86
545.774	33634.02
546.138	33733.22
546.503	33842.82
546.867	34001.24
547.231	34109.26
547.595	34183.61
547.959	34360.33
548.324	34546.31
548.688	34631.73
549.052	34778.39
549.416	34840.31
549.779	34992.85
550.143	35130.93
550.507	35422.44
550.871	35358.04
551.235	35331.6
551.599	35707.41
551.962	36016.33
552.326	36036.89
552.689	36147.4
553.053	36074.4
553.417	36260.84
553.78	36747.83
554.143	36668.97
554.507	36905.12
554.87	37034.38
555.234	37333.81
555.597	37181.49
555.96	37480.47
556.323	37460.36
556.686	37759.33
557.05	37903.28
557.413	37960.46
557.776	38192.09
558.139	38447
558.502	38478.64
558.865	38716.37
559.228	38904.39
559.59	39110.26
559.953	39046.98
560.316	39572.62
560.679	39684.71
561.041	39882.21
561.404	40063.45
561.767	40141.19
562.129	40186.84
562.492	40645.13
562.854	40600.61
563.217	40706.37
563.579	40990.43
563.941	41185.91
564.304	41362.63
564.666	41610.53
565.028	41551.32
565.39	41719.91
565.753	42001.48
566.115	42131.87
566.477	42352.66
566.839	42452.32
567.201	42633.55
567.563	42814.11
567.925	42953.32
568.287	42989.03
568.648	43177.72
569.01	43386.98
569.372	43647.31
569.734	43534.77
570.095	43727.76
570.457	44015.66
570.819	44119.84
571.18	44109
571.542	44253.4
571.903	44314.87
572.265	44448.2
572.626	44619.94
572.987	44767.51
573.349	44900.39
573.71	45132.47
574.071	45188.74
574.432	45305.12
574.794	45488.85
575.155	45494.04
575.516	45418.11
575.877	45606.81
576.238	45678.22
576.599	45850.42
576.96	45943.07
577.32	45857.65
577.681	46097.87
578.042	46163.86
578.403	46194.59
578.763	46317.75
579.124	46278.43
579.485	46408.37
579.845	46419.44
580.206	46458.76
580.566	46404.3
580.927	46621.02
581.287	46701.92
581.648	46518.2
582.008	46731.53
582.368	46614.69
582.728	46783.28
583.089	46682.49
583.449	46647.46
583.809	46628.93
584.169	46833.44
584.529	46712.32
584.889	47033.44
585.249	46863.05
585.609	46765.65
585.969	47022.82
586.329	46781.92
586.688	46816.72
587.048	47012.42
587.408	46853.56
587.768	46802.48
588.127	46885.19
588.487	46752.32
588.846	46990.5
589.206	46783.5
589.565	46859.43
589.925	47144.85
590.284	46885.65
590.643	46931.07
591.003	47067.11
591.362	47040.44
591.721	46985.76
592.08	47031.18
592.44	47120.89
592.799	47149.59
593.158	47019.65
593.517	47070.05
593.876	47170.16
594.235	46977.62
594.593	47070.05
594.952	47144.62
595.311	47073.89
595.67	47132.64
596.029	47441.34
596.387	47441.11
596.746	47460.55
597.104	47303.71
597.463	47261.23
597.822	47462.58
598.18	47331.28
598.538	47285.86
598.897	47540.54
599.255	47258.74
599.613	47820.31
599.972	47484.73
600.33	47608.79
600.688	47373.09
601.046	47593.65
601.404	47703.03
601.762	47677.26
602.12	47811.27
602.478	47827.54
602.836	47821.89
603.194	47654.89
603.552	47723.36
603.91	47641.11
604.268	47774.44
604.625	47753.65
604.983	47907.31
605.341	47762.01
605.698	47938.05
606.056	48044.94
606.413	47941.21
606.771	48154.54
607.128	48160.41
607.485	48018.5
607.843	48053.3
608.2	48216.46
608.557	48406.74
608.914	48265.04
609.272	48432.05
609.629	48496.9
609.986	48497.58
610.343	48295.55
610.7	48670.91
611.057	48530.8
611.414	48671.14
611.771	48662.32
612.127	48796.78
612.484	48718.37
612.841	48897.34
613.198	48752.94
613.554	48826.84
613.911	48940.96
614.267	48963.56
614.624	48964.69
614.98	48992.93
615.337	49116.55
615.693	49065.02
616.05	49207.39
616.406	49480.83
616.762	49278.13
617.118	49187.96
617.475	49104.57
617.831	49325.13
618.187	49360.61
618.543	49447.39
618.899	49520.83
619.255	49504.79
619.611	49397.67
619.967	49586.37
620.323	49660.04
620.678	49531
621.034	49419.36
621.39	49439.25
621.746	49299.37
622.101	49797.66
622.457	49392.7
622.812	49470.44
623.168	49650.09
623.523	49684.22
623.879	49627.49
624.234	49477.22
624.589	49615.74
624.945	49699.13
625.3	49733.25
625.655	49632.24
626.01	49622.75
626.365	49666.36
626.72	49546.37
627.075	49585.69
627.43	49539.59
627.785	49495.29
628.14	49557.89
628.495	49619.59
628.85	49647.83
629.205	49465.24
629.559	49596.76
629.914	49429.31
630.269	49501.17
630.623	49279.48
630.978	49283.1
631.332	49549.53
631.687	49509.53
632.041	49428.18
632.396	49480.61
632.75	49204
633.104	49350.89
633.459	49260.5
633.813	49155.87
634.167	49078.13
634.521	49199.26
634.875	49152.25
635.229	49031.35
635.583	48944.35
635.937	48960.85
636.291	48885.14
636.645	48880.85
636.999	48785.71
637.352	48883.11
637.706	48710.46
638.06	48913.39
638.413	48699.84
638.767	48654.41
639.121	48818.25
639.474	48515.43
639.828	48582.78
640.181	48521.08
640.534	48599.95
640.888	48511.37
641.241	48294.87
641.594	48383.69
641.947	48473.17
642.301	48315.44
642.654	48390.69
643.007	48306.85
643.36	48190.02
643.713	48218.27
644.066	48312.73
644.419	47992.28
644.771	47764.94
645.124	47456.7
645.477	47419.42
645.83	47129.93
646.182	47067.56
646.535	46901.46
646.888	46966.77
647.24	46741.47
647.593	47080.22
647.945	46892.2
648.298	46737.85
648.65	46600
649.002	46593.45
649.355	46721.36
649.707	46561.36
650.059	46660.79
650.411	47091.52
650.763	47103.04
651.115	47467.1
651.467	47243.38
651.819	47510.71
652.171	47233.89
652.523	47209.71
652.875	47277.95
653.227	47144.4
653.578	47304.62
653.93	47189.82
654.282	47037.05
654.633	46981.01
654.985	47037.28
655.337	46947.34
655.688	46920.9
656.039	47122.02
656.391	46745.76
656.742	46786.21
657.094	46935.59
657.445	46937.4
657.796	46758.19
658.147	46786.21
658.498	46682.04
658.849	46774.91
659.2	46680.91
659.551	46576.95
659.902	46686.78
660.253	46602.94
660.604	46684.07
660.955	46517.75
661.306	46683.62
661.656	46695.37
662.007	46406.79
662.358	46512.32
662.708	46391.87
663.059	46485.43
663.409	46128.15
663.76	46442.95
664.11	46330.18
664.461	46566.11
664.811	46353.46
665.161	46505.54
665.511	46236.62
665.862	46229.17
666.212	46478.88
666.562	46269.62
666.912	46261.93
667.262	46142.84
667.612	46166.12
667.962	46291.54
668.312	46075.72
668.662	46190.52
669.011	46213.35
669.361	46145.78
669.711	46088.6
670.06	46182.84
670.41	45902.39
670.76	45781.95
671.109	46036.4
671.459	45917.08
671.808	45857.65
672.157	45777.88
672.507	45614.27
672.856	45664.89
673.205	45645.9
673.554	45842.51
673.904	45704.21
674.253	45920.7
674.602	45716.18
674.951	45177.44
675.3	44929.99
675.649	45590.09
675.998	45426.02
676.346	45523.42
676.695	45584.44
677.044	45182.19
677.393	45482.07
677.741	45349.19
678.09	45292.24
678.438	45106.48
678.787	45151.45
679.135	45092.92
679.484	44874.63
679.832	44997.79
680.181	44828.3
680.529	44947.39
680.877	44892.93
681.225	44838.69
681.573	44950.33
681.922	44716.66
682.27	44653.61
682.618	44545.59
682.966	44435.09
683.314	44533.62
683.661	44343.79
684.009	44264.25
684.357	44131.59
684.705	44201.2
685.053	44049.79
685.4	44028.09
685.748	43798.5
686.095	43862.9
686.443	43752.85
686.79	43752.62
687.138	43679.4
687.485	43643.25
687.832	43427.43
688.18	43448.9
688.527	43104.5
688.874	43216.59
689.221	43027.44
689.568	42961.68
689.915	42914.9
690.262	42867.9
690.609	42745.64
690.956	42686.21
691.303	42798.3
691.65	42406.67
691.997	42508.13
692.344	42225.66
692.69	42195.83
693.037	42052.33
693.383	41683.52
693.73	41892.56
694.077	41720.58
694.423	41714.03
694.769	41528.5
695.116	41344.77
695.462	41247.6
695.808	41271.78
696.155	41253.25
696.501	40913.6
696.847	41055.06
697.193	40640.84
697.539	40812.36
697.885	40427.06
698.231	40405.36
698.577	40386.83
698.923	40401.3
699.269	40075.43
699.614	39982.32
699.96	39905.94
700.306	39938.71
700.651	39747.53
700.997	39733.52
701.342	39696.68
701.688	39437.25
702.033	39517.93
702.379	39528.78
702.724	39345.73
703.069	39380.76
703.415	38913.88
703.76	38955.23
704.105	38878.17
704.45	38710.27
704.795	38501.69
705.14	38395.02
705.485	38457.62
705.83	38143.73
706.175	38435.92
706.52	38201.13
706.865	38059.66
707.209	38154.58
707.554	38025.31
707.899	37941.02
708.243	37715.94
708.588	37758.88
708.932	37560.47
709.277	37632.33
709.621	37578.77
709.966	37343.52
710.31	37314.15
710.654	36999.13
710.998	37130.65
711.342	37123.64
711.687	37076.19
712.031	36843.2
712.375	36749.64
712.719	36900.37
713.063	36854.72
713.407	36878.68
713.75	36516.88
714.094	36574.28
714.438	36536.09
714.782	36445.02
715.125	36335.87
715.469	36352.82
715.812	36155.31
716.156	35901.3
716.499	35978.81
716.843	35955.31
717.186	35756.67
717.53	35809.78
717.873	35938.14
718.216	35741.31
718.559	35558.49
718.902	35384.71
719.246	35488.21
719.589	35388.09
719.932	35071.49
720.275	35259.28
720.617	35174.09
720.96	35154.2
721.303	35129.8
721.646	35047.99
721.989	34817.71
722.331	35031.49
722.674	34865.4
723.016	34854.1
723.359	34796.02
723.701	34759.18
724.044	34526.87
724.386	34403.49
724.729	34601.22
725.071	34522.58
725.413	34388.35
725.755	34370.72
726.097	34322.81
726.439	34096.6
726.782	34118.07
727.124	34294.34
727.465	34052.54
727.807	34045.08
728.149	33901.35
728.491	33914.24
728.833	33951.97
729.175	33712.21
729.516	33675.37
729.858	33728.25
730.199	33649.84
730.541	33619.33
730.882	33672.89
731.224	33685.54
731.565	33374.59
731.906	33403.74
732.248	33417.75
732.589	33208.49
732.93	33269.51
733.271	33140.47
733.612	33241.26
733.953	33203.07
734.294	33018.89
734.635	32862.06
734.976	33015.5
735.317	32847.82
735.658	32658.9
735.999	32813.7
736.339	32505.01
736.68	32684.21
737.021	32688.28
737.361	32603.54
737.702	32750.42
738.042	32545.23
738.383	32524.67
738.723	32468.85
739.063	32430.66
739.404	32526.02
739.744	32384.56
740.084	32143.66
740.424	32206.26
740.764	32080.39
741.104	32201.51
741.444	31994.74
741.784	31964.91
742.124	32059.82
742.464	31867.28
742.804	31905.02
743.143	31756.78
743.483	31815.08
743.823	31595.43
744.162	31666.61
744.502	31743.22
744.841	31402.21
745.181	31491.47
745.52	31484.69
745.86	31481.98
746.199	31339.39
746.538	31353.17
746.877	31492.15
747.216	31364.02
747.556	31357.92
747.895	31237.02
748.234	31026.18
748.573	30999.96
748.911	30938.04
749.25	30997.93
749.589	30854.65
749.928	30889.68
750.267	30870.47
750.605	30646.3
750.944	30675.22
751.283	30458.51
751.621	30489.47
751.96	30348.23
752.298	30299.19
752.636	30325.86
752.975	30184.62
753.313	30253.99
753.651	30219.64
753.989	30090.16
754.327	29872.08
754.666	29905.08
755.004	29851.74
755.342	29862.14
755.679	29825.53
756.017	29580.79
756.355	29728.81
756.693	29548.02
757.031	29502.83
757.368	29285.66
757.706	29360.23
758.044	29268.03
758.381	29320.23
758.719	29164.3
759.056	29112.1
759.394	29096.06
759.731	28794.14
760.068	28885.67
760.405	28662.4
760.743	28523.19
761.08	28610.87
761.417	28480.71
761.754	28367.26
762.091	28315.74
762.428	28316.42
762.765	28074.39
763.102	28207.72
763.438	28046.59
763.775	27882.76
764.112	27894.51
764.449	27898.35
764.785	27754.62
765.122	27544.46
765.458	27543.56
765.795	27485.7
766.131	27515.08
766.467	27461.07
766.804	27172.27
767.14	27079.16
767.476	27098.14
767.812	26924.36
768.148	27012.5
768.485	26809.79
768.821	26692.28
769.157	26591.94
769.492	26600.98
769.828	26507.2
770.164	26232.18
770.5	26172.97
770.836	26198.28
771.171	26002.58
771.507	25999.87
771.842	25772.08
772.178	25759.2
772.513	25759.65
772.849	25585.41
773.184	25556.94
773.519	25509.94
773.855	25318.08
774.19	25227.23
774.525	25201.47
774.86	25093.68
775.195	25099.33
775.53	24915.38
775.865	24810.75
776.2	24668.6
776.535	24547.93
776.87	24420.25
777.205	24376.63
777.539	24396.29
777.874	24327.59
778.209	24111.33
778.543	23987.26
778.878	24035.17
779.212	23914.05
779.547	23797.21
779.881	23745.69
780.215	23590.44
780.55	23711.34
780.884	23512.47
781.218	23445.58
781.552	23422.53
781.886	23353.38
782.22	23120.62
782.554	23143.45
782.888	22959.95
783.222	22886.28
783.556	22829.33
783.889	22746.17
784.223	22548.66
784.557	22469.11
784.89	22557.92
785.224	22329.91
785.557	22362.45
785.891	22383.69
786.224	22120.2
786.558	22164.26
786.891	21872.74
787.224	21851.95
787.557	21754.56
787.891	21720.66
788.224	21701.22
788.557	21781.9
788.89	21711.17
789.223	21658.74
789.556	21473.88
789.888	21363.38
790.221	21209.71
790.554	21138.3
790.887	21085.65
791.219	21095.59
791.552	20923.39
791.884	20863.28
792.217	20846.33
792.549	20731.76
792.882	20606.56
793.214	20575.6
793.546	20623.74
793.879	20464.42
794.211	20279.11
794.543	20434.14
794.875	20319.34
795.207	20400.69
795.539	20287.7
795.871	20178.78
796.203	20023.98
796.535	19834.15
796.867	19892.23
797.198	19800.93
797.53	19826.7
797.862	19635.06
798.193	19719.58
798.525	19623.76
798.856	19554.61
799.188	19397.55
799.519	19285.24
799.85	19256.99
800.182	19302.64
800.513	19290.89
800.844	19003.89
801.175	19105.81
801.506	19002.99
801.837	18910.56
802.168	18909.88
802.499	18759.38
802.83	18765.26
803.161	18706.95
803.491	18627.18
803.822	18702.21
804.153	18599.38
804.483	18466.28
804.814	18370.46
805.145	18370.69
805.475	18320.97
805.805	18260.41
806.136	18319.17
806.466	18179.28
806.796	18155.1
807.126	18062.67
807.457	18051.6
807.787	17970.93
808.117	17908.78
808.447	17765.28
808.777	17929.12
809.107	17862
809.436	17692.52
809.766	17649.8
810.096	17600.77
810.426	17603.25
810.755	17577.26
811.085	17498.62
811.414	17479.41
811.744	17252.98
812.073	17163.94
812.403	17318.51
812.732	17132.53
813.061	17091.4
813.39	17019.76
813.719	17041.68
814.049	17164.85
814.378	17066.54
814.707	16874.91
815.036	16878.07
815.365	16863.61
815.693	16721.24
816.022	16756.95
816.351	16724.4
816.68	16570.06
817.008	16616.16
817.337	16487.35
817.665	16579.78
817.994	16490.74
818.322	16455.26
818.651	16411.42
818.979	16347.01
819.307	16450.06
819.636	16336.39
819.964	16201.48
820.292	16384.07
820.62	16236.96
820.948	16203.51
821.276	16109.73
821.604	16195.15
821.932	16164.19
822.259	16191.99
822.587	16203.97
822.915	16112.22
823.243	16206.68
823.57	16123.97
823.898	16108.38
824.225	16103.4
824.553	15989.51
824.88	16067.25
825.207	16091.65
825.535	16050.75
825.862	16109.73
826.189	15942.73
826.516	15958.32
826.843	16032.22
827.17	16033.58
827.497	16139.34
827.824	16061.15
828.151	16150.41
828.478	16064.31
828.805	16125.55
829.131	15997.42
829.458	16055.27
829.785	16004.42
830.111	15994.71
830.438	16125.1
830.764	16060.69
831.09	16097.98
831.417	15956.52
831.743	15915.84
832.069	15864.54
832.395	15921.04
832.722	15853.92
833.048	15870.87
833.374	15904.54
833.7	15903.18
834.026	15874.71
834.351	15911.54
834.677	15787.03
835.003	15836.52
835.329	15801.49
835.654	15753.81
835.98	15714.71
836.306	15782.51
836.631	15677.88
836.956	15734.37
837.282	15689.18
837.607	15612.12
837.932	15592.68
838.258	15597.2
838.583	15516.98
838.908	15500.03
839.233	15525.79
839.558	15467.94
839.883	15421.61
840.208	15295.06
840.533	15420.48
840.858	15416.64
841.182	15340.94
841.507	15408.28
841.832	15209.19
842.156	15206.25
842.481	15221.17
842.805	15163.77
843.13	15156.54
843.454	15104.79
843.778	15078.57
844.103	14988.86
844.427	15016.43
844.751	14995.64
845.075	14845.58
845.399	14921.06
845.723	14843.32
846.047	14803.78
846.371	14633.39
846.695	14721.75
847.019	14546.84
847.343	14521.98
847.666	14445.82
847.99	14407.86
848.313	14375.54
848.637	14268.2
848.96	14246.05
849.284	14160.18
849.607	14110.01
849.931	14068.66
850.254	13989.79
850.577	13933.07
850.9	13886.51
851.223	13796.35
851.546	13689.46
851.869	13707.99
852.192	13717.25
852.515	13527.88
852.838	13490.37
853.161	13542.57
853.483	13407.43
853.806	13432.51
854.129	13410.59
854.451	13331.5
854.774	13198.62
855.096	13232.07
855.419	13167.66
855.741	13156.36
856.063	13126.08
856.385	13049.93
856.708	13003.15
857.03	13007.89
857.352	13070.49
857.674	12955.92
857.996	12842.25
858.318	12770.84
858.64	12766.77
858.961	12786.66
859.283	12726.54
859.605	12711.86
859.926	12772.42
860.248	12626.89
860.57	12607.45
860.891	12596.83
861.212	12528.13
861.534	12485.65
861.855	12389.15
862.176	12494.23
862.498	12387.8
862.819	12482.71
863.14	12301.02
863.461	12320.9
863.782	12308.02
864.103	12334.92
864.424	12269.83
864.745	12367.91
865.065	12175.37
865.386	12204.98
865.707	12175.37
866.027	12231.64
866.348	12178.76
866.668	12148.25
866.989	12095.37
867.309	12044.3
867.63	12110.51
867.95	12034.81
868.27	11999.56
868.59	12025.32
868.91	11940.8
869.23	11947.36
869.55	11917.75
869.87	11940.12
870.19	11885.21
870.51	11841.6
870.83	11904.64
871.15	11834.36
871.469	11741.71
871.789	11756.4
872.109	11840.69
872.428	11693.58
872.748	11704.2
873.067	11742.39
873.386	11699.23
873.706	11584.43
874.025	11609.96
874.344	11621.26
874.663	11627.14
874.982	11659.45
875.301	11595.73
875.62	11544.43
875.939	11546.01
876.258	11557.99
876.577	11431.66
876.896	11493.81
877.214	11429.63
877.533	11456.29
877.852	11475.28
878.17	11424.66
878.489	11421.72
878.807	11349.4
879.125	11422.62
879.444	11384.43
879.762	11383.08
880.08	11297.65
880.398	11252.01
880.716	11319.58
881.034	11286.13
881.352	11251.1
881.67	11153.03
881.988	11221.72
882.306	11094.72
882.624	11085.46
882.941	11080.49
883.259	11017.44
883.577	10966.82
883.894	10980.38
884.212	10965.23
884.529	10913.94
884.846	10939.02
885.164	10952.58
885.481	10922.98
885.798	10891.34
886.115	10794.62
886.432	10773.83
886.75	10766.14
887.067	10786.03
887.383	10725.24
887.7	10736.77
888.017	10645.92
888.334	10685.02
888.651	10586.26
888.967	10605.24
889.284	10542.65
889.6	10506.26
889.917	10402.76
890.233	10402.09
890.55	10425.36
890.866	10440.28
891.182	10353.5
891.498	10323.44
891.815	10319.6
892.131	10272.82
892.447	10212.26
892.763	10167.74
893.079	10223.78
893.395	10213.62
893.71	10147.18
894.026	10112.38
894.342	10075.54
894.657	10051.81
894.973	9999.84
895.289	9961.42
895.604	9988.54
895.92	9792.84
896.235	9811.37
896.55	9814.98
896.865	9784.7
897.181	9732.27
897.496	9718.71
897.811	9738.6
898.126	9690.92
898.441	9648.43
898.756	9613.86
899.071	9621.31
899.386	9517.14
899.7	9414.99
900.015	9414.77
900.33	9400.98
900.644	9394.43
900.959	9317.59
901.273	9302.23
901.588	9262.23
901.902	9216.58
902.216	9275.56
902.531	9208.44
902.845	9202.57
903.159	9079.63
903.473	9116.24
903.787	9109.01
904.101	8969.81
904.415	8982.46
904.729	8938.17
905.042	8908.11
905.356	8889.58
905.67	8850.49
905.984	8877.61
906.297	8784.73
906.611	8766.42
906.924	8757.83
907.237	8726.2
907.551	8632.41
907.864	8605.07
908.177	8617.05
908.491	8603.04
908.804	8558.74
909.117	8439.65
909.43	8436.94
909.743	8450.95
910.056	8394.68
910.368	8308.58
910.681	8340.22
910.994	8290.05
911.307	8263.84
911.619	8201.47
911.932	8193.56
912.244	8153.78
912.557	8154.01
912.869	8039.89
913.181	8042.37
913.494	8002.6
913.806	7943.84
914.118	7986.1
914.43	7879.44
914.742	7848.48
915.054	7833.79
915.366	7822.72
915.678	7743.85
915.99	7736.17
916.302	7614.59
916.613	7646.23
916.925	7661.59
917.236	7676.73
917.548	7554.25
917.859	7605.55
918.171	7478.32
918.482	7469.28
918.794	7434.71
919.105	7439.68
919.416	7370.75
919.727	7363.97
920.038	7416.63
920.349	7308.38
920.66	7266.12
920.971	7282.85
921.282	7201.04
921.593	7196.75
921.903	7139.8
922.214	7107.93
922.525	7087.14
922.835	7053.47
923.146	7053.7
923.456	6985.68
923.767	6965.34
924.077	7031.55
924.387	6896.41
924.697	6876.75
925.008	6885.79
925.318	6817.55
925.628	6782.29
925.938	6779.36
926.248	6719.47
926.558	6641.51
926.867	6698.68
927.177	6645.35
927.487	6585.46
927.796	6532.81
928.106	6599.93
928.416	6500.94
928.725	6481.51
929.034	6484
929.344	6490.55
929.653	6460.49
929.962	6375.98
930.271	6351.8
930.581	6301.85
930.89	6328.07
931.199	6274.96
931.508	6267.05
931.817	6254.17
932.125	6187.73
932.434	6227.73
932.743	6120.84
933.051	6100.28
933.36	6072.93
933.669	6039.49
933.977	6053.73
934.286	6053.27
934.594	6040.17
934.902	5936.89
935.21	5997.68
935.519	5963.56
935.827	5872.71
936.135	5853.5
936.443	5846.95
936.751	5817.35
937.059	5788.87
937.367	5733.73
937.674	5800.62
937.982	5729.21
938.29	5667.29
938.597	5700.06
938.905	5584.58
939.213	5583.23
939.52	5591.36
939.827	5574.42
940.135	5504.36
940.442	5497.81
940.749	5493.29
941.056	5503.91
941.363	5416.68
941.67	5370.13
941.977	5404.25
942.284	5350.69
942.591	5348.21
942.898	5345.04
943.205	5318.38
943.511	5297.36
943.818	5267.31
944.125	5223.69
944.431	5239.28
944.738	5263.69
945.044	5190.02
945.35	5153.18
945.657	5129.91
945.963	5080.64
946.269	5055.11
946.575	5057.82
946.881	4991.83
947.187	5038.61
947.493	5001.32
947.799	4980.31
948.105	4979.63
948.41	4900.53
948.716	4933.08
949.022	4866.86
949.327	4855.34
949.633	4825.73
949.938	4828.22
950.244	4820.54
950.549	4739.41
950.854	4747.32
951.16	4720.65
951.465	4711.84
951.77	4723.82
952.075	4667.32
952.38	4627.77
952.685	4650.82
952.99	4566.76
953.294	4633.88
953.599	4525.86
953.904	4566.08
954.209	4519.75
954.513	4491.51
954.818	4471.17
955.122	4477.27
955.426	4444.95
955.731	4376.71
956.035	4415.8
956.339	4406.99
956.643	4405.18
956.948	4340.78
957.252	4352.07
957.556	4343.94
957.86	4307.78
958.163	4286.09
958.467	4300.55
958.771	4242.25
959.075	4203.83
959.378	4175.13
959.682	4225.3
959.985	4144.4
960.289	4133.1
960.592	4137.62
960.896	4102.82
961.199	4051.52
961.502	4105.3
961.805	4064.17
962.108	4031.18
962.411	4021.24
962.714	3995.93
963.017	3958.41
963.32	3974.23
963.623	3935.81
963.926	3976.27
964.228	3888.13
964.531	3901.47
964.833	3890.17
965.136	3883.84
965.438	3849.04
965.741	3834.57
966.043	3808.13
966.345	3804.52
966.648	3781.02
966.95	3788.93
967.252	3733.33
967.554	3766.33
967.856	3698.76
968.158	3687.91
968.46	3658.53
968.761	3659.66
969.063	3673.22
969.365	3628.48
969.666	3652.88
969.968	3621.7
970.269	3600.46
970.571	3530.63
970.872	3555.49
971.174	3522.27
971.475	3529.27
971.776	3522.49
972.077	3513.68
972.378	3480.23
972.679	3447.47
972.98	3476.39
973.281	3434.81
973.582	3412.66
973.883	3410.4
974.183	3396.85
974.484	3393.23
974.785	3347.58
975.085	3384.64
975.386	3381.03
975.686	3348.94
975.986	3314.59
976.287	3286.34
976.587	3260.13
976.887	3195.95
977.187	3277.07
977.487	3213.35
977.787	3207.25
978.087	3207.7
978.387	3182.84
978.687	3188.26
978.987	3139.68
979.286	3123.18
979.586	3089.96
979.885	3138.77
980.185	3087.48
980.484	3062.17
980.784	3100.13
981.083	3095.16
981.382	3050.87
981.682	3032.79
981.981	3042.73
982.28	3033.24
982.579	2983.52
982.878	2979.68
983.177	2965.22
983.475	2986.91
983.774	2914.6
984.073	2943.98
984.372	2905.33
984.67	2895.62
984.969	2895.16
985.267	2895.39
985.566	2914.6
985.864	2840.7
986.162	2832.34
986.461	2846.58
986.759	2829.4
987.057	2769.97
987.355	2796.18
987.653	2795.05
987.951	2776.98
988.249	2712.34
988.547	2739.46
988.844	2709.18
989.142	2733.13
989.44	2661.95
989.737	2653.36
990.035	2659.24
990.332	2652.68
990.63	2645.45
990.927	2670.09
991.224	2639.13
991.521	2621.5
991.819	2598.9
992.116	2568.17
992.413	2564.33
992.71	2565.68
993.006	2554.83
993.303	2582.63
993.6	2520.71
993.897	2514.16
994.193	2504.44
994.49	2509.64
994.787	2501.5
995.083	2460.15
995.379	2453.37
995.676	2452.92
995.972	2432.8
996.268	2427.38
996.565	2407.95
996.861	2410.66
997.157	2358.68
997.453	2367.95
997.749	2348.51
998.044	2354.84
998.34	2350.55
998.636	2329.08
998.932	2298.57
999.227	2288.17
999.523	2313.94
999.818	2300.83
1000.114	2261.96
1000.409	2247.72
1000.704	2223.32
1001	2231.68
1001.295	2226.48
1001.59	2233.26
1001.885	2183.32
1002.18	2185.13
1002.475	2147.16
1002.77	2148.97
1003.065	2150.32
1003.359	2129.76
1003.654	2121.17
1003.949	2089.76
1004.243	2072.13
1004.538	2084.34
1004.832	2066.71
1005.127	2066.94
1005.421	2039.14
1005.715	2059.25
1006.009	2039.59
1006.304	2008.63
1006.598	1986.94
1006.892	1990.78
1007.186	1969.99
1007.48	1954.4
1007.773	1967.05
1008.067	1964.79
1008.361	1925.47
1008.655	1918.92
1008.948	1917.56
1009.242	1907.39
1009.535	1896.55
1009.829	1908.07
1010.122	1888.18
1010.415	1856.77
1010.708	1852.48
1011.001	1859.26
1011.295	1817.9
1011.588	1795.53
1011.881	1807.96
1012.173	1786.04
1012.466	1807.28
1012.759	1762.99
1013.052	1766.83
1013.344	1775.42
1013.637	1773.84
1013.93	1722.54
1014.222	1714.63
1014.514	1720.05
1014.807	1682.77
1015.099	1709.66
1015.391	1710.11
1015.683	1713.95
1015.976	1687.06
1016.268	1653.84
1016.56	1621.53
1016.851	1638.47
1017.143	1611.81
1017.435	1605.93
1017.727	1629.43
1018.018	1600.51
1018.31	1587.18
1018.602	1554.63
1018.893	1572.94
1019.185	1540.17
1019.476	1557.8
1019.767	1508.08
1020.058	1531.36
1020.35	1524.58
1020.641	1501.3
1020.932	1505.6
1021.223	1487.52
1021.514	1504.24
1021.804	1482.55
1022.095	1444.13
1022.386	1436.9
1022.677	1455.2
1022.967	1429.89
1023.258	1423.11
1023.548	1372.72
1023.839	1403.23
1024.129	1408.88
1024.419	1346.05
1024.709	1394.64
1025	1339.95
1025.29	1365.49
1025.58	1341.53
1025.87	1323
1026.16	1303.34
1026.449	1334.98
1026.739	1313.28
1027.029	1298.14
1027.319	1301.76
1027.608	1265.6
1027.898	1279.84
1028.187	1269.22
1028.477	1240.74
1028.766	1243
1029.055	1233.29
1029.344	1244.59
1029.634	1226.06
1029.923	1234.19
1030.212	1224.47
1030.501	1205.26
1030.79	1186.96
1031.078	1198.26
1031.367	1165.94
1031.656	1133.63
1031.945	1154.64
1032.233	1160.97
1032.522	1123.91
1032.81	1139.73
1033.099	1124.82
1033.387	1131.59
1033.675	1112.61
1033.963	1100.86
1034.251	1104.48
1034.54	1080.75
1034.828	1092.5
1035.116	1089.11
1035.403	1069.22
1035.691	1052.5
1035.979	1074.65
1036.267	1042.78
1036.554	1075.55
1036.842	1048.21
1037.129	1023.57
1037.417	1026.96
1037.704	1043.69
1037.992	1014.31
1038.279	984.71
1038.566	1017.47
1038.853	1017.47
1039.14	1017.47
