Data from White_paper_FLMS001491_034.txt Node
Date: Tue Feb 07 10:35:00 GMT 2017
User: dcchb
Spectrometer: FLMS00149
Trigger mode: 0
Integration Time (sec): 2.000000E-2
Scans to average: 10
Electric dark correction enabled: true
Nonlinearity correction enabled: false
Boxcar width: 0
XAxis mode: Wavelengths
Number of Pixels in Spectrum: 2048
>>>>>Begin Spectral Data<<<<<
341.393	4.29
341.776	4.29
342.16	4.29
342.543	-58.98
342.927	-53.33
343.31	-67.34
343.693	-73.67
344.077	-54.01
344.46	-51.75
344.843	-51.52
345.226	-28.02
345.61	-41.13
345.993	-4.52
346.376	-1.36
346.759	11.07
347.142	20.56
347.525	20.11
347.908	49.72
348.291	80.45
348.674	84.52
349.057	106.89
349.44	110.51
349.823	149.83
350.206	169.94
350.588	195.48
350.971	229.37
351.354	258.52
351.737	268.92
352.119	304.17
352.502	277.51
352.884	322.25
353.267	306.21
353.65	319.54
354.032	313.66
354.414	327.45
354.797	348.24
355.179	341.23
355.562	351.63
355.944	367
356.326	363.83
356.709	384.17
357.091	348.47
357.473	364.28
357.855	363.83
358.238	363.38
358.62	380.55
359.002	371.29
359.384	383.94
359.766	382.14
360.148	376.49
360.53	378.3
360.912	378.97
361.294	366.77
361.676	357.96
362.057	378.07
362.439	371.29
362.821	382.14
363.203	361.12
363.584	373.1
363.966	346.66
364.348	361.57
364.729	379.88
365.111	334.68
365.493	351.86
365.874	354.11
366.256	366.32
366.637	360.44
367.019	355.47
367.4	367.9
367.781	355.24
368.163	370.16
368.544	356.15
368.925	376.04
369.306	382.59
369.688	377.84
370.069	367.67
370.45	363.15
370.831	363.61
371.212	364.28
371.593	400.89
371.974	363.15
372.355	374.23
372.736	382.14
373.117	371.29
373.498	372.42
373.879	364.28
374.26	375.81
374.641	372.19
375.021	383.04
375.402	377.62
375.783	386.88
376.163	396.37
376.544	409.03
376.925	375.36
377.305	397.5
377.686	388.69
378.066	407.45
378.447	384.17
378.827	388.46
379.208	417.62
379.588	411.74
379.968	424.85
380.349	423.72
380.729	417.84
381.109	401.8
381.489	426.43
381.87	400.22
382.25	421.23
382.63	420.55
383.01	423.94
383.39	448.8
383.77	428.24
384.15	435.24
384.53	428.92
384.91	458.29
385.29	457.84
385.67	460.1
386.049	451.74
386.429	463.49
386.809	476.82
387.189	475.92
387.568	471.85
387.948	471.63
388.328	480.89
388.707	464.17
389.087	484.51
389.466	507.33
389.846	501.91
390.225	504.62
390.605	501.91
390.984	520.44
391.363	498.52
391.743	515.47
392.122	529.03
392.501	522.7
392.881	527.22
393.26	522.92
393.639	548.46
394.018	541.68
394.397	557.73
394.776	550.49
395.155	581.91
395.534	567.22
395.913	594.79
396.292	599.76
396.671	593.2
397.05	606.31
397.429	614.67
397.808	592.98
398.186	616.48
398.565	597.5
398.944	626.65
399.323	641.57
399.701	636.82
400.08	656.93
400.458	638.4
400.837	668.46
401.215	667.78
401.594	679.3
401.972	682.69
402.351	696.7
402.729	710.26
403.107	689.7
403.486	731.96
403.864	735.12
404.242	735.57
404.62	772.86
404.999	766.53
405.377	794.56
405.755	798.4
406.133	835.68
406.511	829.81
406.889	834.55
407.267	860.99
407.645	893.99
408.023	904.61
408.401	912.29
408.779	948
409.156	979.64
409.534	966.08
409.912	1010.14
410.29	1024.15
410.667	1047.88
411.045	1071.61
411.422	1125.85
411.8	1127.43
412.178	1167.65
412.555	1217.6
412.933	1205.84
413.31	1251.04
413.687	1297.59
414.065	1308.44
414.442	1310.93
414.819	1338.95
415.197	1404.48
415.574	1421.66
415.951	1429.34
416.328	1454.2
416.705	1464.82
417.082	1494.65
417.46	1541.43
417.837	1573.97
418.214	1599.05
418.591	1632.05
418.967	1647.19
419.344	1689.67
419.721	1710.92
420.098	1727.64
420.475	1754.98
420.852	1774.19
421.228	1788.88
421.605	1832.72
421.982	1871.82
422.358	1864.58
422.735	1882.44
423.111	1893.74
423.488	1938.03
423.864	1974.41
424.241	2032.26
424.617	2028.2
424.994	2054.18
425.37	2079.04
425.746	2068.87
426.123	2135.54
426.499	2148.42
426.875	2166.27
427.251	2227.96
427.627	2292.82
428.003	2285.14
428.379	2321.97
428.756	2335.31
429.132	2398.81
429.507	2455.98
429.883	2473.38
430.259	2518.58
430.635	2549.09
431.011	2570.55
431.387	2615.98
431.763	2646.26
432.138	2672.47
432.514	2751.11
432.89	2713.15
433.265	2825.24
433.641	2846.93
434.016	2869.3
434.392	2898.23
434.767	3037.66
435.143	2972.58
435.518	3009.19
435.894	3065.68
436.269	3093.03
436.644	3157.21
437.02	3192.91
437.395	3260.03
437.77	3260.48
438.145	3332.79
438.52	3340.25
438.895	3357.88
439.271	3368.27
439.646	3467.03
440.021	3484.43
440.395	3501.38
440.77	3453.69
441.145	3491.21
441.52	3587.93
441.895	3582.05
442.27	3650.98
442.645	3615.72
443.019	3661.6
443.394	3665.44
443.769	3719.22
444.143	3705.44
444.518	3797.87
444.892	3739.56
445.267	3835.38
445.641	3833.57
446.016	3889.16
446.39	3897.75
446.764	3918.99
447.139	3895.94
447.513	3999.89
447.887	3984.53
448.262	4009.16
448.636	4024.75
449.01	4071.76
449.384	4087.8
449.758	4150.4
450.132	4158.76
450.506	4238.98
450.88	4256.61
451.254	4275.82
451.628	4295.25
452.002	4390.62
452.376	4405.53
452.75	4418.64
453.123	4502.25
453.497	4538.64
453.871	4535.7
454.244	4667.67
454.618	4657.28
454.992	4775.24
455.365	4744.51
455.739	4851.62
456.112	4910.83
456.486	4927.78
456.859	4988.12
457.232	5094.78
457.606	5112.41
457.979	5179.75
458.352	5221.11
458.725	5324.61
459.099	5349.24
459.472	5436.47
459.845	5500.42
460.218	5541.1
460.591	5636.69
460.964	5632.62
461.337	5817.47
461.71	5828.55
462.083	5896.12
462.456	5943.12
462.829	5993.51
463.201	6099.95
463.574	6081.42
463.947	6242.32
464.32	6334.07
464.692	6355.54
465.065	6469.21
465.438	6574.52
465.81	6615.87
466.183	6684.8
466.555	6840.5
466.928	6866.26
467.3	6867.39
467.672	7024.45
468.045	7181.51
468.417	7249.98
468.789	7270.09
469.161	7345.8
469.534	7473.7
469.906	7691.1
470.278	7710.31
470.65	7815.61
471.022	7976.51
471.394	8130.63
471.766	8163.63
472.138	8249.27
472.51	8437.52
472.882	8571.07
473.253	8614.69
473.625	8753.89
473.997	8901.23
474.369	9016.49
474.74	9112.98
475.112	9257.84
475.484	9453.99
475.855	9650.59
476.227	9688.33
476.598	9947.76
476.97	9960.87
477.341	10196.79
477.713	10410.8
478.084	10441.76
478.455	10766.27
478.827	10886.95
479.198	11160.38
479.569	11113.61
479.94	11475.18
480.311	11614.16
480.682	11846.24
481.053	12107.7
481.424	12334.59
481.795	12409.84
482.166	12523.96
482.537	12723.51
482.908	13012.09
483.279	13194.91
483.65	13394.68
484.021	13580.66
484.391	13775.01
484.762	13949.46
485.133	14057.03
485.503	14268.78
485.874	14483.24
486.244	14617.69
486.615	14884.35
486.985	15156.66
487.356	15391.01
487.726	15478.92
488.097	15812.92
488.467	15871.9
488.837	16166.13
489.207	16313.7
489.578	16608.15
489.948	16731.99
490.318	16977.41
490.688	17060.79
491.058	17299.88
491.428	17536.71
491.798	17708.69
492.168	17973.09
492.538	18058.28
492.908	18258.5
493.278	18541.66
493.648	18518.84
494.017	18844.93
494.387	18888.99
494.757	19126.95
495.126	19255.76
495.496	19350.23
495.866	19549.32
496.235	19734.85
496.605	19841.51
496.974	19925.35
497.344	20221.16
497.713	20282.63
498.082	20383.42
498.452	20686.46
498.821	20747.03
499.19	20824.31
499.559	21089.16
499.928	21131.2
500.298	21331.42
500.667	21529.6
501.036	21420.45
501.405	21628.13
501.774	21720.33
502.143	22036.48
502.512	22085.3
502.88	22331.62
503.249	22288.45
503.618	22436.47
503.987	22492.97
504.356	22706.07
504.724	22889.57
505.093	22931.15
505.462	23116.91
505.83	23230.35
506.199	23372.04
506.567	23701.52
506.936	23774.29
507.304	23951.01
507.672	23989.65
508.041	24235.97
508.409	24371.11
508.777	24470.32
509.145	24752.57
509.514	24879.35
509.882	25006.12
510.25	24983.98
510.618	25210.18
510.986	25339.9
511.354	25537.41
511.722	25682.26
512.09	25915.48
512.458	25916.38
512.826	26244.28
513.193	26400.66
513.561	26546.87
513.929	26686.08
514.297	26929.91
514.664	27093.52
515.032	27200.64
515.4	27387.98
515.767	27455.55
516.135	27740.29
516.502	27553.63
516.869	28000.62
517.237	28240.39
517.604	28159.71
517.972	28278.13
518.339	28573.49
518.706	28841.5
519.073	29004.89
519.44	29036.98
519.808	29358.78
520.175	29279.68
520.542	29725.32
520.909	29858.65
521.276	29911.08
521.643	30297.73
522.009	30543.83
522.376	30587.9
522.743	30792.86
523.11	31114.66
523.477	31325.73
523.843	31601.2
524.21	31790.58
524.577	32010.91
524.943	32023.79
525.31	32318.7
525.676	32669.2
526.043	32863.54
526.409	33002.3
526.776	33320.25
527.142	33319.12
527.508	33593.69
527.874	33933.12
528.241	34091.08
528.607	34179.21
528.973	34422.37
529.339	34478.87
529.705	34832.98
530.071	35071.85
530.437	35234.78
530.803	35396.58
531.169	35575.34
531.535	35560.19
531.901	35829.11
532.267	36052.84
532.632	36359.5
532.998	36330.57
533.364	36575.31
533.73	36814.4
534.095	36908.63
534.461	37131.68
534.826	37318.79
535.192	37319.02
535.557	37704.32
535.923	37672
536.288	37787.71
536.653	37946.12
537.019	38092.11
537.384	38171.88
537.749	38248.94
538.114	38501.36
538.479	38617.29
538.845	38816.38
539.21	38815.93
539.575	39027.9
539.94	39108.8
540.305	39374.33
540.67	39230.15
541.034	39544.72
541.399	39699.52
541.764	39831.27
542.129	39866.3
542.494	39996.46
542.858	40301.54
543.223	40218.83
543.587	40431.71
543.952	40567.07
544.316	40649.55
544.681	40628.76
545.045	40873.5
545.41	41072.14
545.774	41186.49
546.138	41305.13
546.503	41393.26
546.867	41491.34
547.231	41831.44
547.595	41776.53
547.959	42096.75
548.324	42030.99
548.688	42168.38
549.052	42473.46
549.416	42489.73
549.779	42408.6
550.143	42690.4
550.507	42960.45
550.871	43002.71
551.235	43039.55
551.599	43266.43
551.962	43434.79
552.326	43429.14
552.689	43717.49
553.053	43693.09
553.417	43762.69
553.78	44224.6
554.143	44177.6
554.507	44453.52
554.87	44534.87
555.234	44985.48
555.597	44665.72
555.96	44949.78
556.323	45148.64
556.686	45101.86
557.05	45421.18
557.413	45473.38
557.776	45533.27
558.139	45880.6
558.502	45895.74
558.865	45960.83
559.228	46272.68
559.59	46369.63
559.953	46457.31
560.316	46914.7
560.679	46865.89
561.041	47199.21
561.404	47244.18
561.767	47520.78
562.129	47392.88
562.492	47721.68
562.854	47733.43
563.217	47794
563.579	48019.53
563.941	48271.05
564.304	48286.87
564.666	48594.65
565.028	48784.48
565.39	48888.21
565.753	49021.08
566.115	49181.53
566.477	49350.57
566.839	49398.7
567.201	49599.15
567.563	49670.56
567.925	49902.42
568.287	49973.38
568.648	49978.12
569.01	50256.31
569.372	50505.11
569.734	50308.06
570.095	50586.24
570.457	50712.34
570.819	50726.35
571.18	50969.96
571.542	51109.84
571.903	51098.77
572.265	51359.55
572.626	51341.93
572.987	51453.34
573.349	51586.89
573.71	51711.63
574.071	51775.36
574.432	51856.49
574.794	52120.66
575.155	52091.06
575.516	52032.76
575.877	52182.58
576.238	52376.25
576.599	52476.81
576.96	52370.83
577.32	52594.78
577.681	52626.19
578.042	52623.02
578.403	52643.59
578.763	52748.9
579.124	52846.29
579.485	52950.47
579.845	52992.28
580.206	52946.18
580.566	53008.78
580.927	53058.49
581.287	53195.21
581.648	53074.08
582.008	53312.04
582.368	53297.13
582.728	53381.87
583.089	53303.01
583.449	53306.85
583.809	53433.4
584.169	53481.76
584.529	53367.18
584.889	53689.89
585.249	53424.13
585.609	53470.68
585.969	53589.78
586.329	53562.66
586.688	53578.7
587.048	53545.94
587.408	53597.91
587.768	53577.8
588.127	53673.84
588.487	53629.55
588.846	53771.69
589.206	53647.18
589.565	53689.89
589.925	53779.15
590.284	53706.16
590.643	53760.17
591.003	53811.69
591.362	53985.93
591.721	53849.21
592.08	53928.98
592.44	53957.9
592.799	53962.87
593.158	53966.94
593.517	53918.36
593.876	54004.91
594.235	53991.35
594.593	53969.88
594.952	54133.49
595.311	53954.51
595.67	54091.91
596.029	54168.29
596.387	54250.55
596.746	54319.25
597.104	54165.58
597.463	54209.2
597.822	54309.98
598.18	54287.84
598.538	54244.45
598.897	54376.2
599.255	54127.62
599.613	54534.84
599.972	54435.63
600.33	54453.48
600.688	54330.32
601.046	54524.89
601.404	54613.25
601.762	54515.4
602.12	54635.63
602.478	54625.23
602.836	54596.98
603.194	54515.63
603.552	54550.2
603.91	54492.35
604.268	54659.13
604.625	54586.81
604.983	54695.74
605.341	54551.79
605.698	54777.77
606.056	54748.39
606.413	54696.19
606.771	54872.23
607.128	54813.47
607.485	54724.89
607.843	54828.84
608.2	54958.33
608.557	55005.11
608.914	54870.42
609.272	55010.53
609.629	55115.39
609.986	55154.03
610.343	54941.83
610.7	55210.75
611.057	55166.01
611.414	55231.77
611.771	55229.28
612.127	55286.23
612.484	55297.76
612.841	55449.16
613.198	55277.19
613.554	55268.6
613.911	55461.14
614.267	55391.54
614.624	55393.57
614.98	55408.03
615.337	55545.66
615.693	55413.01
616.05	55434.02
616.406	55634.02
616.762	55490.29
617.118	55489.16
617.475	55551.31
617.831	55649.16
618.187	55645.32
618.543	55556.73
618.899	55766.67
619.255	55755.37
619.611	55627.24
619.967	55801.24
620.323	55874.01
620.678	55741.36
621.034	55681.93
621.39	55696.16
621.746	55654.13
622.101	55877.63
622.457	55744.97
622.812	55769.83
623.168	55858.19
623.523	55802.15
623.879	55923.05
624.234	55745.88
624.589	55902.03
624.945	55843.28
625.3	55765.54
625.655	55843.96
626.01	55869.72
626.365	55880.34
626.72	55826.55
627.075	55815.93
627.43	55829.72
627.785	55730.06
628.14	55806.89
628.495	55862.03
628.85	55852.32
629.205	55815.03
629.559	55919.66
629.914	55819.32
630.269	55794.01
630.623	55772.77
630.978	55721.25
631.332	55915.37
631.687	55910.62
632.041	55753.11
632.396	55850.51
632.75	55654.13
633.104	55796.95
633.459	55629.72
633.813	55547.92
634.167	55555.38
634.521	55640.12
634.875	55642.15
635.229	55615.94
635.583	55605.77
635.937	55560.35
636.291	55459.33
636.645	55513.12
636.999	55473.57
637.352	55522.61
637.706	55348.38
638.06	55471.54
638.413	55470.41
638.767	55352.44
639.121	55375.27
639.474	55355.61
639.828	55352.67
640.181	55350.41
640.534	55344.53
640.888	55274.25
641.241	55142.5
641.594	55190.19
641.947	55269.51
642.301	55270.64
642.654	55180.47
643.007	55284.65
643.36	55230.41
643.713	55198.77
644.066	55164.2
644.419	55044.2
644.771	54814.15
645.124	54666.36
645.477	54574.84
645.83	54484.44
646.182	54355.63
646.535	54246.94
646.888	54346.82
647.24	54201.74
647.593	54359.7
647.945	54238.35
648.298	54240.83
648.65	54143.66
649.002	54072.93
649.355	54224.56
649.707	54140.95
650.059	54229.99
650.411	54642.18
650.763	54563.09
651.115	54909.97
651.467	54774.6
651.819	54867.71
652.171	54745
652.523	54760.37
652.875	54771.89
653.227	54550.43
653.578	54815.28
653.93	54783.19
654.282	54580.26
654.633	54569.41
654.985	54663.42
655.337	54652.57
655.688	54639.69
656.039	54750.65
656.391	54359.93
656.742	54536.65
657.094	54555.63
657.445	54625.68
657.796	54525.57
658.147	54465.23
658.498	54568.73
658.849	54603.76
659.2	54461.62
659.551	54400.6
659.902	54447.61
660.253	54459.13
660.604	54496.42
660.955	54344.33
661.306	54528.74
661.656	54433.6
662.007	54399.7
662.358	54410.55
662.708	54434.05
663.059	54396.99
663.409	54242.19
663.76	54326.03
664.11	54281.96
664.461	54311.57
664.811	54396.76
665.161	54316.09
665.511	54152.7
665.862	54219.37
666.212	54398.8
666.562	54265.01
666.912	54280.83
667.262	54152.47
667.612	54178.46
667.962	54208.74
668.312	54203.55
668.662	54276.99
669.011	54182.3
669.361	54165.13
669.711	54119.25
670.06	54007.62
670.41	54040.84
670.76	54021.4
671.109	54151.34
671.459	54067.5
671.808	53957.45
672.157	54028.41
672.507	53802.88
672.856	53843.56
673.205	53791.58
673.554	53908.64
673.904	53782.31
674.253	53961.52
674.602	53764.24
674.951	53406.73
675.3	53237.02
675.649	53615.77
675.998	53604.69
676.346	53755.2
676.695	53717.46
677.044	53564.47
677.393	53602.88
677.741	53703.45
678.09	53454.64
678.438	53438.59
678.787	53596.1
679.135	53518.37
679.484	53249.67
679.832	53467.75
680.181	53166.06
680.529	53262.55
680.877	53241.76
681.225	53105.27
681.573	53258.26
681.922	53027.98
682.27	52967.19
682.618	53095.78
682.966	52904.6
683.314	52997.93
683.661	52900.53
684.009	52730.36
684.357	52630.71
684.705	52614.89
685.053	52592.29
685.4	52585.51
685.748	52482.46
686.095	52358.4
686.443	52255.8
686.79	52200.89
687.138	52248.8
687.485	52142.13
687.832	52171.28
688.18	52103.49
688.527	51947.33
688.874	51881.12
689.221	51770.84
689.568	51616.04
689.915	51632.54
690.262	51557.51
690.609	51505.76
690.956	51418.54
691.303	51373.34
691.65	51217.64
691.997	51061.26
692.344	50985.1
692.69	50978.55
693.037	50834.14
693.383	50641.15
693.73	50716.41
694.077	50465.11
694.423	50515.06
694.769	50395.51
695.116	50413.14
695.462	50348.05
695.808	50155.97
696.155	50242.07
696.501	49945.58
696.847	49919.37
697.193	49711.46
697.539	49727.73
697.885	49576.32
698.231	49413.16
698.577	49546.27
698.923	49383.11
699.269	49162.1
699.614	48966.85
699.96	49011.82
700.306	48999.16
700.651	48811.82
700.997	48782.67
701.342	48709.91
701.688	48574.54
702.033	48445.51
702.379	48380.42
702.724	48407.99
703.069	48350.37
703.415	47941.11
703.76	47923.71
704.105	47922.81
704.45	47789.48
704.795	47647.79
705.14	47388.36
705.485	47461.58
705.83	47271.75
706.175	47349.26
706.52	47200.11
706.865	47087.58
707.209	46958.99
707.554	46833.12
707.899	47079.44
708.243	46797.64
708.588	46723.07
708.932	46537.31
709.277	46377.31
709.621	46547.7
709.966	46099.35
710.31	46226.58
710.654	45923.31
710.998	45985.01
711.342	45975.74
711.687	45836.76
712.031	45668.86
712.375	45568.97
712.719	45747.95
713.063	45548.18
713.407	45698.46
713.75	45369.2
714.094	45411.24
714.438	45166.27
714.782	45217.79
715.125	45030.91
715.469	45169.66
715.812	44971.7
716.156	44747.3
716.499	44561.54
716.843	44906.62
717.186	44433.86
717.53	44685.6
717.873	44733.29
718.216	44497.81
718.559	44263.02
718.902	43991.84
719.246	44140.76
719.589	44195
719.932	43980.54
720.275	43930.14
720.617	43977.37
720.96	43779.19
721.303	43834.55
721.646	43788.91
721.989	43497.16
722.331	43642.02
722.674	43586.65
723.016	43532.87
723.359	43447.45
723.701	43376.94
724.044	43184.4
724.386	43092.43
724.729	43159.54
725.071	43032.54
725.413	42994.12
725.755	42953.45
726.097	42788.25
726.439	42731.53
726.782	42564.98
727.124	42904.18
727.465	42433.46
727.807	42522.5
728.149	42470.75
728.491	42369.51
728.833	42271.43
729.175	42297.42
729.516	42164.09
729.858	42325.44
730.199	42241.6
730.541	42004.09
730.882	42076.18
731.224	42082.74
731.565	41828.28
731.906	41782.86
732.248	41915.96
732.589	41633.03
732.93	41640.49
733.271	41520.04
733.612	41611.11
733.953	41628.96
734.294	41412.24
734.635	41328.18
734.976	41391.45
735.317	41102.87
735.658	41204.11
735.999	41067.39
736.339	41011.35
736.68	41170.89
737.021	40951.24
737.361	40801.64
737.702	41017.68
738.042	40851.58
738.383	40746.5
738.723	40840.06
739.063	40750.79
739.404	40643.68
739.744	40701.98
740.084	40354.87
740.424	40482.33
740.764	40335.89
741.104	40327.98
741.444	40269.68
741.784	40185.61
742.124	40238.26
742.464	40180.64
742.804	40196.01
743.143	40054.54
743.483	40121.66
743.823	39986.29
744.162	39906.75
744.502	39817.03
744.841	39730.25
745.181	39796.69
745.52	39954.2
745.86	39743.36
746.199	39648.9
746.538	39565.74
746.877	39683.02
747.216	39669.47
747.556	39526.87
747.895	39426.99
748.234	39218.18
748.573	39159.65
748.911	39132.53
749.25	39150.61
749.589	38994.23
749.928	39032.42
750.267	39103.38
750.605	38992.87
750.944	38797.17
751.283	38661.36
751.621	38715.14
751.96	38482.83
752.298	38539.1
752.636	38518.76
752.975	38453.23
753.313	38137.53
753.651	38505.88
753.989	38247.58
754.327	37980.47
754.666	37939.34
755.004	37962.62
755.342	38002.16
755.679	37897.76
756.017	37701.16
756.355	37709.29
756.693	37496.42
757.031	37621.38
757.368	37313.82
757.706	37375.74
758.044	37286.03
758.381	37133.94
758.719	37008.52
759.056	37070.21
759.394	37026.82
759.731	36742.99
760.068	36560.39
760.405	36503.9
760.743	36396.78
761.08	36491.24
761.417	36249.22
761.754	36225.49
762.091	36152.27
762.428	35959.73
762.765	35808.1
763.102	35961.31
763.438	35615.79
763.775	35521.1
764.112	35448.33
764.449	35627.54
764.785	35234.55
765.122	35043.37
765.458	35013.99
765.795	34983.71
766.131	34994.33
766.467	34811.74
766.804	34755.92
767.14	34449.72
767.476	34463.95
767.812	34351.87
768.148	34371.75
768.485	34108.71
768.821	33874.36
769.157	33898.09
769.492	33810.41
769.828	33911.42
770.164	33442.28
770.5	33373.13
770.836	33407.71
771.171	33151.44
771.507	33172.69
771.842	32957.1
772.178	32949.42
772.513	32806.6
772.849	32715.07
773.184	32601.4
773.519	32603.44
773.855	32564.12
774.19	32259.72
774.525	32142.21
774.86	32179.94
775.195	32093.39
775.53	31908.31
775.865	31653.63
776.2	31542.22
776.535	31367.99
776.87	31292.51
777.205	31170.93
777.539	31086.19
777.874	31099.75
778.209	30898.17
778.543	30822.24
778.878	30622.92
779.212	30758.74
779.547	30353.78
779.881	30411.63
780.215	30237.85
780.55	30410.27
780.884	30076.5
781.218	30047.35
781.552	30023.39
781.886	29802.61
782.22	29644.64
782.554	29627.47
782.888	29336.63
783.222	29244.43
783.556	29241.72
783.889	29079.01
784.223	28983.42
784.557	28927.6
784.89	28913.59
785.224	28627.04
785.557	28618.46
785.891	28579.36
786.224	28447.84
786.558	28288.52
786.891	28182.31
787.224	28073.39
787.557	28077
787.891	27855.76
788.224	27950.45
788.557	27845.6
788.89	27699.84
789.223	27689.89
789.556	27452.16
789.888	27397.92
790.221	27304.37
790.554	27044.71
790.887	27033.87
791.219	27119.06
791.552	26936.69
791.884	26814.89
792.217	26671.62
792.549	26461.68
792.882	26429.36
793.214	26341.45
793.546	26401.11
793.879	26203.38
794.211	26092.87
794.543	26155.24
794.875	26032.08
795.207	26060.33
795.539	25888.36
795.871	25906.89
796.203	25627.57
796.535	25563.62
796.867	25522.49
797.198	25426
797.53	25331.09
797.862	25207.47
798.193	25290.18
798.525	25106.01
798.856	25046.8
799.188	24896.52
799.519	24749.41
799.85	24607.04
800.182	24638.67
800.513	24657.88
800.844	24359.81
801.175	24540.6
801.506	24525.23
801.837	24395.06
802.168	24368.85
802.499	24255.86
802.83	24167.5
803.161	23983.78
803.491	23978.58
803.822	24089.76
804.153	23795.53
804.483	23669.21
804.814	23673.5
805.145	23574.75
805.475	23536.1
805.805	23440.06
806.136	23480.51
806.466	23318.93
806.796	23271.48
807.126	23191.03
807.457	23300.18
807.787	23159.17
808.117	22935.22
808.447	22940.19
808.777	22991.03
809.107	22834.43
809.436	22821.32
809.766	22864.71
810.096	22713.08
810.426	22640.53
810.755	22592.85
811.085	22518.5
811.414	22328
811.744	22238.06
812.073	22256.82
812.403	22177.04
812.732	22125.52
813.061	22182.02
813.39	21984.96
813.719	21941.57
814.049	22027.22
814.378	21897.28
814.707	21810.5
815.036	21806.43
815.365	21650.28
815.693	21484.63
816.022	21517.4
816.351	21455.03
816.68	21408.93
817.008	21448.48
817.337	21283.96
817.665	21262.04
817.994	21223.4
818.322	21147.47
818.651	21095.49
818.979	20919.45
819.307	21147.24
819.636	21050.97
819.964	20866.12
820.292	20940.47
820.62	20981.37
820.948	20823.63
821.276	20947.7
821.604	20762.17
821.932	20870.19
822.259	20831.09
822.587	20785.89
822.915	20748.16
823.243	20787.7
823.57	20796.97
823.898	20747.48
824.225	20610.98
824.553	20701.83
824.88	20655.95
825.207	20773.01
825.535	20617.54
825.862	20733.92
826.189	20680.13
826.516	20827.02
826.843	20856.4
827.17	20732.79
827.497	20767.36
827.824	20768.49
828.151	20801.49
828.478	20749.96
828.805	20803.29
829.131	20681.26
829.458	20710.19
829.785	20555.39
830.111	20613.47
830.438	20706.12
830.764	20671.09
831.09	20643.07
831.417	20562.4
831.743	20588.84
832.069	20620.02
832.395	20566.24
832.722	20529.63
833.048	20440.14
833.374	20574.37
833.7	20467.26
834.026	20466.58
834.351	20577.99
834.677	20556.97
835.003	20493.02
835.329	20460.7
835.654	20407.15
835.98	20332.8
836.306	20264.1
836.631	20138.45
836.956	20359.69
837.282	20256.87
837.607	20125.35
837.932	20109.98
838.258	20091.68
838.583	20087.83
838.908	19968.06
839.233	19940.94
839.558	19946.14
839.883	20015.07
840.208	19922.41
840.533	19805.81
840.858	19849.65
841.182	19742.76
841.507	19708.63
841.832	19632.03
842.156	19612.59
842.481	19737.79
842.805	19694.85
843.13	19556.1
843.454	19512.48
843.778	19425.93
844.103	19449.88
844.427	19201.53
844.751	19271.58
845.075	19273.17
845.399	19184.58
845.723	19173.51
846.047	19102.1
846.371	18897.58
846.695	19063
847.019	18803.8
847.343	18651.04
847.666	18586.63
847.99	18524.03
848.313	18575.78
848.637	18373.53
848.96	18292.85
849.284	18354.09
849.607	18236.36
849.931	18147.55
850.254	18053.99
850.577	17990.94
850.9	17854.22
851.223	17729.03
851.546	17744.39
851.869	17614.9
852.192	17742.13
852.515	17463.95
852.838	17439.32
853.161	17518.18
853.483	17423.04
853.806	17362.26
854.129	17259.89
854.451	17179.66
854.774	17073.22
855.096	17124.3
855.419	17010.17
855.741	16967.69
856.063	16900.35
856.385	16928.82
856.708	16715.04
857.03	16674.36
857.352	16709.39
857.674	16722.5
857.996	16543.52
858.318	16478.44
858.64	16519.79
858.961	16500.36
859.283	16433.24
859.605	16320.02
859.926	16353.47
860.248	16237.31
860.57	16187.14
860.891	16256.3
861.212	16114.38
861.534	16113.02
861.855	16120.71
862.176	16088.84
862.498	16051.78
862.819	16043.42
863.14	15971.56
863.461	15980.37
863.782	15849.3
864.103	15844.33
864.424	15781.73
864.745	15876.19
865.065	15744.22
865.386	15780.15
865.707	15724.78
866.027	15712.58
866.348	15669.87
866.668	15665.8
866.989	15539.25
867.309	15476.66
867.63	15524.34
867.95	15499.48
868.27	15327.28
868.59	15454.28
868.91	15325.47
869.23	15390.33
869.55	15262.42
869.87	15437.56
870.19	15346.49
870.51	15292.93
870.83	15329.77
871.15	15187.85
871.469	15174.29
871.789	15183.33
872.109	15173.39
872.428	15132.71
872.748	15220.62
873.067	15151.92
873.386	15151.47
873.706	15077.57
874.025	14974.07
874.344	14960.51
874.663	15063.33
874.982	14888.42
875.301	14952.83
875.62	14904.69
875.939	14865.37
876.258	14816.79
876.577	14738.14
876.896	14750.57
877.214	14739.27
877.533	14802.77
877.852	14768.43
878.17	14719.39
878.489	14776.11
878.807	14625.83
879.125	14659.28
879.444	14561.65
879.762	14537.02
880.08	14624.7
880.398	14519.84
880.716	14486.4
881.034	14426.29
881.352	14506.74
881.67	14364.37
881.988	14338.15
882.306	14374.09
882.624	14319.85
882.941	14196.91
883.259	14187.42
883.577	14125.28
883.894	14101.55
884.212	14152.85
884.529	14106.52
884.846	14019.52
885.164	14018.84
885.481	13912.18
885.798	13896.13
886.115	13879.18
886.432	13875.79
886.75	13875.34
887.067	13866.3
887.383	13828.79
887.7	13782.01
888.017	13793.76
888.334	13720.09
888.651	13645.06
888.967	13674.89
889.284	13586.99
889.6	13457.73
889.917	13445.07
890.233	13462.92
890.55	13477.16
890.866	13445.3
891.182	13344.28
891.498	13240.78
891.815	13282.36
892.131	13148.13
892.447	13159.2
892.763	13154.68
893.079	13014.57
893.395	13017.51
893.71	13020
894.026	13020.22
894.342	12920.56
894.657	12885.54
894.973	12912.65
895.289	12883.73
895.604	12829.27
895.92	12699.55
896.235	12693.9
896.55	12766.22
896.865	12624.75
897.181	12613.91
897.496	12519.67
897.811	12562.83
898.126	12473.8
898.441	12438.77
898.756	12369.39
899.071	12257.08
899.386	12300.69
899.7	12147.93
900.015	12128.49
900.33	12074.71
900.644	12106.57
900.959	12077.87
901.273	12025.9
901.588	11966.24
901.902	11840.82
902.216	11887.15
902.531	11821.61
902.845	11726.7
903.159	11626.13
903.473	11683.31
903.787	11613.71
904.101	11493.26
904.415	11519.7
904.729	11472.01
905.042	11402.41
905.356	11339.14
905.67	11359.02
905.984	11319.48
906.297	11281.51
906.611	11196.32
906.924	11197.9
907.237	11128.07
907.551	11111.57
907.864	11040.84
908.177	11044
908.491	11030.22
908.804	10954.74
909.117	10946.38
909.43	10818.02
909.743	10873.84
910.056	10781.64
910.368	10671.13
910.681	10642.21
910.994	10600.63
911.307	10569.44
911.619	10477.01
911.932	10455.09
912.244	10419.16
912.557	10436.56
912.869	10367.19
913.181	10281.76
913.494	10307.75
913.806	10237.24
914.118	10144.37
914.43	10150.24
914.742	10150.24
915.054	10051.49
915.366	10075.89
915.678	10025.5
915.99	9914.54
916.302	9856.46
916.613	9800.65
916.925	9773.75
917.236	9794.32
917.548	9644.04
917.859	9741.21
918.171	9598.17
918.482	9555.45
918.794	9546.64
919.105	9503.48
919.416	9470.94
919.727	9474.55
920.038	9396.14
920.349	9254.67
920.66	9325.4
920.971	9265.52
921.282	9268.46
921.593	9122.92
921.903	9120.21
922.214	9066.88
922.525	9057.16
922.835	9062.13
923.146	8959.76
923.456	8970.61
923.767	8859.43
924.077	8858.07
924.387	8854.46
924.697	8867.34
925.008	8781.92
925.318	8763.39
925.628	8736.95
925.938	8686.78
926.248	8555.03
926.558	8577.85
926.867	8551.64
927.177	8524.97
927.487	8433.9
927.796	8393.68
928.106	8338.76
928.416	8310.52
928.725	8352.32
929.034	8310.52
929.344	8261.03
929.653	8237.98
929.962	8116.17
930.271	8128.15
930.581	8072.56
930.89	8026.68
931.199	8046.12
931.508	7946.91
931.817	7914.82
932.125	7964.08
932.434	7896.29
932.743	7842.96
933.051	7811.55
933.36	7814.71
933.669	7695.39
933.977	7691.1
934.286	7677.99
934.594	7649.97
934.902	7615.84
935.21	7603.19
935.519	7580.82
935.827	7536.98
936.135	7475.96
936.443	7406.13
936.751	7404.33
937.059	7384.89
937.367	7339.24
937.674	7327.49
937.982	7250.43
938.29	7209.53
938.597	7224.67
938.905	7189.87
939.213	7118.23
939.52	7100.6
939.827	7093.15
940.135	7116.65
940.442	7057.44
940.749	7009.08
941.056	6990.55
941.363	6902.42
941.67	6867.62
941.977	6809.76
942.284	6794.17
942.591	6786.71
942.898	6754.17
943.205	6746.94
943.511	6694.51
943.818	6663.33
944.125	6623.78
944.431	6568.64
944.738	6555.76
945.044	6598.92
945.35	6497.46
945.657	6485.48
945.963	6508.08
946.269	6382.21
946.575	6454.75
946.881	6387.18
947.187	6335.65
947.493	6315.54
947.799	6345.82
948.105	6235.09
948.41	6214.75
948.716	6174.98
949.022	6158.03
949.327	6142.44
949.633	6113.51
949.938	6079.84
950.244	6120.29
950.549	6047.07
950.854	6009.33
951.16	6001.65
951.465	5934.08
951.77	5948.09
952.075	5860.64
952.38	5915.32
952.685	5884.37
952.99	5805.72
953.294	5778.15
953.599	5739.06
953.904	5713.97
954.209	5709.45
954.513	5768.89
954.818	5690.25
955.122	5654.77
955.426	5586.52
955.731	5612.96
956.035	5564.83
956.339	5505.17
956.643	5506.07
956.948	5497.03
957.252	5445.96
957.556	5438.73
957.86	5424.04
958.163	5399.41
958.467	5364.38
958.771	5314.44
959.075	5317.83
959.378	5310.37
959.682	5288.9
959.985	5302.01
960.289	5258.62
960.592	5211.39
960.896	5174.78
961.199	5152.18
961.502	5165.06
961.805	5125.97
962.108	5055.69
962.411	5051.84
962.714	5051.39
963.017	5041.9
963.32	5047.55
963.623	4973.65
963.926	4923.03
964.228	4948.34
964.531	4895.24
964.833	4899.98
965.136	4839.19
965.438	4828.8
965.741	4772.3
966.043	4817.05
966.345	4786.77
966.648	4740.89
966.95	4764.62
967.252	4681.01
967.554	4689.59
967.856	4663.38
968.158	4626.77
968.46	4592.2
968.761	4589.26
969.063	4592.87
969.365	4565.53
969.666	4528.24
969.968	4488.92
970.269	4477.4
970.571	4522.14
970.872	4494.8
971.174	4373.22
971.475	4416.83
971.776	4407.12
972.077	4356.27
972.378	4345.65
972.679	4322.82
972.98	4356.72
973.281	4269.27
973.582	4219.78
973.883	4293.45
974.183	4252.54
974.484	4245.54
974.785	4188.14
975.085	4144.52
975.386	4220.23
975.686	4156.95
975.986	4107.69
976.287	4104.07
976.587	4070.63
976.887	4064.75
977.187	4074.47
977.487	3996.05
977.787	4042.83
978.087	3998.31
978.387	3976.17
978.687	3938.43
978.987	3926.68
979.286	3888.71
979.586	3880.8
979.885	3911.08
980.185	3873.12
980.484	3825.66
980.784	3798.54
981.083	3794.02
981.382	3802.61
981.682	3796.28
981.981	3727.59
982.28	3723.97
982.579	3707.93
982.878	3669.28
983.177	3687.81
983.475	3635.38
983.774	3623.41
984.073	3606.01
984.372	3606.68
984.67	3591.32
984.969	3545.44
985.267	3632.22
985.566	3564.65
985.864	3529.85
986.162	3511.32
986.461	3521.26
986.759	3466.12
987.057	3429.74
987.355	3466.8
987.653	3456.41
987.951	3389.52
988.249	3396.29
988.547	3415.28
988.844	3383.19
989.142	3353.58
989.44	3330.76
989.737	3340.7
990.035	3310.65
990.332	3296.18
990.63	3253.02
990.927	3232.46
991.224	3214.6
991.521	3257.54
991.819	3222.97
992.116	3198.33
992.413	3225.68
992.71	3135.74
993.006	3175.28
993.303	3127.83
993.6	3089.64
993.897	3112.23
994.193	3119.47
994.49	3101.61
994.787	3055.96
995.083	3018.45
995.379	3045.12
995.676	3033.59
995.972	2999.92
996.268	2983.65
996.565	2950.2
996.861	2929.19
997.157	2965.12
997.453	2903.2
997.749	2949.53
998.044	2900.04
998.34	2880.15
998.636	2868.4
998.932	2837.44
999.227	2837.67
999.523	2790.66
999.818	2790.89
1000.114	2775.29
1000.409	2741.17
1000.704	2740.72
1001	2734.84
1001.295	2707.27
1001.59	2702.3
1001.885	2687.16
1002.18	2658.46
1002.475	2676.31
1002.77	2627.05
1003.065	2607.39
1003.359	2617.78
1003.654	2619.82
1003.949	2564.68
1004.243	2590.44
1004.538	2541.63
1004.832	2540.27
1005.127	2498.01
1005.421	2523.32
1005.715	2463.89
1006.009	2481.52
1006.304	2477.9
1006.598	2448.07
1006.892	2406.72
1007.186	2390.67
1007.48	2413.5
1007.773	2378.92
1008.067	2355.42
1008.361	2360.62
1008.655	2366.72
1008.948	2294.63
1009.242	2322.42
1009.535	2301.63
1009.829	2290.56
1010.122	2242.88
1010.415	2269.32
1010.708	2253.95
1011.001	2214.41
1011.295	2219.38
1011.588	2250.79
1011.881	2201.52
1012.173	2188.19
1012.466	2182.54
1012.759	2161.3
1013.052	2183.67
1013.344	2136.89
1013.637	2146.61
1013.93	2129.21
1014.222	2078.59
1014.514	2076.1
1014.807	2068.87
1015.099	2048.99
1015.391	2025.26
1015.683	2003.11
1015.976	1990.23
1016.268	1995.65
1016.56	1979.83
1016.851	1958.37
1017.143	1953.17
1017.435	1961.3
1017.727	1937.12
1018.018	1964.47
1018.31	1919.95
1018.602	1910.68
1018.893	1883.11
1019.185	1858.71
1019.476	1839.27
1019.767	1845.15
1020.058	1834.98
1020.35	1806.51
1020.641	1818.48
1020.932	1786.39
1021.223	1772.61
1021.514	1773.51
1021.804	1754.53
1022.095	1740.07
1022.386	1714.53
1022.677	1718.37
1022.967	1740.52
1023.258	1703.46
1023.548	1672.05
1023.839	1654.42
1024.129	1664.36
1024.419	1661.2
1024.709	1635.21
1025	1641.54
1025.29	1627.3
1025.58	1589.11
1025.87	1583.46
1026.16	1586.62
1026.449	1580.52
1026.739	1537.13
1027.029	1552.28
1027.319	1543.46
1027.608	1514.76
1027.898	1523.12
1028.187	1530.81
1028.477	1509.79
1028.766	1522.67
1029.055	1494.88
1029.344	1439.28
1029.634	1462.11
1029.923	1447.65
1030.212	1435.44
1030.501	1422.79
1030.79	1415.78
1031.078	1411.49
1031.367	1406.52
1031.656	1392.73
1031.945	1388.66
1032.233	1374.88
1032.522	1355.67
1032.81	1343.47
1033.099	1341.43
1033.387	1306.41
1033.675	1321.77
1033.963	1307.99
1034.251	1291.72
1034.54	1290.14
1034.828	1267.99
1035.116	1296.92
1035.403	1265.5
1035.691	1260.76
1035.979	1253.98
1036.267	1219.4
1036.554	1195.45
1036.842	1220.98
1037.129	1202.23
1037.417	1208.33
1037.704	1193.87
1037.992	1212.4
1038.279	1177.37
1038.566	1183.02
1038.853	1183.02
1039.14	1183.02
