Data from white_poster_card_FLMS001491_00065.txt Node
Date: Wed Feb 08 11:51:51 GMT 2017
User: dcchb
Spectrometer: FLMS00149
Trigger mode: 0
Integration Time (sec): 2.000000E-2
Scans to average: 10
Electric dark correction enabled: true
Nonlinearity correction enabled: false
Boxcar width: 0
XAxis mode: Wavelengths
Number of Pixels in Spectrum: 2048
>>>>>Begin Spectral Data<<<<<
341.393	-22.94
341.776	-22.94
342.16	-22.94
342.543	-78.98
342.927	-73.11
343.31	-64.97
343.693	-62.71
344.077	-52.54
344.46	-64.07
344.843	-82.6
345.226	-57.29
345.61	-35.82
345.993	-33.33
346.376	-3.95
346.759	17.51
347.142	17.51
347.525	50.96
347.908	81.01
348.291	67.91
348.674	100.9
349.057	121.47
349.44	118.98
349.823	145.19
350.206	180.22
350.588	196.49
350.971	221.8
351.354	211.18
351.737	238.52
352.119	235.36
352.502	259.09
352.884	271.97
353.267	293.21
353.65	299.77
354.032	289.82
354.414	297.73
354.797	329.37
355.179	315.36
355.562	332.76
355.944	319.2
356.326	341.8
356.709	300.67
357.091	362.59
357.473	350.39
357.855	356.94
358.238	352.42
358.62	352.87
359.002	328.24
359.384	344.96
359.766	335.47
360.148	351.52
360.53	336.6
360.912	336.6
361.294	332.99
361.676	328.01
362.057	319.43
362.439	314.68
362.821	340.67
363.203	335.47
363.584	338.64
363.966	314.68
364.348	315.13
364.729	316.94
365.111	296.83
365.493	311.74
365.874	321.69
366.256	313.78
366.637	300.67
367.019	312.87
367.4	312.87
367.781	314.68
368.163	317.84
368.544	312.87
368.925	292.08
369.306	335.02
369.688	319.88
370.069	314.46
370.45	303.16
370.831	311.97
371.212	304.51
371.593	322.36
371.974	318.07
372.355	317.39
372.736	338.41
373.117	334.34
373.498	316.49
373.879	315.58
374.26	334.57
374.641	307.45
375.021	327.79
375.402	316.04
375.783	332.08
376.163	311.29
376.544	328.01
376.925	341.57
377.305	329.37
377.686	337.05
378.066	344.51
378.447	342.7
378.827	333.66
379.208	322.82
379.588	344.28
379.968	339.09
380.349	330.95
380.729	323.27
381.109	308.35
381.489	341.57
381.87	345.19
382.25	349.48
382.63	332.76
383.01	339.77
383.39	371.4
383.77	359.65
384.15	363.49
384.53	350.39
384.91	358.07
385.29	366.43
385.67	373.21
386.049	358.75
386.429	352.19
386.809	353.1
387.189	374.34
387.568	379.09
387.948	366.66
388.328	366.43
388.707	369.14
389.087	396.03
389.466	385.87
389.846	377.96
390.225	378.41
390.605	386.77
390.984	408.69
391.363	399.42
391.743	393.32
392.122	373.44
392.501	413.21
392.881	405.98
393.26	412.31
393.639	401.46
394.018	417.73
394.397	401.01
394.776	401.46
395.155	417.28
395.534	409.14
395.913	420.44
396.292	422.02
396.671	420.44
397.05	436.49
397.429	411.18
397.808	426.54
398.186	422.7
398.565	436.49
398.944	445.98
399.323	441.91
399.701	435.81
400.08	455.24
400.458	446.43
400.837	458.41
401.215	461.8
401.594	457.73
401.972	462.7
402.351	451.4
402.729	454.11
403.107	474.45
403.486	482.13
403.864	470.38
404.242	480.78
404.62	494.56
404.999	486.65
405.377	489.59
405.755	516.03
406.133	497.73
406.511	493.21
406.889	520.1
407.267	497.05
407.645	543.83
408.023	544.28
408.401	550.16
408.779	567.56
409.156	577.5
409.534	584.96
409.912	602.81
410.29	611.62
410.667	614.56
411.045	641.68
411.422	622.24
411.8	621.79
412.178	650.27
412.555	664.73
412.933	685.74
413.31	700.89
413.687	689.81
414.065	701.56
414.442	741.34
414.819	763.26
415.197	796.25
415.574	776.14
415.951	793.54
416.328	806.42
416.705	828.11
417.082	829.02
417.46	844.84
417.837	866.3
418.214	845.06
418.591	888.23
418.967	925.74
419.344	934.1
419.721	938.85
420.098	926.42
420.475	947.21
420.852	964.83
421.228	973.19
421.605	996.47
421.982	996.7
422.358	1037.6
422.735	1080.31
423.111	1032.85
423.488	1101.55
423.864	1091.38
424.241	1109.91
424.617	1121.89
424.994	1133.87
425.37	1146.75
425.746	1147.43
426.123	1190.14
426.499	1169.35
426.875	1172.74
427.251	1207.31
427.627	1233.3
428.003	1251.83
428.379	1289.12
428.756	1286.63
429.132	1339.74
429.507	1331.15
429.883	1349
430.259	1402.56
430.635	1389.45
431.011	1398.49
431.387	1438.49
431.763	1483.46
432.138	1496.57
432.514	1505.16
432.89	1509.9
433.265	1533.41
433.641	1578.38
434.016	1576.57
434.392	1629.9
434.767	1640.52
435.143	1619.28
435.518	1649.11
435.894	1694.98
436.269	1684.36
436.644	1717.81
437.02	1761.65
437.395	1761.42
437.77	1774.76
438.145	1834.42
438.52	1823.12
438.895	1861.53
439.271	1850.46
439.646	1885.26
440.021	1877.35
440.395	1894.98
440.77	1891.14
441.145	1911.48
441.52	1943.56
441.895	1946.95
442.27	1959.38
442.645	1944.92
443.019	2005.94
443.394	2004.13
443.769	2025.82
444.143	1989.67
444.518	2062.66
444.892	2015.65
445.267	2069.66
445.641	2087.74
446.016	2093.39
446.39	2095.2
446.764	2111.7
447.139	2132.71
447.513	2185.37
447.887	2142.88
448.262	2156.67
448.636	2196.67
449.01	2215.87
449.384	2241.41
449.758	2268.08
450.132	2278.02
450.506	2329.32
450.88	2280.51
451.254	2301.97
451.628	2372.25
452.002	2355.53
452.376	2369.09
452.75	2377.45
453.123	2407.73
453.497	2467.62
453.871	2482.31
454.244	2512.82
454.618	2515.3
454.992	2566.6
455.365	2619.03
455.739	2591.23
456.112	2623.55
456.486	2661.06
456.859	2677.78
457.232	2719.14
457.606	2734.96
457.979	2780.83
458.352	2815.86
458.725	2856.99
459.099	2857.44
459.472	2939.92
459.845	2914.16
460.218	2986.93
460.591	3003.42
460.964	3036.87
461.337	3125.91
461.71	3113.93
462.083	3184.89
462.456	3218.56
462.829	3189.63
463.201	3252
463.574	3249.97
463.947	3346.24
464.32	3372.91
464.692	3338.1
465.065	3393.47
465.438	3451.32
465.81	3527.25
466.183	3546.46
466.555	3626.01
466.928	3633.24
467.3	3684.99
467.672	3733.35
468.045	3836.4
468.417	3860.8
468.789	3882.5
469.161	3905.1
469.534	3964.75
469.906	4024.87
470.278	4078.65
470.65	4096.95
471.022	4205.2
471.394	4266.22
471.766	4273.9
472.138	4371.52
472.51	4401.35
472.882	4470.73
473.253	4502.59
473.625	4592.08
473.997	4730.38
474.369	4713.66
474.74	4779.2
475.112	4810.38
475.484	4968.12
475.855	5051.28
476.227	5047.66
476.598	5178.51
476.97	5230.94
477.341	5355.23
477.713	5375.11
478.084	5399.97
478.455	5540.53
478.827	5638.38
479.198	5759.28
479.569	5764.26
479.94	5931.26
480.311	5965.38
480.682	6132.16
481.053	6274.75
481.424	6315.65
481.795	6401.07
482.166	6532.82
482.537	6584.57
482.908	6738.69
483.279	6781.63
483.65	6892.81
484.021	7049.65
484.391	7137.78
484.762	7172.81
485.133	7276.76
485.503	7313.37
485.874	7530.08
486.244	7582.51
486.615	7741.15
486.985	7815.05
487.356	7978.43
487.726	8067.02
488.097	8302.04
488.467	8260.01
488.837	8433.11
489.207	8476.95
489.578	8645.99
489.948	8702.94
490.318	8857.96
490.688	8838.07
491.058	9047.33
491.428	9041.68
491.798	9238.06
492.168	9379.53
492.538	9467.66
492.908	9545.62
493.278	9644.61
493.648	9612.52
494.017	9818.16
494.387	9911.72
494.757	10025.16
495.126	10088.44
495.496	10140.19
495.866	10206.62
496.235	10289.11
496.605	10409.56
496.974	10516.67
497.344	10655.88
497.713	10720.51
498.082	10745.37
498.452	10780.62
498.821	10940.62
499.19	10968.64
499.559	11117.56
499.928	11119.59
500.298	11193.72
500.667	11329.98
501.036	11347.61
501.405	11505.35
501.774	11478.23
502.143	11658.79
502.512	11652.91
502.88	11822.4
503.249	11818.33
503.618	11936.07
503.987	12025.11
504.356	12056.97
504.724	12262.62
505.093	12245.89
505.462	12354.59
505.83	12414.48
506.199	12519.33
506.567	12619.67
506.936	12593.91
507.304	12771.98
507.672	12868.48
508.041	12969.94
508.409	13026.44
508.777	13156.6
509.145	13171.29
509.514	13364.28
509.882	13323.38
510.25	13429.36
510.618	13505.75
510.986	13569.47
511.354	13791.16
511.722	13832.52
512.09	13981.67
512.458	13995.45
512.826	14147.99
513.193	14178.27
513.561	14264.14
513.929	14415.33
514.297	14500.3
514.664	14724.25
515.032	14702.78
515.4	14827.07
515.767	14911.81
516.135	14982.09
516.502	14940.96
516.869	15290.11
517.237	15413.49
517.604	15244.46
517.972	15536.2
518.339	15597.22
518.706	15765.35
519.073	15799.92
519.44	15921.05
519.808	16061.39
520.175	16025.68
520.542	16290.08
520.909	16425.22
521.276	16477.65
521.643	16633.35
522.009	16771.65
522.376	16758.99
522.743	16991.53
523.11	17200.34
523.477	17347.23
523.843	17360.33
524.21	17619.31
524.577	17718.29
524.943	17800.1
525.31	18028.11
525.676	18171.39
526.043	18230.59
526.409	18252.29
526.776	18622.9
527.142	18588.55
527.508	18714.2
527.874	18858.15
528.241	18908.54
528.607	19091.59
528.973	19204.35
529.339	19255.88
529.705	19423.33
530.071	19580.16
530.437	19662.87
530.803	19860.38
531.169	19994.16
531.535	19939.02
531.901	20038.23
532.267	20152.58
532.632	20324.78
532.998	20361.84
533.364	20512.12
533.73	20701.94
534.095	20778.32
534.461	20835.05
534.826	20911.43
535.192	21019.45
535.557	21147.81
535.923	21218.09
536.288	21308.25
536.653	21450.62
537.019	21418.98
537.384	21578.3
537.749	21747.56
538.114	21732.87
538.479	21743.27
538.845	21853.78
539.21	21953.66
539.575	21956.37
539.94	22073.2
540.305	22164.5
540.67	22284.27
541.034	22224.39
541.399	22424.83
541.764	22550.48
542.129	22619.63
542.494	22633.64
542.858	22733.98
543.223	22765.62
543.587	22931.71
543.952	22916.57
544.316	23037.02
544.681	23040.64
545.045	23167.41
545.41	23238.37
545.774	23321.76
546.138	23430.46
546.503	23427.52
546.867	23493.51
547.231	23751.8
547.595	23731.47
547.959	23865.7
548.324	23898.69
548.688	23797.91
549.052	24014.4
549.416	24126.71
549.779	24192.7
550.143	24252.13
550.507	24400.15
550.871	24559.69
551.235	24625.68
551.599	24802.17
551.962	24727.82
552.326	24836.52
552.689	25010.75
553.053	24883.75
553.417	24966.24
553.78	25330.75
554.143	25199.68
554.507	25263.63
554.87	25427.92
555.234	25759.66
555.597	25641.02
555.96	25796.5
556.323	25926.44
556.686	25898.42
557.05	26184.96
557.413	26122.36
557.776	26221.8
558.139	26445.75
558.502	26463.37
558.865	26561.9
559.228	26840.99
559.59	26870.37
559.953	27006.63
560.316	27201.21
560.679	27243.69
561.041	27385.38
561.404	27518.71
561.767	27610.46
562.129	27594.19
562.492	27978.36
562.854	27932.26
563.217	28080.5
563.579	28093.16
563.941	28221.74
564.304	28451.12
564.666	28499.25
565.028	28555.75
565.39	28826.02
565.753	28986.92
566.115	28902.63
566.477	29089.07
566.839	29173.58
567.201	29418.55
567.563	29370.64
567.925	29671.42
568.287	29608.15
568.648	29682.27
569.01	29896.95
569.372	30159.77
569.734	30005.2
570.095	30207
570.457	30451.52
570.819	30487.22
571.18	30460.56
571.542	30666.2
571.903	30543.94
572.265	30884.05
572.626	30869.81
572.987	30971.73
573.349	31009.92
573.71	31164.72
574.071	31302.79
574.432	31296.24
574.794	31677.25
575.155	31575.78
575.516	31452.62
575.877	31604.25
576.238	31661.2
576.599	31928.76
576.96	31792.5
577.32	31875.89
577.681	32060.29
578.042	32103
578.403	32107.29
578.763	32099.61
579.124	32287.4
579.485	32257.57
579.845	32444.01
580.206	32432.48
580.566	32281.3
580.927	32434.51
581.287	32415.53
581.648	32500.05
582.008	32615.3
582.368	32470.67
582.728	32601.52
583.089	32582.53
583.449	32613.72
583.809	32627.96
584.169	32683.77
584.529	32619.37
584.889	32744.56
585.249	32674.28
585.609	32630.89
585.969	32744.79
586.329	32619.59
586.688	32788.63
587.048	32723.09
587.408	32636.09
587.768	32868.18
588.127	32811.23
588.487	32747.73
588.846	32859.59
589.206	32632.48
589.565	32742.08
589.925	32812.58
590.284	32729.42
590.643	32768.52
591.003	32891
591.362	32890.1
591.721	32993.6
592.08	33011
592.44	32878.34
592.799	33075.18
593.158	32856.42
593.517	32912.24
593.876	32963.31
594.235	32978.91
594.593	33001.96
594.952	33119.47
595.311	32930.32
595.67	33104.1
596.029	33254.15
596.387	33151.56
596.746	33358.11
597.104	33157.21
597.463	33037.89
597.822	33300.71
598.18	33103.42
598.538	33037.44
598.897	33309.97
599.255	33088.51
599.613	33539.8
599.972	33346.58
600.33	33454.83
600.688	33243.08
601.046	33501.38
601.404	33449.4
601.762	33595.16
602.12	33624.31
602.478	33521.04
602.836	33741.6
603.194	33527.37
603.552	33646.01
603.91	33529.85
604.268	33656.18
604.625	33567.82
604.983	33720.36
605.341	33471.32
605.698	33749.06
606.056	33825.44
606.413	33737.76
606.771	33950.86
607.128	33935.27
607.485	33790.41
607.843	33948.37
608.2	34064.3
608.557	34167.35
608.914	34030.4
609.272	34097.52
609.629	34214.58
609.986	34443.73
610.343	34196.28
610.7	34389.94
611.057	34280.79
611.414	34397.85
611.771	34287.57
612.127	34391.75
612.484	34525.53
612.841	34513.56
613.198	34364.18
613.554	34530.05
613.911	34674.91
614.267	34609.82
614.624	34582.25
614.98	34612.31
615.337	34799.2
615.693	34637.85
616.05	34699.77
616.406	34991.96
616.762	34683.95
617.118	34842.59
617.475	34887.33
617.831	34909.93
618.187	34848.46
618.543	34984.73
618.899	35064.5
619.255	35083.71
619.611	35010.72
619.967	35127.32
620.323	35224.5
620.678	35091.39
621.034	35016.37
621.39	35024.95
621.746	34973.88
622.101	35446.41
622.457	35114.67
622.812	35093.43
623.168	35259.07
623.523	35170.49
623.879	35318.96
624.234	35130.04
624.589	35165.06
624.945	35131.17
625.3	35170.26
625.655	35184.05
626.01	35273.54
626.365	35273.31
626.72	35217.49
627.075	35141.34
627.43	35126.42
627.785	34881.23
628.14	35088.91
628.495	35158.96
628.85	35203.71
629.205	34958.29
629.559	35199.41
629.914	35023.37
630.269	35066.31
630.623	34905.86
630.978	34971.85
631.332	34883.26
631.687	35005.52
632.041	34846.2
632.396	34900.21
632.75	34732.31
633.104	34700.44
633.459	34560.33
633.813	34575.25
634.167	34645.76
634.521	34542.71
634.875	34589.03
635.229	34509.26
635.583	34443.28
635.937	34535.48
636.291	34478.53
636.645	34411.41
636.999	34354.69
637.352	34404.63
637.706	34127.35
638.06	34330.28
638.413	34127.13
638.767	34100.69
639.121	34137.29
639.474	33964.42
639.828	33899.11
640.181	33946.34
640.534	33966.68
640.888	33869.5
641.241	33660.47
641.594	33801.71
641.947	33809.62
642.301	33777.98
642.654	33806.23
643.007	33624.31
643.36	33675.39
643.713	33611.43
644.066	33700.7
644.419	33472.23
644.771	33189.52
645.124	32952.01
645.477	32874.28
645.83	32766.94
646.182	32687.84
646.535	32505.25
646.888	32539.6
647.24	32347.96
647.593	32469.09
647.945	32489.2
648.298	32210.57
648.65	32090.57
649.002	32068.42
649.355	32230.9
649.707	32016.9
650.059	32323.1
650.411	32579.37
650.763	32615.07
651.115	33018.68
651.467	32867.27
651.819	32922.41
652.171	32705.24
652.523	32754.51
652.875	32726.03
653.227	32522.42
653.578	32730.33
653.93	32610.33
654.282	32515.87
654.633	32377.79
654.985	32503.44
655.337	32460.05
655.688	32456.21
656.039	32521.52
656.391	32214.41
656.742	32239.04
657.094	32333.95
657.445	32391.8
657.796	32296.66
658.147	32098.93
658.498	32069.33
658.849	32170.79
659.2	32078.59
659.551	32143.22
659.902	32272.71
660.253	32089.21
660.604	32171.47
660.955	31993.4
661.306	32063.45
661.656	32008.08
662.007	32011.02
662.358	32017.58
662.708	32168.31
663.059	32039.95
663.409	31861.42
663.76	32159.49
664.11	32039.5
664.461	31935.09
664.811	32032.94
665.161	31984.81
665.511	31807.19
665.862	31853.51
666.212	31888.09
666.562	31924.7
666.912	31813.29
667.262	31922.44
667.612	31884.92
667.962	31759.73
668.312	31704.59
668.662	31940.74
669.011	31784.36
669.361	31663.46
669.711	31707.08
670.06	31679.28
670.41	31567.19
670.76	31590.02
671.109	31639.96
671.459	31488.55
671.808	31496.46
672.157	31545.27
672.507	31380.3
672.856	31408.78
673.205	31450.81
673.554	31494.65
673.904	31515.89
674.253	31485.16
674.602	31382.11
674.951	30840.21
675.3	30803.6
675.649	31267.99
675.998	31204.04
676.346	31259.4
676.695	31371.94
677.044	31114.55
677.393	31141.67
677.741	31233.19
678.09	31172.4
678.438	31089.69
678.787	31058.96
679.135	31027.32
679.484	30862.35
679.832	30928.11
680.181	30787.55
680.529	30910.26
680.877	30752.07
681.225	30756.59
681.573	30922.92
681.922	30658.97
682.27	30529.71
682.618	30412.19
682.966	30474.57
683.314	30624.39
683.661	30526.99
684.009	30224.4
684.357	30344.85
684.705	30282.48
685.053	30371.29
685.4	30196.61
685.748	29979.21
686.095	30080.9
686.443	29818.54
686.79	29815.6
687.138	29926.78
687.485	29798.2
687.832	29735.83
688.18	29806.11
688.527	29682.5
688.874	29554.59
689.221	29460.36
689.568	29480.24
689.915	29316.63
690.262	29432.79
690.609	29205.45
690.956	29115.73
691.303	29157.09
691.65	28919.58
691.997	28994.6
692.344	28801.84
692.69	28815.85
693.037	28737.66
693.383	28556.42
693.73	28763.65
694.077	28458.57
694.423	28498.57
694.769	28405.92
695.116	28257.22
695.462	28214.51
695.808	28165.93
696.155	28303.78
696.501	27944.01
696.847	27978.81
697.193	27750.34
697.539	27947.4
697.885	27698.59
698.231	27594.64
698.577	27490.92
698.923	27510.58
699.269	27465.15
699.614	27346.06
699.96	27267.87
700.306	27162.79
700.651	27082.79
700.997	26970.03
701.342	26952.62
701.688	26944.94
702.033	26747.66
702.379	26771.39
702.724	26911.04
703.069	26982.91
703.415	26559.64
703.76	26445.75
704.105	26589.24
704.45	26448.01
704.795	26260.67
705.14	26347.44
705.485	26184.96
705.83	26206.88
706.175	26086.88
706.52	26024.97
706.865	25939.77
707.209	25937.06
707.554	25706.33
707.899	25798.53
708.243	25677.63
708.588	25669.72
708.932	25402.16
709.277	25451.87
709.621	25336.17
709.966	25276.06
710.31	25392.21
710.654	25048.04
710.998	25224.76
711.342	25295.27
711.687	25064.09
712.031	24964.2
712.375	24900.25
712.719	24936.63
713.063	24906.8
713.407	24916.75
713.75	24751.55
714.094	24824.09
714.438	24608.05
714.782	24667.04
715.125	24519.92
715.469	24662.06
715.812	24495.06
716.156	24396.53
716.499	24391.56
716.843	24463.2
717.186	24249.64
717.53	24202.64
717.873	24322.41
718.216	24207.39
718.559	24126.03
718.902	23933.49
719.246	23940.73
719.589	23827.28
719.932	23813.5
720.275	23788.19
720.617	23784.12
720.96	23832.71
721.303	23699.38
721.646	23713.61
721.989	23564.92
722.331	23666.61
722.674	23607.4
723.016	23642.43
723.359	23623.9
723.701	23422.1
724.044	23384.36
724.386	23334.64
724.729	23348.88
725.071	23295.09
725.413	23193.18
725.755	23199.95
726.097	23087.87
726.439	22970.81
726.782	23076.79
727.124	23140.97
727.465	22996.12
727.807	22925.16
728.149	22961.32
728.491	22835.67
728.833	22825.73
729.175	22826.41
729.516	22708.22
729.858	22732.17
730.199	22680.87
730.541	22738.05
730.882	22610.14
731.224	22698.05
731.565	22438.17
731.906	22517.71
732.248	22503.7
732.589	22412.18
732.93	22270.94
733.271	22292.86
733.612	22362.01
733.953	22318.4
734.294	22209.7
734.635	22219.19
734.976	22257.83
735.317	22126.08
735.658	22155.46
735.999	22136.71
736.339	22018.29
736.68	22041.12
737.021	21969.93
737.361	21840.67
737.702	21997.05
738.042	21868.69
738.383	21791.86
738.723	21802.25
739.063	21793.89
739.404	21769.03
739.744	21812.19
740.084	21643.84
740.424	21704.18
740.764	21690.39
741.104	21654.91
741.444	21465.09
741.784	21424.86
742.124	21535.14
742.464	21444.29
742.804	21344.86
743.143	21263.96
743.483	21365.2
743.823	21264.19
744.162	21214.24
744.502	21198.43
744.841	21132.89
745.181	21216.28
745.52	21061.03
745.86	21125.21
746.199	21027.13
746.538	21004.76
746.877	21030.07
747.216	21006.79
747.556	21045.66
747.895	20989.84
748.234	20838.89
748.573	20686.12
748.911	20816.97
749.25	20817.19
749.589	20638.44
749.928	20738.78
750.267	20668.27
750.605	20655.62
750.944	20557.54
751.283	20560.93
751.621	20541.72
751.96	20407.49
752.298	20372.01
752.636	20411.78
752.975	20270.54
753.313	20285.91
753.651	20342.63
753.989	20244.1
754.327	20151.9
754.666	20083.88
755.004	20065.57
755.342	20128.17
755.679	20033.94
756.017	19881.62
756.355	19928.63
756.693	19863.32
757.031	19843.21
757.368	19737.67
757.706	19700.39
758.044	19568.64
758.381	19699.26
758.719	19496.1
759.056	19577.23
759.394	19362.09
759.731	19330.9
760.068	19308.98
760.405	19266.27
760.743	19157.12
761.08	19165.03
761.417	19048.65
761.754	18988.54
762.091	18911.71
762.428	18908.77
762.765	18814.08
763.102	18775.21
763.438	18796.23
763.775	18686.18
764.112	18688.44
764.449	18671.03
764.785	18568.66
765.122	18430.36
765.458	18418.16
765.795	18271.5
766.131	18274.66
766.467	18308.56
766.804	18208.67
767.14	18065.63
767.476	18136.59
767.812	17976.82
768.148	18008.68
768.485	17897.5
768.821	17845.97
769.157	17799.64
769.492	17781.34
769.828	17740.21
770.164	17622.02
770.5	17434
770.836	17512.19
771.171	17354.01
771.507	17468.35
771.842	17259.55
772.178	17297.06
772.513	17192.66
772.849	17129.15
773.184	17024.3
773.519	17042.83
773.855	16946.56
774.19	16852.33
774.525	16799.22
774.86	16850.74
775.195	16687.36
775.53	16634.03
775.865	16662.05
776.2	16471.09
776.535	16381.15
776.87	16265.67
777.205	16286.01
777.539	16178.44
777.874	16241.95
778.209	16060.26
778.543	16052.35
778.878	15980.03
779.212	15926.25
779.547	15869.3
779.881	15931.22
780.215	15830.21
780.55	15831.56
780.884	15687.38
781.218	15606.71
781.552	15635.41
781.886	15529.87
782.22	15465.24
782.554	15417.33
782.888	15269.32
783.222	15293.72
783.556	15217.79
783.889	15162.65
784.223	15108.64
784.557	15031.13
784.89	15026.16
785.224	14978.25
785.557	14875.2
785.891	14846.5
786.224	14880.17
786.558	14718.82
786.891	14653.51
787.224	14644.02
787.557	14485.16
787.891	14541.2
788.224	14524.02
788.557	14481.99
788.89	14388.21
789.223	14335.56
789.556	14282
789.888	14241.09
790.221	14185.05
790.554	14073.87
790.887	14077.93
791.219	13965.17
791.552	13973.53
791.884	13866.19
792.217	13929.01
792.549	13869.58
792.882	13709.36
793.214	13657.16
793.546	13689.92
793.879	13595.91
794.211	13540.32
794.543	13563.15
794.875	13562.02
795.207	13545.52
795.539	13470.04
795.871	13454.45
796.203	13357.05
796.535	13283.15
796.867	13235.92
797.198	13221.01
797.53	13176.04
797.862	13032.54
798.193	13114.12
798.525	12997.29
798.856	13042.26
799.188	12856.27
799.519	12924.74
799.85	12767.91
800.182	12862.83
800.513	12754.13
800.844	12701.7
801.175	12737.63
801.506	12728.82
801.837	12628.93
802.168	12604.3
802.499	12569.73
802.83	12455.6
803.161	12421.26
803.491	12426.23
803.822	12437.75
804.153	12373.12
804.483	12353.46
804.814	12269.85
805.145	12275.72
805.475	12246.57
805.805	12204.99
806.136	12095.16
806.466	12193.69
806.796	12136.74
807.126	12049.29
807.457	11953.25
807.787	11914.38
808.117	11957.76
808.447	11906.47
808.777	11886.58
809.107	11813.81
809.436	11774.49
809.766	11801.61
810.096	11729.97
810.426	11714.38
810.755	11701.05
811.085	11691.11
811.414	11668.05
811.744	11567.94
812.073	11577.66
812.403	11490.43
812.732	11453.82
813.061	11405.46
813.39	11367.95
813.719	11386.71
814.049	11401.62
814.378	11436.2
814.707	11360.49
815.036	11324.34
815.365	11282.08
815.693	11175.41
816.022	11167.28
816.351	11156.43
816.68	11154.4
817.008	11085.25
817.337	11061.97
817.665	11003.89
817.994	11015.87
818.322	11051.35
818.651	10953.5
818.979	10881.18
819.307	10964.57
819.636	10848.87
819.964	10887.51
820.292	10922.54
820.62	10817.68
820.948	10787.17
821.276	10845.03
821.604	10832.14
821.932	10751.24
822.259	10817.23
822.587	10778.36
822.915	10824.24
823.243	10793.95
823.57	10706.95
823.898	10741.07
824.225	10709.89
824.553	10769.77
824.88	10814.97
825.207	10740.17
825.535	10770.9
825.862	10771.36
826.189	10696.1
826.516	10705.14
826.843	10815.2
827.17	10750.79
827.497	10815.87
827.824	10768.87
828.151	10798.7
828.478	10765.48
828.805	10804.12
829.131	10730.68
829.458	10732.49
829.785	10669.44
830.111	10784.01
830.438	10753.73
830.764	10771.58
831.09	10707.85
831.417	10716.89
831.743	10654.97
832.069	10651.13
832.395	10624.24
832.722	10717.12
833.048	10612.26
833.374	10675.99
833.7	10585.6
834.026	10593.05
834.351	10633.73
834.677	10548.31
835.003	10593.28
835.329	10608.87
835.654	10624.01
835.98	10429.44
836.306	10539.5
836.631	10513.96
836.956	10499.5
837.282	10521.19
837.607	10447.97
837.932	10376.11
838.258	10480.29
838.583	10471.7
838.908	10398.71
839.233	10353.29
839.558	10390.57
839.883	10339.28
840.208	10307.86
840.533	10292.72
840.858	10255.89
841.182	10365.49
841.507	10334.76
841.832	10247.53
842.156	10235.32
842.481	10231.93
842.805	10139.51
843.13	10139.51
843.454	10113.75
843.778	10031.49
844.103	10063.35
844.427	10054.54
844.751	10085.05
845.075	10018.15
845.399	9997.14
845.723	9921.66
846.047	9928.21
846.371	9838.27
846.695	9944.26
847.019	9802.79
847.343	9782.45
847.666	9705.17
847.99	9653.64
848.313	9598.05
848.637	9530.94
848.96	9560.99
849.284	9614.55
849.607	9495
849.931	9502.01
850.254	9412.97
850.577	9370.71
850.9	9291.85
851.223	9303.37
851.546	9220.89
851.869	9166.88
852.192	9203.71
852.515	9176.14
852.838	9015.47
853.161	9121
853.483	9007.79
853.806	8962.82
854.129	8998.29
854.451	8996.03
854.774	8921.69
855.096	8892.76
855.419	8911.29
855.741	8875.36
856.063	8834.01
856.385	8765.08
856.708	8785.42
857.03	8707.68
857.352	8740
857.674	8735.93
857.996	8623.84
858.318	8572.99
858.64	8580.68
858.961	8595.14
859.283	8543.17
859.605	8496.84
859.926	8523.05
860.248	8462.94
860.57	8471.75
860.891	8536.84
861.212	8386.33
861.534	8368.03
861.855	8376.16
862.176	8390.4
862.498	8403.51
862.819	8315.37
863.14	8328.71
863.461	8342.49
863.782	8316.05
864.103	8310.85
864.424	8257.97
864.745	8245.32
865.065	8201.93
865.386	8250.74
865.707	8196.06
866.027	8234.02
866.348	8140.69
866.668	8177.53
866.989	8157.64
867.309	8105.21
867.63	8105.21
867.95	8109.73
868.27	8045.55
868.59	8085.78
868.91	8063.18
869.23	8019.56
869.55	8043.74
869.87	8068.15
870.19	8029.73
870.51	8029.96
870.83	8003.07
871.15	7924.88
871.469	8004.65
871.789	8026.12
872.109	7984.76
872.428	7957.19
872.748	7927.81
873.067	7963.52
873.386	7866.12
873.706	7868.15
874.025	7846.01
874.344	7815.95
874.663	7817.53
874.982	7796.74
875.301	7828.83
875.62	7780.93
875.939	7731.66
876.258	7780.7
876.577	7753.81
876.896	7682.85
877.214	7680.36
877.533	7693.02
877.852	7672.91
878.17	7706.35
878.489	7661.15
878.807	7678.33
879.125	7584.09
879.444	7602.4
879.762	7568.73
880.08	7653.47
880.398	7577.77
880.716	7554.49
881.034	7518.33
881.352	7547.71
881.67	7458.22
881.988	7455.51
882.306	7441.27
882.624	7448.28
882.941	7437.88
883.259	7437.21
883.577	7424.78
883.894	7355.17
884.212	7350.65
884.529	7303.42
884.846	7312.24
885.164	7319.69
885.481	7278.57
885.798	7311.79
886.115	7305.68
886.432	7279.7
886.75	7276.31
887.067	7301.62
887.383	7207.16
887.7	7193.6
888.017	7147.27
888.334	7120.83
888.651	7187.49
888.967	7107.95
889.284	7071.57
889.6	7063.2
889.917	7037.44
890.233	7025.24
890.55	6983.21
890.866	6994.51
891.182	6973.94
891.498	6927.84
891.815	6902.3
892.131	6930.55
892.447	6919.48
892.763	6872.93
893.079	6852.14
893.395	6830.67
893.71	6875.41
894.026	6765.81
894.342	6742.99
894.657	6701.18
894.973	6702.31
895.289	6705.7
895.604	6678.81
895.92	6647.4
896.235	6611.24
896.55	6620.28
896.865	6595.87
897.181	6570.34
897.496	6593.61
897.811	6551.58
898.126	6533.27
898.441	6484.91
898.756	6491.92
899.071	6430.45
899.386	6487.17
899.7	6384.35
900.015	6336.67
900.33	6324.47
900.644	6326.27
900.959	6325.6
901.273	6324.24
901.588	6246.73
901.902	6241.3
902.216	6232.72
902.531	6249.89
902.845	6194.75
903.159	6179.16
903.473	6145.94
903.787	6163.34
904.101	6126.51
904.415	6065.72
904.729	6111.36
905.042	6020.97
905.356	6008.09
905.67	5988.88
905.984	6002.67
906.297	5951.82
906.611	5875.44
906.924	5936.23
907.237	5888.09
907.551	5895.55
907.864	5860.3
908.177	5838.6
908.491	5850.58
908.804	5813.29
909.117	5787.53
909.43	5719.06
909.743	5671.15
910.056	5661.89
910.368	5663.01
910.681	5689
910.994	5609.46
911.307	5585.05
911.619	5571.72
911.932	5536.24
912.244	5505.05
912.557	5519.29
912.869	5432.29
913.181	5442.23
913.494	5447.88
913.806	5412.63
914.118	5410.82
914.43	5336.47
914.742	5374.21
915.054	5294.44
915.366	5282.23
915.678	5273.42
915.99	5261.67
916.302	5203.82
916.613	5215.34
916.925	5173.99
917.236	5195.68
917.548	5144.38
917.859	5109.81
918.171	5066.19
918.482	5079.75
918.794	5076.36
919.105	5063.26
919.416	5051.51
919.727	4978.29
920.038	5001.34
920.349	4986.42
920.66	4965.86
920.971	4908.01
921.282	4902.58
921.593	4934.9
921.903	4848.8
922.214	4839.08
922.525	4866.2
922.835	4840.21
923.146	4734.9
923.456	4785.98
923.767	4731.51
924.077	4705.3
924.387	4712.08
924.697	4712.53
925.008	4666.66
925.318	4649.26
925.628	4679.09
925.938	4634.57
926.248	4552.31
926.558	4625.75
926.867	4584.17
927.177	4531.29
927.487	4519.32
927.796	4494.46
928.106	4470.05
928.416	4484.51
928.725	4502.37
929.034	4428.02
929.344	4453.56
929.653	4418.75
929.962	4349.38
930.271	4371.52
930.581	4375.14
930.89	4335.37
931.199	4268.93
931.508	4302.6
931.817	4307.34
932.125	4289.94
932.434	4270.96
932.743	4204.07
933.051	4189.83
933.36	4200
933.669	4171.3
933.977	4177.18
934.286	4117.52
934.594	4118.42
934.902	4075.94
935.21	4089.72
935.519	4081.36
935.827	4054.92
936.135	4029.84
936.443	4006.56
936.751	4003.85
937.059	3982.83
937.367	3948.03
937.674	4030.06
937.982	3979.9
938.29	3905.1
938.597	3933.34
938.905	3908.26
939.213	3893.57
939.52	3862.16
939.827	3821.03
940.135	3858.32
940.442	3800.69
940.749	3790.52
941.056	3831.88
941.363	3743.97
941.67	3784.19
941.977	3721.15
942.284	3728.15
942.591	3704.42
942.898	3661.03
943.205	3677.3
943.511	3663.52
943.818	3658.1
944.125	3600.02
944.431	3593.92
944.738	3606.8
945.044	3574.03
945.35	3598.44
945.657	3541.71
945.963	3523.64
946.269	3540.81
946.575	3530.19
946.881	3502.62
947.187	3457.88
947.493	3472.11
947.799	3465.78
948.105	3456.75
948.41	3408.16
948.716	3442.06
949.022	3353.92
949.327	3335.17
949.633	3361.15
949.938	3342.4
950.244	3326.58
950.549	3338.33
950.854	3307.82
951.16	3326.81
951.465	3256.07
951.77	3273.25
952.075	3273.02
952.38	3247.26
952.685	3216.3
952.99	3207.26
953.294	3191.44
953.599	3211.78
953.904	3191.89
954.209	3144.44
954.513	3149.41
954.818	3153.93
955.122	3096.53
955.426	3110.54
955.731	3109.64
956.035	3081.61
956.339	3094.49
956.643	3059.02
956.948	3058.34
957.252	3035.97
957.556	3033.71
957.86	2988.06
958.163	3011.79
958.467	3018.34
958.771	2962.52
959.075	2961.84
959.378	2960.26
959.682	2924.33
959.985	2930.21
960.289	2884.33
960.592	2865.35
960.896	2865.35
961.199	2890.21
961.502	2862.64
961.805	2822.41
962.108	2825.12
962.411	2799.81
962.714	2760.94
963.017	2781.06
963.32	2793.49
963.623	2767.05
963.926	2773.83
964.228	2745.13
964.531	2718.69
964.833	2716.43
965.136	2700.83
965.438	2690.66
965.741	2679.36
966.043	2670.33
966.345	2677.1
966.648	2670.55
966.95	2631.23
967.252	2616.54
967.554	2622.42
967.856	2612.7
968.158	2593.27
968.46	2577.9
968.761	2612.7
969.063	2563.44
969.365	2565.7
969.666	2535.64
969.968	2534.06
970.269	2520.27
970.571	2523.21
970.872	2515.08
971.174	2473.95
971.475	2454.06
971.776	2486.6
972.077	2453.61
972.378	2443.21
972.679	2435.3
972.98	2471.23
973.281	2423.55
973.582	2427.62
973.883	2418.81
974.183	2410.9
974.484	2413.38
974.785	2382.88
975.085	2358.02
975.386	2366.38
975.686	2371.8
975.986	2309.88
976.287	2334.06
976.587	2311.24
976.887	2331.8
977.187	2305.59
977.487	2313.5
977.787	2275.76
978.087	2270.56
978.387	2264.23
978.687	2271.47
978.987	2252.03
979.286	2229.21
979.586	2225.82
979.885	2250
980.185	2185.14
980.484	2208.19
980.784	2180.17
981.083	2205.25
981.382	2164.12
981.682	2183.33
981.981	2110.57
982.28	2104.46
982.579	2170
982.878	2148.76
983.177	2101.07
983.475	2088.19
983.774	2098.36
984.073	2082.54
984.372	2080.28
984.67	2076.89
984.969	2062.66
985.267	2038.48
985.566	2057.69
985.864	2052.94
986.162	2018.37
986.461	2001.87
986.759	1998.25
987.057	2011.59
987.355	1989.67
987.653	1992.38
987.951	1964.36
988.249	1957.35
988.547	1953.96
988.844	1971.81
989.142	1948.08
989.44	1949.89
989.737	1891.14
990.035	1906.28
990.332	1890.68
990.63	1932.49
990.927	1875.32
991.224	1863.11
991.521	1866.96
991.819	1874.41
992.116	1849.56
992.413	1863.57
992.71	1863.57
993.006	1833.74
993.303	1808.2
993.6	1833.06
993.897	1822.66
994.193	1799.16
994.49	1818.82
994.787	1774.08
995.083	1758.94
995.379	1734.3
995.676	1730.69
995.972	1756.23
996.268	1732.95
996.565	1731.59
996.861	1706.51
997.157	1731.59
997.453	1696.34
997.749	1699.28
998.044	1677.58
998.34	1720.97
998.636	1675.32
998.932	1685.94
999.227	1642.33
999.523	1668.09
999.818	1645.27
1000.114	1609.11
1000.409	1624.48
1000.704	1611.14
1001	1596
1001.295	1576.57
1001.59	1608.88
1001.885	1587.19
1002.18	1570.02
1002.475	1580.86
1002.77	1564.14
1003.065	1530.69
1003.359	1535.21
1003.654	1537.02
1003.949	1542.45
1004.243	1501.32
1004.538	1508.77
1004.832	1517.81
1005.127	1508.1
1005.421	1495.21
1005.715	1491.37
1006.009	1492.73
1006.304	1503.58
1006.598	1460.41
1006.892	1459.96
1007.186	1435.1
1007.48	1431.26
1007.773	1439.4
1008.067	1412.73
1008.361	1431.49
1008.655	1390.36
1008.948	1423.58
1009.242	1367.53
1009.535	1377.48
1009.829	1384.26
1010.122	1372.05
1010.415	1361.66
1010.708	1375.22
1011.001	1363.24
1011.295	1346.07
1011.588	1320.98
1011.881	1329.57
1012.173	1327.99
1012.466	1332.73
1012.759	1300.87
1013.052	1303.13
1013.344	1311.72
1013.637	1307.2
1013.93	1286.41
1014.222	1274.66
1014.514	1263.81
1014.807	1299.97
1015.099	1262.9
1015.391	1262.23
1015.683	1257.03
1015.976	1229.46
1016.268	1233.75
1016.56	1208.89
1016.851	1204.83
1017.143	1209.8
1017.435	1208.22
1017.727	1194.21
1018.018	1191.27
1018.31	1219.52
1018.602	1184.04
1018.893	1181.78
1019.185	1142.68
1019.476	1155.11
1019.767	1172.06
1020.058	1138.39
1020.35	1113.98
1020.641	1107.2
1020.932	1113.08
1021.223	1092.74
1021.514	1116.24
1021.804	1112.85
1022.095	1065.17
1022.386	1086.86
1022.677	1088.22
1022.967	1089.35
1023.258	1053.19
1023.548	1038.5
1023.839	1057.26
1024.129	1055
1024.419	1055.68
1024.709	1049.35
1025	1009.8
1025.29	1038.96
1025.58	1005.51
1025.87	1028.56
1026.16	991.73
1026.449	1006.64
1026.739	963.03
1027.029	970.48
1027.319	1009.13
1027.608	975.23
1027.898	978.84
1028.187	974.1
1028.477	952.63
1028.766	963.03
1029.055	952.4
1029.344	923.48
1029.634	928
1029.923	962.12
1030.212	941.33
1030.501	920.54
1030.79	897.04
1031.078	903.59
1031.367	899.3
1031.656	896.13
1031.945	910.15
1032.233	869.24
1032.522	878.73
1032.81	870.6
1033.099	882.58
1033.387	857.72
1033.675	864.72
1033.963	843.71
1034.251	845.29
1034.54	855.68
1034.828	850.94
1035.116	847.32
1035.403	842.8
1035.691	842.12
1035.979	815.91
1036.267	827.21
1036.554	808.68
1036.842	803.71
1037.129	808.45
1037.417	820.88
1037.704	795.35
1037.992	811.62
1038.279	790.15
1038.566	770.26
1038.853	770.26
1039.14	770.26
