Data from white_steel_sheet_FLMS001491_024.txt Node
Date: Tue Feb 07 10:57:36 GMT 2017
User: dcchb
Spectrometer: FLMS00149
Trigger mode: 0
Integration Time (sec): 2.000000E-2
Scans to average: 10
Electric dark correction enabled: true
Nonlinearity correction enabled: false
Boxcar width: 0
XAxis mode: Wavelengths
Number of Pixels in Spectrum: 2048
>>>>>Begin Spectral Data<<<<<
341.393	-1.13
341.776	-1.13
342.16	-1.13
342.543	-84.52
342.927	-43.16
343.31	-68.02
343.693	-70.51
344.077	-79.32
344.46	-36.16
344.843	-57.17
345.226	-56.27
345.61	-29.38
345.993	-7.46
346.376	-10.4
346.759	6.55
347.142	22.37
347.525	27.12
347.908	58.98
348.291	87.68
348.674	95.82
349.057	116.16
349.44	143.5
349.823	129.26
350.206	171.07
350.588	199.77
350.971	203.61
351.354	216.04
351.737	263.5
352.119	261.24
352.502	272.99
352.884	275.47
353.267	277.73
353.65	296.94
354.032	296.49
354.414	300.56
354.797	322.03
355.179	333.32
355.562	326.77
355.944	332.19
356.326	332.19
356.709	332.87
357.091	360.67
357.473	362.25
357.855	351.4
358.238	333.55
358.62	373.1
359.002	365.41
359.384	351.4
359.766	334.68
360.148	336.71
360.53	346.43
360.912	340.33
361.294	345.08
361.676	337.84
362.057	346.21
362.439	338.75
362.821	341.46
363.203	334.68
363.584	355.02
363.966	334
364.348	321.12
364.729	339.65
365.111	330.16
365.493	330.84
365.874	330.16
366.256	347.11
366.637	332.19
367.019	351.18
367.4	315.02
367.781	334.23
368.163	300.56
368.544	333.78
368.925	323.16
369.306	316.6
369.688	325.64
370.069	327.22
370.45	321.8
370.831	336.26
371.212	315.02
371.593	330.16
371.974	339.43
372.355	329.71
372.736	329.48
373.117	336.26
373.498	330.61
373.879	325.19
374.26	346.66
374.641	322.48
375.021	331.29
375.402	340.56
375.783	348.47
376.163	329.71
376.544	318.18
376.925	356.83
377.305	351.4
377.686	331.52
378.066	339.43
378.447	353.89
378.827	363.61
379.208	339.65
379.588	352.08
379.968	338.3
380.349	361.12
380.729	361.35
381.109	388.46
381.489	350.27
381.87	349.82
382.25	384.85
382.63	392.31
383.01	387.79
383.39	379.43
383.77	372.65
384.15	384.85
384.53	374.91
384.91	377.17
385.29	383.94
385.67	370.16
386.049	402.48
386.429	375.81
386.809	394.34
387.189	401.8
387.568	406.09
387.948	396.83
388.328	404.51
388.707	403.83
389.087	402.02
389.466	409.93
389.846	418.07
390.225	415.58
390.605	421.68
390.984	419.88
391.363	444.73
391.743	441.12
392.122	443.6
392.501	420.55
392.881	459.65
393.26	417.16
393.639	453.77
394.018	466.2
394.397	434.79
394.776	470.5
395.155	488.35
395.534	473.43
395.913	494.45
396.292	498.74
396.671	493.55
397.05	513.88
397.429	503.72
397.808	514.34
398.186	521.34
398.565	533.32
398.944	531.06
399.323	512.08
399.701	536.26
400.08	557.73
400.458	534
400.837	557.5
401.215	556.82
401.594	564.28
401.972	573.32
402.351	598.18
402.729	607.44
403.107	606.99
403.486	614.22
403.864	621.68
404.242	640.89
404.62	637.72
404.999	635.24
405.377	660.77
405.755	681.11
406.133	674.78
406.511	665.97
406.889	677.27
407.267	724.05
407.645	732.86
408.023	752.3
408.401	723.6
408.779	756.82
409.156	765.63
409.534	766.53
409.912	771.96
410.29	787.78
410.667	818.74
411.045	817.83
411.422	821.9
411.8	819.64
412.178	868
412.555	872.29
412.933	893.08
413.31	895.8
413.687	897.6
414.065	894.44
414.442	918.62
414.819	924.95
415.197	940.77
415.574	984.83
415.951	965.4
416.328	977.6
416.705	975.34
417.082	988.45
417.46	1026.64
417.837	1009.69
418.214	1031.16
418.591	1039.97
418.967	1030.71
419.344	1064.15
419.721	1083.14
420.098	1038.62
420.475	1074.32
420.852	1091.72
421.228	1098.5
421.605	1107.54
421.982	1149.8
422.358	1134.89
422.735	1173.08
423.111	1164.04
423.488	1198.84
423.864	1199.29
424.241	1183.92
424.617	1209.69
424.994	1229.35
425.37	1265.5
425.746	1250.36
426.123	1259.63
426.499	1272.51
426.875	1253.53
427.251	1310.02
427.627	1351.38
428.003	1334.43
428.379	1345.73
428.756	1396.35
429.132	1398.83
429.507	1414.88
429.883	1446.06
430.259	1459.62
430.635	1458.27
431.011	1458.94
431.387	1489.45
431.763	1543.24
432.138	1521.77
432.514	1566.06
432.89	1609.45
433.265	1609.68
433.641	1612.39
434.016	1660.52
434.392	1668.2
434.767	1701.42
435.143	1688.54
435.518	1735.77
435.894	1726.73
436.269	1768.99
436.644	1796.11
437.02	1816.68
437.395	1815.77
437.77	1816.45
438.145	1853.06
438.52	1877.24
438.895	1904.58
439.271	1917.46
439.646	1940.74
440.021	1961.53
440.395	1971.02
440.77	1943.23
441.145	1987.97
441.52	2025.03
441.895	2064.35
442.27	2049.66
442.645	2071.13
443.019	2092.15
443.394	2088.08
443.769	2124.46
444.143	2095.31
444.518	2147.74
444.892	2151.13
445.267	2154.52
445.641	2193.61
446.016	2181.64
446.39	2218.02
446.764	2248.08
447.139	2255.31
447.513	2310.22
447.887	2263.22
448.262	2279.26
448.636	2311.58
449.01	2322.42
449.384	2361.29
449.758	2410.11
450.132	2415.3
450.506	2420.95
450.88	2433.38
451.254	2443.55
451.628	2492.59
452.002	2532.36
452.376	2554.06
452.75	2528.75
453.123	2605.13
453.497	2618.24
453.871	2599.03
454.244	2695.3
454.618	2703.43
454.992	2707.05
455.365	2789.08
455.739	2842.41
456.112	2819.13
456.486	2834.73
456.859	2866.37
457.232	2948.62
457.606	2922.18
457.979	2992.46
458.352	3051.9
458.725	3056.19
459.099	3109.75
459.472	3176.64
459.845	3209.18
460.218	3208.05
460.591	3244.43
460.964	3277.65
461.337	3326.92
461.71	3376.63
462.083	3410.31
462.456	3448.72
462.829	3458.67
463.201	3486.01
463.574	3511.09
463.947	3580.7
464.32	3647.81
464.692	3685.78
465.065	3741.82
465.438	3772.78
465.81	3811.2
466.183	3866.11
466.555	3922.83
466.928	4005.09
467.3	3973.91
467.672	3997.18
468.045	4099.1
468.417	4125.32
468.789	4158.99
469.161	4230.17
469.534	4263.39
469.906	4425.42
470.278	4395.14
470.65	4467.45
471.022	4528.92
471.394	4611.63
471.766	4646.21
472.138	4701.35
472.51	4788.57
472.882	4848.46
473.253	4931.17
473.625	5003.48
473.997	5086.65
474.369	5111.73
474.74	5147.44
475.112	5278.05
475.484	5359.18
475.855	5458.16
476.227	5546.52
476.598	5662.22
476.97	5673.07
477.341	5870.58
477.713	5934.99
478.084	5969.79
478.455	6154.41
478.827	6128.43
479.198	6271.02
479.569	6347.86
479.94	6524.8
480.311	6588.53
480.682	6742.2
481.053	6874.62
481.424	6950.1
481.795	7065.35
482.166	7179.02
482.537	7201.39
482.908	7344.21
483.279	7455.85
483.65	7581.5
484.021	7758.21
484.391	7868.27
484.762	7967.02
485.133	7996.85
485.503	8147.58
485.874	8315.04
486.244	8382.83
486.615	8462.15
486.985	8644.74
487.356	8792.31
487.726	8861.69
488.097	9063.72
488.467	9092.42
488.837	9312.98
489.207	9397.27
489.578	9541.9
489.948	9651.27
490.318	9740.99
490.688	9816.24
491.058	9978.49
491.428	10086.29
491.798	10228.88
492.168	10369.44
492.538	10430.69
492.908	10552.94
493.278	10685.82
493.648	10756.78
494.017	10924.91
494.387	10968.3
494.757	11037.9
495.126	11158.8
495.496	11284.22
495.866	11465.01
496.235	11592.92
496.605	11590.66
496.974	11719.24
497.344	11795.4
497.713	11867.94
498.082	11955.62
498.452	12081.26
498.821	12101.83
499.19	12253.69
499.559	12354.48
499.928	12413.23
500.298	12552.89
500.667	12641.48
501.036	12671.31
501.405	12740.46
501.774	12755.14
502.143	12916.72
502.512	12941.13
502.88	13103.84
503.249	13088.24
503.618	13238.97
503.987	13341.12
504.356	13372.08
504.724	13552.64
505.093	13584.95
505.462	13695.46
505.83	13764.38
506.199	13887.54
506.567	14019.29
506.936	14011.61
507.304	14240.3
507.672	14338.83
508.041	14383.35
508.409	14506.74
508.777	14622.89
509.145	14771.59
509.514	14758.48
509.882	14856.78
510.25	14980.4
510.618	15126.38
510.986	15193.05
511.354	15351.69
511.722	15446.37
512.09	15550.33
512.458	15639.36
512.826	15677.33
513.193	15872.8
513.561	15975.4
513.929	16058.11
514.297	16196.41
514.664	16368.61
515.032	16487.25
515.4	16545.33
515.767	16662.16
516.135	16726.57
516.502	16755.04
516.869	17007.24
517.237	17178.76
517.604	17063.96
517.972	17287.91
518.339	17482.03
518.706	17524.96
519.073	17561.57
519.44	17778.29
519.808	17884.73
520.175	17974.89
520.542	18239.29
520.909	18280.2
521.276	18321.1
521.643	18555.22
522.009	18752.28
522.376	18931.93
522.743	19034.08
523.11	19224.13
523.477	19418.7
523.843	19443.33
524.21	19752.02
524.577	19903.66
524.943	19955.86
525.31	20067.04
525.676	20327.38
526.043	20443.76
526.409	20538.67
526.776	20803.07
527.142	20856.63
527.508	20994.48
527.874	21148.37
528.241	21229.5
528.607	21350.4
528.973	21622.03
529.339	21454.8
529.705	21830.84
530.071	21947.22
530.437	22034
530.803	22179.53
531.169	22415.68
531.535	22269.24
531.901	22539.29
532.267	22598.28
532.632	22680.08
532.998	22797.14
533.364	23043.01
533.73	22957.81
534.095	23271.03
534.461	23371.36
534.826	23422.43
535.192	23608.64
535.557	23762.31
535.923	23747.17
536.288	23758.92
536.653	23977.9
537.019	23984.91
537.384	24075.07
537.749	24231.68
538.114	24273.49
538.479	24381.96
538.845	24479.13
539.21	24456.98
539.575	24574.95
539.94	24689.97
540.305	24919.57
540.67	24803.87
541.034	24914.83
541.399	25084.54
541.764	25212.22
542.129	25420.12
542.494	25448.14
542.858	25451.08
543.223	25491.31
543.587	25796.38
543.952	25598.65
544.316	25722.49
544.681	25875.48
545.045	26080.67
545.41	26150.05
545.774	26169.03
546.138	26169.48
546.503	26318.4
546.867	26366.54
547.231	26503.26
547.595	26549.81
547.959	26612.86
548.324	26626.42
548.688	26876.36
549.052	26931.04
549.416	26942.12
549.779	27074.77
550.143	27133.3
550.507	27250.13
550.871	27413.29
551.235	27418.71
551.599	27615.77
551.962	27641.53
552.326	27682.21
552.689	27924.24
553.053	27746.39
553.417	27865.48
553.78	28339.82
554.143	28189.32
554.507	28245.36
554.87	28457.56
555.234	28701.84
555.597	28539.81
555.96	28726.48
556.323	28826.59
556.686	29019.12
557.05	29153.13
557.413	29152.45
557.776	29298.21
558.139	29550.18
558.502	29560.58
558.865	29605.55
559.228	29840.35
559.59	29977.06
559.953	29952.66
560.316	30297.51
560.679	30333.44
561.041	30503.15
561.404	30640.32
561.767	30852.3
562.129	30790.15
562.492	31045.29
562.854	31075.57
563.217	31161.21
563.579	31185.85
563.941	31515.1
564.304	31577.93
564.666	31804.59
565.028	31809.79
565.39	31895.66
565.753	32207.74
566.115	32115.09
566.477	32300.17
566.839	32520.27
567.201	32660.84
567.563	32676.88
567.925	32886.82
568.287	32964.78
568.648	32995.52
569.01	33117.77
569.372	33296.07
569.734	33402.06
570.095	33585.11
570.457	33587.37
570.819	33691.32
571.18	33675.05
571.542	34007.24
571.903	33895.38
572.265	34238.65
572.626	34251.75
572.987	34318.19
573.349	34381.92
573.71	34475.03
574.071	34592.31
574.432	34778.75
574.794	34882.02
575.155	34813.77
575.516	34824.62
575.877	34870.95
576.238	34965.18
576.599	34958.63
576.96	35049.02
577.32	35093.77
577.681	35286.08
578.042	35369.01
578.403	35224.61
578.763	35372.63
579.124	35449.01
579.485	35420.99
579.845	35747.08
580.206	35510.03
580.566	35509.57
580.927	35658.95
581.287	35787.99
581.648	35627.54
582.008	35917.02
582.368	35684.49
582.728	35847.87
583.089	35776.23
583.449	35877.25
583.809	35869.57
584.169	35994.53
584.529	35861.43
584.889	35973.29
585.249	35797.7
585.609	35757.93
585.969	36027.53
586.329	35865.05
586.688	35893.97
587.048	35861.66
587.408	35790.47
587.768	35854.65
588.127	35839.51
588.487	35769.45
588.846	36035.21
589.206	35728.33
589.565	35749.12
589.925	36072.27
590.284	35921.32
590.643	36030.01
591.003	36031.82
591.362	36070.69
591.721	36046.06
592.08	35978.26
592.44	36054.19
592.799	36133.06
593.158	35966.29
593.517	35867.53
593.876	36029.79
594.235	35862.56
594.593	36033.4
594.952	36024.82
595.311	35993.63
595.67	36013.97
596.029	36088.99
596.387	36381.64
596.746	36240.18
597.104	36129.22
597.463	36050.58
597.822	36168.54
598.18	36029.34
598.538	36134.87
598.897	36372.15
599.255	35959.05
599.613	36311.59
599.972	36242.44
600.33	36418.7
600.688	36167.41
601.046	36242.44
601.404	36449.66
601.762	36357.69
602.12	36577.8
602.478	36475.88
602.836	36450.57
603.194	36380.96
603.552	36438.36
603.91	36172.16
604.268	36417.8
604.625	36171.03
604.983	36420.29
605.341	36238.37
605.698	36508.19
606.056	36485.82
606.413	36433.17
606.771	36696.21
607.128	36663.67
607.485	36480.4
607.843	36599.26
608.2	36645.82
608.557	36740.73
608.914	36614.63
609.272	36817.79
609.629	36821.63
609.986	36937.79
610.343	36966.26
610.7	37017.11
611.057	36995.41
611.414	36886.26
611.771	37055.3
612.127	37131.91
612.484	37107.05
612.841	37279.47
613.198	37185.01
613.554	37176.88
613.911	37389.3
614.267	37264.56
614.624	37274.05
614.98	37374.61
615.337	37656.64
615.693	37480.37
616.05	37464.1
616.406	37771.21
616.762	37666.81
617.118	37500.26
617.475	37519.01
617.831	37730.99
618.187	37648.95
618.543	37757.88
618.899	37876.29
619.255	37850.3
619.611	37901.15
619.967	37961.49
620.323	37997.42
620.678	37930.3
621.034	37932.79
621.39	37850.98
621.746	37909.51
622.101	38212.78
622.457	37801.04
622.812	38009.62
623.168	38091.88
623.523	38104.08
623.879	38130.07
624.234	37940.02
624.589	37949.51
624.945	37984.54
625.3	38206.45
625.655	38066.8
626.01	38159.9
626.365	38127.13
626.72	37967.59
627.075	38022.28
627.43	37959.68
627.785	37838.78
628.14	37958.1
628.495	38150.18
628.85	37853.69
629.205	37793.81
629.559	38006.23
629.914	37710.42
630.269	37886.24
630.623	37849.63
630.978	37666.13
631.332	37872.22
631.687	37859.57
632.041	37665.9
632.396	37832.68
632.75	37593.59
633.104	37619.58
633.459	37482.18
633.813	37571.89
634.167	37462.74
634.521	37519.24
634.875	37513.36
635.229	37332.13
635.583	37298
635.937	37344.55
636.291	37176.2
636.645	37180.04
636.999	37081.74
637.352	37127.84
637.706	36921.52
638.06	37099.82
638.413	36971.91
638.767	36798.58
639.121	36939.59
639.474	36747.06
639.828	36757.68
640.181	36697.57
640.534	36768.52
640.888	36570.56
641.241	36431.36
641.594	36519.72
641.947	36557.23
642.301	36403.11
642.654	36439.49
643.007	36551.36
643.36	36307.97
643.713	36391.59
644.066	36418.03
644.419	36196.56
644.771	36074.76
645.124	35591.83
645.477	35542.12
645.83	35419.18
646.182	35147.55
646.535	35087.44
646.888	35190.71
647.24	34964.73
647.593	35169.02
647.945	35103.03
648.298	34929.03
648.65	34890.38
649.002	34752.08
649.355	34834.56
649.707	34844.96
650.059	34925.86
650.411	35367.88
650.763	35467.54
651.115	35766.52
651.467	35551.61
651.819	35572.4
652.171	35456.92
652.523	35411.95
652.875	35428.67
653.227	35296.7
653.578	35456.92
653.93	35480.2
654.282	35308.9
654.633	35174.44
654.985	35208.34
655.337	35201.56
655.688	35218.51
656.039	35215.35
656.391	34963.83
656.742	35056.48
657.094	34910.72
657.445	35233.2
657.796	35138.29
658.147	35088.79
658.498	35046.54
658.849	34925.64
659.2	34847.22
659.551	34794.11
659.902	34918.86
660.253	34737.17
660.604	34835.69
660.955	34625.3
661.306	34764.96
661.656	34633.67
662.007	34644.96
662.358	34465.08
662.708	34612.65
663.059	34378.53
663.409	34161.14
663.76	34498.3
664.11	34476.83
664.461	34405.65
664.811	34318.65
665.161	34221.93
665.511	34000.46
665.862	34106.67
666.212	34192.1
666.562	34096.05
666.912	34035.49
667.262	33819
667.612	33804.31
667.962	33768.83
668.312	33597.76
668.662	33776.06
669.011	33621.49
669.361	33473.92
669.711	33414.04
670.06	33412.68
670.41	33126.13
670.76	33199.81
671.109	33165
671.459	33039.58
671.808	32988.29
672.157	33029.64
672.507	32771.79
672.856	32744
673.205	32725.69
673.554	32816.31
673.904	32608.41
674.253	32743.77
674.602	32455.87
674.951	32125.93
675.3	31929.33
675.649	32283.44
675.998	32387.62
676.346	32402.54
676.695	32527.05
677.044	32226.5
677.393	32289.32
677.741	32338.58
678.09	32181.07
678.438	32024.92
678.787	32235.54
679.135	32199.15
679.484	31906.96
679.832	32208.19
680.181	31976.79
680.529	31968.65
680.877	31919.39
681.225	31965.49
681.573	32272.15
681.922	31945.83
682.27	31923.45
682.618	32018.37
682.966	31880.29
683.314	32054.07
683.661	31951.25
684.009	31851.82
684.357	31915.55
684.705	32012.04
685.053	31889.11
685.4	31887.07
685.748	31731.82
686.095	31821.08
686.443	31701.77
686.79	31812.5
687.138	31850.46
687.485	31756.23
687.832	31667.87
688.18	31762.1
688.527	31824.25
688.874	31711.71
689.221	31636.91
689.568	31620.64
689.915	31605.5
690.262	31720.52
690.609	31420.64
690.956	31482.56
691.303	31546.52
691.65	31365.5
691.997	31428.55
692.344	31189.01
692.69	31203.93
693.037	31257.94
693.383	31131.38
693.73	31261.32
694.077	31106.07
694.423	31025.85
694.769	30915.35
695.116	30946.76
695.462	30984.04
695.808	30919.19
696.155	30881.67
696.501	30731.4
696.847	30848.91
697.193	30560.78
697.539	30779.3
697.885	30438.97
698.231	30444.62
698.577	30429.93
698.923	30421.8
699.269	30192.65
699.614	30054.58
699.96	30184.97
700.306	30078.53
700.651	29888.25
700.997	29799.22
701.342	29786.79
701.688	29786.34
702.033	29650.97
702.379	29558.32
702.724	29525.33
703.069	29610.29
703.415	29369.85
703.76	29355.16
704.105	29323.52
704.45	29270.42
704.795	29068.16
705.14	29014.83
705.485	29051.89
705.83	28908.62
706.175	29035.17
706.52	28784.33
706.865	28788.62
707.209	28756.98
707.554	28639.25
707.899	28633.6
708.243	28481.96
708.588	28423.43
708.932	28228.64
709.277	28177.56
709.621	28271.35
709.966	28215.53
710.31	28253.49
710.654	27881.75
710.998	28048.08
711.342	27872.49
711.687	27884.24
712.031	27711.36
712.375	27691.48
712.719	27788.2
713.063	27634.3
713.407	27534.64
713.75	27576.22
714.094	27604.7
714.438	27443.12
714.782	27348.21
715.125	27230.47
715.469	27408.54
715.812	27116.8
716.156	27108.21
716.499	27058.27
716.843	27105.95
717.186	26912.51
717.53	27067.76
717.873	26948.44
718.216	26916.81
718.559	26857.37
718.902	26684.04
719.246	26769.24
719.589	26653.76
719.932	26604.27
720.275	26514.33
720.617	26414.9
720.96	26483.37
721.303	26486.99
721.646	26481.79
721.989	26320.89
722.331	26320.44
722.674	26310.72
723.016	26172.65
723.359	26220.78
723.701	26246.77
724.044	26021.46
724.386	26034.57
724.729	25992.08
725.071	25946.44
725.413	25915.02
725.755	25905.53
726.097	25699.44
726.439	25758.87
726.782	25677.29
727.124	25817.85
727.465	25707.57
727.807	25632.32
728.149	25452.21
728.491	25555.26
728.833	25531.31
729.175	25378.77
729.516	25321.14
729.858	25227.59
730.199	25318.88
730.541	25239.11
730.882	25312.55
731.224	25339.67
731.565	25203.63
731.906	25039.34
732.248	25190.07
732.589	25014.03
732.93	24965.45
733.271	24950.08
733.612	24930.19
733.953	24983.07
734.294	24839.57
734.635	24803.42
734.976	24791.44
735.317	24689.75
735.658	24634.83
735.999	24640.26
736.339	24628.28
736.68	24611.56
737.021	24579.69
737.361	24383.09
737.702	24531.56
738.042	24405.01
738.383	24335.63
738.723	24370.88
739.063	24232.36
739.404	24326.37
739.744	24316.65
740.084	24259.93
740.424	24271.68
740.764	24188.74
741.104	24230.1
741.444	24070.78
741.784	24052.02
742.124	24028.52
742.464	23934.74
742.804	23859.49
743.143	23892.25
743.483	23833.72
743.823	23804.12
744.162	23729.77
744.502	23835.31
744.841	23619.94
745.181	23792.37
745.52	23650.23
745.86	23645.48
746.199	23563
746.538	23511.7
746.877	23615.42
747.216	23605.26
747.556	23416.33
747.895	23488.65
748.234	23372.04
748.573	23376.56
748.911	23283.68
749.25	23294.53
749.589	23073.29
749.928	23055.66
750.267	23173.63
750.605	23075.78
750.944	23162.1
751.283	22952.39
751.621	23049.56
751.96	22840.3
752.298	22925.72
752.636	22819.06
752.975	22709.23
753.313	22617.48
753.651	22684.38
753.989	22503.14
754.327	22547.43
754.666	22395.12
755.004	22423.37
755.342	22433.99
755.679	22341.11
756.017	22192.86
756.355	22286.65
756.693	22082.81
757.031	22029.7
757.368	21971.63
757.706	21919.65
758.044	21902.02
758.381	21906.54
758.719	21785.42
759.056	21815.92
759.394	21706.1
759.731	21529.38
760.068	21561.01
760.405	21439.44
760.743	21385.2
761.08	21415.03
761.417	21242.38
761.754	21223.85
762.091	21188.6
762.428	21145.43
762.765	20975.27
763.102	21085.32
763.438	20879.9
763.775	20778.66
764.112	20792.9
764.449	20857.76
764.785	20653.47
765.122	20517.43
765.458	20520.82
765.795	20432.46
766.131	20395.4
766.467	20371.67
766.804	20189.53
767.14	20197.21
767.476	20202.41
767.812	20076.31
768.148	20106.14
768.485	19895.52
768.821	19829.54
769.157	19807.84
769.492	19794.28
769.828	19732.59
770.164	19585.47
770.5	19606.49
770.836	19555.87
771.171	19404.24
771.507	19351.81
771.842	19251.47
772.178	19247.4
772.513	19270.23
772.849	19017.58
773.184	18985.72
773.519	18940.07
773.855	18972.16
774.19	18800.64
774.525	18806.51
774.86	18670.92
775.195	18672.28
775.53	18654.65
775.865	18561.77
776.2	18388.22
776.535	18230.03
776.87	18257.6
777.205	18140.31
777.539	18120.2
777.874	18146.19
778.209	17926.31
778.543	18021.67
778.878	17765.18
779.212	17917.04
779.547	17736.93
779.881	17756.6
780.215	17655.81
780.55	17609.48
780.884	17513.44
781.218	17478.64
781.552	17466.89
781.886	17404.06
782.22	17272.99
782.554	17211.75
782.888	17076.16
783.222	16951.64
783.556	16917.3
783.889	16908.71
784.223	16809.95
784.557	16686.79
784.89	16718.2
785.224	16670.97
785.557	16500.13
785.891	16529.28
786.224	16510.3
786.558	16539.9
786.891	16290.65
787.224	16293.81
787.557	16279.35
787.891	16175.39
788.224	16186.24
788.557	16148.28
788.89	16093.81
789.223	16143.3
789.556	15995.51
789.888	15915.29
790.221	15810.43
790.554	15775.86
790.887	15716.87
791.219	15638.68
791.552	15668.97
791.884	15478.46
792.217	15443.89
792.549	15409.54
792.882	15286.38
793.214	15280.95
793.546	15298.35
793.879	15113.27
794.211	15100.62
794.543	15122.31
794.875	15106.72
795.207	15072.15
795.539	15045.03
795.871	14921.64
796.203	14825.15
796.535	14783.34
796.867	14790.12
797.198	14756.22
797.53	14733.4
797.862	14625.15
798.193	14636
798.525	14500.86
798.856	14603.23
799.188	14354.65
799.519	14265.84
799.85	14264.48
800.182	14259.06
800.513	14325.73
800.844	14113.98
801.175	14161.89
801.506	14183.58
801.837	14070.36
802.168	14010.25
802.499	14017.26
802.83	13949.01
803.161	13914.89
803.491	13885.51
803.822	13956.24
804.153	13718.96
804.483	13652.3
804.814	13599.87
805.145	13612.3
805.475	13650.26
805.805	13522.13
806.136	13536.14
806.466	13562.81
806.796	13456.82
807.126	13403.72
807.457	13350.38
807.787	13345.86
808.117	13285.07
808.447	13200.56
808.777	13274
809.107	13198.52
809.436	13128.47
809.766	13045.08
810.096	13044.4
810.426	13025.65
810.755	13015.03
811.085	12978.64
811.414	12941.81
811.744	12890.96
812.073	12764.64
812.403	12890.96
812.732	12733
813.061	12818.19
813.39	12689.61
813.719	12623.17
814.049	12724.41
814.378	12695.26
814.707	12654.13
815.036	12522.83
815.365	12574.81
815.693	12441.48
816.022	12433.12
816.351	12358.32
816.68	12350.64
817.008	12361.93
817.337	12247.36
817.665	12273.8
817.994	12255.72
818.322	12337.53
818.651	12143.18
818.979	12144.09
819.307	12247.59
819.636	12086.24
819.964	12025.67
820.292	12127.36
820.62	12018.89
820.948	11996.07
821.276	12041.04
821.604	11997.65
821.932	12046.91
822.259	11997.42
822.587	12034.71
822.915	11952
823.243	12014.83
823.57	11921.49
823.898	11973.02
824.225	11895.96
824.553	12031.1
824.88	11937.31
825.207	11955.39
825.535	11915.39
825.862	12029.51
826.189	11851.44
826.516	11912
826.843	11874.94
827.17	11962.62
827.497	11961.72
827.824	12012.34
828.151	12073.58
828.478	11924.21
828.805	11982.06
829.131	11941.61
829.458	11896.86
829.785	11803.53
830.111	11857.32
830.438	11911.33
830.764	11934.83
831.09	11935.28
831.417	11756.08
831.743	11899.57
832.069	11842.85
832.395	11852.57
832.722	11789.97
833.048	11841.04
833.374	11865.45
833.7	11775.74
834.026	11749.3
834.351	11821.61
834.677	11763.76
835.003	11726.25
835.329	11776.19
835.654	11730.31
835.98	11605.12
836.306	11691.44
836.631	11626.59
836.956	11655.74
837.282	11670.43
837.607	11560.83
837.932	11604.44
838.258	11587.72
838.583	11503.65
838.908	11504.33
839.233	11513.6
839.558	11485.57
839.883	11378.01
840.208	11366.93
840.533	11420.04
840.858	11352.7
841.182	11414.84
841.507	11366.03
841.832	11334.17
842.156	11314.05
842.481	11333.71
842.805	11191.57
843.13	11215.98
843.454	11204.45
843.778	11212.13
844.103	11192.93
844.427	11131.23
844.751	11152.48
845.075	11070.67
845.399	11027.96
845.723	10884.01
846.047	10951.35
846.371	10886.95
846.695	10844.01
847.019	10795.87
847.343	10829.77
847.666	10738.7
847.99	10726.05
848.313	10660.06
848.637	10617.8
848.96	10621.64
849.284	10582.32
849.607	10474.53
849.931	10415.32
850.254	10446.73
850.577	10324.7
850.9	10247.19
851.223	10231.6
851.546	10259.17
851.869	10070.7
852.192	10243.57
852.515	10122.9
852.838	10074.31
853.161	10011.04
853.483	10000.19
853.806	9932.62
854.129	9890.36
854.451	9954.77
854.774	9897.59
855.096	9825.05
855.419	9852.17
855.741	9802
856.063	9725.85
856.385	9654.89
856.708	9719.97
857.03	9620.76
857.352	9636.36
857.674	9654.21
857.996	9594.32
858.318	9455.57
858.64	9508.9
858.961	9515.46
859.283	9515
859.605	9425.06
859.926	9401.79
860.248	9429.58
860.57	9372.63
860.891	9453.54
861.212	9328.57
861.534	9319.3
861.855	9303.94
862.176	9342.81
862.498	9186.65
862.819	9298.06
863.14	9233.88
863.461	9200.44
863.782	9145.75
864.103	9110.04
864.424	9092.19
864.745	9202.7
865.065	9105.52
865.386	9058.74
865.707	9024.62
866.027	9044.51
866.348	9070.27
866.668	8988.92
866.989	8994.34
867.309	8956.6
867.63	8945.75
867.95	8995.7
868.27	8907.56
868.59	8960.67
868.91	8890.61
869.23	8893.1
869.55	8819.88
869.87	8953.44
870.19	8909.6
870.51	8840.22
870.83	8829.15
871.15	8776.27
871.469	8822.59
871.789	8740.56
872.109	8748.24
872.428	8715.7
872.748	8734.23
873.067	8675.48
873.386	8720.45
873.706	8762.26
874.025	8660.56
874.344	8616.04
874.663	8652.65
874.982	8625.76
875.301	8637.74
875.62	8626.21
875.939	8555.03
876.258	8545.31
876.577	8517.52
876.896	8567.01
877.214	8494.47
877.533	8501.47
877.852	8486.56
878.17	8454.92
878.489	8513.67
878.807	8504.18
879.125	8377.63
879.444	8450.63
879.762	8400.23
880.08	8349.61
880.398	8395.03
880.716	8430.96
881.034	8403.85
881.352	8291.76
881.67	8284.75
881.988	8315.26
882.306	8293.57
882.624	8195.72
882.941	8217.41
883.259	8134.25
883.577	8156.4
883.894	8211.99
884.212	8105.78
884.529	8152.33
884.846	8070.3
885.164	8109.39
885.481	8101.48
885.798	8093.8
886.115	7987.13
886.432	7996.85
886.75	7978.1
887.067	7994.37
887.383	7957.3
887.7	7947.81
888.017	7888.15
888.334	7928.61
888.651	7889.28
888.967	7906.68
889.284	7812.68
889.6	7823.52
889.917	7757.76
890.233	7739.23
890.55	7749.4
890.866	7789.63
891.182	7728.16
891.498	7676.18
891.815	7702.62
892.131	7656.3
892.447	7558.45
892.763	7587.6
893.079	7487.03
893.395	7507.83
893.71	7524.77
894.026	7452.01
894.342	7437.32
894.657	7412.23
894.973	7347.15
895.289	7350.99
895.604	7397.09
895.92	7326.81
896.235	7314.84
896.55	7273.26
896.865	7269.19
897.181	7209.98
897.496	7248.62
897.811	7259.24
898.126	7177.44
898.441	7153.26
898.756	7175.18
899.071	7132.47
899.386	7108.74
899.7	6993.49
900.015	6998.46
900.33	6971.12
900.644	6968.4
900.959	6967.73
901.273	6936.77
901.588	6918.69
901.902	6887.95
902.216	6848.63
902.531	6841.18
902.845	6802.08
903.159	6764.12
903.473	6810.67
903.787	6732.25
904.101	6683.21
904.415	6664.91
904.729	6699.03
905.042	6573.84
905.356	6586.49
905.67	6565.25
905.984	6559.15
906.297	6557.34
906.611	6512.82
906.924	6471.02
907.237	6433.96
907.551	6399.15
907.864	6425.59
908.177	6414.75
908.491	6365.03
908.804	6352.6
909.117	6297.69
909.43	6295.2
909.743	6269.21
910.056	6242.1
910.368	6177.69
910.681	6207.97
910.994	6160.74
911.307	6165.49
911.619	6115.32
911.932	6105.15
912.244	6062.89
912.557	6064.02
912.869	5976.11
913.181	5999.16
913.494	5978.6
913.806	5945.61
914.118	5947.41
914.43	5862.22
914.742	5867.64
915.054	5862.22
915.366	5844.59
915.678	5803.92
915.99	5809.56
916.302	5704.93
916.613	5728.89
916.925	5690.7
917.236	5719.62
917.548	5623.13
917.859	5650.02
918.171	5660.87
918.482	5608.89
918.794	5556.01
919.105	5524.37
919.416	5508.78
919.727	5513.3
920.038	5505.84
920.349	5463.81
920.66	5426.98
920.971	5409.35
921.282	5405.28
921.593	5328.9
921.903	5335.23
922.214	5297.94
922.525	5261.78
922.835	5253.87
923.146	5229.69
923.456	5189.47
923.767	5202.12
924.077	5199.64
924.387	5210.71
924.697	5126.19
925.008	5155.57
925.318	5125.06
925.628	5078.28
925.938	5092.3
926.248	5003.03
926.558	5006.65
926.867	5048
927.177	4978.17
927.487	4978.4
927.796	4918.51
928.106	4915.8
928.416	4867.67
928.725	4897.95
929.034	4819.99
929.344	4872.87
929.653	4782.25
929.962	4783.15
930.271	4776.37
930.581	4739.08
930.89	4732.3
931.199	4703.15
931.508	4709.03
931.817	4667.22
932.125	4668.58
932.434	4635.81
932.743	4577.05
933.051	4633.55
933.36	4535.7
933.669	4539.09
933.977	4481.24
934.286	4490.05
934.594	4504.51
934.902	4474.01
935.21	4475.81
935.519	4486.89
935.827	4441.47
936.135	4426.32
936.443	4331.64
936.751	4364.41
937.059	4333.22
937.367	4332.77
937.674	4379.77
937.982	4266.55
938.29	4272.2
938.597	4257.52
938.905	4213
939.213	4200.57
939.52	4191.3
939.827	4192.21
940.135	4161.47
940.442	4128.25
940.749	4114.69
941.056	4139.1
941.363	4103.62
941.67	4100.68
941.977	4080.12
942.284	4027.92
942.591	4030.18
942.898	3997.86
943.205	4002.38
943.511	3955.83
943.818	3939.33
944.125	3919.67
944.431	3929.84
944.738	3928.71
945.044	3917.19
945.35	3887.58
945.657	3833.35
945.963	3858.2
946.269	3874.02
946.575	3820.92
946.881	3816.62
947.187	3775.04
947.493	3734.37
947.799	3728.04
948.105	3714.48
948.41	3669.51
948.716	3706.8
949.022	3690.52
949.327	3628.83
949.633	3651.88
949.938	3609.17
950.244	3661.6
950.549	3590.19
950.854	3618.44
951.16	3596.06
951.465	3539.12
951.77	3513.35
952.075	3483.52
952.38	3497.31
952.685	3489.4
952.99	3468.84
953.294	3423.86
953.599	3446.24
953.904	3453.47
954.209	3430.19
954.513	3443.53
954.818	3395.62
955.122	3381.38
955.426	3357.65
955.731	3319.69
956.035	3340.03
956.339	3280.59
956.643	3300.25
956.948	3253.02
957.252	3273.81
957.556	3263.42
957.86	3241.5
958.163	3266.81
958.467	3235.85
958.771	3219.8
959.075	3192.46
959.378	3158.79
959.682	3165.34
959.985	3167.6
960.289	3127.83
960.592	3114.04
960.896	3097.32
961.199	3068.85
961.502	3090.54
961.805	3051.22
962.108	3059.81
962.411	3059.35
962.714	3027.04
963.017	3031.11
963.32	3049.41
963.623	3013.03
963.926	2998.34
964.228	2940.71
964.531	2942.07
964.833	2959.7
965.136	2931.45
965.438	2912.92
965.741	2902.75
966.043	2869.76
966.345	2933.03
966.648	2897.1
966.95	2840.83
967.252	2846.25
967.554	2815.97
967.856	2824.11
968.158	2805.8
968.46	2786.82
968.761	2772.36
969.063	2771.45
969.365	2774.39
969.666	2765.35
969.968	2724.9
970.269	2743.88
970.571	2711.57
970.872	2705.69
971.174	2714.5
971.475	2673.15
971.776	2697.1
972.077	2660.04
972.378	2630.44
972.679	2626.6
972.98	2628.86
973.281	2607.62
973.582	2596.99
973.883	2596.09
974.183	2571.46
974.484	2571.23
974.785	2533.94
975.085	2578.69
975.386	2536.2
975.686	2516.54
975.986	2501.86
976.287	2517.67
976.587	2435.64
976.887	2477
977.187	2503.44
977.487	2460.73
977.787	2432.03
978.087	2434.74
978.387	2432.93
978.687	2417.34
978.987	2409.2
979.286	2384.57
979.586	2376.43
979.885	2383.44
980.185	2331.01
980.484	2335.98
980.784	2361.07
981.083	2309.54
981.382	2290.79
981.682	2315.42
981.981	2270.9
982.28	2303.44
982.579	2297.34
982.878	2275.65
983.177	2267.06
983.475	2264.35
983.774	2238.36
984.073	2224.8
984.372	2214.86
984.67	2220.51
984.969	2194.07
985.267	2180.51
985.566	2189.55
985.864	2187.97
986.162	2162.88
986.461	2146.38
986.759	2143.9
987.057	2129.89
987.355	2118.14
987.653	2114.52
987.951	2128.76
988.249	2077.23
988.547	2087.4
988.844	2070.45
989.142	2064.13
989.44	2080.62
989.737	2056.67
990.035	2027.07
990.332	2028.2
990.63	2048.53
990.927	2015.99
991.224	1996.11
991.521	2001.76
991.819	1981.87
992.116	1983.9
992.413	1947.75
992.71	1952.49
993.006	1961.3
993.303	1968.99
993.6	1921.76
993.897	1907.07
994.193	1922.66
994.49	1919.72
994.787	1918.37
995.083	1863.45
995.379	1859.39
995.676	1863
995.972	1847.18
996.268	1850.57
996.565	1839.05
996.861	1854.87
997.157	1823.68
997.453	1828.43
997.749	1830.01
998.044	1800.4
998.34	1794.98
998.636	1735.1
998.932	1761.99
999.227	1764.93
999.523	1753.63
999.818	1767.19
1000.114	1750.91
1000.409	1705.72
1000.704	1751.14
1001	1742.55
1001.295	1711.14
1001.59	1707.07
1001.885	1682.89
1002.18	1682.44
1002.475	1655.1
1002.77	1638.6
1003.065	1641.99
1003.359	1659.62
1003.654	1639.96
1003.949	1640.86
1004.243	1670.01
1004.538	1608.32
1004.832	1610.35
1005.127	1608.55
1005.421	1613.52
1005.715	1586.62
1006.009	1570.58
1006.304	1549.56
1006.598	1528.55
1006.892	1540.75
1007.186	1510.69
1007.48	1523.8
1007.773	1524.48
1008.067	1503.92
1008.361	1484.71
1008.655	1497.59
1008.948	1495.55
1009.242	1461.2
1009.535	1472.73
1009.829	1444.48
1010.122	1467.53
1010.415	1443.8
1010.708	1418.72
1011.001	1425.5
1011.295	1435.67
1011.588	1412.39
1011.881	1372.39
1012.173	1386.86
1012.466	1393.41
1012.759	1370.13
1013.052	1413.52
1013.344	1364.94
1013.637	1341.43
1013.93	1371.04
1014.222	1350.02
1014.514	1350.02
1014.807	1317.25
1015.099	1352.05
1015.391	1331.26
1015.683	1315.22
1015.976	1312.06
1016.268	1288.55
1016.56	1272.73
1016.851	1281.32
1017.143	1263.24
1017.435	1246.07
1017.727	1226.18
1018.018	1242
1018.31	1249.46
1018.602	1244.71
1018.893	1231.15
1019.185	1203.58
1019.476	1218.95
1019.767	1213.53
1020.058	1215.56
1020.35	1199.06
1020.641	1211.27
1020.932	1162.91
1021.223	1149.35
1021.514	1153.64
1021.804	1154.55
1022.095	1131.5
1022.386	1136.02
1022.677	1136.02
1022.967	1130.37
1023.258	1119.97
1023.548	1108.22
1023.839	1127.65
1024.129	1124.49
1024.419	1078.84
1024.709	1068.22
1025	1057.6
1025.29	1048.11
1025.58	1072.74
1025.87	1056.24
1026.16	1034.55
1026.449	1018.05
1026.739	1039.07
1027.029	1037.71
1027.319	1057.37
1027.608	1021.89
1027.898	997.26
1028.187	989.13
1028.477	1008.56
1028.766	1008.34
1029.055	994.78
1029.344	1013.98
1029.634	978.28
1029.923	966.08
1030.212	964.95
1030.501	982.12
1030.79	956.81
1031.078	957.49
1031.367	929.24
1031.656	909.81
1031.945	939.64
1032.233	932.86
1032.522	903.93
1032.81	889.02
1033.099	907.55
1033.387	925.17
1033.675	905.29
1033.963	902.12
1034.251	869.81
1034.54	891.73
1034.828	867.55
1035.116	869.36
1035.403	870.26
1035.691	861.45
1035.979	865.74
1036.267	853.99
1036.554	849.92
1036.842	829.13
1037.129	827.77
1037.417	840.43
1037.704	821.67
1037.992	812.63
1038.279	823.26
1038.566	811.28
1038.853	811.28
1039.14	811.28
