Data from white_wall_FLMS001491_067.txt Node
Date: Tue Feb 07 11:05:24 GMT 2017
User: dcchb
Spectrometer: FLMS00149
Trigger mode: 0
Integration Time (sec): 2.000000E-2
Scans to average: 10
Electric dark correction enabled: true
Nonlinearity correction enabled: false
Boxcar width: 0
XAxis mode: Wavelengths
Number of Pixels in Spectrum: 2048
>>>>>Begin Spectral Data<<<<<
341.393	-21.37
341.776	-21.37
342.16	-21.37
342.543	-69.05
342.927	-76.28
343.31	-73.12
343.693	-76.28
344.077	-65.89
344.46	-77.87
344.843	-47.58
345.226	-40.8
345.61	-44.42
345.993	-22.5
346.376	-17.98
346.759	22.7
347.142	37.61
347.525	51.4
347.908	66.76
348.291	87.55
348.674	90.27
349.057	110.15
349.44	115.8
349.823	142.47
350.206	158.74
350.588	226.53
350.971	232.86
351.354	263.59
351.737	245.74
352.119	278.28
352.502	267.44
352.884	295.68
353.267	308.34
353.65	303.37
354.032	317.15
354.414	330.49
354.797	316.47
355.179	340.88
355.562	329.81
355.944	339.52
356.326	348.11
356.709	339.98
357.091	354.21
357.473	361.9
357.855	353.08
358.238	368
358.62	363.48
359.002	368.68
359.384	366.42
359.766	340.2
360.148	371.16
360.53	355.34
360.912	345.4
361.294	364.84
361.676	356.7
362.057	346.76
362.439	344.04
362.821	344.27
363.203	342.01
363.584	350.82
363.966	345.4
364.348	350.15
364.729	330.71
365.111	354.44
365.493	357.6
365.874	343.14
366.256	336.14
366.637	331.39
367.019	339.98
367.4	351.28
367.781	339.52
368.163	340.88
368.544	348.11
368.925	349.47
369.306	333.65
369.688	313.54
370.069	356.93
370.45	347.43
370.831	329.81
371.212	353.99
371.593	316.93
371.974	342.91
372.355	326.42
372.736	351.05
373.117	349.47
373.498	348.79
373.879	335.91
374.26	353.54
374.641	327.77
375.021	335.23
375.402	349.24
375.783	364.84
376.163	344.72
376.544	353.76
376.925	342.01
377.305	375
377.686	362.8
378.066	361.67
378.447	365.29
378.827	363.03
379.208	352.41
379.588	368.45
379.968	365.74
380.349	373.65
380.729	380.43
381.109	378.85
381.489	361.22
381.87	381.56
382.25	386.53
382.63	376.36
383.01	388.79
383.39	391.5
383.77	404.16
384.15	403.48
384.53	421.1
384.91	420.2
385.29	417.72
385.67	406.64
386.049	413.87
386.429	410.48
386.809	415.91
387.189	410.94
387.568	403.7
387.948	419.3
388.328	408.9
388.707	437.83
389.087	460.65
389.466	454.55
389.846	462.46
390.225	434.89
390.605	451.39
390.984	461.56
391.363	487.09
391.743	476.7
392.122	475.11
392.501	485.96
392.881	502.23
393.26	517.15
393.639	511.27
394.018	510.14
394.397	506.07
394.776	526.41
395.155	536.13
395.534	527.99
395.913	543.14
396.292	553.3
396.671	581.78
397.05	582.23
397.429	580.42
397.808	584.72
398.186	612.06
398.565	621.33
398.944	624.04
399.323	639.86
399.701	639.63
400.08	647.54
400.458	673.75
400.837	659.06
401.215	683.02
401.594	704.94
401.972	685.5
402.351	724.15
402.729	717.37
403.107	734.99
403.486	710.14
403.864	757.14
404.242	758.72
404.62	801.21
404.999	809.34
405.377	812.73
405.755	836.91
406.133	839.85
406.511	860.42
406.889	879.62
407.267	890.24
407.645	919.4
408.023	930.7
408.401	938.61
408.779	980.64
409.156	1010.47
409.534	1008.89
409.912	1023.57
410.29	1022.9
410.667	1051.14
411.045	1077.58
411.422	1091.14
411.8	1101.76
412.178	1110.8
412.555	1155.77
412.933	1160.75
413.31	1173.4
413.687	1177.47
414.065	1222.44
414.442	1217.69
414.819	1245.26
415.197	1255.21
415.574	1267.86
415.951	1305.38
416.328	1306.96
416.705	1341.31
417.082	1342.44
417.46	1347.86
417.837	1365.49
418.214	1382.44
418.591	1401.64
418.967	1423.79
419.344	1444.13
419.721	1435.32
420.098	1428.54
420.475	1476.22
420.852	1476.9
421.228	1492.49
421.605	1510.12
421.982	1535.2
422.358	1557.12
422.735	1591.24
423.111	1579.04
423.488	1619.04
423.864	1620.62
424.241	1635.08
424.617	1678.7
424.994	1685.48
425.37	1684.35
425.746	1725.7
426.123	1757.34
426.499	1716.66
426.875	1762.99
427.251	1795.08
427.627	1839.15
428.003	1861.74
428.379	1873.04
428.756	1885.47
429.132	1950.56
429.507	1957.56
429.883	1996.66
430.259	2033.27
430.635	2033.27
431.011	2072.36
431.387	2091.12
431.763	2157.1
432.138	2140.38
432.514	2209.98
432.89	2205.92
433.265	2245.01
433.641	2269.64
434.016	2278.68
434.392	2326.14
434.767	2372.47
435.143	2379.25
435.518	2359.36
435.894	2428.28
436.269	2447.04
436.644	2539.24
437.02	2549.18
437.395	2574.95
437.77	2597.32
438.145	2614.95
438.52	2665.11
438.895	2659.46
439.271	2692.91
439.646	2755.96
440.021	2737.43
440.395	2753.02
440.77	2787.14
441.145	2767.26
441.52	2898.1
441.895	2893.36
442.27	2855.84
442.645	2892.68
443.019	2916.63
443.394	2942.85
443.769	2962.73
444.143	2951.43
444.518	3044.76
444.892	3000.02
445.267	3067.14
445.641	3069.17
446.016	3115.05
446.39	3191.88
446.764	3171.54
447.139	3144.42
447.513	3202.27
447.887	3224.65
448.262	3243.4
448.636	3272.56
449.01	3326.34
449.384	3361.14
449.758	3372.44
450.132	3419.44
450.506	3444.3
450.88	3484.98
451.254	3470.29
451.628	3544.86
452.002	3562.27
452.376	3604.75
452.75	3680
453.123	3679.55
453.497	3754.35
453.871	3764.29
454.244	3832.77
454.618	3898.08
454.992	3918.64
455.365	3940.56
455.739	4009.71
456.112	4069.6
456.486	4110.05
456.859	4148.69
457.232	4226.2
457.606	4217.84
457.979	4326.99
458.352	4439.53
458.725	4441.34
459.099	4476.14
459.472	4549.13
459.845	4592.07
460.218	4684.5
460.591	4749.8
460.964	4703.93
461.337	4848.78
461.71	4927.65
462.083	4969.91
462.456	4985.05
462.829	5015.33
463.201	5119.96
463.574	5137.59
463.947	5211.49
464.32	5351.6
464.692	5423.46
465.065	5411.93
465.438	5510.46
465.81	5610.35
466.183	5690.34
466.555	5768.76
466.928	5835.43
467.3	5808.99
467.672	5905.48
468.045	6070.9
468.417	6086.49
468.789	6177.79
469.161	6253.95
469.534	6344.79
469.906	6468.63
470.278	6564.45
470.65	6618.68
471.022	6788.85
471.394	6936.64
471.766	6970.76
472.138	7033.36
472.51	7227.03
472.882	7292.11
473.253	7357.65
473.625	7548.37
473.997	7619.79
474.369	7697.3
474.74	7909.04
475.112	8031.3
475.484	8121.47
475.855	8235.81
476.227	8308.35
476.598	8584.96
476.97	8654.33
477.341	8899.07
477.713	8981.11
478.084	9073.31
478.455	9304.04
478.827	9346.97
479.198	9578.6
479.569	9763.46
479.94	9967.07
480.311	10075.09
480.682	10309.43
481.053	10612.93
481.424	10704
481.795	10805.01
482.166	11022.86
482.537	11069.19
482.908	11410.19
483.279	11553.69
483.65	11695.16
484.021	11941.71
484.391	12149.61
484.762	12222.6
485.133	12422.15
485.503	12593.44
485.874	12849.48
486.244	12943.26
486.615	13229.81
486.985	13346.64
487.356	13713.86
487.726	13744.82
488.097	14167.64
488.467	14138.48
488.837	14436.56
489.207	14531.02
489.578	14802.87
489.948	14966.94
490.318	15165.58
490.688	15208.96
491.058	15488.73
491.428	15719.46
491.798	15872.9
492.168	16189.73
492.538	16245.55
492.908	16457.29
493.278	16679.66
493.648	16642.15
494.017	17048.01
494.387	17041.23
494.757	17257.27
495.126	17540.65
495.496	17543.37
495.866	17721.21
496.235	17989.68
496.605	18137.02
496.974	18269.45
497.344	18436
497.713	18538.14
498.082	18604.81
498.452	18789.44
498.821	19056.77
499.19	18952.82
499.559	19377.22
499.928	19417.67
500.298	19546.93
500.667	19663.99
501.036	19838
501.405	19996.64
501.774	20011.32
502.143	20168.38
502.512	20331.09
502.88	20521.82
503.249	20682.72
503.618	20810.63
503.987	20923.39
504.356	21098.3
504.724	21148.92
505.093	21280.67
505.462	21452.19
505.83	21696.7
506.199	21806.31
506.567	22055.79
506.936	22105.28
507.304	22388.44
507.672	22559.96
508.041	22621.42
508.409	22774.64
508.777	23067.06
509.145	23332.59
509.514	23305.02
509.882	23478.35
510.25	23634.05
510.618	23712.24
510.986	23894.61
511.354	24188.62
511.722	24287.6
512.09	24541.37
512.458	24655.27
512.826	24779.11
513.193	24947.69
513.561	25164.41
513.929	25339.32
514.297	25598.3
514.664	25737.28
515.032	25885.29
515.4	26136.13
515.767	26173.87
516.135	26329.12
516.502	26314.89
516.869	26826.29
517.237	26862.22
517.604	26815.21
517.972	27338.82
518.339	27468.53
518.706	27500.62
519.073	27750.1
519.44	27907.84
519.808	28210.2
520.175	28235.51
520.542	28583.3
520.909	28751.43
521.276	28868.72
521.643	29090.86
522.009	29396.39
522.376	29517.97
522.743	29691.52
523.11	30141
523.477	30320.43
523.843	30465.96
524.21	30823.47
524.577	30999.06
524.943	31265.27
525.31	31337.58
525.676	31653.28
526.043	31801.52
526.409	32166.94
526.776	32212.59
527.142	32458.68
527.508	32497.1
527.874	32784.55
528.241	33142.5
528.607	33333.91
528.973	33544.53
529.339	33540.69
529.705	33947
530.071	34138.18
530.437	34340.44
530.803	34511.96
531.169	34680.32
531.535	34694.78
531.901	34935.23
532.267	34860.43
532.632	35337.02
532.998	35450.01
533.364	35610.01
533.73	35724.81
534.095	36070.11
534.461	36177.45
534.826	36358.92
535.192	36402.53
535.557	36748.51
535.923	36757.55
536.288	36984.66
536.653	37100.59
537.019	37229.4
537.384	37260.81
537.749	37558.89
538.114	37577.87
538.479	37537.64
538.845	37814.92
539.21	37835.49
539.575	38036.39
539.94	38116.61
540.305	38491.74
540.67	38567.9
541.034	38616.26
541.399	38760.66
541.764	38833.2
542.129	39061.44
542.494	39198.16
542.858	39345.28
543.223	39467.54
543.587	39669.56
543.952	39662.11
544.316	39881.76
544.681	39893.97
545.045	40151.59
545.41	40475.64
545.774	40472.48
546.138	40546.6
546.503	40681.06
546.867	40721.74
547.231	41116.53
547.595	41176.87
547.959	41456.18
548.324	41355.17
548.688	41544.09
549.052	41688.49
549.416	41709.06
549.779	41907.47
550.143	42001.48
550.507	42373.9
550.871	42418.64
551.235	42423.84
551.599	42919.87
551.962	42917.61
552.326	43062.02
552.689	43338.17
553.053	43203.26
553.417	43367.32
553.78	44075.1
554.143	43912.84
554.507	44130.46
554.87	44276
555.234	44770.22
555.597	44546.05
555.96	44776.55
556.323	45033.72
556.686	45077.33
557.05	45369.98
557.413	45566.58
557.776	45638.9
558.139	45964.09
558.502	45965.67
558.865	46177.19
559.228	46534.47
559.59	46563.17
559.953	46688.81
560.316	47026.88
560.679	47088.13
561.041	47413.32
561.404	47653.54
561.767	47769.24
562.129	47690.82
562.492	48146.18
562.854	48223.46
563.217	48195.67
563.579	48400.63
563.941	48652.83
564.304	48890.34
564.666	49161.29
565.028	49090.11
565.39	49318.8
565.753	49375.52
566.115	49476.31
566.477	49671.79
566.839	49788.39
567.201	49938.9
567.563	49999.46
567.925	50328.49
568.287	50322.39
568.648	50364.42
569.01	50509.73
569.372	50794.24
569.734	50754.24
570.095	50968.48
570.457	51225.19
570.819	51181.8
571.18	51241.01
571.542	51396.94
571.903	51440.78
572.265	51576.82
572.626	51641
572.987	51742.02
573.349	51829.92
573.71	51994.44
574.071	52109.92
574.432	52090.71
574.794	52386.52
575.155	52378.83
575.516	52269.23
575.877	52496.57
576.238	52516.23
576.599	52631.94
576.96	52684.59
577.32	52610.92
577.681	52708.32
578.042	52816.56
578.403	52877.35
578.763	52897.92
579.124	52925.49
579.485	52974.75
579.845	53052.49
580.206	53032.6
580.566	53044.81
580.927	53200.06
581.287	53262.2
581.648	53105.82
582.008	53279.38
582.368	53223.33
582.728	53333.39
583.089	53313.73
583.449	53206.61
583.809	53342.43
584.169	53367.06
584.529	53328.41
584.889	53569.09
585.249	53322.09
585.609	53330.9
585.969	53531.57
586.329	53350.56
586.688	53459.48
587.048	53466.49
587.408	53424.68
587.768	53430.78
588.127	53301.52
588.487	53344.91
588.846	53551.69
589.206	53366.15
589.565	53339.49
589.925	53512.36
590.284	53375.64
590.643	53553.04
591.003	53561.85
591.362	53665.81
591.721	53568.18
592.08	53562.31
592.44	53612.7
592.799	53593.72
593.158	53638.91
593.517	53630.78
593.876	53631.01
594.235	53533.38
594.593	53684.11
594.952	53702.42
595.311	53552.82
595.67	53739.25
596.029	53874.61
596.387	53784.9
596.746	53891.11
597.104	53781.96
597.463	53722.3
597.822	53853.82
598.18	53798.68
598.538	53804.33
598.897	53910.55
599.255	53579.48
599.613	54092.69
599.972	53892.69
600.33	54020.37
600.688	53874.39
601.046	54021.28
601.404	54107.83
601.762	53935.4
602.12	54179.47
602.478	54091.11
602.836	54113.25
603.194	54006.14
603.552	54179.24
603.91	54043.65
604.268	54161.39
604.625	54086.13
604.983	54165.23
605.341	54056.53
605.698	54180.37
606.056	54303.53
606.413	54282.97
606.771	54376.07
607.128	54421.04
607.485	54304.43
607.843	54341.72
608.2	54500.81
608.557	54535.39
608.914	54496.75
609.272	54659
609.629	54713.01
609.986	54781.26
610.343	54610.41
610.7	54862.39
611.057	54745.78
611.414	54738.77
611.771	54810.64
612.127	54866.45
612.484	54747.81
612.841	54891.54
613.198	54764.53
613.554	54788.71
613.911	54989.61
614.267	54989.16
614.624	54912.33
614.98	54955.72
615.337	55074.36
615.693	55072.78
616.05	55054.92
616.406	55241.36
616.762	55143.28
617.118	55138.31
617.475	55132.89
617.831	55228.48
618.187	55245.2
618.543	55310.73
618.899	55456.27
619.255	55343.95
619.611	55346.44
619.967	55463.73
620.323	55480.9
620.678	55452.43
621.034	55388.02
621.39	55427.79
621.746	55351.19
622.101	55669.82
622.457	55374.01
622.812	55513.89
623.168	55533.55
623.523	55515.7
623.879	55603.61
624.234	55383.5
624.589	55539.66
624.945	55487
625.3	55578.52
625.655	55437.74
626.01	55568.81
626.365	55622.14
626.72	55537.4
627.075	55512.76
627.43	55516.15
627.785	55405.2
628.14	55562.25
628.495	55466.66
628.85	55406.55
629.205	55373.56
629.559	55557.28
629.914	55416.04
630.269	55427.57
630.623	55290.17
630.978	55319.32
631.332	55387.57
631.687	55394.8
632.041	55286.1
632.396	55317.29
632.75	55270.28
633.104	55287.68
633.459	55125.43
633.813	55117.52
634.167	55036.39
634.521	55028.71
634.875	55184.86
635.229	55088.82
635.583	55015.6
635.937	55016.05
636.291	55023.74
636.645	54980.57
636.999	54981.25
637.352	55042.72
637.706	54846.34
638.06	54939.22
638.413	54883.4
638.767	54771.77
639.121	54877.3
639.474	54739.45
639.828	54729.51
640.181	54829.39
640.534	54696.51
640.888	54636.4
641.241	54510.3
641.594	54583.3
641.947	54675.5
642.301	54460.36
642.654	54491.1
643.007	54543.52
643.36	54444.99
643.713	54432.57
644.066	54546.24
644.419	54239.58
644.771	54072.58
645.124	53824.45
645.477	53726.37
645.83	53573.15
646.182	53424.68
646.535	53466.04
646.888	53421.75
647.24	53318.92
647.593	53469.43
647.945	53287.06
648.298	53142.43
648.65	53114.86
649.002	53081.87
649.355	53164.35
649.707	53121.87
650.059	53249.77
650.411	53663.09
650.763	53607.05
651.115	53922.07
651.467	53798.01
651.819	53780.61
652.171	53693.6
652.523	53628.07
652.875	53705.13
653.227	53546.71
653.578	53722.3
653.93	53653.38
654.282	53470.56
654.633	53481.86
654.985	53521.18
655.337	53548.97
655.688	53456.55
656.039	53605.47
656.391	53265.59
656.742	53375.64
657.094	53318.02
657.445	53456.77
657.796	53456.77
658.147	53267.4
658.498	53200.06
658.849	53283.67
659.2	53240.28
659.551	53218.36
659.902	53311.24
660.253	53173.16
660.604	53261.75
660.955	53042.55
661.306	53300.84
661.656	53059.49
662.007	53011.59
662.358	53019.04
662.708	52940.18
663.059	53001.19
663.409	52802.55
663.76	53063.11
664.11	52979.27
664.461	52989.67
664.811	52966.16
665.161	52978.37
665.511	52897.69
665.862	52890.69
666.212	52906.05
666.562	53047.97
666.912	52851.82
667.262	52875.09
667.612	52831.93
667.962	52851.59
668.312	52748.77
668.662	52792.38
669.011	52773.85
669.361	52776.56
669.711	52768.43
670.06	52738.6
670.41	52652.5
670.76	52623.12
671.109	52739.73
671.459	52570.24
671.808	52659.51
672.157	52649.34
672.507	52502.22
672.856	52443.69
673.205	52464.71
673.554	52546.74
673.904	52418.83
674.253	52611.6
674.602	52468.1
674.951	51957.6
675.3	51719.19
675.649	52289.8
675.998	52226.52
676.346	52218.39
676.695	52359.63
677.044	52123.02
677.393	52262.45
677.741	52229.91
678.09	52151.5
678.438	51940.88
678.787	52088.22
679.135	52087.54
679.484	51911.95
679.832	51980.43
680.181	51827.89
680.529	51961.67
680.877	51888.9
681.225	51841
681.573	51930.26
681.922	51659.08
682.27	51702.92
682.618	51618.18
682.966	51518.74
683.314	51537.27
683.661	51475.58
684.009	51266.1
684.357	51165.31
684.705	51269.03
685.053	51144.52
685.4	51149.71
685.748	50954.47
686.095	50942.49
686.443	50815.03
686.79	50843.06
687.138	50827.01
687.485	50772.55
687.832	50572.33
688.18	50605.1
688.527	50439.45
688.874	50447.36
689.221	50260.02
689.568	50176.86
689.915	50077.88
690.262	50112.68
690.609	49929.63
690.956	49811.67
691.303	49769.64
691.65	49643.77
691.997	49636.53
692.344	49455.75
692.69	49271.8
693.037	49430.21
693.383	49034.97
693.73	49246.49
694.077	48973.73
694.423	49128.3
694.769	48846.72
695.116	48707.74
695.462	48677.46
695.808	48644.47
696.155	48615.54
696.501	48370.8
696.847	48340.52
697.193	48108.44
697.539	48264.59
697.885	48092.17
698.231	47900.99
698.577	47815.56
698.923	47747.32
699.269	47631.84
699.614	47529.24
699.96	47400.89
700.306	47346.88
700.651	47162.25
700.997	46916.15
701.342	46991.63
701.688	46976.26
702.033	46734.24
702.379	46779.43
702.724	46545.32
703.069	46734.24
703.415	46104.65
703.76	46223.29
704.105	46318.43
704.45	46109.17
704.795	45890.64
705.14	45928.16
705.485	45869.63
705.83	45668.73
706.175	45761.16
706.52	45467.6
706.865	45339.02
707.209	45423.09
707.554	45318.68
707.899	45197.55
708.243	44942.87
708.588	45168.18
708.932	44798.69
709.277	44828.75
709.621	44843.21
709.966	44483.9
710.31	44655.65
710.654	44264.47
710.998	44420.85
711.342	44379.95
711.687	44226.96
712.031	44081.88
712.375	43992.84
712.719	43986.74
713.063	43763.69
713.407	43934.99
713.75	43659.52
714.094	43739.97
714.438	43520.31
714.782	43631.27
715.125	43360.77
715.469	43445.51
715.812	43110.38
716.156	42987.67
716.499	42958.97
716.843	42934.56
717.186	42807.33
717.53	42963.04
717.873	42802.82
718.216	42722.59
718.559	42707.22
718.902	42368.93
719.246	42562.37
719.589	42222.04
719.932	42074.02
720.275	42161.7
720.617	41892.56
720.96	42192.66
721.303	41952.22
721.646	41982.27
721.989	41773.01
722.331	41802.39
722.674	41770.07
723.016	41772.11
723.359	41556.97
723.701	41629.29
724.044	41485.56
724.386	41294.15
724.729	41398.56
725.071	41268.84
725.413	41346.81
725.755	41098.68
726.097	41001.28
726.439	40880.15
726.782	40857.33
727.124	40947.72
727.465	40832.02
727.807	40726.26
728.149	40581.86
728.491	40529.65
728.833	40609.2
729.175	40358.36
729.516	40461.41
729.858	40386.38
730.199	40444.69
730.541	40208.53
730.882	40095.54
731.224	40308.19
731.565	39923.79
731.906	40093.06
732.248	40026.17
732.589	39852.16
732.93	39598.15
733.271	39658.27
733.612	39731.71
733.953	39733.29
734.294	39471.83
734.635	39356.8
734.976	39509.12
735.317	39301.89
735.658	39357.71
735.999	39381.89
736.339	39297.82
736.68	39361.32
737.021	39216.92
737.361	38984.16
737.702	39187.54
738.042	38893.54
738.383	38793.66
738.723	38884.73
739.063	38755.92
739.404	38753.43
739.744	38795.69
740.084	38626.43
740.424	38566.99
740.764	38465.75
741.104	38622.36
741.444	38367.23
741.784	38399.09
742.124	38427.11
742.464	38300.33
742.804	38159.77
743.143	38221.69
743.483	38088.14
743.823	37976.73
744.162	38080.68
744.502	37978.08
744.841	37679.79
745.181	37954.81
745.52	37746.9
745.86	37919.1
746.199	37649.05
746.538	37552.56
746.877	37608.83
747.216	37562.28
747.556	37341.49
747.895	37366.35
748.234	37219.23
748.573	37215.17
748.911	37107.15
749.25	37053.59
749.589	36831.45
749.928	37060.14
750.267	36951.9
750.605	36904.44
750.944	36828.96
751.283	36727.04
751.621	36732.92
751.96	36568.18
752.298	36539.03
752.636	36486.37
752.975	36306.94
753.313	36245.47
753.651	36414.51
753.989	36126.83
754.327	36058.81
754.666	35969.1
755.004	35946.05
755.342	35891.58
755.679	35811.36
756.017	35471.71
756.355	35730.23
756.693	35571.14
757.031	35433.52
757.368	35334.54
757.706	35300.64
758.044	35214.54
758.381	35282.79
758.719	35011.61
759.056	34987.2
759.394	34839.63
759.731	34539.98
760.068	34686.64
760.405	34532.75
760.743	34489.59
761.08	34465.41
761.417	34361.23
761.754	34233.55
762.091	34139.77
762.428	33977.74
762.765	33719.21
763.102	33894.57
763.438	33679.21
763.775	33516.28
764.112	33576.17
764.449	33444.19
764.785	33303.63
765.122	33070.87
765.458	33064.99
765.795	32947.48
766.131	32970.08
766.467	32691.89
766.804	32710.65
767.14	32384.33
767.476	32576.64
767.812	32293.26
768.148	32396.99
768.485	32205.81
768.821	32034.06
769.157	32045.36
769.492	31953.61
769.828	31780.05
770.164	31528.08
770.5	31598.82
770.836	31481.31
771.171	31294.42
771.507	31228.2
771.842	30903.92
772.178	31082.67
772.513	30912.96
772.849	30714.55
773.184	30686.98
773.519	30634.55
773.855	30485.17
774.19	30282.47
774.525	30177.16
774.86	30293.77
775.195	29999.31
775.53	29912.76
775.865	29791.41
776.2	29599.77
776.535	29462.15
776.87	29463.5
777.205	29404.3
777.539	29223.29
777.874	29194.13
778.209	29097.86
778.543	28901.71
778.878	28632.79
779.212	28820.58
779.547	28525
779.881	28656.52
780.215	28503.08
780.55	28395.28
780.884	28254.05
781.218	28170.21
781.552	28097.21
781.886	27990.1
782.22	27874.62
782.554	27715.98
782.888	27613.16
783.222	27533.39
783.556	27215.43
783.889	27313.05
784.223	27175.88
784.557	27003.68
784.89	27035.32
785.224	26934.31
785.557	26848.88
785.891	26702.67
786.224	26671.71
786.558	26519.18
786.891	26398.5
787.224	26277.83
787.557	26321.21
787.891	26219.75
788.224	26158.51
788.557	26077.15
788.89	25993.09
789.223	25925.52
789.556	25718.07
789.888	25584.96
790.221	25615.92
790.554	25363.73
790.887	25390.17
791.219	25368.7
791.552	25119.66
791.884	25004.64
792.217	25069.27
792.549	24946.79
792.882	24809.84
793.214	24699.34
793.546	24832.21
793.879	24611.43
794.211	24386.12
794.543	24586.57
794.875	24354.03
795.207	24418.44
795.539	24224.32
795.871	24219.8
796.203	23932.58
796.535	24008.96
796.867	23839.92
797.198	23905.23
797.53	23801.28
797.862	23631.34
798.193	23652.58
798.525	23513.83
798.856	23445.13
799.188	23404.46
799.519	23229.32
799.85	22987.52
800.182	23115.2
800.513	23088.31
800.844	22975.77
801.175	22966.95
801.506	22976.44
801.837	22653.97
802.168	22688.77
802.499	22648.54
802.83	22503.46
803.161	22438.15
803.491	22471.6
803.822	22444.25
804.153	22402.67
804.483	22145.51
804.814	22050.14
805.145	22004.94
805.475	22091.5
805.805	22042.68
806.136	21913.42
806.466	21927.43
806.796	21844.95
807.126	21680.88
807.457	21645.41
807.787	21648.12
808.117	21381.91
808.447	21486.31
808.777	21595.01
809.107	21296.04
809.436	21229.37
809.766	21343.72
810.096	21257.62
810.426	21198.64
810.755	21208.58
811.085	21164.97
811.414	20988.93
811.744	20821.7
812.073	20863.51
812.403	20748.25
812.732	20776.05
813.061	20718.65
813.39	20671.65
813.719	20501.48
814.049	20583.51
814.378	20469.17
814.707	20370.41
815.036	20380.58
815.365	20256.74
815.693	20085.67
816.022	20149.63
816.351	20069.4
816.68	19979.23
817.008	20084.77
817.337	19825.34
817.665	19858.33
817.994	19846.58
818.322	19855.17
818.651	19708.28
818.979	19621.5
819.307	19737.21
819.636	19769.07
819.964	19464.22
820.292	19675.51
820.62	19576.08
820.948	19470.32
821.276	19558.68
821.604	19423.09
821.932	19514.84
822.259	19514.39
822.587	19445.69
822.915	19429.87
823.243	19390.55
823.57	19404.79
823.898	19529.53
824.225	19341.51
824.553	19346.71
824.88	19369.08
825.207	19420.38
825.535	19358.01
825.862	19424.45
826.189	19338.12
826.516	19449.3
826.843	19405.69
827.17	19441.17
827.497	19325.24
827.824	19359.82
828.151	19321.17
828.478	19371.79
828.805	19407.05
829.131	19337.44
829.458	19372.47
829.785	19131.57
830.111	19200.72
830.438	19280.72
830.764	19299.03
831.09	19277.33
831.417	19144
831.743	19296.77
832.069	19318.69
832.395	19121.4
832.722	19271.23
833.048	19162.98
833.374	19223.77
833.7	19059.26
834.026	19165.24
834.351	19170.44
834.677	19148.97
835.003	19160.73
835.329	19160.27
835.654	19053.38
835.98	18991.69
836.306	18940.84
836.631	18916.21
836.956	18970.45
837.282	18958.24
837.607	18898.81
837.932	18815.88
838.258	18797.8
838.583	18777.46
838.908	18623.56
839.233	18755.31
839.558	18641.64
839.883	18562.32
840.208	18503.12
840.533	18495.88
840.858	18588.76
841.182	18479.39
841.507	18450.46
841.832	18281.65
842.156	18368.66
842.481	18353.97
842.805	18314.19
843.13	18247.08
843.454	18255.89
843.778	18209.79
844.103	18135.89
844.427	18029
844.751	18146.51
845.075	17909.01
845.399	17908.55
845.723	17875.34
846.047	17911.49
846.371	17697.03
846.695	17633.08
847.019	17579.75
847.343	17488.68
847.666	17397.61
847.99	17305.41
848.313	17385.4
848.637	17138.18
848.96	17163.94
849.284	17092.3
849.607	17022.02
849.931	16983.38
850.254	16901.58
850.577	16724.86
850.9	16676.04
851.223	16652.99
851.546	16528.7
851.869	16550.85
852.192	16503.39
852.515	16293.91
852.838	16276.51
853.161	16372.55
853.483	16210.07
853.806	16149.05
854.129	16100.69
854.451	16153.12
854.774	15978.66
855.096	16022.5
855.419	15920.58
855.741	15823.64
856.063	15735.5
856.385	15691.44
856.708	15652.79
857.03	15725.79
857.352	15617.54
857.674	15588.39
857.996	15483.76
858.318	15495.96
858.64	15490.09
858.961	15391.11
859.283	15288.06
859.605	15243.09
859.926	15344.1
860.248	15204.67
860.57	15211
860.891	15241.51
861.212	15168.97
861.534	15061.17
861.855	15049.42
862.176	15025.01
862.498	15108.85
862.819	15007.84
863.14	14884.45
863.461	14933.72
863.782	14907.96
864.103	14799.71
864.424	14821.86
864.745	14751.8
865.065	14700.28
865.386	14736.21
865.707	14630.67
866.027	14644.01
866.348	14568.98
866.668	14670
866.989	14584.35
867.309	14538.47
867.63	14543.67
867.95	14452.37
868.27	14460.96
868.59	14377.57
868.91	14488.53
869.23	14373.96
869.55	14312.49
869.87	14418.48
870.19	14299.16
870.51	14254.64
870.83	14273.85
871.15	14266.39
871.469	14251.02
871.789	14257.8
872.109	14215.09
872.428	14179.61
872.748	14041.54
873.067	14065.27
873.386	14100.29
873.706	14013.97
874.025	13980.52
874.344	13986.62
874.663	13977.13
874.982	13871.6
875.301	14039.05
875.62	13984.36
875.939	13864.37
876.258	13892.16
876.577	13856.68
876.896	13839.06
877.214	13744.82
877.533	13867.08
877.852	13708.89
878.17	13791.37
878.489	13776.69
878.807	13786.4
879.125	13659.4
879.444	13740.53
879.762	13569.01
880.08	13634.99
880.398	13442.46
880.716	13502.79
881.034	13410.37
881.352	13456.02
881.67	13319.07
881.988	13404.27
882.306	13413.76
882.624	13402.46
882.941	13263.7
883.259	13305.29
883.577	13251.73
883.894	13227.1
884.212	13103.71
884.529	13146.65
884.846	13085.63
885.164	13053.54
885.481	12926.54
885.798	13071.39
886.115	12995.69
886.432	12941
886.75	12921.57
887.067	12943.26
887.383	12856.26
887.7	12860.33
888.017	12823.94
888.334	12858.29
888.651	12806.54
888.967	12771.74
889.284	12755.02
889.6	12705.75
889.917	12543.27
890.233	12536.94
890.55	12515.02
890.866	12548.7
891.182	12410.85
891.498	12392.99
891.815	12351.64
892.131	12303.73
892.447	12269.83
892.763	12265.54
893.079	12225.09
893.395	12175.37
893.71	12145.77
894.026	12138.76
894.342	12063.06
894.657	11969.95
894.973	11973.8
895.289	11969.5
895.604	11967.47
895.92	11857.41
896.235	11836.17
896.55	11813.8
896.865	11774.25
897.181	11751.2
897.496	11717.53
897.811	11667.81
898.126	11579.23
898.441	11540.36
898.756	11603.64
899.071	11521.83
899.386	11474.6
899.7	11389.18
900.015	11357.77
900.33	11287.71
900.644	11289.07
900.959	11255.17
901.273	11227.83
901.588	11162.97
901.902	11124.55
902.216	11052.69
902.531	11072.8
902.845	11032.13
903.159	11010.2
903.473	10838.46
903.787	10805.01
904.101	10826.71
904.415	10806.37
904.729	10705.81
905.042	10695.41
905.356	10689.31
905.67	10664.45
905.984	10603.44
906.297	10624.45
906.611	10520.5
906.924	10499.94
907.237	10447.28
907.551	10426.04
907.864	10393.27
908.177	10324.35
908.491	10291.58
908.804	10137.46
909.117	10150.79
909.43	10158.02
909.743	10036.45
910.056	10103.11
910.368	10028.31
910.681	9894.08
910.994	9962.55
911.307	9907.41
911.619	9813.17
911.932	9832.61
912.244	9788.54
912.557	9707.41
912.869	9673.52
913.181	9655.89
913.494	9645.95
913.806	9525.5
914.118	9554.88
914.43	9493.86
914.742	9439.17
915.054	9422
915.366	9385.61
915.678	9373.19
915.99	9253.87
916.302	9224.72
916.613	9187.65
916.925	9207.99
917.236	9123.25
917.548	9105.62
917.859	9088.45
918.171	9020.88
918.482	8960.99
918.794	8878.96
919.105	8951.05
919.416	8866.08
919.727	8873.76
920.038	8825.18
920.349	8704.28
920.66	8642.13
920.971	8681.9
921.282	8688.68
921.593	8646.43
921.903	8602.58
922.214	8588.8
922.525	8451.18
922.835	8491.4
923.146	8392.42
923.456	8365.08
923.767	8370.5
924.077	8368.69
924.387	8298.19
924.697	8210.96
925.008	8147.68
925.318	8203.95
925.628	8254.35
925.938	8156.72
926.248	8000.57
926.558	8082.6
926.867	7963.28
927.177	7979.78
927.487	7894.58
927.796	7876.28
928.106	7820.46
928.416	7804.64
928.725	7801.48
929.034	7806.22
929.344	7782.27
929.653	7765.09
929.962	7693.91
930.271	7631.08
930.581	7558.77
930.89	7566.91
931.199	7514.7
931.508	7504.76
931.817	7516.06
932.125	7475.61
932.434	7419.79
932.743	7306.35
933.051	7244.43
933.36	7295.05
933.669	7234.48
933.977	7210.08
934.286	7173.02
934.594	7162.4
934.902	7083.3
935.21	7042.4
935.519	7107.26
935.827	7059.35
936.135	7044.89
936.443	6947.26
936.751	6936.87
937.059	6893.93
937.367	6820.71
937.674	6838.11
937.982	6813.03
938.29	6766.93
938.597	6714.95
938.905	6738
939.213	6716.53
939.52	6676.76
939.827	6627.72
940.135	6532.13
940.442	6602.64
940.749	6547.5
941.056	6531.68
941.363	6410.78
941.67	6414.85
941.977	6359.48
942.284	6375.3
942.591	6340.5
942.898	6354.28
943.205	6308.86
943.511	6304.34
943.818	6266.83
944.125	6249.2
944.431	6205.13
944.738	6229.31
945.044	6164.68
945.35	6076.32
945.657	6133.95
945.963	6099.37
946.269	6023.9
946.575	5987.51
946.881	6003.78
947.187	5940.96
947.493	5942.54
947.799	5906.61
948.105	5912.71
948.41	5846.27
948.716	5826.16
949.022	5749.55
949.327	5787.52
949.633	5679.95
949.938	5676.56
950.244	5697.35
950.549	5627.07
950.854	5637.24
951.16	5588.65
951.465	5582.55
951.77	5558.14
952.075	5544.13
952.38	5498.03
952.685	5503.23
952.99	5414.87
953.294	5434.31
953.599	5381.2
953.904	5372.61
954.209	5340.98
954.513	5336.68
954.818	5324.7
955.122	5372.84
955.426	5281.09
955.731	5283.35
956.035	5235.44
956.339	5180.53
956.643	5175.56
956.948	5152.51
957.252	5140.53
957.556	5120.19
957.86	5042.68
958.163	5049.01
958.467	5093.07
958.771	5079.74
959.075	5025.73
959.378	4975.34
959.682	4953.41
959.985	4975.11
960.289	4942.12
960.592	4873.19
960.896	4879.52
961.199	4847.43
961.502	4810.59
961.805	4791.84
962.108	4758.17
962.411	4771.5
962.714	4750.93
963.017	4745.28
963.32	4734.44
963.623	4660.32
963.926	4656.7
964.228	4656.25
964.531	4657.83
964.833	4599.75
965.136	4562.46
965.438	4560.66
965.741	4571.73
966.043	4526.99
966.345	4472.75
966.648	4513.65
966.95	4494.44
967.252	4434.33
967.554	4385.52
967.856	4435.69
968.158	4334.9
968.46	4404.73
968.761	4334.45
969.063	4325.86
969.365	4289.7
969.666	4301.45
969.968	4261.91
970.269	4258.07
970.571	4221.23
970.872	4195.92
971.174	4152.76
971.475	4175.13
971.776	4203.83
972.077	4148.01
972.378	4129.93
972.679	4108.92
972.98	4110.73
973.281	4054.23
973.582	4042.7
973.883	3984.4
974.183	3981.46
974.484	3971.75
974.785	3944.63
975.085	3943.5
975.386	3967.23
975.686	3957.28
975.986	3882.03
976.287	3898.53
976.587	3821.47
976.887	3809.49
977.187	3846.78
977.487	3835.7
977.787	3803.16
978.087	3789.6
978.387	3744.63
978.687	3778.08
978.987	3769.27
979.286	3685.2
979.586	3711.64
979.885	3687.69
980.185	3642.94
980.484	3600
980.784	3596.61
981.083	3600.23
981.382	3612.43
981.682	3584.41
981.981	3583.51
982.28	3545.99
982.579	3546.9
982.878	3521.59
983.177	3503.74
983.475	3472.55
983.774	3436.84
984.073	3440.91
984.372	3407.24
984.67	3420.57
984.969	3388.48
985.267	3410.63
985.566	3401.37
985.864	3344.64
986.162	3337.19
986.461	3339.67
986.759	3348.71
987.057	3312.78
987.355	3242.5
987.653	3256.96
987.951	3235.72
988.249	3243.63
988.547	3224.19
988.844	3220.13
989.142	3167.7
989.44	3166.8
989.737	3155.72
990.035	3151.2
990.332	3123.18
990.63	3077.76
990.927	3103.29
991.224	3113.46
991.521	3062.39
991.819	3095.16
992.116	3056.29
992.413	3031.66
992.71	2996.63
993.006	2979.46
993.303	2997.76
993.6	2964.31
993.897	2946.69
994.193	2934.03
994.49	2889.51
994.787	2950.98
995.083	2851.55
995.379	2868.27
995.676	2873.02
995.972	2854.04
996.268	2837.54
996.565	2816.3
996.861	2810.42
997.157	2790.53
997.453	2755.96
997.749	2751.21
998.044	2723.42
998.34	2722.51
998.636	2715.06
998.932	2689.07
999.227	2658.79
999.523	2669.18
999.818	2656.98
1000.114	2652.23
1000.409	2653.14
1000.704	2610.88
1001	2592.12
1001.295	2566.36
1001.59	2540.15
1001.885	2547.15
1002.18	2560.03
1002.475	2552.35
1002.77	2540.37
1003.065	2499.02
1003.359	2494.95
1003.654	2491.11
1003.949	2467.83
1004.243	2457.66
1004.538	2420.37
1004.832	2434.61
1005.127	2425.12
1005.421	2389.87
1005.715	2373.6
1006.009	2353.94
1006.304	2355.07
1006.598	2334.5
1006.892	2335.86
1007.186	2287.72
1007.48	2283.2
1007.773	2270.1
1008.067	2264.45
1008.361	2227.84
1008.655	2234.84
1008.948	2238.01
1009.242	2196.43
1009.535	2224.9
1009.829	2189.65
1010.122	2157.56
1010.415	2165.69
1010.708	2133.83
1011.001	2107.16
1011.295	2130.21
1011.588	2099.7
1011.881	2103.09
1012.173	2049.99
1012.466	2059.25
1012.759	2040.95
1013.052	2039.37
1013.344	2051.34
1013.637	2039.14
1013.93	2040.27
1014.222	2004.57
1014.514	2001.85
1014.807	1977.45
1015.099	1963.66
1015.391	1949.43
1015.683	1936.32
1015.976	1913.49
1016.268	1907.17
1016.56	1921.18
1016.851	1909.43
1017.143	1894.29
1017.435	1845.02
1017.727	1872.14
1018.018	1868.52
1018.31	1816.32
1018.602	1822.88
1018.893	1786.27
1019.185	1794.85
1019.476	1781.75
1019.767	1766.83
1020.058	1795.53
1020.35	1751.69
1020.641	1707.62
1020.932	1724.8
1021.223	1691.58
1021.514	1718.92
1021.804	1693.39
1022.095	1667.63
1022.386	1658.13
1022.677	1635.31
1022.967	1607.74
1023.258	1623.33
1023.548	1619.94
1023.839	1603.67
1024.129	1608.19
1024.419	1583.56
1024.709	1569.78
1025	1597.57
1025.29	1555.54
1025.58	1534.07
1025.87	1525.71
1026.16	1559.15
1026.449	1499.27
1026.739	1509.21
1027.029	1513.05
1027.319	1487.07
1027.608	1472.83
1027.898	1476.44
1028.187	1459.04
1028.477	1437.58
1028.766	1449.55
1029.055	1406.62
1029.344	1413.4
1029.634	1381.53
1029.923	1379.72
1030.212	1372.04
1030.501	1378.59
1030.79	1319.39
1031.078	1336.79
1031.367	1323
1031.656	1343.57
1031.945	1318.26
1032.233	1321.87
1032.522	1283.45
1032.81	1304.7
1033.099	1318.03
1033.387	1279.84
1033.675	1237.81
1033.963	1263.34
1034.251	1245.49
1034.54	1240.97
1034.828	1240.52
1035.116	1219.95
1035.403	1229.67
1035.691	1210.46
1035.979	1189.22
1036.267	1192.84
1036.554	1201.42
1036.842	1164.81
1037.129	1181.08
1037.417	1146.51
1037.704	1139.73
1037.992	1147.64
1038.279	1141.54
1038.566	1130.01
1038.853	1130.01
1039.14	1130.01
