Data from white_wall_FLMS001491_091.txt Node
Date: Tue Feb 07 11:06:15 GMT 2017
User: dcchb
Spectrometer: FLMS00149
Trigger mode: 0
Integration Time (sec): 2.000000E-2
Scans to average: 10
Electric dark correction enabled: true
Nonlinearity correction enabled: false
Boxcar width: 0
XAxis mode: Wavelengths
Number of Pixels in Spectrum: 2048
>>>>>Begin Spectral Data<<<<<
341.393	-20.07
341.776	-20.07
342.16	-20.07
342.543	-60.97
342.927	-56.23
343.31	-79.05
343.693	-72.95
344.077	-54.87
344.46	-69.33
344.843	-54.65
345.226	-35.66
345.61	-15.1
345.993	-33.18
346.376	24
346.759	13.15
347.142	28.06
347.525	35.07
347.908	44.79
348.291	63.09
348.674	97.89
349.057	108.74
349.44	132.24
349.823	153.03
350.206	196.87
350.588	233.93
350.971	247.27
351.354	255.18
351.737	250.43
352.119	282.52
352.502	310.77
352.884	316.42
353.267	292.92
353.65	325.91
354.032	316.19
354.414	327.72
354.797	348.73
355.179	360.26
355.562	354.84
355.944	338.56
356.326	365.46
356.709	361.61
357.091	380.37
357.473	360.71
357.855	366.81
358.238	378.56
358.62	371.33
359.002	364.1
359.384	374.27
359.766	365.91
360.148	368.85
360.53	356.87
360.912	369.52
361.294	338.34
361.676	373.14
362.057	388.73
362.439	360.71
362.821	358.23
363.203	367.94
363.584	355.29
363.966	368.17
364.348	354.38
364.729	350.32
365.111	339.69
365.493	343.99
365.874	339.92
366.256	365.68
366.637	357.77
367.019	341.28
367.4	370.88
367.781	350.77
368.163	340.15
368.544	359.81
368.925	348.96
369.306	351.45
369.688	353.48
370.069	339.69
370.45	341.73
370.831	348.06
371.212	358.68
371.593	347.83
371.974	373.14
372.355	350.09
372.736	362.29
373.117	340.6
373.498	359.58
373.879	341.95
374.26	365
374.641	348.96
375.021	353.93
375.402	365.91
375.783	352.12
376.163	371.56
376.544	346.25
376.925	357.1
377.305	365
377.686	381.28
378.066	385.79
378.447	371.11
378.827	353.03
379.208	370.43
379.588	369.98
379.968	373.37
380.349	372.46
380.729	376.3
381.109	394.38
381.489	401.61
381.87	399.35
382.25	393.93
382.63	411.11
383.01	400.94
383.39	406.36
383.77	400.26
384.15	425.12
384.53	397.55
384.91	400.94
385.29	428.73
385.67	425.34
386.049	432.57
386.429	433.03
386.809	420.82
387.189	427.15
387.568	429.18
387.948	444.32
388.328	435.96
388.707	444.32
389.087	452.23
389.466	461.05
389.846	470.54
390.225	467.6
390.605	471.67
390.984	492.01
391.363	512.57
391.743	489.07
392.122	490.65
392.501	505.34
392.881	539.24
393.26	532.01
393.639	520.03
394.018	518.45
394.397	532.68
394.776	549.63
395.155	564.32
395.534	536.3
395.913	587.15
396.292	558.45
396.671	587.6
397.05	582.17
397.429	632.79
397.808	602.96
398.186	628.95
398.565	643.87
398.944	648.16
399.323	645.45
399.701	665.79
400.08	682.51
400.458	670.53
400.837	710.76
401.215	732.45
401.594	731.77
401.972	716.41
402.351	758.21
402.729	765.22
403.107	790.98
403.486	779.68
403.864	811.09
404.242	815.61
404.62	840.47
404.999	861.94
405.377	872.56
405.755	886.8
406.133	910.53
406.511	894.48
406.889	939.23
407.267	940.36
407.645	969.96
408.023	976.74
408.401	1002.28
408.779	1008.38
409.156	1043.18
409.534	1045.89
409.912	1075.72
410.29	1086.57
410.667	1112.56
411.045	1130.63
411.422	1147.81
411.8	1190.97
412.178	1194.14
412.555	1219.9
412.933	1223.06
413.31	1244.3
413.687	1270.74
414.065	1265.55
414.442	1312.55
414.819	1316.62
415.197	1337.18
415.574	1362.49
415.951	1395.49
416.328	1398.65
416.705	1394.13
417.082	1409.95
417.46	1414.47
417.837	1457.63
418.214	1444.75
418.591	1459.21
418.967	1501.02
419.344	1505.54
419.721	1549.38
420.098	1561.58
420.475	1614.01
420.852	1562.04
421.228	1586.67
421.605	1612.88
421.982	1643.39
422.358	1657.17
422.735	1688.36
423.111	1674.12
423.488	1706.21
423.864	1723.84
424.241	1746.89
424.617	1759.77
424.994	1797.28
425.37	1786.44
425.746	1821.69
426.123	1863.04
426.499	1841.12
426.875	1869.6
427.251	1931.97
427.627	1944.4
428.003	1990.05
428.379	2051.29
428.756	2064.39
429.132	2089.7
429.507	2117.5
429.883	2108.46
430.259	2118.18
430.635	2158.4
431.011	2183.71
431.387	2255.12
431.763	2294.67
432.138	2270.72
432.514	2337.83
432.89	2314.56
433.265	2366.99
433.641	2436.59
434.016	2389.36
434.392	2457.83
434.767	2546.64
435.143	2533.08
435.518	2592.06
435.894	2601.56
436.269	2638.17
436.644	2690.37
437.02	2686.53
437.395	2721.78
437.77	2721.78
438.145	2789.57
438.52	2797.93
438.895	2829.8
439.271	2865.05
439.646	2888.78
440.021	2957.25
440.395	2944.6
440.77	2944.37
441.145	2990.02
441.52	3070.02
441.895	3055.78
442.27	3095.55
442.645	3073.18
443.019	3100.98
443.394	3159.06
443.769	3192.95
444.143	3170.13
444.518	3231.14
444.892	3232.5
445.267	3289.22
445.641	3306.4
446.016	3338.71
446.39	3367.86
446.764	3368.09
447.139	3386.85
447.513	3463.23
447.887	3420.74
448.262	3481.31
448.636	3488.09
449.01	3546.39
449.384	3597.69
449.758	3569.67
450.132	3638.36
450.506	3669.55
450.88	3679.72
451.254	3678.82
451.628	3759.04
452.002	3814.41
452.376	3834.29
452.75	3858.92
453.123	3910
453.497	3986.38
453.871	4011.24
454.244	4111.8
454.618	4103.21
454.992	4129.65
455.365	4165.81
455.739	4262.3
456.112	4357.44
456.486	4415.52
456.859	4434.5
457.232	4512.24
457.606	4519.25
457.979	4575.29
458.352	4662.97
458.725	4735.96
459.099	4760.14
459.472	4857.77
459.845	4911.78
460.218	4998.56
460.591	5001.72
460.964	5006.69
461.337	5160.58
461.71	5287.13
462.083	5285.1
462.456	5284.42
462.829	5356.74
463.201	5464.98
463.574	5458.88
463.947	5571.2
464.32	5716.73
464.692	5724.64
465.065	5848.25
465.438	5852.54
465.81	5947.91
466.183	5999.43
466.555	6201.01
466.928	6255.7
467.3	6251.86
467.672	6366.2
468.045	6472.41
468.417	6516.48
468.789	6688.23
469.161	6662.69
469.534	6768.23
469.906	6925.06
470.278	6981.78
470.65	7075.34
471.022	7196.92
471.394	7355.1
471.766	7452.73
472.138	7509.45
472.51	7654.3
472.882	7837.35
473.253	7922.32
473.625	8048.64
473.997	8209.32
474.369	8228.98
474.74	8352.59
475.112	8509.42
475.484	8689.98
475.855	8812.92
476.227	8857.66
476.598	9161.38
476.97	9195.28
477.341	9474.37
477.713	9552.11
478.084	9673.69
478.455	9980.12
478.827	10067.57
479.198	10380.33
479.569	10371.07
479.94	10683.83
480.311	10762.25
480.682	11039.07
481.053	11203.59
481.424	11527.42
481.795	11592.96
482.166	11711.6
482.537	11900.29
482.908	12163.34
483.279	12366.5
483.65	12565.36
484.021	12745.02
484.391	12952.02
484.762	13042.64
485.133	13206.25
485.503	13463.64
485.874	13761.04
486.244	13845.55
486.615	14147.69
486.985	14286.22
487.356	14584.52
487.726	14660.67
488.097	14966.88
488.467	15009.59
488.837	15372.07
489.207	15564.6
489.578	15761.66
489.948	15973.41
490.318	16147.64
490.688	16324.36
491.058	16526.84
491.428	16767.74
491.798	16999.82
492.168	17320.04
492.538	17453.59
492.908	17546.02
493.278	17908.27
493.648	17881.38
494.017	18157.31
494.387	18364.31
494.757	18564.07
495.126	18684.52
495.496	18808.36
495.866	18971.97
496.235	19244.51
496.605	19382.13
496.974	19443.82
497.344	19631.16
497.713	19719.52
498.082	19947.09
498.452	20284.03
498.821	20190.02
499.19	20334.42
499.559	20580.07
499.928	20764.24
500.298	20895.99
500.667	21090.11
501.036	21124.01
501.405	21295.75
501.774	21421.4
502.143	21603.09
502.512	21804.89
502.88	21978.22
503.249	22104.32
503.618	22271.55
503.987	22319.46
504.356	22483.29
504.724	22667.02
505.093	22775.71
505.462	22854.58
505.83	23207.57
506.199	23363.95
506.567	23714.22
506.936	23737.5
507.304	23859.08
507.672	23994.67
508.041	24122.35
508.409	24347.42
508.777	24599.17
509.145	24777.47
509.514	24790.35
509.882	25013.85
510.25	25092.94
510.618	25313.28
510.986	25515.53
511.354	25824.67
511.722	26010.66
512.09	26268.5
512.458	26280.48
512.826	26452.45
513.193	26559.34
513.561	26811.54
513.929	26996.17
514.297	27281.13
514.664	27402.49
515.032	27564.97
515.4	27859.2
515.767	28024.16
516.135	28096.48
516.502	28052.19
516.869	28618.05
517.237	28760.42
517.604	28778.27
517.972	29140.52
518.339	29193.17
518.706	29334.64
519.073	29523.56
519.44	29895.08
519.808	30102.08
520.175	30125.13
520.542	30592.23
520.909	30778.44
521.276	30772.57
521.643	31081.94
522.009	31294.36
522.376	31591.3
522.743	31780
523.11	32172.3
523.477	32357.84
523.843	32579.98
524.21	32782.68
524.577	33086.4
524.943	33275.33
525.31	33560.52
525.676	33685.94
526.043	34005.7
526.409	34072.37
526.776	34474.39
527.142	34645.01
527.508	34783.53
527.874	35100.36
528.241	35161.83
528.607	35333.8
528.973	35707.13
529.339	35710.29
529.705	36099.43
530.071	36477.73
530.437	36366.09
530.803	36729.02
531.169	36933.76
531.535	36839.07
531.901	37103.47
532.267	37323.35
532.632	37659.84
532.998	37684.02
533.364	37964.92
533.73	38107.51
534.095	38387.51
534.461	38526.94
534.826	38760.61
535.192	38859.59
535.557	38920.15
535.923	39116.08
536.288	39204.89
536.653	39478.33
537.019	39329.18
537.384	39611.2
537.749	39774.59
538.114	39910.18
538.479	40002.38
538.845	40375.7
539.21	40258.19
539.575	40464.52
539.94	40629.48
540.305	40956.03
540.67	40892.3
541.034	41137.49
541.399	41277.6
541.764	41453.87
542.129	41607.99
542.494	41659.51
542.858	41871.26
543.223	41934.76
543.587	42195.32
543.952	42168.43
544.316	42456.1
544.681	42351.25
545.045	42610
545.41	42753.04
545.774	42982.87
546.138	43135.63
546.503	43235.97
546.867	43300.37
547.231	43635.73
547.595	43649.52
547.959	43685.67
548.324	44009.51
548.688	44174.25
549.052	44357.97
549.416	44419.21
549.779	44421.02
550.143	44620.56
550.507	44987.11
550.871	45031.17
551.235	45071.17
551.599	45355.23
551.962	45448.79
552.326	45693.76
552.689	45929.91
553.053	45857.59
553.417	46007.19
553.78	46569.21
554.143	46425.71
554.507	46745.03
554.87	46815.08
555.234	47186.6
555.597	46921.97
555.96	47375.07
556.323	47403.32
556.686	47448.96
557.05	47833.81
557.413	48014.6
557.776	48183.86
558.139	48403.06
558.502	48500.46
558.865	48641.25
559.228	48874.92
559.59	49017.06
559.953	49076.49
560.316	49414.34
560.679	49434.67
561.041	49627.21
561.404	49949.46
561.767	50123.92
562.129	50059.07
562.492	50381.99
562.854	50516
563.217	50522.1
563.579	50815.88
563.941	50954.41
564.304	51105.14
564.666	51226.49
565.028	51304.23
565.39	51490.67
565.753	51655.41
566.115	51661.51
566.477	51866.93
566.839	52022.86
567.201	52138.56
567.563	52228.05
567.925	52353.24
568.287	52439.79
568.648	52547.14
569.01	52774.7
569.372	52899.22
569.734	52776.28
570.095	53024.64
570.457	53123.84
570.819	53157.51
571.18	53207.68
571.542	53372.42
571.903	53367
572.265	53559.54
572.626	53580.1
572.987	53698.74
573.349	53771.06
573.71	53843.37
574.071	53942.13
574.432	54027.1
574.794	54206.3
575.155	54164.95
575.516	54149.35
575.877	54364.49
576.238	54400.42
576.599	54455.33
576.96	54505.28
577.32	54512.51
577.681	54589.12
578.042	54684.48
578.403	54580.08
578.763	54774.65
579.124	54862.1
579.485	54915.89
579.845	54936.9
580.206	54998.37
580.566	54907.53
580.927	54983.23
581.287	55069.55
581.648	54980.74
582.008	55067.07
582.368	55055.77
582.728	55198.82
583.089	55044.24
583.449	55110.91
583.809	55162.66
584.169	55176.67
584.529	55159.5
584.889	55303.45
585.249	55200.17
585.609	55157.69
585.969	55300.74
586.329	55194.98
586.688	55305.71
587.048	55251.7
587.408	55193.39
587.768	55187.52
588.127	55247.86
588.487	55213.96
588.846	55458.02
589.206	55290.34
589.565	55180.29
589.925	55372.6
590.284	55248.76
590.643	55346.84
591.003	55326.5
591.362	55427.51
591.721	55408.53
592.08	55295.09
592.44	55479.71
592.799	55402.88
593.158	55432.03
593.517	55437.45
593.876	55408.98
594.235	55427.74
594.593	55469.32
594.952	55554.74
595.311	55353.16
595.67	55447.17
596.029	55612.59
596.387	55669.09
596.746	55708.41
597.104	55536.44
597.463	55618.01
597.822	55681.06
598.18	55534.18
598.538	55454.86
598.897	55746.15
599.255	55489.2
599.613	55868.4
599.972	55620.27
600.33	55813.72
600.688	55653.72
601.046	55723.55
601.404	55880.15
601.762	55861.17
602.12	55926.26
602.478	55901.85
602.836	55947.5
603.194	55763.77
603.552	55871.79
603.91	55813.94
604.268	56006.48
604.625	55838.35
604.983	55988.17
605.341	55902.08
605.698	56027.5
606.056	56072.01
606.413	56027.72
606.771	56070.66
607.128	56131.9
607.485	56043.09
607.843	56122.41
608.2	56179.58
608.557	56317.43
608.914	56195.63
609.272	56323.76
609.629	56347.26
609.986	56430.65
610.343	56369.41
610.7	56504.09
611.057	56465
611.414	56439.69
611.771	56444.66
612.127	56499.57
612.484	56476.52
612.841	56612.79
613.198	56571.89
613.554	56607.37
613.911	56697.31
614.267	56704.31
614.624	56681.04
614.98	56800.81
615.337	56862.95
615.693	56771.43
616.05	56756.97
616.406	56941.6
616.762	56835.84
617.118	56832.67
617.475	56887.36
617.831	56972.78
618.187	56935.27
618.543	57013.01
618.899	57113.79
619.255	57126.22
619.611	57037.19
619.967	57142.49
620.323	57180.46
620.678	57017.53
621.034	57045.1
621.39	57080.12
621.746	57008.49
622.101	57326.22
622.457	57074.93
622.812	57105.66
623.168	57206
623.523	57231.31
623.879	57340.68
624.234	57111.99
624.589	57204.87
624.945	57263.17
625.3	57225.43
625.655	57144.98
626.01	57201.48
626.365	57244.41
626.72	57169.39
627.075	57184.53
627.43	57206.22
627.785	57181.36
628.14	57206.9
628.495	57198.54
628.85	57274.92
629.205	57149.05
629.559	57241.25
629.914	57111.54
630.269	57149.27
630.623	57084.87
630.978	57074.93
631.332	57133.68
631.687	57115.6
632.041	57056.4
632.396	57085.55
632.75	57008.71
633.104	57049.16
633.459	56898.43
633.813	56888.94
634.167	56861.6
634.521	56919.9
634.875	56956.28
635.229	56880.35
635.583	56743.86
635.937	56725.78
636.291	56679
636.645	56712
636.999	56650.53
637.352	56729.4
637.706	56489.4
638.06	56648.5
638.413	56634.26
638.767	56518.1
639.121	56560.36
639.474	56348.62
639.828	56465.22
640.181	56463.64
640.534	56430.65
640.888	56356.75
641.241	56245.57
641.594	56306.58
641.947	56363.08
642.301	56253.93
642.654	56324.66
643.007	56220.03
643.36	56228.62
643.713	56083.31
644.066	56252.57
644.419	55997.67
644.771	55950.21
645.124	55618.92
645.477	55589.54
645.83	55456.66
646.182	55339.6
646.535	55249.21
646.888	55340.73
647.24	55123.34
647.593	55374.63
647.945	55244.01
648.298	55051.25
648.65	55020.29
649.002	54963.12
649.355	55117.69
649.707	55031.14
650.059	55134.41
650.411	55391.35
650.763	55485.14
651.115	55683.32
651.467	55528.75
651.819	55535.98
652.171	55629.54
652.523	55440.84
652.875	55507.51
653.227	55403.11
653.578	55565.81
653.93	55481.75
654.282	55350.68
654.633	55338.7
654.985	55386.16
655.337	55338.7
655.688	55354.29
656.039	55409.66
656.391	55119.27
656.742	55171.02
657.094	55173.05
657.445	55227.29
657.796	55220.06
658.147	55057.13
658.498	55059.39
658.849	55159.27
659.2	55102.1
659.551	55101.42
659.902	55125.6
660.253	55027.3
660.604	55079.05
660.955	54940.29
661.306	55088.31
661.656	54972.83
662.007	54941.2
662.358	54932.84
662.708	54923.8
663.059	54913.85
663.409	54651.71
663.76	54914.08
664.11	54864.59
664.461	54978.48
664.811	54806.28
665.161	54842.67
665.511	54766.06
665.862	54771.03
666.212	54834.31
666.562	54862.78
666.912	54821.2
667.262	54829.56
667.612	54735.33
667.962	54840.18
668.312	54608.78
668.662	54824.59
669.011	54746.85
669.361	54655.55
669.711	54583.69
670.06	54585.5
670.41	54569.91
670.76	54474.99
671.109	54598.15
671.459	54475.9
671.808	54522.22
672.157	54597.7
672.507	54254.44
672.856	54345.28
673.205	54389.8
673.554	54507.31
673.904	54377.82
674.253	54463.02
674.602	54312.96
674.951	53928.12
675.3	53776.48
675.649	54322
675.998	54248.11
676.346	54321.78
676.695	54349.8
677.044	54149.13
677.393	54278.62
677.741	54222.12
678.09	54162.23
678.438	54037.04
678.787	54141.67
679.135	54058.06
679.484	53812.86
679.832	54016.93
680.181	53807.22
680.529	53946.19
680.877	53798.18
681.225	53690.38
681.573	53901.68
681.922	53710.95
682.27	53566.32
682.618	53570.84
682.966	53428.02
683.314	53520.67
683.661	53453.78
684.009	53284.97
684.357	53245.2
684.705	53160.45
685.053	53239.32
685.4	53167.46
685.748	52996.84
686.095	52967.24
686.443	52870.74
686.79	52913.45
687.138	52838.2
687.485	52827.35
687.832	52638.88
688.18	52622.16
688.527	52491.09
688.874	52398.66
689.221	52348.95
689.568	52318.89
689.915	52202.96
690.262	52205
690.609	52056.75
690.956	51930.65
691.303	51999.35
691.65	51802.07
691.997	51863.99
692.344	51729.08
692.69	51627.39
693.037	51620.61
693.383	51326.83
693.73	51458.8
694.077	51181.97
694.423	51203.22
694.769	51285.47
695.116	51023.56
695.462	51049.1
695.808	50896.11
696.155	50864.47
696.501	50668.99
696.847	50689.33
697.193	50469.9
697.539	50608.2
697.885	50307.42
698.231	50338.83
698.577	50206.63
698.923	50108.78
699.269	50028.56
699.614	49801.22
699.96	49727.77
700.306	49636.25
700.651	49605.52
700.997	49504.96
701.342	49448.46
701.688	49411.17
702.033	49276.94
702.379	49288.24
702.724	48964.18
703.069	49168.24
703.415	48661.81
703.76	48708.59
704.105	48664.75
704.45	48664.98
704.795	48427.02
705.14	48316.06
705.485	48282.39
705.83	48126.01
706.175	48146.57
706.52	48201.26
706.865	47946.8
707.209	47997.2
707.554	47661.84
707.899	47815.96
708.243	47462.52
708.588	47457.55
708.932	47383.2
709.277	47244.68
709.621	47306.37
709.966	47000.39
710.31	47265.47
710.654	46718.36
710.998	46877.68
711.342	46745.93
711.687	46740.73
712.031	46500.29
712.375	46442.89
712.719	46639.72
713.063	46434.98
713.407	46441.99
713.75	46340.74
714.094	46167.42
714.438	46152.5
714.782	46198.15
715.125	45925.61
715.469	45977.59
715.812	45746.41
716.156	45465.74
716.499	45728.56
716.843	45591.39
717.186	45489.47
717.53	45596.36
717.873	45485.63
718.216	45330.6
718.559	45236.82
718.902	45046.54
719.246	45187.1
719.589	44965.87
719.932	44817.85
720.275	44817.85
720.617	44684.97
720.96	44685.2
721.303	44644.74
721.646	44655.37
721.989	44430.51
722.331	44449.95
722.674	44215.15
723.016	44369.27
723.359	44383.06
723.701	44294.02
724.044	44126.57
724.386	43860.36
724.729	44064.87
725.071	43735.84
725.413	43873.47
725.755	43702.85
726.097	43607.48
726.439	43410.43
726.782	43485
727.124	43701.04
727.465	43507.37
727.807	43362.74
728.149	43181.28
728.491	43158.23
728.833	43212.24
729.175	42928.63
729.516	42882.53
729.858	42903.55
730.199	42919.37
730.541	42911.91
730.882	42687.96
731.224	42962.53
731.565	42553.73
731.906	42514.18
732.248	42647.73
732.589	42424.69
732.93	42236.9
733.271	42361.64
733.612	42233.28
733.953	42236.67
734.294	42163.68
734.635	41970.69
734.976	42086.17
735.317	41772.5
735.658	41976.57
735.999	41781.99
736.339	41706.74
736.68	41846.85
737.021	41489.8
737.361	41290.48
737.702	41678.95
738.042	41361.89
738.383	41476.69
738.723	41462.45
739.063	41299.3
739.404	41228.34
739.744	41213.87
740.084	41068.79
740.424	41037.61
740.764	40974.56
741.104	41179.52
741.444	40855.01
741.784	40740.44
742.124	40917.61
742.464	40697.96
742.804	40637.62
743.143	40656.83
743.483	40642.82
743.823	40375.93
744.162	40467.45
744.502	40503.84
744.841	40200.79
745.181	40322.6
745.52	40149.27
745.86	40165.54
746.199	40110.85
746.538	39916.28
746.877	40066.33
747.216	40068.37
747.556	39905.21
747.895	39906.11
748.234	39580.02
748.573	39775.95
748.911	39611.88
749.25	39596.97
749.589	39413.7
749.928	39619.79
750.267	39576.85
750.605	39417.09
750.944	39233.14
751.283	39041.95
751.621	39154.95
751.96	38886.25
752.298	38987.49
752.636	38876.76
752.975	38531.46
753.313	38469.77
753.651	38666.6
753.989	38499.37
754.327	38554.96
754.666	38195.42
755.004	38319.49
755.342	38176.21
755.679	38142.32
756.017	37870.91
756.355	38097.35
756.693	37785.72
757.031	37862.1
757.368	37566.06
757.706	37631.14
758.044	37413.3
758.381	37525.84
758.719	37269.12
759.056	37382.34
759.394	37023.25
759.731	36827.55
760.068	36994.32
760.405	36666.87
760.743	36819.87
761.08	36834.1
761.417	36603.6
761.754	36570.38
762.091	36341.23
762.428	36148.92
762.765	36042.71
763.102	36135.59
763.438	35887.01
763.775	35755.94
764.112	35723.62
764.449	35647.47
764.785	35623.06
765.122	35344.88
765.458	35262.17
765.795	35183.52
766.131	35112.57
766.467	34965
766.804	34890.65
767.14	34661.96
767.476	34616.99
767.812	34485.92
768.148	34527.72
768.485	34348.52
768.821	34131.8
769.157	34127.73
769.492	33995.08
769.828	34042.76
770.164	33715.31
770.5	33522.1
770.836	33550.35
771.171	33349.67
771.507	33336.11
771.842	32908.78
772.178	32883.92
772.513	33059.74
772.849	32823.59
773.184	32659.97
773.519	32631.27
773.855	32416.82
774.19	32458.17
774.525	32293.66
774.86	32242.13
775.195	32274.9
775.53	32062.7
775.865	31856.15
776.2	31643.96
776.535	31452.55
776.87	31547.91
777.205	31443.06
777.539	31151.31
777.874	31194.7
778.209	30907.7
778.543	30841.94
778.878	30658.22
779.212	30767.14
779.547	30549.3
779.881	30528.05
780.215	30331.45
780.55	30323.31
780.884	30114.28
781.218	30078.12
781.552	30071.12
781.886	29848.98
782.22	29751.58
782.554	29624.12
782.888	29438.59
783.222	29347.29
783.556	29200.4
783.889	29143.91
784.223	28936.46
784.557	28914.54
784.89	29008.55
785.224	28798.38
785.557	28644.26
785.891	28567.88
786.224	28446.98
786.558	28382.8
786.891	28156.14
787.224	28122.01
787.557	28003.6
787.891	27930.38
788.224	27894.45
788.557	27876.82
788.89	27814.68
789.223	27697.62
789.556	27388.25
789.888	27384.41
790.221	27317.06
790.554	27114.81
790.887	27145.09
791.219	26931.99
791.552	27007.47
791.884	26929.96
792.217	26760.92
792.549	26691.32
792.882	26485
793.214	26355.73
793.546	26503.3
793.879	26260.14
794.211	26059.7
794.543	26174.5
794.875	25991.45
795.207	26035.06
795.539	25975.86
795.871	26021.96
796.203	25675.07
796.535	25593.95
796.867	25606.83
797.198	25517.34
797.53	25459.49
797.862	25241.64
798.193	25277.12
798.525	25095.2
798.856	25226.5
799.188	24835.32
799.519	24798.49
799.85	24616.8
800.182	24604.59
800.513	24648.89
800.844	24515.78
801.175	24605.05
801.506	24535.67
801.837	24327.54
802.168	24377.71
802.499	24276.47
802.83	24115.57
803.161	24031.95
803.491	24140.88
803.822	24090.48
804.153	23809.59
804.483	23653.88
804.814	23693.88
805.145	23534.11
805.475	23625.64
805.805	23443.72
806.136	23524.4
806.466	23408.69
806.796	23387.45
807.126	23144.07
807.457	23135.71
807.787	23164.86
808.117	22981.13
808.447	22964.18
808.777	22948.59
809.107	22861.81
809.436	22709.28
809.766	22814.81
810.096	22592.67
810.426	22678.54
810.755	22608.94
811.085	22507.93
811.414	22433.58
811.744	22256.18
812.073	22198.33
812.403	22207.82
812.732	22061.84
813.061	22000.82
813.39	21915.85
813.719	21886.25
814.049	22126.01
814.378	21895.06
814.707	21859.58
815.036	21787.94
815.365	21673.6
815.693	21480.16
816.022	21456.2
816.351	21435.64
816.68	21390.44
817.008	21357.45
817.337	21235.64
817.665	21225.02
817.994	21312.02
818.322	21273.16
818.651	21074.06
818.979	20997.91
819.307	21048.75
819.636	21035.87
819.964	20797.01
820.292	20970.11
820.62	20898.7
820.948	20956.78
821.276	20899.61
821.604	20773.96
821.932	20795.65
822.259	20888.76
822.587	20876.56
822.915	20684.7
823.243	20826.84
823.57	20711.36
823.898	20749.33
824.225	20653.06
824.553	20604.7
824.88	20682.21
825.207	20765.6
825.535	20669.56
825.862	20776.22
826.189	20580.07
826.516	20783.68
826.843	20868.19
827.17	20776.9
827.497	20653.74
827.824	20710.46
828.151	20678.82
828.478	20685.83
828.805	20714.75
829.131	20597.92
829.458	20643.34
829.785	20475.21
830.111	20644.92
830.438	20687.63
830.764	20713.17
831.09	20745.03
831.417	20576.22
831.743	20675.43
832.069	20650.8
832.395	20444.48
832.722	20522.89
833.048	20467.98
833.374	20419.84
833.7	20398.15
834.026	20438.83
834.351	20532.38
834.677	20396.79
835.003	20483.8
835.329	20403.8
835.654	20368.09
835.98	20266.18
836.306	20413.29
836.631	20226.18
836.956	20211.26
837.282	20270.47
837.607	20126.29
837.932	20149.12
838.258	20239.51
838.583	20087.65
838.908	19930.82
839.233	20080.87
839.558	19928.56
839.883	19927.65
840.208	19835.45
840.533	19871.61
840.858	19821.67
841.182	19809.69
841.507	19771.05
841.832	19528.79
842.156	19582.35
842.481	19602.24
842.805	19623.48
843.13	19560.66
843.454	19446.99
843.778	19457.84
844.103	19378.06
844.427	19358.86
844.751	19423.49
845.075	19275.02
845.399	19262.81
845.723	19181.01
846.047	19162.7
846.371	19029.37
846.695	19011.29
847.019	18745.99
847.343	18742.83
847.666	18571.08
847.99	18536.5
848.313	18519.1
848.637	18434.81
848.96	18354.14
849.284	18362.72
849.607	18233.69
849.931	18182.16
850.254	18055.39
850.577	18068.72
850.9	17818.78
851.223	17829.4
851.546	17640.48
851.869	17694.72
852.192	17753.02
852.515	17522.29
852.838	17515.51
853.161	17444.56
853.483	17361.85
853.806	17342.41
854.129	17291.57
854.451	17180.83
854.774	17135.64
855.096	17074.85
855.419	17026.26
855.741	16966.83
856.063	16923.44
856.385	16828.75
856.708	16790.79
857.03	16820.39
857.352	16740.62
857.674	16647.06
857.996	16660.17
858.318	16580.62
858.64	16582.66
858.961	16473.28
859.283	16456.33
859.605	16305.15
859.926	16379.27
860.248	16332.27
860.57	16148.09
860.891	16247.52
861.212	16167.3
861.534	16069.22
861.855	16045.72
862.176	16043.91
862.498	16058.6
862.819	15999.17
863.14	15982.22
863.461	15998.94
863.782	15861.77
864.103	15874.65
864.424	15895.44
864.745	15871.04
865.065	15730.7
865.386	15641.89
865.707	15604.15
866.027	15637.15
866.348	15625.17
866.668	15617.94
866.989	15563.7
867.309	15444.61
867.63	15535.91
867.95	15497.94
868.27	15443.48
868.59	15386.3
868.91	15337.04
869.23	15389.24
869.55	15320.32
869.87	15402.35
870.19	15283.71
870.51	15312.41
870.83	15248.23
871.15	15258.62
871.469	15148.34
871.789	15121.9
872.109	15174.78
872.428	15036.71
872.748	15108.8
873.067	15039.87
873.386	15031.29
873.706	14973.66
874.025	14980.44
874.344	14866.54
874.663	14916.71
874.982	14927.56
875.301	14856.15
875.62	14831.52
875.939	14868.13
876.258	14817.05
876.577	14770.05
876.896	14757.17
877.214	14708.81
877.533	14728.69
877.852	14649.83
878.17	14655.02
878.489	14625.87
878.807	14627.91
879.125	14571.86
879.444	14498.87
879.762	14516.95
880.08	14619.32
880.398	14412.54
880.716	14434.24
881.034	14357.63
881.352	14380.68
881.67	14351.98
881.988	14330.74
882.306	14333.45
882.624	14208.93
882.941	14241.48
883.259	14133.91
883.577	14164.42
883.894	14139.78
884.212	14093.68
884.529	14078.77
884.846	13977.08
885.164	14019.79
885.481	14003.29
885.798	13954.48
886.115	13793.8
886.432	13922.61
886.75	13883.07
887.067	13871.54
887.383	13797.42
887.7	13761.26
888.017	13683.07
888.334	13738.44
888.651	13620.25
888.967	13625.9
889.284	13485.79
889.6	13510.2
889.917	13483.08
890.233	13465
890.55	13355.17
890.866	13417.77
891.182	13397.88
891.498	13285.12
891.815	13189.53
892.131	13225.91
892.447	13158.79
892.763	13142.07
893.079	13095.97
893.395	13012.13
893.71	13025.46
894.026	13020.49
894.342	12888.07
894.657	12809.2
894.973	12790.44
895.289	12856.2
895.604	12757
895.92	12635.19
896.235	12593.84
896.55	12619.82
896.865	12658.92
897.181	12558.58
897.496	12548.19
897.811	12499.6
898.126	12407.4
898.441	12297.35
898.756	12297.35
899.071	12251.02
899.386	12250.57
899.7	12154.98
900.015	12101.87
900.33	12105.49
900.644	12128.31
900.959	12112.49
901.273	12004.25
901.588	11930.12
901.902	11926.73
902.216	11820.75
902.531	11856
902.845	11789.56
903.159	11698.72
903.473	11630.02
903.787	11612.39
904.101	11597.7
904.415	11596.12
904.729	11517.48
905.042	11459.63
905.356	11447.2
905.67	11412.62
905.984	11348.22
906.297	11268.9
906.611	11203.14
906.924	11210.82
907.237	11202.69
907.551	11129.92
907.864	11058.73
908.177	11009.7
908.491	10977.83
908.804	10880.43
909.117	10887.67
909.43	10780.1
909.743	10770.83
910.056	10757.95
910.368	10659.42
910.681	10655.81
910.994	10646.99
911.307	10515.25
911.619	10534.23
911.932	10608.58
912.244	10468.47
912.557	10430.73
912.869	10445.42
913.181	10323.84
913.494	10309.38
913.806	10217.85
914.118	10167.46
914.43	10127.01
914.742	10162.49
915.054	10062.38
915.366	10068.93
915.678	10003.4
915.99	9938.54
916.302	9853.34
916.613	9843.4
916.925	9849.05
917.236	9767.24
917.548	9656.74
917.859	9690.64
918.171	9624.87
918.482	9522.28
918.794	9549.4
919.105	9506.23
919.416	9433.24
919.727	9459.91
920.038	9427.82
920.349	9368.38
920.66	9286.58
920.971	9285.9
921.282	9308.27
921.593	9221.95
921.903	9132.46
922.214	9163.64
922.525	9056.3
922.835	9042.29
923.146	9021.05
923.456	8981.73
923.767	8932.91
924.077	8960.26
924.387	8865.12
924.697	8820.6
925.008	8755.74
925.318	8746.03
925.628	8686.82
925.938	8672.36
926.248	8652.7
926.558	8577.67
926.867	8573.83
927.177	8527.73
927.487	8451.8
927.796	8467.39
928.106	8404.57
928.416	8400.5
928.725	8337.9
929.034	8336.32
929.344	8278.69
929.653	8286.83
929.962	8195.53
930.271	8174.06
930.581	8104.46
930.89	8051.36
931.199	8105.37
931.508	8017.91
931.817	8004.35
932.125	7927.07
932.434	7915.09
932.743	7875.09
933.051	7825.37
933.36	7753.06
933.669	7725.26
933.977	7687.52
934.286	7700.63
934.594	7646.39
934.902	7626.51
935.21	7530.24
935.519	7541.99
935.827	7510.58
936.135	7461.99
936.443	7424.71
936.751	7345.84
937.059	7354.43
937.367	7321.88
937.674	7315.78
937.982	7275.56
938.29	7237.82
938.597	7252.06
938.905	7146.52
939.213	7091.38
939.52	7087.99
939.827	7099.29
940.135	7051.16
940.442	6989.69
940.749	7027.43
941.056	6951.5
941.363	6898.39
941.67	6940.2
941.977	6859.75
942.284	6807.32
942.591	6869.92
942.898	6797.83
943.205	6757.83
943.511	6655.69
943.818	6705.63
944.125	6624.05
944.431	6665.63
944.738	6613.65
945.044	6567.33
945.35	6503.15
945.657	6462.25
945.963	6482.36
946.269	6466.54
946.575	6446.88
946.881	6382.47
947.187	6363.26
947.493	6325.07
947.799	6314
948.105	6272.65
948.41	6251.4
948.716	6261.35
949.022	6158.98
949.327	6110.16
949.633	6060.67
949.938	6129.6
950.244	6065.19
950.549	5972.99
950.854	6001.92
951.16	6015.93
951.465	5961.92
951.77	5933.9
952.075	5881.47
952.38	5952.2
952.685	5877.18
952.99	5786.78
953.294	5800.79
953.599	5787.69
953.904	5731.42
954.209	5747.69
954.513	5755.37
954.818	5692.55
955.122	5629.5
955.426	5627.47
955.731	5579.1
956.035	5601.7
956.339	5563.51
956.643	5552.21
956.948	5516.73
957.252	5484.87
957.556	5462.95
957.86	5424.31
958.163	5392.44
958.467	5392.44
958.771	5349.51
959.075	5349.05
959.378	5324.2
959.682	5324.2
959.985	5307.25
960.289	5253.92
960.592	5176.4
960.896	5244.2
961.199	5174.14
961.502	5217.76
961.805	5132.11
962.108	5041.94
962.411	5064.99
962.714	5060.7
963.017	5005.11
963.32	5037.2
963.623	4999.01
963.926	4939.8
964.228	4990.65
964.531	4914.72
964.833	4934.15
965.136	4917.2
965.438	4852.8
965.741	4804.66
966.043	4807.83
966.345	4757.21
966.648	4811.67
966.95	4762.85
967.252	4722.86
967.554	4708.17
967.856	4699.13
968.158	4661.61
968.46	4657.32
968.761	4586.14
969.063	4619.81
969.365	4568.74
969.666	4588.4
969.968	4509.75
970.269	4525.12
970.571	4503.88
970.872	4467.04
971.174	4423.43
971.475	4451
971.776	4428.85
972.077	4370.32
972.378	4374.62
972.679	4382.53
972.98	4370.1
973.281	4345.24
973.582	4294.17
973.883	4288.97
974.183	4251.46
974.484	4229.76
974.785	4193.83
975.085	4233.6
975.386	4211.23
975.686	4202.42
975.986	4160.61
976.287	4186.37
976.587	4091.23
976.887	4083.55
977.187	4074.74
977.487	4066.38
977.787	3996.1
978.087	4006.94
978.387	3999.94
978.687	4019.37
978.987	4006.04
979.286	3932.59
979.586	3943.89
979.885	3919.26
980.185	3938.02
980.484	3873.39
980.784	3824.57
981.083	3833.16
981.382	3845.36
981.682	3803.78
981.981	3782.32
982.28	3746.16
982.579	3720.62
982.878	3759.72
983.177	3709.1
983.475	3747.74
983.774	3708.19
984.073	3654.41
984.372	3651.02
984.67	3650.34
984.969	3673.84
985.267	3630.68
985.566	3571.7
985.864	3564.92
986.162	3568.54
986.461	3525.15
986.759	3527.41
987.057	3482.21
987.355	3530.35
987.653	3464.13
987.951	3443.79
988.249	3444.25
988.547	3462.55
988.844	3426.84
989.142	3416.22
989.44	3330.8
989.737	3370.58
990.035	3314.98
990.332	3341.65
990.63	3301.42
990.927	3293.74
991.224	3279.73
991.521	3267.08
991.819	3247.64
992.116	3216.91
992.413	3197.02
992.71	3253.29
993.006	3183.91
993.303	3157.7
993.6	3180.75
993.897	3142.56
994.193	3137.81
994.49	3097.14
994.787	3096.01
995.083	3073.41
995.379	3065.27
995.676	3041.09
995.972	3036.8
996.268	3035.89
996.565	2984.6
996.861	3002.68
997.157	2961.09
997.453	2945.28
997.749	2938.04
998.044	2878.84
998.34	2946.63
998.636	2863.02
998.932	2877.03
999.227	2862.34
999.523	2828.22
999.818	2838.61
1000.114	2775.56
1000.409	2810.82
1000.704	2773.08
1001	2750.48
1001.295	2716.58
1001.59	2745.28
1001.885	2732.63
1002.18	2691.95
1002.475	2689.46
1002.77	2681.78
1003.065	2651.5
1003.359	2657.15
1003.654	2640.42
1003.949	2616.7
1004.243	2578.28
1004.538	2560.2
1004.832	2591.84
1005.127	2553.42
1005.421	2532.18
1005.715	2537.38
1006.009	2505.97
1006.304	2505.51
1006.598	2509.13
1006.892	2475.91
1007.186	2435.01
1007.48	2438.85
1007.773	2416.7
1008.067	2425.74
1008.361	2434.33
1008.655	2378.28
1008.948	2368.34
1009.242	2351.17
1009.535	2362.01
1009.829	2360.66
1010.122	2347.55
1010.415	2295.35
1010.708	2277.95
1011.001	2277.95
1011.295	2285.86
1011.588	2265.52
1011.881	2218.52
1012.173	2221.45
1012.466	2193.66
1012.759	2186.88
1013.052	2169.93
1013.344	2194.33
1013.637	2141.68
1013.93	2136.94
1014.222	2153.43
1014.514	2111.63
1014.807	2073.89
1015.099	2079.31
1015.391	2059.88
1015.683	2102.36
1015.976	2036.37
1016.268	2039.99
1016.56	2016.94
1016.851	2023.94
1017.143	1985.3
1017.435	1984.4
1017.727	1978.07
1018.018	1949.82
1018.31	1943.95
1018.602	1943.95
1018.893	1922.03
1019.185	1914.79
1019.476	1892.2
1019.767	1880.22
1020.058	1878.19
1020.35	1848.81
1020.641	1845.42
1020.932	1817.4
1021.223	1834.12
1021.514	1816.27
1021.804	1765.87
1022.095	1771.52
1022.386	1767
1022.677	1736.27
1022.967	1746.21
1023.258	1723.84
1023.548	1672.54
1023.839	1717.29
1024.129	1680.9
1024.419	1672.77
1024.709	1689.49
1025	1654.24
1025.29	1622.6
1025.58	1610.85
1025.87	1638.42
1026.16	1610.85
1026.449	1600.68
1026.739	1588.02
1027.029	1578.08
1027.319	1547.12
1027.608	1556.16
1027.898	1534.47
1028.187	1538.31
1028.477	1537.63
1028.766	1507.12
1029.055	1494.69
1029.344	1484.98
1029.634	1467.12
1029.923	1465.99
1030.212	1428.03
1030.501	1474.13
1030.79	1440
1031.078	1431.87
1031.367	1394.58
1031.656	1438.42
1031.945	1388.25
1032.233	1414.47
1032.522	1387.35
1032.81	1388.93
1033.099	1363.17
1033.387	1356.39
1033.675	1361.36
1033.963	1329.27
1034.251	1323.85
1034.54	1314.36
1034.828	1308.71
1035.116	1269.61
1035.403	1261.03
1035.691	1254.7
1035.979	1276.39
1036.267	1233
1036.554	1245.43
1036.842	1230.74
1037.129	1270.07
1037.417	1215.83
1037.704	1209.28
1037.992	1217.64
1038.279	1207.24
1038.566	1183.51
1038.853	1183.51
1039.14	1183.51
