Data from white_steel_sheet_FLMS001491_022.txt Node
Date: Tue Feb 07 10:57:36 GMT 2017
User: dcchb
Spectrometer: FLMS00149
Trigger mode: 0
Integration Time (sec): 2.000000E-2
Scans to average: 10
Electric dark correction enabled: true
Nonlinearity correction enabled: false
Boxcar width: 0
XAxis mode: Wavelengths
Number of Pixels in Spectrum: 2048
>>>>>Begin Spectral Data<<<<<
341.393	-1.34
341.776	-1.34
342.16	-1.34
342.543	-54.45
342.927	-57.84
343.31	-76.82
343.693	-69.36
344.077	-80.66
344.46	-53.09
344.843	-42.24
345.226	-11.06
345.61	-28.69
345.993	-11.06
346.376	-9.48
346.759	10.41
347.142	38.66
347.525	40.92
347.908	50.63
348.291	67.81
348.674	85.44
349.057	88.6
349.44	114.59
349.823	139.67
350.206	173.34
350.588	214.02
350.971	216.28
351.354	248.37
351.737	247.01
352.119	273.91
352.502	291.31
352.884	281.36
353.267	305.99
353.65	288.37
354.032	286.11
354.414	343.06
354.797	335.15
355.179	327.01
355.562	331.3
355.944	331.08
356.326	353.45
356.709	335.6
357.091	341.02
357.473	357.07
357.855	351.87
358.238	343.51
358.62	341.02
359.002	363.85
359.384	360
359.766	340.8
360.148	353
360.53	350.51
360.912	343.06
361.294	346.67
361.676	351.19
362.057	338.76
362.439	338.76
362.821	336.73
363.203	343.73
363.584	351.87
363.966	328.59
364.348	362.49
364.729	336.5
365.111	320.23
365.493	343.06
365.874	342.15
366.256	337.63
366.637	353.23
367.019	324.3
367.4	326.56
367.781	341.47
368.163	348.25
368.544	318.65
368.925	323.17
369.306	348.03
369.688	358.42
370.069	330.63
370.45	328.82
370.831	314.36
371.212	337.63
371.593	337.18
371.974	342.6
372.355	326.79
372.736	327.92
373.117	326.79
373.498	331.08
373.879	334.47
374.26	341.47
374.641	360.91
375.021	327.46
375.402	355.94
375.783	354.13
376.163	362.04
376.544	350.74
376.925	350.51
377.305	353.68
377.686	345.99
378.066	367.46
378.447	344.64
378.827	361.36
379.208	347.35
379.588	355.49
379.968	345.09
380.349	378.08
380.729	348.93
381.109	354.58
381.489	377.41
381.87	371.3
382.25	369.5
382.63	373.11
383.01	385.99
383.39	387.57
383.77	376.95
384.15	390.06
384.53	391.19
384.91	374.47
385.29	370.17
385.67	386.22
386.049	379.89
386.429	391.64
386.809	411.3
387.189	411.75
387.568	393.9
387.948	397.74
388.328	414.47
388.707	426.67
389.087	430.06
389.466	418.08
389.846	418.31
390.225	439.55
390.605	434.8
390.984	415.14
391.363	448.59
391.743	434.8
392.122	450.4
392.501	449.27
392.881	451.08
393.26	437.74
393.639	452.43
394.018	448.36
394.397	493.11
394.776	474.8
395.155	470.74
395.534	459.44
395.913	462.37
396.292	493.11
396.671	489.04
397.05	492.43
397.429	483.84
397.808	500.34
398.186	528.14
398.565	523.39
398.944	539.21
399.323	554.12
399.701	543.28
400.08	554.58
400.458	536.5
400.837	560.23
401.215	572.65
401.594	572.2
401.972	573.11
402.351	599.77
402.729	595.03
403.107	582.37
403.486	614.91
403.864	634.35
404.242	637.51
404.62	627.57
404.999	665.53
405.377	665.53
405.755	661.92
406.133	687.91
406.511	696.04
406.889	677.28
407.267	699.2
407.645	743.27
408.023	717.28
408.401	739.43
408.779	762.93
409.156	763.61
409.534	794.12
409.912	792.31
410.29	800.22
410.667	821.24
411.045	817.85
411.422	815.13
411.8	863.49
412.178	834.34
412.555	876.83
412.933	871.4
413.31	884.06
413.687	899.43
414.065	912.08
414.442	906.88
414.819	929.03
415.197	943.72
415.574	964.06
415.951	962.47
416.328	982.36
416.705	976.71
417.082	988.24
417.46	1028.91
417.837	1056.71
418.214	1025.07
418.591	1025.07
418.967	1023.72
419.344	1075.01
419.721	1083.38
420.098	1069.59
420.475	1109.82
420.852	1122.02
421.228	1106.2
421.605	1138.52
421.982	1141.68
422.358	1127.67
422.735	1169.93
423.111	1146.88
423.488	1179.64
423.864	1208.34
424.241	1210.83
424.617	1237.72
424.994	1223.94
425.37	1240.66
425.746	1235.24
426.123	1253.31
426.499	1251.73
426.875	1285.63
427.251	1314.33
427.627	1324.05
428.003	1346.42
428.379	1343.48
428.756	1380.77
429.132	1382.8
429.507	1419.64
429.883	1461.44
430.259	1460.99
430.635	1447.89
431.011	1471.39
431.387	1533.31
431.763	1521.33
432.138	1559.75
432.514	1569.46
432.89	1552.29
433.265	1636.36
433.641	1614.43
434.016	1623.25
434.392	1669.57
434.767	1697.37
435.143	1691.5
435.518	1716.58
435.894	1749.12
436.269	1757.48
436.644	1785.5
437.02	1803.58
437.395	1811.27
437.77	1821.21
438.145	1857.82
438.52	1887.87
438.895	1901.21
439.271	1894.65
439.646	1947.99
440.021	1978.04
440.395	1981.2
440.77	1962.9
441.145	2002
441.52	2029.57
441.895	2052.16
442.27	2077.25
442.645	2038.15
443.019	2109.56
443.394	2099.85
443.769	2136.46
444.143	2077.47
444.518	2150.47
444.892	2129
445.267	2184.59
445.641	2177.13
446.016	2197.02
446.39	2246.28
446.764	2236.57
447.139	2277.92
447.513	2271.82
447.887	2279.28
448.262	2306.39
448.636	2298.03
449.01	2362.89
449.384	2371.03
449.758	2368.77
450.132	2399.27
450.506	2412.83
450.88	2438.82
451.254	2449.22
451.628	2470.46
452.002	2492.38
452.376	2545.03
452.75	2571.25
453.123	2580.96
453.497	2590.68
453.871	2658.48
454.244	2649.21
454.618	2733.28
454.992	2744.12
455.365	2753.84
455.739	2788.87
456.112	2859.37
456.486	2832.03
456.859	2914.29
457.232	2978.47
457.606	2958.13
457.979	2985.47
458.352	3007.62
458.725	3091.23
459.099	3112.25
459.472	3168.07
459.845	3176.2
460.218	3188.4
460.591	3237.9
460.964	3249.65
461.337	3322.86
461.71	3351.79
462.083	3394.28
462.456	3455.29
462.829	3461.39
463.201	3534.16
463.574	3482.63
463.947	3547.49
464.32	3643.76
464.692	3688.5
465.065	3705.45
465.438	3761.95
465.81	3830.42
466.183	3857.77
466.555	3910.19
466.928	3946.35
467.3	4005.56
467.672	4017.99
468.045	4135.95
468.417	4129.85
468.789	4123.52
469.161	4194.48
469.534	4287.59
469.906	4389.05
470.278	4415.72
470.65	4445.09
471.022	4538.43
471.394	4598.09
471.766	4660.91
472.138	4754.01
472.51	4788.36
472.882	4873.33
473.253	4941.13
473.625	5011.18
473.997	5134.34
474.369	5132.53
474.74	5189.93
475.112	5276.94
475.484	5380.21
475.855	5428.8
476.227	5504.28
476.598	5633.31
476.97	5722.12
477.341	5845.96
477.713	5946.98
478.084	5959.41
478.455	6158.72
478.827	6211.15
479.198	6308.32
479.569	6375.21
479.94	6527.98
480.311	6526.4
480.682	6711.25
481.053	6855.88
481.424	6977.01
481.795	7037.57
482.166	7149.88
482.537	7253.83
482.908	7410.67
483.279	7461.74
483.65	7643.65
484.021	7784.89
484.391	7842.97
484.762	7925.68
485.133	8028.28
485.503	8119.12
485.874	8383.97
486.244	8338.33
486.615	8573.35
486.985	8612.44
487.356	8811.08
487.726	8910.97
488.097	9110.74
488.467	9118.19
488.837	9281.35
489.207	9453.1
489.578	9518.41
489.948	9643.6
490.318	9731.51
490.688	9839.98
491.058	9985.06
491.428	10197.26
491.798	10195.23
492.168	10409.23
492.538	10411.27
492.908	10565.61
493.278	10750.69
493.648	10686.74
494.017	10916.34
494.387	11014.87
494.757	11085.82
495.126	11228.42
495.496	11268.87
495.866	11338.47
496.235	11500.5
496.605	11590.9
496.974	11697.11
497.344	11858.91
497.713	11853.04
498.082	11986.82
498.452	12106.36
498.821	12106.14
499.19	12146.81
499.559	12309.97
499.928	12398.33
500.298	12535.5
500.667	12640.36
501.036	12605.56
501.405	12765.55
501.774	12763.29
502.143	12889.17
502.512	12961.26
502.88	13167.13
503.249	13182.27
503.618	13204.64
503.987	13387.68
504.356	13436.95
504.724	13481.92
505.093	13655.02
505.462	13687.79
505.83	13842.81
506.199	13875.81
506.567	14045.97
506.936	14027.67
507.304	14211.62
507.672	14323.93
508.041	14450.48
508.409	14496.81
508.777	14646.86
509.145	14771.83
509.514	14707.42
509.882	14904.48
510.25	15016.34
510.618	15022.9
510.986	15203.91
511.354	15417.24
511.722	15432.15
512.09	15530.45
512.458	15620.17
512.826	15728.19
513.193	15923.44
513.561	15981.97
513.929	16107.39
514.297	16194.62
514.664	16373.14
515.032	16406.81
515.4	16582.63
515.767	16747.6
516.135	16850.87
516.502	16791.44
516.869	16995.95
517.237	17141.26
517.604	17154.37
517.972	17303.51
518.339	17393
518.706	17558.87
519.073	17605.2
519.44	17759.55
519.808	17919.77
520.175	17964.97
520.542	18275.69
520.909	18392.3
521.276	18458.51
521.643	18639.3
522.009	18721.33
522.376	18880.87
522.743	19030.25
523.11	19269.34
523.477	19372.39
523.843	19485.38
524.21	19735.31
524.577	19889.66
524.943	19920.17
525.31	20136.21
525.676	20299.14
526.043	20432.7
526.409	20599.7
526.776	20836.53
527.142	20862.52
527.508	20938.67
527.874	21095.73
528.241	21285.33
528.607	21321.49
528.973	21528.71
529.339	21561.03
529.705	21839.67
530.071	22003.05
530.437	22139.32
530.803	22282.82
531.169	22266.77
531.535	22390.16
531.901	22450.05
532.267	22575.69
532.632	22822.69
532.998	22882.12
533.364	23135.23
533.73	23090.48
534.095	23254.54
534.461	23288.67
534.826	23518.94
535.192	23532.5
535.557	23692.95
535.923	23695.89
536.288	23856.79
536.653	23960.97
537.019	23931.14
537.384	24104.24
537.749	24223.33
538.114	24388.75
538.479	24313.73
538.845	24499.93
539.21	24585.36
539.575	24501.52
539.94	24768.18
540.305	24812.24
540.67	24844.56
541.034	25069.64
541.399	25159.13
541.764	25178.79
542.129	25318.22
542.494	25406.13
542.858	25536.07
543.223	25523.41
543.587	25661.03
543.952	25704.87
544.316	25769.05
544.681	25819.45
545.045	26006.34
545.41	26251.75
545.774	26164.52
546.138	26113.9
546.503	26205.2
546.867	26280.45
547.231	26533.1
547.595	26629.6
547.959	26632.76
548.324	26774
548.688	26800.21
549.052	26941.23
549.416	27098.28
549.779	27049.02
550.143	27098.06
550.507	27250.6
550.871	27399.29
551.235	27327.66
551.599	27628.67
551.962	27712.96
552.326	27764.93
552.689	27814.65
553.053	27895.33
553.417	27945.49
553.78	28270.23
554.143	28270.91
554.507	28316.11
554.87	28463.67
555.234	28752.03
555.597	28577.79
555.96	28757
556.323	28901.85
556.686	28914.73
557.05	29170.55
557.413	29229.75
557.776	29263.2
558.139	29519.24
558.502	29529.18
558.865	29642.17
559.228	29857.31
559.59	29913.58
559.953	29972.11
560.316	30267.92
560.679	30269.73
561.041	30518.31
561.404	30671.98
561.767	30777.06
562.129	30705.65
562.492	31134.11
562.854	31136.37
563.217	31116.71
563.579	31174.34
563.941	31429.24
564.304	31540.2
564.666	31806.86
565.028	31776.35
565.39	31928.44
565.753	32095.44
566.115	32302.67
566.477	32316.68
566.839	32410.24
567.201	32692.94
567.563	32488.88
567.925	32911.69
568.287	32918.24
568.648	32947.4
569.01	33158.69
569.372	33397.1
569.734	33208.86
570.095	33594.84
570.457	33724.55
570.819	33822.85
571.18	33743.99
571.542	33925
571.903	33990.53
572.265	34081.38
572.626	34144.88
572.987	34342.16
573.349	34322.73
573.71	34548.94
574.071	34554.36
574.432	34538.32
574.794	34872.54
575.155	34835.93
575.516	34801.81
575.877	34927.68
576.238	34983.28
576.599	35043.84
576.96	35090.39
577.32	35141.91
577.681	35346.66
578.042	35413.32
578.403	35401.8
578.763	35394.11
579.124	35433.66
579.485	35552.75
579.845	35677.72
580.206	35530.61
580.566	35543.26
580.927	35745.97
581.287	35785.74
581.648	35708.91
582.008	35858.73
582.368	35710.71
582.728	35835
583.089	35761.33
583.449	35848.56
583.809	35873.87
584.169	35819.64
584.529	35829.35
584.889	36159.97
585.249	35833.65
585.609	35785.29
585.969	35859.18
586.329	35909.13
586.688	35885.62
587.048	35779.41
587.408	35817.83
587.768	35931.05
588.127	35857.83
588.487	35916.81
588.846	35965.62
589.206	35782.8
589.565	35870.48
589.925	35937.83
590.284	35816.02
590.643	35976.92
591.003	36036.35
591.362	36089.91
591.721	36060.99
592.08	35950.26
592.44	36021.89
592.799	35985.06
593.158	35978.73
593.517	35986.64
593.876	36029.58
594.235	35858.51
594.593	35945.74
594.952	35959.07
595.311	36042.91
595.67	36068.9
596.029	36154.32
596.387	36230.93
596.746	36293.98
597.104	36024.83
597.463	36135.79
597.822	36244.71
598.18	36070.7
598.538	36136.69
598.897	36323.58
599.255	36071.38
599.613	36568.09
599.972	36205.84
600.33	36445.84
600.688	36179.4
601.046	36280.19
601.404	36366.06
601.762	36399.28
602.12	36398.15
602.478	36576.45
602.836	36486.29
603.194	36179.85
603.552	36363.58
603.91	36230.93
604.268	36465.04
604.625	36334.88
604.983	36465.27
605.341	36303.92
605.698	36492.16
606.056	36554.31
606.413	36493.52
606.771	36553.4
607.128	36773.96
607.485	36585.04
607.843	36632.05
608.2	36747.75
608.557	36730.35
608.914	36561.99
609.272	36831.36
609.629	36829.55
609.986	36963.11
610.343	36875.65
610.7	37150
611.057	37006.95
611.414	36984.35
611.771	37118.13
612.127	37220.73
612.484	37084.46
612.841	37248.53
613.198	37093.5
613.554	37166.04
613.911	37407.39
614.267	37258.47
614.624	37380.95
614.98	37371.23
615.337	37650.32
615.693	37495.53
616.05	37619.36
616.406	37785.46
616.762	37499.59
617.118	37403.78
617.475	37570.78
617.831	37752.92
618.187	37747.72
618.543	37695.29
618.899	38040.6
619.255	37756.99
619.611	37778.23
619.967	37892.35
620.323	38020.94
620.678	37878.57
621.034	37899.36
621.39	37831.56
621.746	37834.27
622.101	38157.65
622.457	37961.28
622.812	37987.26
623.168	38109.29
623.523	37992.91
623.879	38120.59
624.234	37787.04
624.589	38103.42
624.945	38128.28
625.3	38183.87
625.655	37978.45
626.01	37996.76
626.365	38198.11
626.72	38082.85
627.075	38050.77
627.43	38011.9
627.785	37900.03
628.14	38000.37
628.495	37921.73
628.85	37824.33
629.205	37768.06
629.559	38126.47
629.914	37733.94
630.269	37859.36
630.623	37757.89
630.978	37720.6
631.332	38016.19
631.687	37947.04
632.041	37601.29
632.396	37708.63
632.75	37554.28
633.104	37620.27
633.459	37495.3
633.813	37531.68
634.167	37434.74
634.521	37445.81
634.875	37455.07
635.229	37398.8
635.583	37292.37
635.937	37349.77
636.291	37155.87
636.645	37220.5
636.999	37027.29
637.352	37305.7
637.706	37086.04
638.06	37077.01
638.413	37019.83
638.767	36922.21
639.121	36991.13
639.474	36685.83
639.828	36589.33
640.181	36839.5
640.534	36764.7
640.888	36790.46
641.241	36455.55
641.594	36507.08
641.947	36624.36
642.301	36463.46
642.654	36359.96
643.007	36432.28
643.36	36352.28
643.713	36253.07
644.066	36575.55
644.419	36205.62
644.771	36018.28
645.124	35571.73
645.477	35448.8
645.83	35454.9
646.182	35261.69
646.535	35129.71
646.888	35120.9
647.24	34995.7
647.593	35310.05
647.945	35221.91
648.298	34933.11
648.65	34952.77
649.002	34838.65
649.355	34956.84
649.707	34880.68
650.059	34979.21
650.411	35340.33
650.763	35332.42
651.115	35802.91
651.467	35657.16
651.819	35632.07
652.171	35625.52
652.523	35588.91
652.875	35575.58
653.227	35326.32
653.578	35581.23
653.93	35340.55
654.282	35246.54
654.633	35159.32
654.985	35244.06
655.337	35332.87
655.688	35243.61
656.039	35259.43
656.391	34908.7
656.742	35011.52
657.094	35052.88
657.445	35197.05
657.796	35132.2
658.147	35065.98
658.498	34976.95
658.849	34979.21
659.2	34964.07
659.551	34804.97
659.902	34875.71
660.253	34566.79
660.604	34786.9
660.955	34673.45
661.306	34873.22
661.656	34532.89
662.007	34683.62
662.358	34526.79
662.708	34548.03
663.059	34533.34
663.409	34325.67
663.76	34561.37
664.11	34447.24
664.461	34535.83
664.811	34376.51
665.161	34209.74
665.511	34135.61
665.862	34136.07
666.212	34184.88
666.562	34093.81
666.912	33954.6
667.262	33891.33
667.612	33925.45
667.962	33812.46
668.312	33724.78
668.662	33786.92
669.011	33544.89
669.361	33449.53
669.711	33380.61
670.06	33294.73
670.41	33210.21
670.76	33154.17
671.109	33130.89
671.459	33102.19
671.808	32982.88
672.157	33009.77
672.507	32706.95
672.856	32736.55
673.205	32667.86
673.554	32745.37
673.904	32618.37
674.253	32821.52
674.602	32474.41
674.951	32184.7
675.3	32003.92
675.649	32378.6
675.998	32457.69
676.346	32402.55
676.695	32576.33
677.044	32156.91
677.393	32277.13
677.741	32273.29
678.09	32163.91
678.438	32029
678.787	32123.24
679.135	32238.71
679.484	31965.73
679.832	32214.76
680.181	32011.15
680.529	32102.67
680.877	32048.21
681.225	31992.85
681.573	32257.92
681.922	31948.55
682.27	31945.16
682.618	31981.77
682.966	31905.62
683.314	31979.74
683.661	31962.11
684.009	31866.75
684.357	31831.27
684.705	31829.91
685.053	31977.7
685.4	31914.88
685.748	31771.16
686.095	31787.65
686.443	31673.31
686.79	31694.77
687.138	31771.83
687.485	31907.65
687.832	31805.05
688.18	31829.69
688.527	31759.41
688.874	31697.94
689.221	31860.19
689.568	31633.31
689.915	31638.73
690.262	31535
690.609	31597.83
690.956	31507.66
691.303	31570.48
691.65	31436.48
691.997	31488.68
692.344	31278.97
692.69	31326.42
693.037	31323.03
693.383	31058.63
693.73	31286.65
694.077	31078.74
694.423	30996.26
694.769	31039.65
695.116	30933.21
695.462	31011.63
695.808	30910.39
696.155	30910.39
696.501	30794.68
696.847	30902.93
697.193	30593.11
697.539	30698.87
697.885	30410.29
698.231	30404.41
698.577	30355.37
698.923	30386.79
699.269	30250.07
699.614	30175.04
699.96	30032.67
700.306	30115.61
700.651	30015.27
700.997	29754.49
701.342	29934.59
701.688	29672.68
702.033	29672.45
702.379	29678.1
702.724	29633.59
703.069	29616.41
703.415	29295.97
703.76	29390.2
704.105	29324.89
704.45	29271.79
704.795	29010.32
705.14	29070.44
705.485	29028.86
705.83	28909.31
706.175	28900.95
706.52	28943.89
706.865	28818.01
707.209	28688.07
707.554	28633.16
707.899	28644.01
708.243	28471.36
708.588	28423.9
708.932	28312.72
709.277	28266.39
709.621	28294.64
709.966	28281.08
710.31	28271.59
710.654	27872.73
710.998	27989.56
711.342	27936.68
711.687	27891.71
712.031	27792.96
712.375	27680.87
712.719	27634.54
713.063	27717.03
713.407	27782.56
713.75	27626.86
714.094	27497.6
714.438	27451.5
714.782	27395
715.125	27217.15
715.469	27325.4
715.812	27199.52
716.156	26941.68
716.499	27105.74
716.843	27029.59
717.186	26990.94
717.53	27030.26
717.873	27011.06
718.216	26977.16
718.559	26797.5
718.902	26585.08
719.246	26720.22
719.589	26632.53
719.932	26442.26
720.275	26532.65
720.617	26501.01
720.96	26453.1
721.303	26391.18
721.646	26486.32
721.989	26238.19
722.331	26408.36
722.674	26310.51
723.016	26343.73
723.359	26312.77
723.701	26225.09
724.044	25999.33
724.386	25897.64
724.729	26061.25
725.071	25875.04
725.413	25941.03
725.755	25822.84
726.097	25785.1
726.439	25642.5
726.782	25754.14
727.124	25753.91
727.465	25593.92
727.807	25596.63
728.149	25581.26
728.491	25519.8
728.833	25512.11
729.175	25502.85
729.516	25340.14
729.858	25415.84
730.199	25336.3
730.541	25277.77
730.882	25381.27
731.224	25311.44
731.565	25066.93
731.906	25065.8
732.248	25143.08
732.589	24938.12
732.93	25003.2
733.271	24931.56
733.612	24882.52
733.953	24982.63
734.294	24708.97
734.635	24763.2
734.976	24880.94
735.317	24556.88
735.658	24590.55
735.999	24609.99
736.339	24636.65
736.68	24613.83
737.021	24493.16
737.361	24400.28
737.702	24580.38
738.042	24453.61
738.383	24354.4
738.723	24442.76
739.063	24395.53
739.404	24258.36
739.744	24219.26
740.084	24251.58
740.424	24221.98
740.764	24078.48
741.104	24282.31
741.444	24104.01
741.784	24028.53
742.124	24055.43
742.464	23998.48
742.804	23967.07
743.143	23960.51
743.483	23912.38
743.823	23828.77
744.162	23712.61
744.502	23717.58
744.841	23644.59
745.181	23781.99
745.52	23665.15
745.86	23615.44
746.199	23520.53
746.538	23561.65
746.877	23509.23
747.216	23552.16
747.556	23497.93
747.895	23407.99
748.234	23297.71
748.573	23307.42
748.911	23400.53
749.25	23228.56
749.589	23176.35
749.928	23116.47
750.267	23243.24
750.605	23037.15
750.944	22965.51
751.283	22916.47
751.621	23003.48
751.96	22799.87
752.298	22800.54
752.636	22880.99
752.975	22681.9
753.313	22631.96
753.651	22664.5
753.989	22546.77
754.327	22412.98
754.666	22305.87
755.004	22362.36
755.342	22411.18
755.679	22332.53
756.017	22244.18
756.355	22286.21
756.693	22041.92
757.031	22154.91
757.368	22011.86
757.706	22009.15
758.044	21882.83
758.381	21908.59
758.719	21866.56
759.056	21811.19
759.394	21717.18
759.731	21613.23
760.068	21596.28
760.405	21533.46
760.743	21429.06
761.08	21290.3
761.417	21315.16
761.754	21283.75
762.091	21235.39
762.428	21122.62
762.765	21044.88
763.102	21149.74
763.438	20966.92
763.775	20920.82
764.112	20795.4
764.449	20811.44
764.785	20688.28
765.122	20457.56
765.458	20431.57
765.795	20432.7
766.131	20396.09
766.467	20392.02
766.804	20284.9
767.14	20081.52
767.476	20240.61
767.812	20056.21
768.148	20069.32
768.485	19958.81
768.821	19831.81
769.157	19900.28
769.492	19755.2
769.828	19759.49
770.164	19592.04
770.5	19559.95
770.836	19574.87
771.171	19376
771.507	19494.19
771.842	19265.95
772.178	19239.96
772.513	19190.24
772.849	19168.55
773.184	18979.18
773.519	19135.33
773.855	18982.79
774.19	18859.63
774.525	18736.7
774.86	18786.41
775.195	18741.67
775.53	18607.43
775.865	18586.42
776.2	18365.41
776.535	18252.64
776.87	18273.66
777.205	18149.14
777.539	18129.25
777.874	18132.87
778.209	18070.27
778.543	17978.3
778.878	17840.67
779.212	17860.56
779.547	17769.94
779.881	17771.52
780.215	17540.12
780.55	17654.69
780.884	17498.09
781.218	17460.35
781.552	17392.78
781.886	17346.9
782.22	17261.26
782.554	17172.9
782.888	17006.57
783.222	16992.34
783.556	16924.99
783.889	16833.92
784.223	16811.32
784.557	16763.19
784.89	16755.73
785.224	16661.95
785.557	16575.62
785.891	16555.96
786.224	16487.94
786.558	16505.79
786.891	16329.53
787.224	16315.52
787.557	16173.15
787.891	16296.08
788.224	16270.32
788.557	16169.31
788.89	16126.37
789.223	16078.01
789.556	16040.95
789.888	15881.4
790.221	15902.42
790.554	15704.91
790.887	15711.47
791.219	15666.04
791.552	15595.31
791.884	15561.19
792.217	15502.43
792.549	15404.58
792.882	15317.58
793.214	15222.21
793.546	15241.2
793.879	15204.36
794.211	15074.42
794.543	15161.88
794.875	15153.51
795.207	15122.78
795.539	14952.84
795.871	14947.19
796.203	14828.78
796.535	14786.29
796.867	14778.38
797.198	14736.35
797.53	14698.61
797.862	14630.82
798.193	14622.45
798.525	14509.46
798.856	14596.47
799.188	14281.9
799.519	14305.63
799.85	14238.74
800.182	14311.5
800.513	14210.26
800.844	14099.3
801.175	14114.22
801.506	14150.15
801.837	14050.94
802.168	14048.23
802.499	14014.56
802.83	13951.06
803.161	13900.89
803.491	13902.7
803.822	13824.51
804.153	13770.27
804.483	13602.59
804.814	13690.95
805.145	13640.11
805.475	13613.67
805.805	13537.06
806.136	13572.99
806.466	13520.34
806.796	13484.86
807.126	13422.71
807.457	13370.28
807.787	13360.11
808.117	13254.13
808.447	13285.31
808.777	13224.53
809.107	13231.3
809.436	13146.79
809.766	13147.24
810.096	13056.39
810.426	13012.1
810.755	13066.56
811.085	12992.67
811.414	12935.27
811.744	12838.09
812.073	12805.33
812.403	12744.99
812.732	12771.43
813.061	12725.33
813.39	12756.06
813.719	12698.66
814.049	12733.46
814.378	12643.52
814.707	12563.75
815.036	12594.94
815.365	12536.18
815.693	12425.9
816.022	12444.88
816.351	12334.38
816.68	12293.7
817.008	12345.45
817.337	12241.5
817.665	12147.94
817.994	12256.64
818.322	12294.83
818.651	12169.19
818.979	12189.75
819.307	12145.01
819.636	12147.94
819.964	12076.76
820.292	12089.19
820.62	11986.82
820.948	12074.27
821.276	12107.72
821.604	12010.55
821.932	12061.39
822.259	12081.28
822.587	12079.92
822.915	11956.31
823.243	12018.23
823.57	11932.13
823.898	11980.49
824.225	11923.77
824.553	11994.95
824.88	11980.04
825.207	12005.8
825.535	11984.33
825.862	11943.2
826.189	11934.62
826.516	11967.38
826.843	11926.03
827.17	11940.94
827.497	11965.58
827.824	11954.73
828.151	12005.35
828.478	11927.38
828.805	11962.86
829.131	11914.05
829.458	11859.36
829.785	11813.26
830.111	11918.57
830.438	11971.45
830.764	11944.11
831.09	11870.21
831.417	11894.84
831.743	11894.84
832.069	11801.29
832.395	11853.49
832.722	11789.76
833.048	11866.14
833.374	11870.66
833.7	11743.66
834.026	11794.96
834.351	11833.38
834.677	11786.82
835.003	11796.09
835.329	11707.05
835.654	11753.15
835.98	11668.86
836.306	11710.89
836.631	11669.99
836.956	11646.26
837.282	11587.96
837.607	11568.98
837.932	11576.43
838.258	11617.34
838.583	11543.44
838.908	11457.79
839.233	11495.53
839.558	11474.29
839.883	11429.09
840.208	11422.76
840.533	11392.71
840.858	11410.34
841.182	11435.87
841.507	11391.13
841.832	11388.87
842.156	11296.21
842.481	11251.92
842.805	11274.97
843.13	11284.46
843.454	11269.1
843.778	11176.22
844.103	11131.47
844.427	11102.1
844.751	11086.05
845.075	11025.03
845.399	11066.84
845.723	10929.22
846.047	10975.77
846.371	10928.77
846.695	10927.18
847.019	10827.98
847.343	10790.24
847.666	10677.93
847.99	10654.88
848.313	10670.02
848.637	10628.21
848.96	10640.86
849.284	10608.1
849.607	10455.78
849.931	10438.61
850.254	10398.38
850.577	10309.35
850.9	10300.99
851.223	10287.88
851.546	10240.42
851.869	10173.53
852.192	10211.05
852.515	10146.19
852.838	10145.74
853.161	10047.21
853.483	10016.25
853.806	9992.75
854.129	9948.23
854.451	9966.98
854.774	9806.54
855.096	9787.78
855.419	9801.79
855.741	9784.62
856.063	9789.14
856.385	9669.82
856.708	9722.02
857.03	9685.86
857.352	9663.94
857.674	9624.17
857.996	9599.99
858.318	9605.41
858.64	9571.51
858.961	9503.04
859.283	9468.69
859.605	9448.13
859.926	9489.71
860.248	9355.93
860.57	9366.32
860.891	9382.14
861.212	9362.03
861.534	9279.77
861.855	9309.15
862.176	9229.6
862.498	9273.67
862.819	9282.26
863.14	9198.87
863.461	9236.83
863.782	9262.37
864.103	9177.85
864.424	9086.78
864.745	9198.64
865.065	9098.53
865.386	9084.3
865.707	9062.15
866.027	9051.3
866.348	9049.95
866.668	9006.78
866.989	9071.19
867.309	8908.03
867.63	9002.26
867.95	8984.18
868.27	8898.54
868.59	8870.06
868.91	8908.93
869.23	8942.15
869.55	8853.79
869.87	8872.78
870.19	8891.98
870.51	8825.32
870.83	8905.54
871.15	8818.99
871.469	8858.09
871.789	8775.38
872.109	8775.15
872.428	8755.26
872.748	8834.58
873.067	8774.7
873.386	8738.77
873.706	8696.51
874.025	8641.14
874.344	8645.21
874.663	8626.23
874.982	8620.58
875.301	8641.59
875.62	8562.73
875.939	8523.41
876.258	8626.45
876.577	8486.57
876.896	8529.06
877.214	8504.65
877.533	8515.5
877.852	8420.36
878.17	8508.94
878.489	8472.33
878.807	8530.41
879.125	8437.76
879.444	8513.91
879.762	8438.66
880.08	8391.21
880.398	8307.37
880.716	8395.05
881.034	8334.48
881.352	8340.13
881.67	8350.3
881.988	8320.93
882.306	8270.98
882.624	8227.82
882.941	8225.79
883.259	8242.74
883.577	8173.58
883.894	8170.87
884.212	8138.78
884.529	8184.66
884.846	8096.3
885.164	8171.78
885.481	8150.08
885.798	8094.94
886.115	7977.88
886.432	8038.67
886.75	8011.55
887.067	7993.48
887.383	7913.48
887.7	7935.85
888.017	7914.16
888.334	7950.31
888.651	7890.43
888.967	7822.63
889.284	7832.12
889.6	7808.62
889.917	7726.14
890.233	7755.97
890.55	7695.63
890.866	7741.05
891.182	7692.92
891.498	7723.88
891.815	7646.37
892.131	7633.26
892.447	7647.95
892.763	7565.01
893.079	7619.25
893.395	7523.21
893.71	7474.85
894.026	7555.75
894.342	7474.62
894.657	7412.47
894.973	7411.57
895.289	7361.85
895.604	7431.01
895.92	7346.49
896.235	7286.38
896.55	7294.74
896.865	7268.3
897.181	7229.43
897.496	7256.77
897.811	7184.46
898.126	7171.13
898.441	7199.15
898.756	7179.71
899.071	7084.12
899.386	7091.81
899.7	7023.11
900.015	7003.67
900.33	6946.72
900.644	7006.61
900.959	6969.1
901.273	6985.82
901.588	6920.06
901.902	6915.99
902.216	6831.7
902.531	6786.28
902.845	6822.43
903.159	6807.97
903.473	6718.71
903.787	6728.88
904.101	6706.73
904.415	6714.41
904.729	6650.91
905.042	6647.52
905.356	6633.74
905.67	6596.68
905.984	6578.6
906.297	6543.34
906.611	6496.79
906.924	6519.62
907.237	6459.05
907.551	6421.31
907.864	6390.58
908.177	6369.79
908.491	6366.63
908.804	6360.75
909.117	6267.87
909.43	6266.06
909.743	6238.04
910.056	6269
910.368	6203.01
910.681	6211.38
910.994	6182.9
911.307	6198.95
911.619	6114.43
911.932	6084.37
912.244	6045.28
912.557	6051.83
912.869	6016.81
913.181	6034.21
913.494	5927.09
913.806	5911.95
914.118	5911.5
914.43	5889.12
914.742	5916.92
915.054	5806.64
915.366	5854.78
915.678	5760.77
915.99	5783.14
916.302	5755.57
916.613	5717.15
916.925	5724.84
917.236	5767.77
917.548	5645.97
917.859	5671.5
918.171	5662.69
918.482	5615.46
918.794	5592.18
919.105	5570.04
919.416	5539.98
919.727	5517.38
920.038	5497.04
920.349	5434
920.66	5450.72
920.971	5422.47
921.282	5430.83
921.593	5403.26
921.903	5348.57
922.214	5325.52
922.525	5245.3
922.835	5267.22
923.146	5247.56
923.456	5246.2
923.767	5201.23
924.077	5239.2
924.387	5214.11
924.697	5133.89
925.008	5168.47
925.318	5134.12
925.628	5129.6
925.938	5085.53
926.248	5029.94
926.558	4992.2
926.867	4984.06
927.177	5003.05
927.487	4971.86
927.796	4912.43
928.106	4903.39
928.416	4867.23
928.725	4869.26
929.034	4844.63
929.344	4810.51
929.653	4833.79
929.962	4811.87
930.271	4805.76
930.581	4780.45
930.89	4697.97
931.199	4728.48
931.508	4696.39
931.817	4676.28
932.125	4714.92
932.434	4647.8
932.743	4576.84
933.051	4550.18
933.36	4558.09
933.669	4522.16
933.977	4481.93
934.286	4521.93
934.594	4542.95
934.902	4471.53
935.21	4442.61
935.519	4473.79
935.827	4405.77
936.135	4401.93
936.443	4362.16
936.751	4363.97
937.059	4382.95
937.367	4307.25
937.674	4337.53
937.982	4281.94
938.29	4251.2
938.597	4286.46
938.905	4232.22
939.213	4222.5
939.52	4221.82
939.827	4183.18
940.135	4177.76
940.442	4150.41
940.749	4119.68
941.056	4182.95
941.363	4106.12
941.67	4070.87
941.977	4043.98
942.284	4034.26
942.591	4051.21
942.898	4006.69
943.205	3968.27
943.511	4002.39
943.818	3976.41
944.125	3939.12
944.431	3870.42
944.738	3955.39
945.044	3876.52
945.35	3841.27
945.657	3898.22
945.963	3898.44
946.269	3811.44
946.575	3826.13
946.881	3818.67
947.187	3777.09
947.493	3746.13
947.799	3782.29
948.105	3713.81
948.41	3700.26
948.716	3680.6
949.022	3711.55
949.327	3681.5
949.633	3621.39
949.938	3618
950.244	3596.76
950.549	3599.92
950.854	3598.79
951.16	3568.28
951.465	3569.86
951.77	3533.71
952.075	3522.86
952.38	3529.64
952.685	3530.54
952.99	3492.8
953.294	3463.2
953.599	3418.46
953.904	3436.76
954.209	3437.21
954.513	3405.35
954.818	3419.13
955.122	3391.34
955.426	3398.79
955.731	3317.89
956.035	3346.59
956.339	3310.21
956.643	3304.79
956.948	3291
957.252	3251.68
957.556	3256.65
957.86	3199.93
958.163	3219.14
958.467	3213.94
958.771	3201.06
959.075	3181.4
959.378	3149.31
959.682	3198.8
959.985	3150.67
960.289	3168.74
960.592	3144.79
960.896	3101.63
961.199	3067.96
961.502	3090.1
961.805	3053.27
962.108	3045.58
962.411	3036.77
962.714	3060.27
963.017	3022.31
963.32	3015.53
963.623	2996.09
963.926	3004
964.228	2972.82
964.531	2963.78
964.833	2919.26
965.136	2905.02
965.438	2910.9
965.741	2867.06
966.043	2872.25
966.345	2834.29
966.648	2902.99
966.95	2854.63
967.252	2841.3
967.554	2854.85
967.856	2811.69
968.158	2833.39
968.46	2790.9
968.761	2771.69
969.063	2773.27
969.365	2731.92
969.666	2727.85
969.968	2705.03
970.269	2690.56
970.571	2709.32
970.872	2701.64
971.174	2686.72
971.475	2690.34
971.776	2639.49
972.077	2675.2
972.378	2643.33
972.679	2634.3
972.98	2616.67
973.281	2590.91
973.582	2610.11
973.883	2575.09
974.183	2562.88
974.484	2579.38
974.785	2535.31
975.085	2542.55
975.386	2575.09
975.686	2513.85
975.986	2504.13
976.287	2499.38
976.587	2491.25
976.887	2490.12
977.187	2476.33
977.487	2482.89
977.787	2453.51
978.087	2422.55
978.387	2430.01
978.687	2433.62
978.987	2419.39
979.286	2423.23
979.586	2386.62
979.885	2367.41
980.185	2388.88
980.484	2361.99
980.784	2361.99
981.083	2312.72
981.382	2302.78
981.682	2280.18
981.981	2302.55
982.28	2246.96
982.579	2274.3
982.878	2267.3
983.177	2269.33
983.475	2259.39
983.774	2205.61
984.073	2217.13
984.372	2218.26
984.67	2207.87
984.969	2192.5
985.267	2186.17
985.566	2168.54
985.864	2174.42
986.162	2157.25
986.461	2154.53
986.759	2116.57
987.057	2129.45
987.355	2111.6
987.653	2090.58
987.951	2108.89
988.249	2094.87
988.547	2069.79
988.844	2058.49
989.142	2070.02
989.44	2064.59
989.737	2079.73
990.035	2053.75
990.332	2031.83
990.63	2045.38
990.927	2035.21
991.224	2036.57
991.521	2005.61
991.819	1970.13
992.116	1973.3
992.413	1962.45
992.71	1958.83
993.006	1936.69
993.303	1979.17
993.6	1909.34
993.897	1930.36
994.193	1936.91
994.49	1934.65
994.787	1929.45
995.083	1919.06
995.379	1889
995.676	1889.23
995.972	1895.33
996.268	1852.62
996.565	1849.01
996.861	1852.85
997.157	1822.79
997.453	1830.47
997.749	1830.25
998.044	1778.95
998.34	1812.4
998.636	1773.07
998.932	1783.7
999.227	1778.05
999.523	1765.39
999.818	1745.96
1000.114	1723.58
1000.409	1739.63
1000.704	1717.26
1001	1717.94
1001.295	1706.64
1001.59	1717.26
1001.885	1693.53
1002.18	1680.87
1002.475	1660.76
1002.77	1653.08
1003.065	1664.15
1003.359	1670.93
1003.654	1655.11
1003.949	1655.11
1004.243	1631.16
1004.538	1623.02
1004.832	1618.05
1005.127	1598.84
1005.421	1596.58
1005.715	1582.8
1006.009	1586.87
1006.304	1560.88
1006.598	1564.49
1006.892	1525.85
1007.186	1493.99
1007.48	1522.91
1007.773	1511.39
1008.067	1489.69
1008.361	1480.65
1008.655	1462.12
1008.948	1481.11
1009.242	1475.46
1009.535	1449.47
1009.829	1478.17
1010.122	1450.15
1010.415	1459.86
1010.708	1429.58
1011.001	1412.86
1011.295	1430.94
1011.588	1429.36
1011.881	1396.81
1012.173	1415.12
1012.466	1371.5
1012.759	1395.23
1013.052	1363.37
1013.344	1400.66
1013.637	1365.4
1013.93	1368.11
1014.222	1360.88
1014.514	1366.53
1014.807	1343.48
1015.099	1339.19
1015.391	1329.7
1015.683	1299.19
1015.976	1302.13
1016.268	1302.35
1016.56	1276.82
1016.851	1282.24
1017.143	1307.78
1017.435	1270.72
1017.727	1279.98
1018.018	1286.08
1018.31	1281.56
1018.602	1253.31
1018.893	1230.72
1019.185	1222.35
1019.476	1235.01
1019.767	1224.61
1020.058	1210.83
1020.35	1177.61
1020.641	1189.14
1020.932	1186.65
1021.223	1176.71
1021.514	1166.99
1021.804	1159.98
1022.095	1151.62
1022.386	1164.28
1022.677	1139.65
1022.967	1109.36
1023.258	1113.66
1023.548	1105.07
1023.839	1096.71
1024.129	1120.44
1024.419	1097.39
1024.709	1093.77
1025	1082.02
1025.29	1075.01
1025.58	1068.01
1025.87	1088.12
1026.16	1063.26
1026.449	1055.58
1026.739	1032.3
1027.029	1031.63
1027.319	1038.4
1027.608	1028.24
1027.898	1024.62
1028.187	1010.61
1028.477	1004.51
1028.766	1000.21
1029.055	983.94
1029.344	993.21
1029.634	973.55
1029.923	965.64
1030.212	976.71
1030.501	965.86
1030.79	945.98
1031.078	938.52
1031.367	950.5
1031.656	934.9
1031.945	938.29
1032.233	932.19
1032.522	915.7
1032.81	924.96
1033.099	923.61
1033.387	882.7
1033.675	908.46
1033.963	929.26
1034.251	874.34
1034.54	891.06
1034.828	915.02
1035.116	867.79
1035.403	854.23
1035.691	844.29
1035.979	855.13
1036.267	866.21
1036.554	871.18
1036.842	853.33
1037.129	846.77
1037.417	823.72
1037.704	834.79
1037.992	826.89
1038.279	832.76
1038.566	809.26
1038.853	809.26
1039.14	809.26
