Data from White_paper_FLMS001491_082.txt Node
Date: Tue Feb 07 10:35:40 GMT 2017
User: dcchb
Spectrometer: FLMS00149
Trigger mode: 0
Integration Time (sec): 2.000000E-2
Scans to average: 10
Electric dark correction enabled: true
Nonlinearity correction enabled: false
Boxcar width: 0
XAxis mode: Wavelengths
Number of Pixels in Spectrum: 2048
>>>>>Begin Spectral Data<<<<<
341.393	-2.39
341.776	-2.39
342.16	-2.39
342.543	-54.81
342.927	-81.25
343.31	-62.27
343.693	-69.73
344.077	-64.53
344.46	-69.28
344.843	-69.96
345.226	-40.35
345.61	-5.55
345.993	-10.75
346.376	3.26
346.759	21.79
347.142	23.15
347.525	61.57
347.908	74
348.291	53.88
348.674	77.16
349.057	77.61
349.44	131.62
349.823	143.37
350.206	175.91
350.588	204.61
350.971	229.92
351.354	233.99
351.737	270.37
352.119	271.5
352.502	282.8
352.884	296.59
353.267	306.53
353.65	311.96
354.032	339.75
354.414	343.82
354.797	345.4
355.179	358.06
355.562	343.82
355.944	380.43
356.326	362.12
356.709	356.02
357.091	365.29
357.473	364.61
357.855	380.43
358.238	367.55
358.62	385.17
359.002	363.93
359.384	383.82
359.766	391.95
360.148	375.23
360.53	402.57
360.912	390.37
361.294	371.39
361.676	395.57
362.057	366.64
362.439	367.55
362.821	364.38
363.203	376.81
363.584	361.22
363.966	360.09
364.348	377.94
364.729	351.95
365.111	356.93
365.493	371.61
365.874	382.46
366.256	365.96
366.637	358.73
367.019	353.54
367.4	365.74
367.781	341.56
368.163	382.24
368.544	348.79
368.925	372.07
369.306	365.29
369.688	363.03
370.069	374.33
370.45	374.78
370.831	361.22
371.212	348.79
371.593	376.59
371.974	384.04
372.355	371.61
372.736	385.63
373.117	374.33
373.498	396.25
373.879	371.39
374.26	368
374.641	375.46
375.021	386.53
375.402	395.34
375.783	379.75
376.163	399.86
376.544	419.07
376.925	391.95
377.305	405.51
377.686	401.44
378.066	406.42
378.447	403.03
378.827	385.4
379.208	406.19
379.588	398.73
379.968	392.18
380.349	406.87
380.729	374.78
381.109	426.53
381.489	419.07
381.87	411.39
382.25	427.66
382.63	418.84
383.01	440.54
383.39	435.79
383.77	436.25
384.15	439.41
384.53	427.66
384.91	450.26
385.29	466.75
385.67	448
386.049	453.65
386.429	464.49
386.809	449.35
387.189	489.13
387.568	463.82
387.948	465.62
388.328	489.35
388.707	503.14
389.087	475.34
389.466	504.72
389.846	488
390.225	485.74
390.605	491.84
390.984	514.89
391.363	503.14
391.743	528.22
392.122	511.27
392.501	518.05
392.881	546.75
393.26	560.76
393.639	533.42
394.018	559.86
394.397	548.79
394.776	544.49
395.155	553.08
395.534	554.21
395.913	561.44
396.292	589.24
396.671	579.97
397.05	597.82
397.429	595.34
397.808	600.08
398.186	607.99
398.565	629.46
398.944	631.04
399.323	622.46
399.701	640.99
400.08	633.75
400.458	645.28
400.837	654.77
401.215	671.04
401.594	679.86
401.972	680.98
402.351	703.13
402.729	688.44
403.107	714.2
403.486	711.72
403.864	714.43
404.242	741.77
404.62	755.56
404.999	740.19
405.377	775.22
405.755	819.06
406.133	791.49
406.511	818.16
406.889	864.26
407.267	863.8
407.645	870.36
408.023	916.68
408.401	900.19
408.779	937.02
409.156	950.13
409.534	990.36
409.912	986.74
410.29	1003.69
410.667	1052.5
411.045	1079.17
411.422	1060.41
411.8	1111.71
412.178	1148.09
412.555	1193.06
412.933	1190.8
413.31	1210.69
413.687	1239.16
414.065	1286.39
414.442	1312.15
414.819	1325.49
415.197	1348.99
415.574	1417.69
415.951	1434.19
416.328	1457.01
416.705	1455.88
417.082	1480.29
417.46	1522.09
417.837	1550.79
418.214	1584.01
418.591	1616.78
418.967	1615.42
419.344	1677.34
419.721	1694.07
420.098	1715.08
420.475	1734.29
420.852	1751.92
421.228	1799.6
421.605	1803.44
421.982	1787.4
422.358	1858.58
422.735	1874.85
423.111	1896.77
423.488	1920.95
423.864	1929.54
424.241	2005.47
424.617	2017.9
424.994	2029.42
425.37	2050.89
425.746	2125.92
426.123	2130.89
426.499	2141.06
426.875	2169.08
427.251	2229.87
427.627	2273.03
428.003	2261.96
428.379	2332.69
428.756	2336.08
429.132	2364.1
429.507	2413.82
429.883	2430.54
430.259	2492.24
430.635	2494.95
431.011	2545.34
431.387	2597.32
431.763	2651.1
432.138	2666.92
432.514	2691.1
432.89	2741.72
433.265	2788.5
433.641	2876.41
434.016	2866.69
434.392	2909.85
434.767	3003.86
435.143	2982.17
435.518	3018.55
435.894	3052.9
436.269	3140.81
436.644	3215.38
437.02	3228.94
437.395	3233.69
437.77	3286.34
438.145	3286.11
438.52	3327.92
438.895	3337.86
439.271	3373.8
439.646	3445.43
440.021	3486.56
440.395	3513
440.77	3464.87
441.145	3532.21
441.52	3575.82
441.895	3631.42
442.27	3637.97
442.645	3605.88
443.019	3674.35
443.394	3674.58
443.769	3703.05
444.143	3691.3
444.518	3789.15
444.892	3770.85
445.267	3785.31
445.641	3815.59
446.016	3868.7
446.39	3940.33
446.764	3912.31
447.139	3901.69
447.513	3977.62
447.887	3982.59
448.262	4025.98
448.636	4013.33
449.01	4044.06
449.384	4106.43
449.758	4162.02
450.132	4197.5
450.506	4229.37
450.88	4283.83
451.254	4262.36
451.628	4330.15
452.002	4331.96
452.376	4428.91
452.75	4468.68
453.123	4459.87
453.497	4529.92
453.871	4590.71
454.244	4635.91
454.618	4664.61
454.992	4731.95
455.365	4768.11
455.739	4866.86
456.112	4890.37
456.486	4964.71
456.859	4988.67
457.232	5131.49
457.606	5099.4
457.979	5156.35
458.352	5228.44
458.725	5361.54
459.099	5338.26
459.472	5491.03
459.845	5567.64
460.218	5601.31
460.591	5614.87
460.964	5667.29
461.337	5788.2
461.71	5892.83
462.083	5990.22
462.456	5934.86
462.829	6010.11
463.201	6121.07
463.574	6117.9
463.947	6209.2
464.32	6360.16
464.692	6403.32
465.065	6484.9
465.438	6518.35
465.81	6662.3
466.183	6739.13
466.555	6897.09
466.928	6878.34
467.3	6909.3
467.672	6989.97
468.045	7243.52
468.417	7220.02
468.789	7249.85
469.161	7398.77
469.534	7519.45
469.906	7678.77
470.278	7716.05
470.65	7804.19
471.022	7947.46
471.394	8141.35
471.766	8217.96
472.138	8262.03
472.51	8415.47
472.882	8573.43
473.253	8683.94
473.625	8825.4
473.997	8986.3
474.369	9070.59
474.74	9119.63
475.112	9348.33
475.484	9409.57
475.855	9657.25
476.227	9700.86
476.598	9996.22
476.97	10059.27
477.341	10318.92
477.713	10411.58
478.084	10501.29
478.455	10809.08
478.827	10828.97
479.198	11153.7
479.569	11207.26
479.94	11510.3
480.311	11661.04
480.682	11861.48
481.053	12118.2
481.424	12353.22
481.795	12489.94
482.166	12643.83
482.537	12822.81
482.908	13065.74
483.279	13180.54
483.65	13359.07
484.021	13665.28
484.391	13806.06
484.762	13905.04
485.133	14100.97
485.503	14312.49
485.874	14533.28
486.244	14779.6
486.615	14986.37
486.985	15097.1
487.356	15402.18
487.726	15563.76
488.097	15824.77
488.467	15938.66
488.837	16244.64
489.207	16438.31
489.578	16643.73
489.948	16777.51
490.318	17038.97
490.688	17052.08
491.058	17434.44
491.428	17613.65
491.798	17766.86
492.168	18060.19
492.538	18146.29
492.908	18403
493.278	18607.75
493.648	18651.36
494.017	18840.96
494.387	19031.46
494.757	19272.13
495.126	19409.76
495.496	19413.37
495.866	19594.16
496.235	19887.71
496.605	19986.69
496.974	20005.9
497.344	20228.72
497.713	20361.82
498.082	20587.35
498.452	20825.99
498.821	20913.9
499.19	20952.77
499.559	21124.52
499.928	21318.41
500.298	21388.01
500.667	21651.06
501.036	21604.5
501.405	21701.68
501.774	21796.59
502.143	22027.32
502.512	22116.13
502.88	22300.08
503.249	22362.9
503.618	22501.43
503.987	22734.42
504.356	22766.05
504.724	23077.01
505.093	22983.68
505.462	23229.77
505.83	23373.27
506.199	23499.59
506.567	23756.76
506.936	23786.59
507.304	24047.83
507.672	24224.09
508.041	24341.83
508.409	24470.64
508.777	24810.97
509.145	24823.17
509.514	24865.21
509.882	25076.28
510.25	25081.02
510.618	25362.37
510.986	25369.15
511.354	25693.89
511.722	25866.99
512.09	26122.12
512.458	26191.73
512.826	26396.69
513.193	26522.79
513.561	26664.93
513.929	26874.42
514.297	27048.43
514.664	27301.3
515.032	27291.13
515.4	27569.32
515.767	27684.57
516.135	27806.37
516.502	27711.91
516.869	28241.16
517.237	28329.52
517.604	28317.32
517.972	28609.74
518.339	28786.69
518.706	28847.93
519.073	29011.99
519.44	29311.19
519.808	29583.95
520.175	29475.26
520.542	29913.44
520.909	30072.75
521.276	30030.5
521.643	30479.52
522.009	30646.3
522.376	30857.37
522.743	30976.23
523.11	31186.4
523.477	31605.14
523.843	31700.73
524.21	32115.19
524.577	32279.93
524.943	32373.48
525.31	32566.47
525.676	32754.49
526.043	33027.03
526.409	33093.01
526.776	33413.68
527.142	33644.64
527.508	33829.72
527.874	34078.75
528.241	34266.09
528.607	34408.69
528.973	34753.99
529.339	34588.12
529.705	35111.49
530.071	35313.75
530.437	35356.46
530.803	35518.94
531.169	35829.44
531.535	35849.55
531.901	35987.18
532.267	36137.23
532.632	36422.87
532.998	36563.21
533.364	36669.42
533.73	36723.43
534.095	37247.26
534.461	37277.99
534.826	37391.21
535.192	37456.74
535.557	37805.88
535.923	37858.99
536.288	37974.02
536.653	38127.23
537.019	38030.06
537.384	38359.77
537.749	38601.8
538.114	38882.24
538.479	38763.6
538.845	38972.63
539.21	38939.41
539.575	39135.12
539.94	39200.65
540.305	39489.91
540.67	39389.35
541.034	39644.71
541.399	39930.8
541.764	39932.83
542.129	40125.6
542.494	40185.71
542.858	40428.87
543.223	40484.46
543.587	40779.82
543.952	40806.48
544.316	40869.08
544.681	40910.44
545.045	41000.6
545.41	41200.82
545.774	41460.48
546.138	41461.61
546.503	41522.62
546.867	41632
547.231	41990.86
547.595	41952.22
547.959	42177.97
548.324	42377.52
548.688	42356.5
549.052	42599.2
549.416	42660.22
549.779	42714.46
550.143	42834
550.507	43043.71
550.871	43140.21
551.235	43150.83
551.599	43393.31
551.962	43672.17
552.326	43616.81
552.689	43924.14
553.053	43887.76
553.417	43949.9
553.78	44320.06
554.143	44184.02
554.507	44574.07
554.87	44562.09
555.234	45057.22
555.597	44727.51
555.96	44978.58
556.323	45194.39
556.686	45175.41
557.05	45506.92
557.413	45616.53
557.776	45704.43
558.139	45953.24
558.502	46008.38
558.865	46067.36
559.228	46373.34
559.59	46537.18
559.953	46636.39
560.316	47003.83
560.679	47005.42
561.041	47280.44
561.404	47364.05
561.767	47637.94
562.129	47589.81
562.492	47912.74
562.854	47936.47
563.217	48017.14
563.579	48171.04
563.941	48312.5
564.304	48483.8
564.666	48785.48
565.028	48895.31
565.39	48874.07
565.753	49196.09
566.115	49304.11
566.477	49448.52
566.839	49604.44
567.201	49767.83
567.563	49768.06
567.925	50031.55
568.287	49991.33
568.648	50104.32
569.01	50391.77
569.372	50531.43
569.734	50486
570.095	50710.63
570.457	50922.38
570.819	50902.72
571.18	50950.62
571.542	51248.02
571.903	51216.15
572.265	51439.65
572.626	51506.54
572.987	51624.96
573.349	51762.81
573.71	51719.42
574.071	52023.59
574.432	52030.6
574.794	52283.92
575.155	52253.87
575.516	52143.13
575.877	52382.22
576.238	52410.02
576.599	52553.52
576.96	52557.59
577.32	52587.87
577.681	52720.97
578.042	52829.44
578.403	52869.44
578.763	52844.59
579.124	52958.93
579.485	53073.51
579.845	53228.98
580.206	53110.79
580.566	53148.76
580.927	53157.12
581.287	53395.53
581.648	53205.25
582.008	53416.32
582.368	53445.93
582.728	53375.19
583.089	53509.2
583.449	53433.95
583.809	53544.91
584.169	53594.62
584.529	53505.36
584.889	53781.96
585.249	53654.73
585.609	53504.23
585.969	53713.94
586.329	53641.85
586.688	53682.76
587.048	53657.45
587.408	53750.1
587.768	53677.33
588.127	53731.79
588.487	53738.8
588.846	53940.6
589.206	53733.15
589.565	53808.63
589.925	53948.06
590.284	53865.35
590.643	53963.65
591.003	53976.53
591.362	53996.42
591.721	53990.09
592.08	54046.81
592.44	54088.85
592.799	54118.45
593.158	54077.1
593.517	54142.4
593.876	54116.64
594.235	54080.03
594.593	54078
594.952	54197.77
595.311	54062.41
595.67	54209.52
596.029	54278.45
596.387	54405.67
596.746	54446.12
597.104	54193.25
597.463	54196.64
597.822	54425.33
598.18	54377.43
598.538	54367.71
598.897	54564.77
599.255	54280.48
599.613	54584.88
599.972	54462.85
600.33	54552.34
600.688	54460.36
601.046	54542.17
601.404	54659.9
601.762	54567.48
602.12	54668.94
602.478	54727.25
602.836	54716.85
603.194	54586.91
603.552	54795.27
603.91	54654.93
604.268	54806.34
604.625	54771.09
604.983	54885.44
605.341	54696.97
605.698	54903.29
606.056	54925.66
606.413	54882.72
606.771	54974.02
607.128	54956.39
607.485	54880.46
607.843	54940.12
608.2	55054.47
608.557	55186.44
608.914	54980.35
609.272	55130.17
609.629	55241.81
609.986	55318.42
610.343	55169.5
610.7	55424.63
611.057	55317.51
611.414	55259.21
611.771	55354.8
612.127	55428.25
612.484	55356.84
612.841	55380.56
613.198	55321.36
613.554	55435.03
613.911	55606.09
614.267	55489.94
614.624	55413.33
614.98	55527.45
615.337	55633.21
615.693	55565.87
616.05	55538.75
616.406	55785.07
616.762	55697.39
617.118	55614.46
617.475	55635.7
617.831	55783.26
618.187	55677.05
618.543	55727.9
618.899	55789.14
619.255	55835.47
619.611	55797.05
619.967	55868.23
620.323	55954.11
620.678	55828.91
621.034	55805.64
621.39	55839.31
621.746	55800.44
622.101	56073.43
622.457	55855.58
622.812	55914.33
623.168	55944.62
623.523	55945.75
623.879	55989.36
624.234	55829.37
624.589	55929.7
624.945	56004.95
625.3	56037.5
625.655	55915.24
626.01	56009.93
626.365	56051.73
626.72	55950.04
627.075	55915.46
627.43	55969.02
627.785	55971.73
628.14	56081.34
628.495	55947.1
628.85	55973.32
629.205	55794.56
629.559	56095.57
629.914	55952.53
630.269	55978.51
630.623	55831.17
630.978	55819.87
631.332	55967.44
631.687	55978.51
632.041	55895.35
632.396	55956.59
632.75	55844.51
633.104	55892.41
633.459	55802.25
633.813	55789.14
634.167	55813.77
634.521	55757.05
634.875	55851.51
635.229	55785.07
635.583	55673.44
635.937	55642.7
636.291	55672.76
636.645	55672.76
636.999	55577.85
637.352	55686.77
637.706	55531.07
638.06	55686.54
638.413	55562.25
638.767	55521.35
639.121	55576.04
639.474	55476.38
639.828	55414.91
640.181	55511.63
640.534	55552.08
640.888	55450.39
641.241	55336.5
641.594	55374.01
641.947	55487.68
642.301	55299.21
642.654	55340.34
643.007	55426.44
643.36	55408.13
643.713	55293.33
644.066	55441.8
644.419	55220.79
644.771	55042.72
645.124	54899.22
645.477	54813.12
645.83	54630.98
646.182	54516.18
646.535	54470.53
646.888	54597.53
647.24	54430.08
647.593	54614.71
647.945	54468.27
648.298	54335.39
648.65	54308.73
649.002	54226.92
649.355	54397.99
649.707	54307.37
650.059	54491.32
650.411	54666.23
650.763	54787.81
651.115	55113
651.467	54979.67
651.819	55092.66
652.171	55002.95
652.523	54909.84
652.875	54874.14
653.227	54760.47
653.578	55015.83
653.93	54885.44
654.282	54788.04
654.633	54708.04
654.985	54766.12
655.337	54711.2
655.688	54817.87
656.039	54910.29
656.391	54605.89
656.742	54658.32
657.094	54638.21
657.445	54749.62
657.796	54764.53
658.147	54691.54
658.498	54639.79
658.849	54737.64
659.2	54696.97
659.551	54589.4
659.902	54648.15
660.253	54638.21
660.604	54680.7
660.955	54479.12
661.306	54615.16
661.656	54592.34
662.007	54562.96
662.358	54556.18
662.708	54584.65
663.059	54462.17
663.409	54314.83
663.76	54583.3
664.11	54479.34
664.461	54516.86
664.811	54568.38
665.161	54440.48
665.511	54311.67
665.862	54431.89
666.212	54501.94
666.562	54482.28
666.912	54450.42
667.262	54367.03
667.612	54356.86
667.962	54385.34
668.312	54280.48
668.662	54545.33
669.011	54415.62
669.361	54277.99
669.711	54291.55
670.06	54202.52
670.41	54269.63
670.76	54172.01
671.109	54266.92
671.459	54224.89
671.808	54101.95
672.157	54219.92
672.507	54078.45
672.856	53956.87
673.205	54112.35
673.554	54145.34
673.904	53970.88
674.253	54152.35
674.602	54063.99
674.951	53587.84
675.3	53409.32
675.649	53838.91
675.998	53864.9
676.346	53827.16
676.695	53960.49
677.044	53770.89
677.393	53831.45
677.741	53873.48
678.09	53741.06
678.438	53693.15
678.787	53694.96
679.135	53701.96
679.484	53431.24
679.832	53551.46
680.181	53334.52
680.529	53475.53
680.877	53409.54
681.225	53384.23
681.573	53558.24
681.922	53266.04
682.27	53212.49
682.618	53250.22
682.966	53104.47
683.314	53191.24
683.661	53068.31
684.009	52851.59
684.357	52867.64
684.705	52791.25
685.053	52789.22
685.4	52692.95
685.748	52599.17
686.095	52625.38
686.443	52488.44
686.79	52325.05
687.138	52394.2
687.485	52399.17
687.832	52198.73
688.18	52323.47
688.527	52063.14
688.874	52003.03
689.221	52000.31
689.568	51930.48
689.915	51839.41
690.262	51792.64
690.609	51662.47
690.956	51555.13
691.303	51575.69
691.65	51338.41
691.997	51349.03
692.344	51115.82
692.69	51143.39
693.037	51136.83
693.383	50814.36
693.73	51041.47
694.077	50734.13
694.423	50826.33
694.769	50573.68
695.116	50482.84
695.462	50514.02
695.808	50319.68
696.155	50456.17
696.501	50185.67
696.847	50184.32
697.193	49872.69
697.539	50041.49
697.885	49811.67
698.231	49655.06
698.577	49709.75
698.923	49543.88
699.269	49463.88
699.614	49297.11
699.96	49202.42
700.306	49225.02
700.651	49124.68
700.997	48998.81
701.342	48773.05
701.688	48914.29
702.033	48736.44
702.379	48724.02
702.724	48567.18
703.069	48623.68
703.415	48158.15
703.76	48202.9
704.105	48319.73
704.45	48069.8
704.795	47914.55
705.14	47858.05
705.485	47852.4
705.83	47616.93
706.175	47669.13
706.52	47559.53
706.865	47289.48
707.209	47257.39
707.554	47213.32
707.899	47311.4
708.243	47089.03
708.588	47049.71
708.932	46737.63
709.277	46732.43
709.621	46812.88
709.966	46433.23
710.31	46689.72
710.654	46278.2
710.998	46400.91
711.342	46246.79
711.687	46288.6
712.031	45993.92
712.375	45898.78
712.719	46167.92
713.063	45805.22
713.407	45990.75
713.75	45815.62
714.094	45704.89
714.438	45667.15
714.782	45515.06
715.125	45336.08
715.469	45376.53
715.812	45206.59
716.156	44969.09
716.499	45077.33
716.843	45026.03
717.186	44941.97
717.53	45098.12
717.873	44888.41
718.216	44887.73
718.559	44781.75
718.902	44522.09
719.246	44544.24
719.589	44336.11
719.932	44274.87
720.275	44254.53
720.617	44229.44
720.96	44165.27
721.303	44119.16
721.646	44061.09
721.989	43852.73
722.331	43995.55
722.674	43854.09
723.016	44008.66
723.359	43708.33
723.701	43742.45
724.044	43405.29
724.386	43359.86
724.729	43497.94
725.071	43425.17
725.413	43330.48
725.755	43256.59
726.097	43121.45
726.439	42947.67
726.782	42985.41
727.124	43136.37
727.465	42768.92
727.807	42845.75
728.149	42859.76
728.491	42758.3
728.833	42711.29
729.175	42641.69
729.516	42479.43
729.858	42424.75
730.199	42428.59
730.541	42317.4
730.882	42291.87
731.224	42493.67
731.565	42260.91
731.906	42260.91
732.248	42173.23
732.589	42091.87
732.93	41892.1
733.271	41905.21
733.612	41782.28
733.953	41972.55
734.294	41747.02
734.635	41606.91
734.976	41759.45
735.317	41414.38
735.658	41465
735.999	41484.21
736.339	41340.93
736.68	41451.21
737.021	41353.36
737.361	41145.91
737.702	41388.84
738.042	41177.32
738.383	41158.11
738.723	41116.98
739.063	41133.71
739.404	41082.86
739.744	40934.84
740.084	40856.65
740.424	40961.06
740.764	40834.51
741.104	40842.19
741.444	40556.09
741.784	40586.83
742.124	40753.6
742.464	40466.83
742.804	40452.14
743.143	40346.83
743.483	40392.48
743.823	40121.98
744.162	40089.89
744.502	40144.58
744.841	40070.46
745.181	40095.99
745.52	40037.92
745.86	40061.64
746.199	39980.97
746.538	39854.42
746.877	39893.74
747.216	39802.67
747.556	39751.6
747.895	39613.52
748.234	39441.1
748.573	39462.79
748.911	39434.32
749.25	39432.06
749.589	39201.55
749.928	39278.61
750.267	39281.1
750.605	39036.59
750.944	38961.33
751.283	39003.82
751.621	39016.02
751.96	38698.29
752.298	38739.19
752.636	38798.17
752.975	38637.5
753.313	38472.31
753.651	38689.25
753.989	38432.31
754.327	38315.93
754.666	38110.74
755.004	38265.76
755.342	38196.83
755.679	38152.99
756.017	37928.37
756.355	38027.57
756.693	37779.22
757.031	37830.29
757.368	37627.58
757.706	37581.26
758.044	37555.95
758.381	37400.47
758.719	37246.13
759.056	37347.37
759.394	37036.19
759.731	36959.13
760.068	36815.18
760.405	36789.19
760.743	36659.47
761.08	36638.01
761.417	36524.56
761.754	36497.9
762.091	36485.24
762.428	36246.38
762.765	36031.24
763.102	36118.47
763.438	35928.19
763.775	35743.79
764.112	35877.35
764.449	35824.92
764.785	35608.88
765.122	35383.8
765.458	35314.2
765.795	35246.63
766.131	35306.29
766.467	35090.7
766.804	34962.12
767.14	34749.24
767.476	34738.17
767.812	34669.02
768.148	34726.64
768.485	34414.34
768.821	34281.68
769.157	34219.31
769.492	34222.25
769.828	34128.02
770.164	33577.97
770.5	33624.53
770.836	33560.12
771.171	33449.84
771.507	33467.24
771.842	33197.87
772.178	33215.04
772.513	32930.53
772.849	32902.51
773.184	32804.21
773.519	32848.5
773.855	32603.99
774.19	32497.32
774.525	32440.83
774.86	32339.36
775.195	32318.8
775.53	32131.01
775.865	31937.79
776.2	31821.41
776.535	31518.82
776.87	31543.9
777.205	31446.73
777.539	31326.05
777.874	31462.32
778.209	31100.75
778.543	30995.44
778.878	30818.05
779.212	30877.93
779.547	30731.49
779.881	30667.77
780.215	30528.11
780.55	30637.26
780.884	30192.3
781.218	30233.88
781.552	30306.87
781.886	30039.31
782.22	29846.55
782.554	29899.65
782.888	29588.02
783.222	29495.82
783.556	29225.09
783.889	29394.13
784.223	29235.94
784.557	29120.46
784.89	29128.82
785.224	28885.67
785.557	28752.79
785.891	28761.83
786.224	28608.16
786.558	28598.44
786.891	28398.67
787.224	28343.76
787.557	28243.2
787.891	28129.08
788.224	28055.63
788.557	28033.94
788.89	27828.29
789.223	27924.79
789.556	27654.74
789.888	27637.11
790.221	27395.99
790.554	27283.22
790.887	27412.26
791.219	27329.78
791.552	27168.42
791.884	26799.39
792.217	26911.71
792.549	26847.08
792.882	26704.48
793.214	26599.85
793.546	26626.97
793.879	26465.84
794.211	26251.16
794.543	26452.96
794.875	26211.61
795.207	26455
795.539	26184.72
795.871	26106.31
796.203	25883.71
796.535	25905.41
796.867	25739.31
797.198	25536.38
797.53	25579.31
797.862	25443.27
798.193	25429.94
798.525	25247.8
798.856	25315.37
799.188	25077.18
799.519	24938.88
799.85	24834.02
800.182	24857.07
800.513	24848.94
800.844	24664.08
801.175	24760.35
801.506	24716.74
801.837	24513.13
802.168	24554.03
802.499	24317.43
802.83	24243.08
803.161	24154.72
803.491	24159.69
803.822	24111.78
804.153	24093.7
804.483	23898.23
804.814	23809.64
805.145	23804.9
805.475	23750.43
805.805	23731.9
806.136	23691.45
806.466	23620.72
806.796	23515.86
807.126	23380.5
807.457	23349.77
807.787	23360.61
808.117	23184.35
808.447	23094.86
808.777	23256.44
809.107	23041.98
809.436	22927.41
809.766	22913.85
810.096	22763.34
810.426	22850.12
810.755	22718.82
811.085	22754.3
811.414	22714.76
811.744	22533.74
812.073	22548.66
812.403	22424.14
812.732	22357.25
813.061	22286.29
813.39	22138.95
813.719	22128.1
814.049	22238.84
814.378	22073.42
814.707	21940.76
815.036	21963.82
815.365	21813.99
815.693	21729.92
816.022	21774.44
816.351	21664.84
816.68	21665.97
817.008	21515.69
817.337	21383.04
817.665	21403.15
817.994	21513.21
818.322	21417.61
818.651	21275.92
818.979	21197.28
819.307	21191.63
819.636	21240.44
819.964	21042.71
820.292	21109.15
820.62	21004.07
820.948	21096.27
821.276	21123.84
821.604	21075.02
821.932	21002.48
822.259	21053.1
822.587	20998.64
822.915	20938.76
823.243	21056.95
823.57	20972.43
823.898	21016.04
824.225	20746.67
824.553	20884.52
824.88	20960.45
825.207	21046.78
825.535	20908.48
825.862	20976.27
826.189	20882.49
826.516	20887.01
826.843	21028.25
827.17	20994.58
827.497	20958.19
827.824	20988.7
828.151	20945.08
828.478	20874.13
828.805	20959.77
829.131	20847.91
829.458	20825.77
829.785	20699.89
830.111	20825.99
830.438	20827.57
830.764	20952.54
831.09	20854.92
831.417	20779.21
831.743	20797.74
832.069	20784.86
832.395	20693.57
832.722	20655.15
833.048	20700.8
833.374	20818.53
833.7	20548.71
834.026	20662.38
834.351	20647.47
834.677	20595.26
835.003	20642.27
835.329	20515.72
835.654	20595.04
835.98	20451.31
836.306	20549.84
836.631	20504.64
836.956	20451.31
837.282	20374.7
837.607	20295.38
837.932	20307.59
838.258	20283.18
838.583	20358.66
838.908	20151.89
839.233	20146.69
839.558	20116.18
839.883	20065.56
840.208	19979.91
840.533	20092.23
840.858	20042.51
841.182	20061.72
841.507	20048.84
841.832	19815.4
842.156	19827.37
842.481	19816.98
842.805	19741.95
843.13	19662.86
843.454	19666.93
843.778	19548.29
844.103	19558.23
844.427	19604.56
844.751	19558.68
845.075	19502.64
845.399	19356.43
845.723	19242.3
846.047	19387.61
846.371	19098.58
846.695	19049.54
847.019	18996.44
847.343	18954.4
847.666	18821.98
847.99	18723.45
848.313	18699.95
848.637	18607.75
848.96	18581.76
849.284	18501.76
849.607	18395.32
849.931	18301.99
850.254	18124.14
850.577	18021.55
850.9	17982.9
851.223	18050.7
851.546	17952.85
851.869	17855.22
852.192	18011.15
852.515	17659.52
852.838	17624.72
853.161	17685.96
853.483	17568.9
853.806	17497.94
854.129	17424.27
854.451	17282.13
854.774	17345.18
855.096	17219.31
855.419	17211.17
855.741	17175.47
856.063	17157.16
856.385	16950.61
856.708	16870.84
857.03	16931.86
857.352	16829.94
857.674	16751.97
857.996	16683.73
858.318	16616.61
858.64	16689.15
858.961	16520.79
859.283	16529.38
859.605	16441.93
859.926	16539.55
860.248	16450.74
860.57	16359.44
860.891	16448.93
861.212	16232.21
861.534	16304.75
861.855	16182.95
862.176	16243.74
862.498	16236.73
862.819	16188.6
863.14	16194.93
863.461	16131.2
863.782	15987.25
864.103	15946.8
864.424	16012.11
864.745	15942.96
865.065	15905.44
865.386	15865.22
865.707	15815.05
866.027	15917.42
866.348	15904.54
866.668	15808.72
866.989	15737.99
867.309	15650.53
867.63	15698.22
867.95	15657.99
868.27	15599.69
868.59	15540.71
868.91	15586.13
869.23	15442.4
869.55	15440.6
869.87	15540.48
870.19	15547.03
870.51	15470.43
870.83	15410.77
871.15	15354.95
871.469	15285.57
871.789	15440.82
872.109	15374.61
872.428	15180.49
872.748	15225.24
873.067	15277.44
873.386	15219.81
873.706	15168.74
874.025	15081.51
874.344	15094.62
874.663	15118.35
874.982	15097.33
875.301	15136.42
875.62	15089.42
875.939	15035.41
876.258	15031.34
876.577	14961.06
876.896	14852.82
877.214	14853.95
877.533	14928.29
877.852	14855.08
878.17	14868.63
878.489	14884
878.807	14705.25
879.125	14716.1
879.444	14629.77
879.762	14623.22
880.08	14655.31
880.398	14598.36
880.716	14654.85
881.034	14583.22
881.352	14508.87
881.67	14582.31
881.988	14477.68
882.306	14479.27
882.624	14344.81
882.941	14359.72
883.259	14230.23
883.577	14299.16
883.894	14187.07
884.212	14266.39
884.529	14272.72
884.846	14103
885.164	14114.98
885.481	14051.93
885.798	14061.2
886.115	13963.57
886.432	14099.16
886.75	14021.43
887.067	13997.02
887.383	13902.56
887.7	13972.84
888.017	13816.23
888.334	13822.33
888.651	13756.57
888.967	13721.77
889.284	13650.81
889.6	13658.5
889.917	13536.69
890.233	13595
890.55	13494.21
890.866	13527.2
891.182	13407.43
891.498	13424.38
891.815	13399.75
892.131	13428.22
892.447	13297.83
892.763	13211.05
893.079	13112.3
893.395	13183.93
893.71	13068.46
894.026	13094.22
894.342	13059.87
894.657	12945.3
894.973	12955.92
895.289	12931.28
895.604	12908.69
895.92	12821.23
896.235	12796.15
896.55	12829.82
896.865	12752.76
897.181	12703.04
897.496	12685.42
897.811	12640.9
898.126	12621.91
898.441	12428.7
898.756	12509.83
899.071	12335.82
899.386	12365.65
899.7	12298.98
900.015	12308.25
900.33	12129.27
900.644	12207.69
900.959	12161.81
901.273	12084.75
901.588	12023.74
901.902	12015.38
902.216	11950.97
902.531	11937.64
902.845	11865.32
903.159	11752.78
903.473	11790.52
903.787	11693.8
904.101	11661.49
904.415	11621.94
904.729	11580.81
905.042	11550.08
905.356	11456.75
905.67	11436.86
905.984	11477.09
906.297	11389.63
906.611	11241.84
906.924	11321.61
907.237	11287.26
907.551	11210.43
907.864	11206.81
908.177	11193.48
908.491	11081.16
908.804	11024.67
909.117	10886.82
909.43	10944.9
909.743	10889.98
910.056	10850.44
910.368	10809.31
910.681	10794.84
910.994	10686.6
911.307	10628.29
911.619	10531.12
911.932	10606.83
912.244	10499.26
912.557	10511.01
912.869	10408.86
913.181	10426.04
913.494	10341.97
913.806	10270.79
914.118	10268.3
914.43	10203.67
914.742	10204.8
915.054	10170.68
915.366	10107.18
915.678	10080.06
915.99	9945.6
916.302	9932.49
916.613	9895.21
916.925	9907.18
917.236	9865.83
917.548	9775.66
917.859	9739.5
918.171	9668.09
918.482	9622.9
918.794	9617.93
919.105	9615.67
919.416	9570.02
919.727	9467.19
920.038	9407.08
920.349	9397.59
920.66	9383.35
920.971	9362.34
921.282	9275.11
921.593	9271.49
921.903	9193.3
922.214	9205.28
922.525	9143.14
922.835	9040.99
923.146	8973.87
923.456	9057.26
923.767	8901.79
924.077	8947.21
924.387	8906.98
924.697	8866.53
925.008	8855.91
925.318	8801.45
925.628	8798.29
925.938	8742.69
926.248	8688.01
926.558	8618.63
926.867	8588.8
927.177	8521.46
927.487	8542.7
927.796	8497.73
928.106	8424.51
928.416	8417.5
928.725	8399.2
929.034	8364.17
929.344	8333.21
929.653	8268.58
929.962	8221.13
930.271	8184.52
930.581	8146.1
930.89	8083.28
931.199	8055.03
931.508	7984.75
931.817	8020.9
932.125	8013.9
932.434	8010.51
932.743	7863.39
933.051	7885.32
933.36	7885.99
933.669	7777.97
933.977	7742.27
934.286	7745.21
934.594	7699.78
934.902	7665.89
935.21	7617.75
935.519	7573.91
935.827	7569.17
936.135	7509.51
936.443	7443.74
936.751	7440.36
937.059	7430.64
937.367	7392.22
937.674	7355.61
937.982	7247.82
938.29	7289.17
938.597	7270.19
938.905	7207.37
939.213	7187.48
939.52	7124.43
939.827	7169.18
940.135	7121.27
940.442	7047.37
940.749	7054.38
941.056	7032.23
941.363	6958.79
941.67	6947.49
941.977	6929.86
942.284	6912.46
942.591	6887.83
942.898	6752.92
943.205	6785.23
943.511	6750.88
943.818	6700.49
944.125	6683.09
944.431	6652.58
944.738	6643.54
945.044	6596.76
945.35	6584.11
945.657	6526.48
945.963	6479.25
946.269	6430.66
946.575	6507.95
946.881	6404.9
947.187	6384.11
947.493	6329.65
947.799	6345.02
948.105	6334.17
948.41	6290.1
948.716	6209.2
949.022	6184.8
949.327	6192.25
949.633	6096.21
949.938	6169.88
950.244	6144.8
950.549	6085.59
950.854	6071.58
951.16	5968.3
951.465	5964.46
951.77	5981.18
952.075	5931.69
952.38	5901.19
952.685	5852.83
952.99	5837.23
953.294	5862.77
953.599	5800.17
953.904	5793.62
954.209	5674.07
954.513	5743.68
954.818	5710.68
955.122	5668.65
955.426	5682.21
955.731	5622.1
956.035	5575.55
956.339	5601.08
956.643	5613.74
956.948	5534.19
957.252	5512.27
957.556	5506.85
957.86	5443.12
958.163	5377.36
958.467	5413.97
958.771	5364.25
959.075	5368.32
959.378	5325.83
959.682	5321.77
959.985	5254.42
960.289	5258.72
960.592	5261.43
960.896	5277.25
961.199	5159.96
961.502	5128.55
961.805	5177.14
962.108	5105.28
962.411	5059.17
962.714	5072.28
963.017	5077.93
963.32	5006.97
963.623	5007.42
963.926	4967.65
964.228	4989.35
964.531	4932.4
964.833	4961.32
965.136	4879.97
965.438	4916.58
965.741	4850.37
966.043	4814.21
966.345	4849.91
966.648	4734.21
966.95	4749.8
967.252	4705.96
967.554	4723.14
967.856	4713.2
968.158	4690.82
968.46	4667.55
968.761	4604.95
969.063	4605.63
969.365	4581
969.666	4549.13
969.968	4531.96
970.269	4498.96
970.571	4496.93
970.872	4463.94
971.174	4435.01
971.475	4408.34
971.776	4416.03
972.077	4395.69
972.378	4372.87
972.679	4364.28
972.98	4309.59
973.281	4299.87
973.582	4323.6
973.883	4293.77
974.183	4281.12
974.484	4266.88
974.785	4198.86
975.085	4275.01
975.386	4215.58
975.686	4175.81
975.986	4154.57
976.287	4126.09
976.587	4094.68
976.887	4102.59
977.187	4094
977.487	4086.32
977.787	4045.19
978.087	4018.75
978.387	4005.64
978.687	3962.71
978.987	3945.31
979.286	3917.74
979.586	3967
979.885	3891.52
980.185	3904.4
980.484	3837.96
980.784	3829.15
981.083	3809.26
981.382	3829.83
981.682	3831.86
981.981	3799.77
982.28	3788.25
982.579	3745.99
982.878	3733.11
983.177	3676.84
983.475	3710.51
983.774	3703.28
984.073	3665.99
984.372	3640
984.67	3614.47
984.969	3631.64
985.267	3609.95
985.566	3572.43
985.864	3545.32
986.162	3557.07
986.461	3540.57
986.759	3577.41
987.057	3480.69
987.355	3474.58
987.653	3474.81
987.951	3459.22
988.249	3458.31
988.547	3422.16
988.844	3422.16
989.142	3384.19
989.44	3388.03
989.737	3329.28
990.035	3309.39
990.332	3324.08
990.63	3249.05
990.927	3278.88
991.224	3257.41
991.521	3264.42
991.819	3254.25
992.116	3203.86
992.413	3178.55
992.71	3178.09
993.006	3167.47
993.303	3151.43
993.6	3193.46
993.897	3155.95
994.193	3141.94
994.49	3111.88
994.787	3066.91
995.083	3049.96
995.379	3081.37
995.676	3086.35
995.972	3013.35
996.268	3005.22
996.565	2989.85
996.861	2966.35
997.157	2937.42
997.453	2901.72
997.749	2932
998.044	2858.1
998.34	2926.12
998.636	2859.68
998.932	2839.57
999.227	2849.74
999.523	2836.63
999.818	2806.58
1000.114	2803.87
1000.409	2800.48
1000.704	2749.63
1001	2744.89
1001.295	2723.87
1001.59	2693.81
1001.885	2674.83
1002.18	2661.5
1002.475	2665.57
1002.77	2656.3
1003.065	2640.93
1003.359	2640.26
1003.654	2635.28
1003.949	2612.69
1004.243	2600.03
1004.538	2558.68
1004.832	2539.47
1005.127	2505.12
1005.421	2526.81
1005.715	2450.88
1006.009	2511.45
1006.304	2450.43
1006.598	2464.67
1006.892	2452.24
1007.186	2419.7
1007.48	2441.16
1007.773	2375.18
1008.067	2377.89
1008.361	2347.38
1008.655	2317.55
1008.948	2351.68
1009.242	2319.81
1009.535	2317.78
1009.829	2290.43
1010.122	2287.5
1010.415	2277.1
1010.708	2287.27
1011.001	2268.51
1011.295	2259.25
1011.588	2265.58
1011.881	2240.49
1012.173	2217.22
1012.466	2186.48
1012.759	2175.63
1013.052	2170.44
1013.344	2153.94
1013.637	2137.67
1013.93	2104.22
1014.222	2107.61
1014.514	2100.38
1014.807	2078.69
1015.099	2066.03
1015.391	2075.75
1015.683	2027.84
1015.976	2051.57
1016.268	1995.98
1016.56	1984.23
1016.851	1996.2
1017.143	1991.23
1017.435	1970.89
1017.727	1957.56
1018.018	1913.04
1018.31	1953.27
1018.602	1924.79
1018.893	1912.14
1019.185	1877.11
1019.476	1864.91
1019.767	1865.13
1020.058	1852.03
1020.35	1830.56
1020.641	1820.16
1020.932	1812.48
1021.223	1760.05
1021.514	1783.78
1021.804	1771.35
1022.095	1760.05
1022.386	1783.33
1022.677	1724.8
1022.967	1729.77
1023.258	1692.71
1023.548	1699.04
1023.839	1685.93
1024.129	1656.55
1024.419	1687.51
1024.709	1656.78
1025	1655.65
1025.29	1630.11
1025.58	1612.26
1025.87	1579.27
1026.16	1612.94
1026.449	1584.69
1026.739	1569.1
1027.029	1580.62
1027.319	1540.4
1027.608	1556.89
1027.898	1513.28
1028.187	1529.78
1028.477	1504.47
1028.766	1504.47
1029.055	1477.8
1029.344	1507.63
1029.634	1502.88
1029.923	1443
1030.212	1433.51
1030.501	1430.34
1030.79	1445.94
1031.078	1392.6
1031.367	1390.12
1031.656	1387.86
1031.945	1370.91
1032.233	1350.35
1032.522	1356.22
1032.81	1391.93
1033.099	1353.28
1033.387	1333.4
1033.675	1337.24
1033.963	1312.83
1034.251	1334.08
1034.54	1306.28
1034.828	1281.2
1035.116	1280.07
1035.403	1279.84
1035.691	1286.62
1035.979	1246.17
1036.267	1270.8
1036.554	1231.48
1036.842	1214.98
1037.129	1245.72
1037.417	1215.89
1037.704	1212.5
1037.992	1193.29
1038.279	1190.35
1038.566	1198.03
1038.853	1198.03
1039.14	1198.03
