Data from white_steel_sheet_FLMS001491_074.txt Node
Date: Tue Feb 07 10:58:26 GMT 2017
User: dcchb
Spectrometer: FLMS00149
Trigger mode: 0
Integration Time (sec): 2.000000E-2
Scans to average: 10
Electric dark correction enabled: true
Nonlinearity correction enabled: false
Boxcar width: 0
XAxis mode: Wavelengths
Number of Pixels in Spectrum: 2048
>>>>>Begin Spectral Data<<<<<
341.393	-24.35
341.776	-24.35
342.16	-24.35
342.543	-65.93
342.927	-62.99
343.31	-69.09
343.693	-62.09
344.077	-67.96
344.46	-70.68
344.843	-56.44
345.226	-40.62
345.61	-26.16
345.993	-14.41
346.376	-1.3
346.759	27.63
347.142	8.42
347.525	36.44
347.908	72.14
348.291	65.14
348.674	101.52
349.057	97.46
349.44	118.92
349.823	142.43
350.206	160.28
350.588	216.55
350.971	212.03
351.354	242.99
351.737	254.51
352.119	266.49
352.502	279.82
352.884	285.02
353.267	267.85
353.65	304
354.032	294.06
354.414	292.48
354.797	315.98
355.179	337.67
355.562	332.03
355.944	353.27
356.326	345.13
356.709	330.22
357.091	329.09
357.473	340.39
357.855	377
358.238	341.97
358.62	346.26
359.002	356.21
359.384	330.44
359.766	340.39
360.148	341.29
360.53	358.24
360.912	343.32
361.294	360.95
361.676	362.08
362.057	313.04
362.439	345.81
362.821	348.3
363.203	349.65
363.584	333.83
363.966	357.79
364.348	368.18
364.729	356.88
365.111	346.71
365.493	355.53
365.874	355.08
366.256	353.27
366.637	320.73
367.019	351.69
367.4	329.54
367.781	340.16
368.163	314.62
368.544	324.57
368.925	316.66
369.306	328.41
369.688	326.6
370.069	333.38
370.45	345.81
370.831	323.89
371.212	334.74
371.593	339.93
371.974	333.83
372.355	344
372.736	330.9
373.117	334.96
373.498	322.99
373.879	318.24
374.26	350.33
374.641	320.73
375.021	348.07
375.402	337.9
375.783	349.2
376.163	366.15
376.544	360.72
376.925	352.59
377.305	344.45
377.686	362.31
378.066	354.62
378.447	343.1
378.827	361.4
379.208	361.63
379.588	366.15
379.968	375.19
380.349	377.45
380.729	357.79
381.109	371.57
381.489	366.37
381.87	375.87
382.25	381.06
382.63	375.64
383.01	368.41
383.39	385.58
383.77	373.15
384.15	389.2
384.53	384.68
384.91	380.84
385.29	388.97
385.67	399.59
386.049	398.92
386.429	404.79
386.809	405.02
387.189	401.85
387.568	379.48
387.948	417.67
388.328	404.34
388.707	431.68
389.087	412.48
389.466	423.1
389.846	419.71
390.225	418.12
390.605	455.64
390.984	439.14
391.363	443.66
391.743	448.41
392.122	452.7
392.501	460.61
392.881	465.58
393.26	479.59
393.639	460.84
394.018	434.85
394.397	484.56
394.776	499.48
395.155	505.35
395.534	495.18
395.913	513.94
396.292	513.49
396.671	513.26
397.05	515.98
397.429	507.84
397.808	537.22
398.186	513.72
398.565	526.37
398.944	565.92
399.323	543.32
399.701	571.57
400.08	583.54
400.458	560.49
400.837	581.51
401.215	592.13
401.594	590.55
401.972	601.4
402.351	607.05
402.729	630.1
403.107	609.53
403.486	663.54
403.864	643.88
404.242	655.86
404.62	649.08
404.999	690.66
405.377	697.67
405.755	709.42
406.133	722.3
406.511	724.56
406.889	732.69
407.267	752.81
407.645	764.56
408.023	749.87
408.401	761.17
408.779	781.05
409.156	798.68
409.534	810.43
409.912	813.37
410.29	862.86
410.667	852.92
411.045	876.19
411.422	861.95
411.8	894.95
412.178	914.16
412.555	950.77
412.933	934.27
413.31	947.6
413.687	968.39
414.065	984.66
414.442	976.3
414.819	1030.76
415.197	996.41
415.574	1018.11
415.951	1050.65
416.328	1041.84
416.705	1038
417.082	1061.95
417.46	1068.95
417.837	1104.21
418.214	1085.45
418.591	1094.72
418.967	1105.56
419.344	1135.85
419.721	1161.61
420.098	1177.43
420.475	1153.47
420.852	1185.79
421.228	1204.09
421.605	1209.52
421.982	1218.56
422.358	1210.19
422.735	1235.96
423.111	1233.92
423.488	1245.22
423.864	1297.42
424.241	1285.9
424.617	1299.68
424.994	1320.25
425.37	1324.32
425.746	1338.33
426.123	1362.05
426.499	1351.89
426.875	1400.25
427.251	1442.28
427.627	1423.07
428.003	1467.59
428.379	1491.09
428.756	1496.51
429.132	1483.63
429.507	1537.64
429.883	1526.34
430.259	1560.02
430.635	1577.64
431.011	1603.4
431.387	1669.17
431.763	1664.87
432.138	1658.32
432.514	1716.17
432.89	1703.29
433.265	1735.38
433.641	1786.22
434.016	1809.05
434.392	1818.54
434.767	1856.73
435.143	1866.22
435.518	1869.16
435.894	1916.16
436.269	1914.13
436.644	1913.23
437.02	1993
437.395	1941.02
437.77	2014.01
438.145	2050.62
438.52	2052.43
438.895	2082.49
439.271	2094.69
439.646	2148.47
440.021	2174.91
440.395	2190.06
440.77	2128.81
441.145	2195.7
441.52	2250.17
441.895	2223.73
442.27	2238.64
442.645	2236.38
443.019	2303.72
443.394	2300.79
443.769	2344.85
444.143	2272.77
444.518	2358.41
444.892	2361.35
445.267	2362.03
445.641	2391.18
446.016	2426.21
446.39	2446.32
446.764	2466.66
447.139	2481.57
447.513	2497.39
447.887	2479.77
448.262	2522.7
448.636	2540.1
449.01	2616.71
449.384	2625.07
449.758	2623.26
450.132	2622.81
450.506	2713.66
450.88	2676.82
451.254	2706.88
451.628	2725.18
452.002	2776.03
452.376	2780.77
452.75	2843.15
453.123	2826.42
453.497	2893.31
453.871	2929.92
454.244	2981
454.618	2956.14
454.992	3036.36
455.365	3017.15
455.739	3082.01
456.112	3129.47
456.486	3166.07
456.859	3170.37
457.232	3255.11
457.606	3252.63
457.979	3311.16
458.352	3385.5
458.725	3397.48
459.099	3402.68
459.472	3522.68
459.845	3544.14
460.218	3513.86
460.591	3606.97
460.964	3601.32
461.337	3687.87
461.71	3759.05
462.083	3792.5
462.456	3833.18
462.829	3821.42
463.201	3917.92
463.574	3952.04
463.947	3971.25
464.32	4039.72
464.692	4089.21
465.065	4128.99
465.438	4171.25
465.81	4248.31
466.183	4269.55
466.555	4371.24
466.928	4466.15
467.3	4445.36
467.672	4519.94
468.045	4640.61
468.417	4613.72
468.789	4651.01
469.161	4729.2
469.534	4797.67
469.906	4943.88
470.278	4921.96
470.65	4980.94
471.022	5094.61
471.394	5166.25
471.766	5203.99
472.138	5254.83
472.51	5390.88
472.882	5451.89
473.253	5531.66
473.625	5626.58
473.997	5750.87
474.369	5730.53
474.74	5814.37
475.112	5892.78
475.484	5999.9
475.855	6133.23
476.227	6193.34
476.598	6354.47
476.97	6413.45
477.341	6611.86
477.713	6656.6
478.084	6703.61
478.455	6918.52
478.827	6950.61
479.198	7118.74
479.569	7134.11
479.94	7337.94
480.311	7404.83
480.682	7582.68
481.053	7736.12
481.424	7826.97
481.795	7911.94
482.166	8080.52
482.537	8167.07
482.908	8361.64
483.279	8487.52
483.65	8599.15
484.021	8805.47
484.391	8855.87
484.762	8991.68
485.133	8994.17
485.503	9164.11
485.874	9379.02
486.244	9419.92
486.615	9652.46
486.985	9817.88
487.356	9990.53
487.726	9984.43
488.097	10233.91
488.467	10274.59
488.837	10503.96
489.207	10546.22
489.578	10795.25
489.948	10849.26
490.318	11037.51
490.688	11115.92
491.058	11264.85
491.428	11403.37
491.798	11509.81
492.168	11753.42
492.538	11835.68
492.908	11967.88
493.278	12152.73
493.648	12208.1
494.017	12285.84
494.387	12456.68
494.757	12552.72
495.126	12677.69
495.496	12671.59
495.866	12767.86
496.235	12928.76
496.605	13112.71
496.974	13160.61
497.344	13307.28
497.713	13387.28
498.082	13516.99
498.452	13729.41
498.821	13789.3
499.19	13824.1
499.559	13881.05
499.928	14002.63
500.298	14230.19
500.667	14240.81
501.036	14370.98
501.405	14454.14
501.774	14478.32
502.143	14662.95
502.512	14674.25
502.88	14836.5
503.249	14923.51
503.618	15006.44
503.987	15062.71
504.356	15278.52
504.724	15329.82
505.093	15395.36
505.462	15534.34
505.83	15561.91
506.199	15845.74
506.567	15898.85
506.936	15998.96
507.304	16202.79
507.672	16268.78
508.041	16351.72
508.409	16497.02
508.777	16612.5
509.145	16659.51
509.514	16850.91
509.882	16990.12
510.25	17050
510.618	17148.98
510.986	17296.1
511.354	17422.2
511.722	17572.02
512.09	17735.41
512.458	17664
512.826	17928.4
513.193	17987.83
513.561	18110.77
513.929	18404.77
514.297	18478.89
514.664	18621.26
515.032	18676.63
515.4	18895.83
515.767	18967.02
516.135	19084.98
516.502	19049.5
516.869	19422.14
517.237	19428.7
517.604	19448.58
517.972	19667.11
518.339	19860.33
518.706	20045.86
519.073	20036.59
519.44	20120.43
519.808	20427.54
520.175	20444.26
520.542	20755.22
520.909	20876.12
521.276	20860.75
521.643	21176.67
522.009	21379.38
522.376	21481.75
522.743	21619.15
523.11	21859.59
523.477	22086.48
523.843	22157.21
524.21	22348.62
524.577	22544.55
524.943	22733.47
525.31	22803.75
525.676	23072.44
526.043	23224.76
526.409	23380.68
526.776	23690.96
527.142	23710.85
527.508	23883.5
527.874	24081.01
528.241	24186.54
528.607	24339.53
528.973	24494.55
529.339	24519.41
529.705	24753.98
530.071	25021.55
530.437	25221.09
530.803	25344.02
531.169	25417.02
531.535	25458.37
531.901	25683.67
532.267	25795.99
532.632	25838.7
532.998	26076.66
533.364	26102.42
533.73	26230.33
534.095	26457.67
534.461	26516.2
534.826	26719.13
535.192	26752.57
535.557	27008.39
535.923	26982.85
536.288	27101.49
536.653	27212.9
537.019	27267.59
537.384	27431.43
537.749	27592.1
538.114	27746.22
538.479	27657.86
538.845	27840
539.21	27900.34
539.575	28001.13
539.94	28077.74
540.305	28346.66
540.67	28368.8
541.034	28460.1
541.399	28625.29
541.764	28626.87
542.129	28724.27
542.494	28895.34
542.858	28932.4
543.223	28929.69
543.587	29168.56
543.952	29272.28
544.316	29262.56
544.681	29294.43
545.045	29522.44
545.41	29685.6
545.774	29762.89
546.138	29776.45
546.503	29980.29
546.867	29928.08
547.231	30204.01
547.595	30247.17
547.959	30337.34
548.324	30348.86
548.688	30409.43
549.052	30537.56
549.416	30661.17
549.779	30656.43
550.143	30784.56
550.507	31123.08
550.871	31179.8
551.235	31128.96
551.599	31351.32
551.962	31382.73
552.326	31561.49
552.689	31774.81
553.053	31705.21
553.417	31770.97
553.78	32216.84
554.143	32109.04
554.507	32290.73
554.87	32384.97
555.234	32628.35
555.597	32551.29
555.96	32742.47
556.323	32808.01
556.686	32885.07
557.05	33276.92
557.413	33125.97
557.776	33329.12
558.139	33395.56
558.502	33546.75
558.865	33634.43
559.228	33979.73
559.59	34004.59
559.953	33958.94
560.316	34383.79
560.679	34577.68
561.041	34609.54
561.404	34704
561.767	34848.41
562.129	34876.65
562.492	35292.69
562.854	35143.09
563.217	35394.38
563.579	35498.11
563.941	35685.9
564.304	35888.15
564.666	36016.51
565.028	36039.56
565.39	36202.27
565.753	36357.74
566.115	36544.86
566.477	36757.51
566.839	36851.74
567.201	37018.97
567.563	37122.24
567.925	37158.85
568.287	37281.79
568.648	37237.5
569.01	37419.86
569.372	37740.76
569.734	37664.15
570.095	37897.37
570.457	38251.48
570.819	38221.42
571.18	38246.06
571.542	38420.52
571.903	38484.92
572.265	38645.14
572.626	38844.23
572.987	38876.55
573.349	38973.5
573.71	39000.16
574.071	39196.31
574.432	39235.41
574.794	39569.64
575.155	39383.88
575.516	39429.98
575.877	39576.64
576.238	39668.84
576.599	39734.15
576.96	39861.83
577.32	39799.01
577.681	39964.2
578.042	40101.37
578.403	40026.12
578.763	40029.74
579.124	40095.5
579.485	40199.23
579.845	40389.95
580.206	40276.06
580.566	40235.61
580.927	40366.68
581.287	40493.68
581.648	40285.55
582.008	40438.99
582.368	40476.05
582.728	40533.23
583.089	40521.93
583.449	40396.51
583.809	40614.36
584.169	40725.09
584.529	40502.95
584.889	40908.36
585.249	40711.75
585.609	40416.62
585.969	40674.24
586.329	40533.91
586.688	40632.66
587.048	40623.62
587.408	40589.72
587.768	40695.03
588.127	40642.83
588.487	40424.08
588.846	40791.98
589.206	40509.95
589.565	40499.1
589.925	40747.91
590.284	40739.78
590.643	40734.8
591.003	40757.63
591.362	40820.23
591.721	40778.87
592.08	40660.91
592.44	40920.34
592.799	40828.14
593.158	40829.49
593.517	40898.87
593.876	40883.95
594.235	40750.4
594.593	40804.86
594.952	40788.14
595.311	40748.59
595.67	40859.55
596.029	41113.33
596.387	41020.22
596.746	41074.91
597.104	40932.31
597.463	40832.88
597.822	40997.17
598.18	40828.59
598.538	40887.34
598.897	41033.33
599.255	40703.17
599.613	41292.3
599.972	40967.57
600.33	41114.68
600.688	40894.8
601.046	41110.84
601.404	41207.79
601.762	41112.42
602.12	41272.19
602.478	41208.01
602.836	41364.84
603.194	41160.56
603.552	41205.3
603.91	41110.61
604.268	41305.19
604.625	41158.52
604.983	41318.97
605.341	41137.28
605.698	41546.08
606.056	41433.77
606.413	41358.29
606.771	41551.51
607.128	41530.49
607.485	41364.84
607.843	41455.46
608.2	41583.37
608.557	41791.27
608.914	41559.19
609.272	41709.24
609.629	41808
609.986	41987.2
610.343	41724.38
610.7	42067.42
611.057	42028.78
611.414	41850.71
611.771	41976.13
612.127	42102
612.484	42052.06
612.841	42309
613.198	41985.62
613.554	42113.53
613.911	42264.71
614.267	42307.64
614.624	42369.56
614.98	42388.55
615.337	42593.96
615.693	42499.05
616.05	42510.13
616.406	42645.04
616.762	42506.28
617.118	42550.58
617.475	42617.24
617.831	42719.39
618.187	42741.76
618.543	42656.56
618.899	42978.81
619.255	42904.47
619.611	42817.46
619.967	43021.3
620.323	43095.19
620.678	42968.19
621.034	42847.97
621.39	42901.53
621.746	42734.75
622.101	43256.09
622.457	42921.19
622.812	43024.46
623.168	43191.46
623.523	43121.41
623.879	43167.74
624.234	42892.49
624.589	43024.46
624.945	43085.25
625.3	43203.67
625.655	43166.15
626.01	43146.94
626.365	43140.62
626.72	43033.5
627.075	43096.32
627.43	43004.12
627.785	42998.7
628.14	43195.3
628.495	42929.32
628.85	43083.44
629.205	42993.5
629.559	43238.02
629.914	42934.52
630.269	42900.85
630.623	42934.07
630.978	42807.52
631.332	43102.65
631.687	43187.17
632.041	42758.48
632.396	42878.25
632.75	42730.01
633.104	42770.68
633.459	42639.61
633.813	42577.24
634.167	42502.22
634.521	42533.85
634.875	42489.79
635.229	42482.1
635.583	42290.47
635.937	42308.1
636.291	42246.4
636.645	42132.51
636.999	42108.1
637.352	42298.61
637.706	42010.93
638.06	42130.47
638.413	41978.84
638.767	41982.23
639.121	41899.29
639.474	41738.17
639.828	41649.81
640.181	41789.01
640.534	41623.59
640.888	41524.39
641.241	41420.89
641.594	41501.34
641.947	41663.14
642.301	41452.98
642.654	41388.12
643.007	41365.97
643.36	41260.67
643.713	41294.79
644.066	41400.32
644.419	41165.3
644.771	40934.8
645.124	40559.67
645.477	40481.7
645.83	40240.13
646.182	40123.97
646.535	40125.78
646.888	39975.73
647.24	39888.95
647.593	40128.94
647.945	39961.04
648.298	39689.63
648.65	39633.59
649.002	39461.84
649.355	39765.56
649.707	39662.74
650.059	39743.64
650.411	40123.97
650.763	40253.69
651.115	40443.51
651.467	40406.9
651.819	40423.4
652.171	40284.65
652.523	40320.58
652.875	40348.83
653.227	40024.09
653.578	40295.04
653.93	40252.56
654.282	40128.04
654.633	39901.83
654.985	40093.47
655.337	40050.98
655.688	40074.71
656.039	40085.33
656.391	39709.29
656.742	39898.44
657.094	39812.79
657.445	39775.96
657.796	39842.4
658.147	39843.98
658.498	39699.58
658.849	39821.61
659.2	39708.84
659.551	39595.63
659.902	39709.52
660.253	39539.36
660.604	39607.6
660.955	39436.99
661.306	39592.01
661.656	39412.35
662.007	39463.88
662.358	39313.37
662.708	39250.1
663.059	39324.9
663.409	38937.11
663.76	39086.03
664.11	39110.44
664.461	39164.22
664.811	39151.12
665.161	38965.13
665.511	38845.14
665.862	38869.54
666.212	38890.33
666.562	38860.05
666.912	38783.22
667.262	38580.74
667.612	38435.66
667.962	38508.87
668.312	38379.39
668.662	38484.02
669.011	38147.53
669.361	38193.85
669.711	38058.94
670.06	37974.88
670.41	37748.22
670.76	37724.94
671.109	37884.03
671.459	37772.17
671.808	37564.04
672.157	37576.7
672.507	37364.05
672.856	37344.39
673.205	37224.84
673.554	37316.59
673.904	37269.36
674.253	37372.63
674.602	37233.43
674.951	36755.25
675.3	36384.18
675.649	36999.76
675.998	36897.39
676.346	36923.83
676.695	37133.77
677.044	36765.87
677.393	36930.38
677.741	36814.46
678.09	36758.41
678.438	36723.16
678.787	36761.12
679.135	36813.55
679.484	36521.13
679.832	36728.13
680.181	36496.27
680.529	36590.28
680.877	36345.54
681.225	36543.73
681.573	36771.52
681.922	36401.81
682.27	36447.91
682.618	36554.8
682.966	36480.91
683.314	36541.02
683.661	36554.8
684.009	36232.78
684.357	36300.34
684.705	36286.11
685.053	36442.26
685.4	36302.15
685.748	36176.05
686.095	36309.84
686.443	36099.45
686.79	36170.4
687.138	36254.92
687.485	36281.14
687.832	36108.03
688.18	36237.75
688.527	36035.04
688.874	36211.08
689.221	36053.35
689.568	36052.22
689.915	35944.87
690.262	35889.96
690.609	35907.36
690.956	35809.28
691.303	35971.99
691.65	35714.82
691.997	35696.97
692.344	35619.68
692.69	35616.97
693.037	35725.67
693.383	35396.87
693.73	35569.29
694.077	35502.63
694.423	35467.37
694.769	35290.2
695.116	35454.94
695.462	35212.24
695.808	35275.97
696.155	35314.61
696.501	35053.15
696.847	35076.2
697.193	34897.67
697.539	34827.16
697.885	34708.07
698.231	34595.08
698.577	34652.25
698.923	34593.72
699.269	34537
699.614	34377.68
699.96	34408.42
700.306	34336.55
700.651	34153.51
700.997	34170.46
701.342	34030.12
701.688	33919.39
702.033	33927.75
702.379	33830.35
702.724	33778.38
703.069	33814.53
703.415	33454.77
703.76	33443.02
704.105	33422.91
704.45	33320.31
704.795	33118.06
705.14	33046.42
705.485	33082.8
705.83	33019.53
706.175	33086.64
706.52	32920.77
706.865	32742.47
707.209	32814.33
707.554	32655.47
707.899	32673.32
708.243	32467.45
708.588	32449.15
708.932	32316.49
709.277	32281.24
709.621	32288.47
709.966	32074.69
710.31	32323.73
710.654	31814.14
710.998	32006.45
711.342	31983.4
711.687	31923.51
712.031	31724.65
712.375	31651.2
712.719	31706.34
713.063	31628.83
713.407	31644.42
713.75	31501.6
714.094	31455.27
714.438	31425.22
714.782	31542.05
715.125	31259.8
715.469	31256.64
715.812	31122.63
716.156	30945.91
716.499	30947.27
716.843	31012.57
717.186	30845.12
717.53	30995.85
717.873	30803.77
718.216	30944.55
718.559	30672.7
718.902	30539.37
719.246	30621.62
719.589	30514.73
719.932	30356.77
720.275	30334.85
720.617	30420.95
720.96	30231.13
721.303	30237.91
721.646	30299.82
721.989	30018.25
722.331	30083.11
722.674	29979.61
723.016	30069.77
723.359	30059.83
723.701	30007.18
724.044	29733.29
724.386	29669.56
724.729	29829.33
725.071	29682.67
725.413	29588.43
725.755	29550.01
726.097	29601.54
726.439	29365.61
726.782	29379.85
727.124	29474.76
727.465	29368.78
727.807	29251.49
728.149	29227.08
728.491	29190.25
728.833	29184.6
729.175	29073.64
729.516	29093.08
729.858	29011.95
730.199	29003.81
730.541	28813.31
730.882	28797.72
731.224	28941.67
731.565	28724.05
731.906	28671.17
732.248	28674.33
732.589	28613.54
732.93	28377.39
733.271	28475.69
733.612	28472.75
733.953	28540.77
734.294	28374.23
734.635	28330.39
734.976	28340.55
735.317	28210.84
735.658	28223.95
735.999	28226.21
736.339	28082.93
736.68	28202.03
737.021	28032.77
737.361	27929.72
737.702	28118.41
738.042	27988.02
738.383	27973.11
738.723	28015.37
739.063	27797.07
739.404	27865.99
739.744	27797.52
740.084	27797.97
740.424	27634.58
740.764	27721.14
741.104	27652.89
741.444	27509.16
741.784	27350.52
742.124	27550.52
742.464	27451.09
742.804	27408.83
743.143	27373.57
743.483	27266.68
743.823	27153.24
744.162	27174.71
744.502	27246.35
744.841	27046.58
745.181	27258.1
745.52	27044.32
745.86	27122.06
746.199	26907.82
746.538	26953.7
746.877	27039.8
747.216	26907.82
747.556	26915.06
747.895	26878.9
748.234	26717.09
748.573	26644.78
748.911	26667.15
749.25	26676.42
749.589	26543.31
749.928	26522.97
750.267	26427.84
750.605	26360.27
750.944	26318.46
751.283	26387.39
751.621	26374.05
751.96	26126.83
752.298	26046.38
752.636	26103.1
752.975	25968.64
753.313	25965.02
753.651	26028.75
753.989	25890.68
754.327	25847.06
754.666	25625.15
755.004	25617.69
755.342	25556.45
755.679	25595.32
756.017	25489.56
756.355	25497.01
756.693	25349.9
757.031	25340.18
757.368	25282.1
757.706	25065.61
758.044	25068.32
758.381	25115.55
758.719	24952.85
759.056	25053.18
759.394	24975.22
759.731	24781.1
760.068	24646.87
760.405	24553.99
760.743	24595.57
761.08	24567.32
761.417	24504.95
761.754	24392.64
762.091	24328.91
762.428	24192.87
762.765	24052.76
763.102	24163.49
763.438	24021.35
763.775	23968.92
764.112	24027.9
764.449	23855.02
764.785	23701.81
765.122	23585.43
765.458	23513.79
765.795	23369.61
766.131	23421.14
766.467	23415.26
766.804	23191.99
767.14	23148.37
767.476	23058.43
767.812	22868.61
768.148	23077.64
768.485	22836.52
768.821	22707.93
769.157	22690.99
769.492	22671.78
769.828	22594.04
770.164	22425.68
770.5	22365.12
770.836	22404.21
771.171	22214.39
771.507	22185.24
771.842	22110.66
772.178	22077.67
772.513	21972.36
772.849	21902.31
773.184	21795.19
773.519	21798.13
773.855	21580.51
774.19	21557.91
774.525	21523.33
774.86	21463.67
775.195	21361.08
775.53	21334.86
775.865	21109.11
776.2	21082.67
776.535	20915.89
776.87	20936.23
777.205	20827.98
777.539	20807.64
777.874	20778.95
778.209	20720.42
778.543	20546.18
778.878	20452.85
779.212	20329.69
779.547	20343.25
779.881	20261.67
780.215	20198.85
780.55	20193.88
780.884	19962.7
781.218	19958.4
781.552	19986.88
781.886	19870.27
782.22	19768.8
782.554	19772.87
782.888	19549.37
783.222	19508.92
783.556	19358.19
783.889	19500.11
784.223	19151.87
784.557	19145.54
784.89	19214.69
785.224	19194.58
785.557	18949.16
785.891	18966.11
786.224	18909.16
786.558	18842.27
786.891	18761.6
787.224	18623.3
787.557	18637.08
787.891	18550.3
788.224	18531.77
788.557	18557.31
788.89	18494.49
789.223	18368.16
789.556	18279.58
789.888	18240.71
790.221	18148.73
790.554	17982.86
790.887	18026.02
791.219	17973.82
791.552	17952.13
791.884	17851.56
792.217	17705.58
792.549	17686.15
792.882	17526.6
793.214	17503.78
793.546	17566.83
793.879	17343.56
794.211	17333.16
794.543	17355.31
794.875	17274.63
795.207	17301.52
795.539	17213.84
795.871	17230.56
796.203	16993.28
796.535	16970.01
796.867	16932.27
797.198	16896.56
797.53	16817.47
797.862	16725.27
798.193	16757.58
798.525	16542.9
798.856	16633.29
799.188	16506.74
799.519	16398.5
799.85	16350.14
800.182	16353.52
800.513	16318.95
800.844	16172.29
801.175	16228.33
801.506	16161.21
801.837	16169.57
802.168	16037.83
802.499	16053.42
802.83	15872.18
803.161	15890.94
803.491	15907.43
803.822	15905.85
804.153	15861.79
804.483	15640.32
804.814	15619.31
805.145	15629.93
805.475	15579.53
805.805	15605.75
806.136	15499.99
806.466	15484.4
806.796	15444.4
807.126	15251.41
807.457	15150.84
807.787	15252.54
808.117	15198.53
808.447	15134.12
808.777	15154.91
809.107	15025.65
809.436	14932.32
809.766	15055.25
810.096	14964.18
810.426	14904.98
810.755	14909.49
811.085	14939.55
811.414	14805.77
811.744	14711.99
812.073	14766.22
812.403	14669.05
812.732	14657.07
813.061	14613.91
813.39	14580.24
813.719	14487.13
814.049	14518.09
814.378	14480.13
814.707	14458.43
815.036	14349.74
815.365	14341.37
815.693	14189.06
816.022	14202.62
816.351	14161.27
816.68	14056.86
817.008	14168.05
817.337	14016.86
817.665	14017.99
817.994	13988.62
818.322	13983.64
818.651	13867.04
818.979	13943.19
819.307	13894.61
819.636	13843.99
819.964	13810.54
820.292	13920.59
820.62	13813.25
820.948	13788.62
821.276	13854.61
821.604	13810.09
821.932	13759.02
822.259	13815.51
822.587	13755.63
822.915	13781.84
823.243	13835.85
823.57	13727.83
823.898	13827.72
824.225	13682.63
824.553	13733.71
824.88	13735.29
825.207	13780.49
825.535	13653.71
825.862	13775.97
826.189	13632.01
826.516	13677.89
826.843	13760.15
827.17	13759.47
827.497	13704.78
827.824	13644.44
828.151	13647.38
828.478	13678.79
828.805	13729.86
829.131	13607.16
829.458	13616.2
829.785	13589.08
830.111	13676.31
830.438	13648.51
830.764	13608.96
831.09	13701.17
831.417	13566.71
831.743	13568.06
832.069	13582.75
832.395	13532.58
832.722	13579.36
833.048	13587.95
833.374	13589.53
833.7	13528.06
834.026	13513.37
834.351	13459.59
834.677	13515.86
835.003	13559.02
835.329	13504.79
835.654	13529.42
835.98	13414.39
836.306	13409.87
836.631	13368.07
836.956	13401.51
837.282	13349.31
837.607	13336.43
837.932	13178.02
838.258	13313.6
838.583	13284.68
838.908	13123.1
839.233	13214.62
839.558	13152.03
839.883	13117.45
840.208	13106.83
840.533	13079.49
840.858	13148.86
841.182	13119.71
841.507	13092.82
841.832	12999.04
842.156	13013.05
842.481	12980.05
842.805	12913.16
843.13	12879.27
843.454	12852.6
843.778	12827.29
844.103	12761.98
844.427	12736.9
844.751	12789.32
845.075	12661.64
845.399	12562.89
845.723	12608.31
846.047	12567.64
846.371	12501.42
846.695	12514.76
847.019	12349.34
847.343	12414.42
847.666	12339.85
847.99	12239.96
848.313	12273.86
848.637	12137.36
848.96	12177.59
849.284	12147.08
849.607	12048.33
849.931	11983.47
850.254	11976.24
850.577	11859.18
850.9	11804.04
851.223	11727.88
851.546	11711.84
851.869	11668
852.192	11714.55
852.515	11496.25
852.838	11516.82
853.161	11630.03
853.483	11451.05
853.806	11437.5
854.129	11411.73
854.451	11347.33
854.774	11249.48
855.096	11207.45
855.419	11272.08
855.741	11180.33
856.063	11177.16
856.385	11182.81
856.708	11046.09
857.03	11025.98
857.352	10985.98
857.674	11035.92
857.996	10981.01
858.318	10967.23
858.64	10932.65
858.961	10901.46
859.283	10811.3
859.605	10807.46
859.926	10818.08
860.248	10783.5
860.57	10753.22
860.891	10762.94
861.212	10670.96
861.534	10675.26
861.855	10633
862.176	10610.85
862.498	10661.7
862.819	10627.57
863.14	10538.08
863.461	10495.83
863.782	10527.69
864.103	10507.58
864.424	10456.5
864.745	10470.06
865.065	10414.92
865.386	10401.36
865.707	10409.95
866.027	10385.32
866.348	10331.08
866.668	10352.78
866.989	10298.77
867.309	10261.71
867.63	10269.62
867.95	10299.9
868.27	10239.79
868.59	10200.69
868.91	10184.42
869.23	10195.49
869.55	10185.1
869.87	10187.81
870.19	10160.69
870.51	10188.72
870.83	10151.2
871.15	10082.28
871.469	10065.33
871.789	10098.1
872.109	10114.59
872.428	9983.07
872.748	10044.54
873.067	10066.91
873.386	10002.28
873.706	9911.43
874.025	9947.59
874.344	9924.09
874.663	9936.07
874.982	9914.15
875.301	9872.57
875.62	9813.81
875.939	9810.65
876.258	9800.48
876.577	9712.12
876.896	9865.33
877.214	9703.76
877.533	9776.97
877.852	9753.92
878.17	9816.52
878.489	9774.71
878.807	9750.99
879.125	9733.36
879.444	9592.57
879.762	9668.73
880.08	9638.45
880.398	9611.33
880.716	9531.78
881.034	9550.99
881.352	9550.99
881.67	9555.29
881.988	9478.68
882.306	9498.56
882.624	9447.72
882.941	9380.6
883.259	9388.96
883.577	9329.53
883.894	9388.74
884.212	9329.08
884.529	9419.7
884.846	9365.91
885.164	9329.75
885.481	9257.67
885.798	9294.05
886.115	9179.02
886.432	9164.11
886.75	9124.79
887.067	9160.95
887.383	9155.3
887.7	9101.74
888.017	9070.78
888.334	9141.74
888.651	9034.85
888.967	8991.91
889.284	9001.4
889.6	8967.05
889.917	8945.36
890.233	8960.95
890.55	8918.01
890.866	8874.4
891.182	8868.3
891.498	8809.99
891.815	8835.3
892.131	8753.05
892.447	8734.97
892.763	8667.4
893.079	8659.49
893.395	8610.9
893.71	8612.94
894.026	8619.04
894.342	8621.52
894.657	8511.47
894.973	8560.51
895.289	8542.66
895.604	8512.38
895.92	8453.39
896.235	8372.94
896.55	8368.65
896.865	8405.71
897.181	8363
897.496	8373.85
897.811	8313.51
898.126	8269.67
898.441	8269.67
898.756	8222.89
899.071	8199.16
899.386	8213.17
899.7	8106.74
900.015	8092.5
900.33	7972.05
900.644	8057.92
900.959	8000.07
901.273	8057.02
901.588	7989.68
901.902	7949.9
902.216	7931.37
902.531	7856.12
902.845	7950.58
903.159	7820.64
903.473	7732.28
903.787	7745.16
904.101	7698.84
904.415	7659.74
904.729	7571.38
905.042	7600.53
905.356	7618.61
905.67	7534.55
905.984	7498.16
906.297	7446.19
906.611	7482.35
906.924	7410.94
907.237	7401.67
907.551	7408.22
907.864	7413.87
908.177	7303.37
908.491	7273.09
908.804	7175.46
909.117	7172.75
909.43	7187.44
909.743	7159.87
910.056	7142.92
910.368	7098.17
910.681	7154.9
910.994	7062.7
911.307	7023.37
911.619	6952.42
911.932	6955.13
912.244	6885.75
912.557	6960.1
912.869	6889.59
913.181	6909.93
913.494	6834
913.806	6789.48
914.118	6808.24
914.43	6731.18
914.742	6719.2
915.054	6653.21
915.366	6658.86
915.678	6662.25
915.99	6629.49
916.302	6574.12
916.613	6527.57
916.925	6562.14
917.236	6523.05
917.548	6494.35
917.859	6494.57
918.171	6395.14
918.482	6363.73
918.794	6370.06
919.105	6424.07
919.416	6322.6
919.727	6367.8
920.038	6311.98
920.349	6269.72
920.66	6221.14
920.971	6187.01
921.282	6194.02
921.593	6171.42
921.903	6107.01
922.214	6096.62
922.525	6114.7
922.835	6071.08
923.146	5957.64
923.456	6022.5
923.767	5998.99
924.077	5919.9
924.387	5965.32
924.697	5930.97
925.008	5848.49
925.318	5855.72
925.628	5841.03
925.938	5796.06
926.248	5805.1
926.558	5754.03
926.867	5751.77
927.177	5688.49
927.487	5718.55
927.796	5648.95
928.106	5642.62
928.416	5617.08
928.725	5593.13
929.034	5541.83
929.344	5563.07
929.653	5479.46
929.962	5489.86
930.271	5450.76
930.581	5435.62
930.89	5415.73
931.199	5346.13
931.508	5369.18
931.817	5325.11
932.125	5357.43
932.434	5258.68
932.743	5262.29
933.051	5263.19
933.36	5211.44
933.669	5143.88
933.977	5170.09
934.286	5166.7
934.594	5137.32
934.902	5116.08
935.21	5111.56
935.519	5055.97
935.827	5060.26
936.135	5059.13
936.443	5007.61
936.751	4973.49
937.059	4949.3
937.367	4960.83
937.674	4940.94
937.982	4880.15
938.29	4851.91
938.597	4882.41
938.905	4870.44
939.213	4838.57
939.52	4808.97
939.827	4817.78
940.135	4788.86
940.442	4756.54
940.749	4728.52
941.056	4771.46
941.363	4692.59
941.67	4642.42
941.977	4602.42
942.284	4623.21
942.591	4610.33
942.898	4603.33
943.205	4600.16
943.511	4517.45
943.818	4524.68
944.125	4494.63
944.431	4519.71
944.738	4514.29
945.044	4437.91
945.35	4440.84
945.657	4453.95
945.963	4367.17
946.269	4370.34
946.575	4366.27
946.881	4302.32
947.187	4319.94
947.493	4324.24
947.799	4266.38
948.105	4274.07
948.41	4227.06
948.716	4208.76
949.022	4182.77
949.327	4176.67
949.633	4119.27
949.938	4124.24
950.244	4114.98
950.549	4103
950.854	4102.32
951.16	4109.33
951.465	4037.46
951.77	4044.92
952.075	4037.24
952.38	4010.57
952.685	4020.97
952.99	3981.87
953.294	3945.72
953.599	3873.63
953.904	3889.9
954.209	3910.46
954.513	3897.58
954.818	3885.38
955.122	3832.72
955.426	3839.28
955.731	3833.18
956.035	3798.6
956.339	3810.13
956.643	3770.13
956.948	3749.79
957.252	3717.92
957.556	3752.95
957.86	3677.93
958.163	3713.86
958.467	3656.91
958.771	3664.82
959.075	3627.31
959.378	3638.38
959.682	3625.5
959.985	3592.5
960.289	3568.32
960.592	3552.73
960.896	3576.46
961.199	3523.58
961.502	3525.39
961.805	3514.99
962.108	3529
962.411	3471.38
962.714	3455.11
963.017	3442.45
963.32	3439.29
963.623	3445.39
963.926	3412.85
964.228	3418.27
964.531	3378.5
964.833	3348.22
965.136	3305.51
965.438	3307.09
965.741	3311.38
966.043	3314.77
966.345	3264.6
966.648	3280.87
966.95	3274.55
967.252	3228.9
967.554	3238.62
967.856	3211.27
968.158	3202.46
968.46	3222.57
968.761	3155.68
969.063	3180.76
969.365	3135.12
969.666	3102.12
969.968	3139.41
970.269	3057.83
970.571	3076.36
970.872	3067.32
971.174	3061.67
971.475	3050.82
971.776	3021.67
972.077	3025.06
972.378	3017.6
972.679	2978.28
972.98	2977.61
973.281	2979.64
973.582	2972.18
973.883	2926.53
974.183	2914.56
974.484	2867.33
974.785	2875.24
975.085	2873.88
975.386	2907.1
975.686	2895.35
975.986	2875.69
976.287	2848.57
976.587	2832.3
976.887	2826.65
977.187	2813.54
977.487	2773.09
977.787	2775.8
978.087	2760.44
978.387	2735.8
978.687	2715.47
978.987	2714.79
979.286	2709.59
979.586	2733.54
979.885	2678.4
980.185	2694.9
980.484	2619.65
980.784	2665.3
981.083	2605.19
981.382	2618.52
981.682	2625.98
981.981	2639.99
982.28	2579.65
982.579	2587.11
982.878	2574.68
983.177	2560.67
983.475	2569.25
983.774	2558.86
984.073	2559.09
984.372	2511.85
984.67	2495.58
984.969	2511.85
985.267	2517.73
985.566	2463.27
985.864	2482.7
986.162	2492.65
986.461	2410.16
986.759	2455.81
987.057	2421.24
987.355	2425.3
987.653	2399.77
987.951	2358.64
988.249	2396.38
988.547	2377.4
988.844	2334.91
989.142	2359.77
989.44	2298.98
989.737	2351.63
990.035	2328.81
990.332	2315.02
990.63	2281.8
990.927	2290.17
991.224	2224.63
991.521	2261.01
991.819	2258.08
992.116	2238.87
992.413	2225.76
992.71	2223.5
993.006	2223.95
993.303	2202.26
993.6	2206.1
993.897	2212.2
994.193	2155.48
994.49	2152.09
994.787	2145.08
995.083	2129.49
995.379	2134.92
995.676	2102.15
995.972	2118.19
996.268	2104.86
996.565	2062.6
996.861	2053.56
997.157	2056.27
997.453	2017.86
997.749	2050.62
998.044	2048.82
998.34	2021.7
998.636	2002.94
998.932	2009.5
999.227	1990.29
999.523	1998.2
999.818	2004.98
1000.114	1976.28
1000.409	1958.42
1000.704	1905.32
1001	1955.03
1001.295	1908.93
1001.59	1900.8
1001.885	1930.4
1002.18	1880.69
1002.475	1901.48
1002.77	1876.39
1003.065	1888.59
1003.359	1856.28
1003.654	1853.34
1003.949	1832.78
1004.243	1808.6
1004.538	1805.88
1004.832	1825.32
1005.127	1754.36
1005.421	1740.12
1005.715	1776.96
1006.009	1773.34
1006.304	1768.15
1006.598	1741.48
1006.892	1721.59
1007.186	1733.12
1007.48	1694.02
1007.773	1715.94
1008.067	1698.09
1008.361	1665.78
1008.655	1709.62
1008.948	1679.33
1009.242	1681.59
1009.535	1690.18
1009.829	1673.23
1010.122	1654.7
1010.415	1634.14
1010.708	1611.99
1011.001	1614.03
1011.295	1588.04
1011.588	1610.86
1011.881	1585.78
1012.173	1554.37
1012.466	1566.12
1012.759	1588.72
1013.052	1575.38
1013.344	1537.42
1013.637	1534.71
1013.93	1518.21
1014.222	1504.42
1014.514	1517.98
1014.807	1510.3
1015.099	1458.1
1015.391	1489.96
1015.683	1468.94
1015.976	1444.54
1016.268	1433.92
1016.56	1442.96
1016.851	1444.99
1017.143	1430.3
1017.435	1446.8
1017.727	1422.84
1018.018	1385.1
1018.31	1395.95
1018.602	1361.6
1018.893	1356.86
1019.185	1364.31
1019.476	1359.79
1019.767	1357.53
1020.058	1322.73
1020.35	1320.02
1020.641	1336.97
1020.932	1274.6
1021.223	1296.07
1021.514	1318.67
1021.804	1317.08
1022.095	1281.6
1022.386	1267.37
1022.677	1243.41
1022.967	1242.74
1023.258	1233.02
1023.548	1245.67
1023.839	1235.96
1024.129	1216.3
1024.419	1224.43
1024.709	1211.1
1025	1202.51
1025.29	1184.88
1025.58	1181.04
1025.87	1206.35
1026.16	1160.93
1026.449	1159.8
1026.739	1140.37
1027.029	1155.05
1027.319	1135.17
1027.608	1098.33
1027.898	1131.55
1028.187	1110.54
1028.477	1115.51
1028.766	1109.86
1029.055	1099.69
1029.344	1106.47
1029.634	1085.23
1029.923	1092.01
1030.212	1057.66
1030.501	1068.5
1030.79	1068.5
1031.078	1028.28
1031.367	1045.68
1031.656	1021.72
1031.945	1035.28
1032.233	994.15
1032.522	1016.53
1032.81	1005.23
1033.099	1003.42
1033.387	999.35
1033.675	1013.14
1033.963	966.81
1034.251	972.23
1034.54	979.69
1034.828	963.65
1035.116	955.96
1035.403	953.25
1035.691	958.22
1035.979	936.76
1036.267	947.83
1036.554	945.12
1036.842	902.18
1037.129	913.48
1037.417	923.87
1037.704	918.68
1037.992	936.76
1038.279	897.89
1038.566	899.02
1038.853	899.02
1039.14	899.02
