Data from white_steel_sheet_FLMS001491_059.txt Node
Date: Tue Feb 07 10:58:06 GMT 2017
User: dcchb
Spectrometer: FLMS00149
Trigger mode: 0
Integration Time (sec): 2.000000E-2
Scans to average: 10
Electric dark correction enabled: true
Nonlinearity correction enabled: false
Boxcar width: 0
XAxis mode: Wavelengths
Number of Pixels in Spectrum: 2048
>>>>>Begin Spectral Data<<<<<
341.393	-2.64
341.776	-2.64
342.16	-2.64
342.543	-61.62
342.927	-69.53
343.31	-78.35
343.693	-73.37
344.077	-70.89
344.46	-48.06
344.843	-46.26
345.226	-40.83
345.61	-37.44
345.993	-31.57
346.376	15.44
346.759	3.01
347.142	26.96
347.525	40.52
347.908	61.99
348.291	70.35
348.674	97.24
349.057	111.25
349.44	147.41
349.823	147.19
350.206	180.4
350.588	196.9
350.971	214.98
351.354	231.93
351.737	243.91
352.119	268.54
352.502	267.18
352.884	273.51
353.267	297.01
353.65	290.46
354.032	311.25
354.414	308.99
354.797	312.6
355.179	319.38
355.562	336.56
355.944	347.86
356.326	349.67
356.709	352.6
357.091	355.09
357.473	342.66
357.855	352.38
358.238	362.32
358.62	343.11
359.002	333.4
359.384	358.48
359.766	358.03
360.148	360.29
360.53	343.79
360.912	338.14
361.294	338.37
361.676	339.95
362.057	344.24
362.439	329.78
362.821	343.34
363.203	347.63
363.584	335.43
363.966	335.43
364.348	358.03
364.729	346.73
365.111	341.98
365.493	345.82
365.874	331.59
366.256	339.72
366.637	341.3
367.019	330.91
367.4	341.3
367.781	330.68
368.163	347.18
368.544	319.84
368.925	341.08
369.306	339.04
369.688	315.77
370.069	320.29
370.45	336.56
370.831	361.19
371.212	337.01
371.593	318.48
371.974	326.16
372.355	341.98
372.736	340.85
373.117	346.28
373.498	315.77
373.879	336.78
374.26	340.17
374.641	350.8
375.021	339.04
375.402	333.85
375.783	335.2
376.163	345.15
376.544	378.37
376.925	366.84
377.305	344.92
377.686	365.71
378.066	334.53
378.447	347.18
378.827	362.32
379.208	353.28
379.588	372.94
379.968	363.9
380.349	362.32
380.729	365.26
381.109	363.22
381.489	356.45
381.87	364.81
382.25	374.3
382.63	383.56
383.01	396.22
383.39	375.2
383.77	391.47
384.15	408.42
384.53	392.15
384.91	388.99
385.29	405.48
385.67	376.78
386.049	404.58
386.429	397.12
386.809	400.96
387.189	406.61
387.568	396.22
387.948	424.92
388.328	423.79
388.707	438.48
389.087	416.78
389.466	421.53
389.846	443.45
390.225	426.73
390.605	437.8
390.984	448.42
391.363	459.95
391.743	426.73
392.122	440.96
392.501	439.83
392.881	487.52
393.26	477.57
393.639	443.67
394.018	472.37
394.397	475.76
394.776	486.61
395.155	491.58
395.534	521.86
395.913	502.66
396.292	500.85
396.671	506.72
397.05	535.88
397.429	522.99
397.808	528.42
398.186	549.66
398.565	532.94
398.944	541.07
399.323	540.62
399.701	561.64
400.08	553.05
400.458	591.02
400.837	579.26
401.215	584.24
401.594	592.6
401.972	595.99
402.351	619.04
402.729	629.21
403.107	638.25
403.486	614.07
403.864	656.78
404.242	643.9
404.62	674.18
404.999	667.4
405.377	701.3
405.755	680.73
406.133	711.46
406.511	724.35
406.889	738.13
407.267	736.32
407.645	729.09
408.023	746.94
408.401	764.57
408.779	801.18
409.156	812.25
409.534	809.99
409.912	794.4
410.29	842.53
410.667	865.13
411.045	850.22
411.422	857.22
411.8	897.22
412.178	903.55
412.555	910.1
412.933	884.12
413.31	935.41
413.687	965.92
414.065	974.73
414.442	966.15
414.819	980.84
415.197	1006.6
415.574	1023.77
415.951	1045.69
416.328	1055.64
416.705	1064.68
417.082	1063.77
417.46	1062.87
417.837	1098.57
418.214	1096.09
418.591	1135.86
418.967	1092.92
419.344	1123.88
419.721	1124.79
420.098	1126.82
420.475	1143.09
420.852	1149.42
421.228	1166.14
421.605	1187.61
421.982	1220.6
422.358	1216.54
422.735	1233.03
423.111	1217.67
423.488	1263.99
423.864	1279.36
424.241	1311
424.617	1311
424.994	1316.42
425.37	1292.24
425.746	1317.55
426.123	1379.47
426.499	1353.48
426.875	1391.9
427.251	1375.18
427.627	1441.61
428.003	1468.73
428.379	1473.93
428.756	1462.86
429.132	1508.05
429.507	1543.53
429.883	1526.13
430.259	1555.51
430.635	1565.91
431.011	1598.45
431.387	1637.77
431.763	1661.95
432.138	1638.22
432.514	1661.72
432.89	1714.38
433.265	1709.4
433.641	1746.69
434.016	1775.62
434.392	1787.37
434.767	1806.8
435.143	1828.05
435.518	1879.12
435.894	1878.44
436.269	1907.37
436.644	1895.84
437.02	1952.56
437.395	1937.19
437.77	1975.16
438.145	1996.85
438.52	2006.8
438.895	2058.55
439.271	2045.67
439.646	2096.29
440.021	2101.03
440.395	2148.71
440.77	2096.29
441.145	2156.4
441.52	2196.4
441.895	2181.26
442.27	2192.78
442.645	2229.84
443.019	2250.41
443.394	2257.64
443.769	2286.11
444.143	2246.11
444.518	2327.02
444.892	2301.03
445.267	2348.03
445.641	2363.85
446.016	2397.97
446.39	2384.19
446.764	2417.18
447.139	2436.84
447.513	2479.55
447.887	2438.88
448.262	2454.7
448.636	2494.47
449.01	2564.97
449.384	2579.21
449.758	2559.33
450.132	2602.94
450.506	2666.44
450.88	2636.84
451.254	2653.56
451.628	2665.54
452.002	2762.26
452.376	2707.57
452.75	2757.74
453.123	2762.94
453.497	2833.22
453.871	2849.49
454.244	2924.51
454.618	2933.78
454.992	2947.34
455.365	2973.1
455.739	3048.58
456.112	3033.21
456.486	3107.11
456.859	3078.86
457.232	3192.76
457.606	3187.56
457.979	3268.91
458.352	3320.21
458.725	3354.56
459.099	3361.56
459.472	3397.5
459.845	3438.62
460.218	3460.09
460.591	3512.07
460.964	3518.62
461.337	3617.83
461.71	3706.19
462.083	3719.75
462.456	3721.78
462.829	3697.37
463.201	3798.16
463.574	3845.17
463.947	3857.6
464.32	3974.2
464.692	3996.58
465.065	4032.96
465.438	4061.88
465.81	4126.06
466.183	4142.56
466.555	4251.71
466.928	4292.61
467.3	4271.6
467.672	4361.54
468.045	4463.68
468.417	4484.02
468.789	4585.49
469.161	4613.28
469.534	4654.86
469.906	4757.23
470.278	4774.63
470.65	4855.54
471.022	4939.83
471.394	5009.43
471.766	5071.12
472.138	5144.57
472.51	5216.88
472.882	5331.91
473.253	5341.85
473.625	5464.79
473.997	5573.03
474.369	5596.08
474.74	5671.79
475.112	5820.71
475.484	5869.07
475.855	5982.74
476.227	6047.14
476.598	6143.19
476.97	6247.82
477.341	6358.77
477.713	6511.09
478.084	6423.86
478.455	6642.61
478.827	6718.54
479.198	6975.71
479.569	6883.28
479.94	7155.59
480.311	7205.3
480.682	7375.7
481.053	7550.61
481.424	7695.91
481.795	7751.96
482.166	7827.44
482.537	7935
482.908	8196.92
483.279	8208.22
483.65	8364.6
484.021	8481.2
484.391	8611.82
484.762	8645.04
485.133	8738.6
485.503	8875.09
485.874	9149.21
486.244	9236.21
486.615	9391.01
486.985	9453.83
487.356	9600.27
487.726	9713.49
488.097	9934.72
488.467	9917.1
488.837	10132.46
489.207	10290.42
489.578	10429.4
489.948	10472.34
490.318	10686.12
490.688	10726.12
491.058	10921.59
491.428	11006.56
491.798	11194.13
492.168	11336.27
492.538	11430.28
492.908	11520.9
493.278	11671.4
493.648	11797.05
494.017	11847.67
494.387	12001.56
494.757	12174.44
495.126	12251.95
495.496	12276.58
495.866	12313.19
496.235	12563.81
496.605	12646.52
496.974	12751.83
497.344	12922.67
497.713	13004.25
498.082	13065.94
498.452	13210.8
498.821	13361.3
499.19	13313.17
499.559	13499.38
499.928	13612.14
500.298	13686.72
500.667	13836.77
501.036	13751.57
501.405	13974.17
501.774	14087.61
502.143	14179.13
502.512	14221.39
502.88	14421.84
503.249	14380.48
503.618	14577.99
503.987	14565.56
504.356	14730.53
504.724	14826.57
505.093	14892.11
505.462	14979.56
505.83	15076.06
506.199	15300.01
506.567	15343.62
506.936	15450.51
507.304	15697.28
507.672	15727.79
508.041	15788.58
508.409	15927.56
508.777	15996.26
509.145	16203.71
509.514	16132.08
509.882	16441.22
510.25	16507.66
510.618	16591.72
510.986	16701.78
511.354	16884.37
511.722	16962.79
512.09	17083.46
512.458	17161.88
512.826	17306.28
513.193	17418.6
513.561	17487.07
513.929	17671.92
514.297	17813.16
514.664	17947.85
515.032	18026.49
515.4	18245.47
515.767	18407.72
516.135	18446.59
516.502	18406.59
516.869	18755.28
517.237	18768.62
517.604	18733.36
517.972	19019.91
518.339	19151.43
518.706	19275.95
519.073	19331.77
519.44	19537.41
519.808	19699.44
520.175	19677.52
520.542	20085.87
520.909	20127.9
521.276	20077.96
521.643	20484.28
522.009	20444.73
522.376	20770.6
522.743	20942.57
523.11	21096.69
523.477	21303.69
523.843	21425.27
524.21	21609.67
524.577	21707.3
524.943	21808.31
525.31	21996.1
525.676	22285.59
526.043	22359.93
526.409	22493.94
526.776	22721.06
527.142	22778.68
527.508	23042.63
527.874	23112.23
528.241	23350.87
528.607	23340.25
528.973	23711.09
529.339	23674.93
529.705	24010.96
530.071	24097.06
530.437	24156.05
530.803	24412.54
531.169	24478.75
531.535	24524.85
531.901	24716.71
532.267	24756.03
532.632	25044.38
532.998	25053.2
533.364	25150.14
533.73	25377.26
534.095	25565.27
534.461	25569.79
534.826	25742.9
535.192	25849.56
535.557	25994.87
535.923	26017.69
536.288	26201.42
536.653	26351.24
537.019	26216.33
537.384	26500.16
537.749	26642.99
538.114	26715.3
538.479	26786.48
538.845	26842.98
539.21	26801.4
539.575	27154.16
539.94	27122.52
540.305	27285.45
540.67	27293.14
541.034	27409.29
541.399	27509.4
541.764	27631.66
542.129	27811.77
542.494	27829.62
542.858	28022.84
543.223	27970.41
543.587	28124.75
543.952	28120.91
544.316	28265.77
544.681	28246.33
545.045	28398.65
545.41	28572.88
545.774	28634.57
546.138	28668.7
546.503	28752.53
546.867	28770.61
547.231	29063.49
547.595	28959.54
547.959	29217.16
548.324	29272.07
548.688	29387.09
549.052	29403.37
549.416	29563.81
549.779	29653.98
550.143	29752.28
550.507	29904.6
550.871	30042.9
551.235	29984.82
551.599	30287.18
551.962	30363.11
552.326	30382.32
552.689	30624.35
553.053	30426.16
553.417	30593.39
553.78	30953.38
554.143	30884.91
554.507	31102.76
554.87	31208.29
555.234	31429.07
555.597	31302.75
555.96	31417.55
556.323	31627.49
556.686	31591.1
557.05	31928.27
557.413	31869.29
557.776	32083.07
558.139	32242.39
558.502	32235.16
558.865	32526
559.228	32682.83
559.59	32786.33
559.953	32954.91
560.316	33344.05
560.679	33231.74
561.041	33396.03
561.404	33519.64
561.767	33801.22
562.129	33745.17
562.492	34142.9
562.854	33906.98
563.217	34099.51
563.579	34333.86
563.941	34452.95
564.304	34623.34
564.666	34712.38
565.028	34840.28
565.39	34985.82
565.753	35112.59
566.115	35235.75
566.477	35371.12
566.839	35532.7
567.201	35764.78
567.563	35792.35
567.925	35918.67
568.287	35965.68
568.648	36006.13
569.01	36232.79
569.372	36430.98
569.734	36379.68
570.095	36712.1
570.457	36755.26
570.819	36915.26
571.18	36905.77
571.542	37173.1
571.903	37218.53
572.265	37261.46
572.626	37295.59
572.987	37473.44
573.349	37428.24
573.71	37634.56
574.071	37646.09
574.432	37834.78
574.794	38137.6
575.155	38060.76
575.516	38061.44
575.877	38266.18
576.238	38235.22
576.599	38410.81
576.96	38357.93
577.32	38401.09
577.681	38486.97
578.042	38611.71
578.403	38752.72
578.763	38781.88
579.124	38773.97
579.485	38928.09
579.845	38953.17
580.206	38959.05
580.566	38819.84
580.927	38940.52
581.287	39132.15
581.648	38858.71
582.008	39214.86
582.368	39028.87
582.728	39199.49
583.089	39107.52
583.449	39035.2
583.809	39081.75
584.169	39146.61
584.529	39068.42
584.889	39283.56
585.249	39171.02
585.609	38932.15
585.969	39365.59
586.329	39340.05
586.688	39224.58
587.048	39284.91
587.408	39150.68
587.768	39152.94
588.127	39285.14
588.487	39139.61
588.846	39451.69
589.206	39133.96
589.565	39230.68
589.925	39354.06
590.284	39194.29
590.643	39294.4
591.003	39281.98
591.362	39347.74
591.721	39267.06
592.08	39143.67
592.44	39283.33
592.799	39367.85
593.158	39293.5
593.517	39281.52
593.876	39474.06
594.235	39429.09
594.593	39256.44
594.952	39425.7
595.311	39391.13
595.67	39371.01
596.029	39648.07
596.387	39543.66
596.746	39594.51
597.104	39384.12
597.463	39468.19
597.822	39743.66
598.18	39442.42
598.538	39351.8
598.897	39734.85
599.255	39412.14
599.613	39857.33
599.972	39603.55
600.33	39684.68
600.688	39561.06
601.046	39775.52
601.404	39711.12
601.762	39756.77
602.12	39895.07
602.478	39786.37
602.836	39859.81
603.194	39537.56
603.552	39702.3
603.91	39735.97
604.268	39900.26
604.625	39612.81
604.983	39815.07
605.341	39655.53
605.698	39789.76
606.056	39952.47
606.413	39794.5
606.771	39910.21
607.128	39981.84
607.485	39865.92
607.843	40048.51
608.2	40169.86
608.557	40121.28
608.914	40103.65
609.272	40213.93
609.629	40305.9
609.986	40460.25
610.343	40297.99
610.7	40647.14
611.057	40614.6
611.414	40447.82
611.771	40470.42
612.127	40542.96
612.484	40667.02
612.841	40848.26
613.198	40624.77
613.554	40636.97
613.911	40872.22
614.267	40905.44
614.624	40908.15
614.98	40906.11
615.337	41013.68
615.693	41003.74
616.05	41012.33
616.406	41093.68
616.762	41105.43
617.118	41171.19
617.475	41194.24
617.831	41216.16
618.187	41269.95
618.543	41169.16
618.899	41483.05
619.255	41586.1
619.611	41445.31
619.967	41499.32
620.323	41529.37
620.678	41446.21
621.034	41320.57
621.39	41335.25
621.746	41387
622.101	41724.62
622.457	41493.67
622.812	41659.09
623.168	41582.93
623.523	41652.08
623.879	41732.31
624.234	41502.71
624.589	41555.14
624.945	41690.05
625.3	41610.95
625.655	41735.47
626.01	41676.94
626.365	41714.45
626.72	41654.79
627.075	41509.71
627.43	41545.19
627.785	41523.05
628.14	41556.27
628.495	41501.8
628.85	41451.86
629.205	41312.66
629.559	41455.7
629.914	41564.63
630.269	41366.89
630.623	41411.41
630.978	41212.77
631.332	41461.35
631.687	41347.68
632.041	41210.06
632.396	41341.13
632.75	41083.51
633.104	41196.05
633.459	40946.34
633.813	41074.24
634.167	41003.74
634.521	40994.47
634.875	40981.59
635.229	41125.99
635.583	40758.55
635.937	40852.33
636.291	40589.29
636.645	40668.15
636.999	40591.55
637.352	40687.81
637.706	40466.13
638.06	40620.47
638.413	40472.23
638.767	40372.12
639.121	40376.41
639.474	40189.3
639.828	40306.36
640.181	40254.38
640.534	40308.84
640.888	40119.24
641.241	39921.51
641.594	39889.87
641.947	40025.46
642.301	39979.81
642.654	39980.94
643.007	39875.86
643.36	39862.98
643.713	39718.8
644.066	39881.28
644.419	39605.36
644.771	39340.51
645.124	38966.28
645.477	39031.36
645.83	38578.94
646.182	38528.32
646.535	38475.9
646.888	38488.1
647.24	38442.45
647.593	38557.93
647.945	38301.44
648.298	38311.15
648.65	38299.18
649.002	38188.22
649.355	38382.79
649.707	38157.94
650.059	38203.36
650.411	38724.7
650.763	38679.73
651.115	39214.18
651.467	38982.55
651.819	39048.99
652.171	38944.13
652.523	38809.45
652.875	38749.11
653.227	38604.25
653.578	38948.65
653.93	38763.35
654.282	38578.94
654.633	38535.55
654.985	38512.96
655.337	38549.79
655.688	38489.45
656.039	38540.3
656.391	38323.36
656.742	38481.54
657.094	38297.59
657.445	38571.49
657.796	38466.63
658.147	38373.98
658.498	38344.15
658.849	38413.75
659.2	38305.28
659.551	38046.53
659.902	38232.51
660.253	38153.64
660.604	38215.34
660.955	37971.5
661.306	38112.97
661.656	37939.19
662.007	37823.26
662.358	37793.43
662.708	37872.07
663.059	37768.8
663.409	37452.19
663.76	37729.47
664.11	37576.94
664.461	37605.64
664.811	37623.49
665.161	37532.64
665.511	37335.13
665.862	37280.45
666.212	37463.94
666.562	37419.65
666.912	37162.03
667.262	37096.27
667.612	36947.8
667.962	37066.44
668.312	36770.86
668.662	37013.11
669.011	36863.73
669.361	36675.26
669.711	36583.97
670.06	36385.1
670.41	36486.12
670.76	36310.75
671.109	36325.9
671.459	36427.81
671.808	36174.26
672.157	36183.3
672.507	35970.88
672.856	35951.67
673.205	35993.02
673.554	36066.01
673.904	35779.47
674.253	35976.53
674.602	35798
674.951	35310.55
675.3	35084.8
675.649	35627.38
675.998	35420.61
676.346	35625.57
676.695	35587.16
677.044	35304.68
677.393	35456.99
677.741	35519.59
678.09	35213.83
678.438	35193.5
678.787	35301.74
679.135	35286.83
679.484	35065.36
679.832	35120.73
680.181	35008.42
680.529	35123.89
680.877	35045.48
681.225	34961.19
681.573	35284.57
681.922	35086.83
682.27	34960.06
682.618	35095.87
682.966	35055.42
683.314	35090.45
683.661	35028.53
684.009	34877.57
684.357	34909.89
684.705	34901.53
685.053	34914.86
685.4	34917.34
685.748	34913.05
686.095	34822.66
686.443	34769.78
686.79	34865.37
687.138	35070.56
687.485	34840.06
687.832	34676.67
688.18	34882.09
688.527	34628.09
688.874	34740.17
689.221	34638.03
689.568	34605.49
689.915	34556.22
690.262	34606.39
690.609	34553.96
690.956	34469.9
691.303	34497.69
691.65	34412.95
691.997	34421.99
692.344	34340.86
692.69	34309
693.037	34229
693.383	34147.65
693.73	34267.19
694.077	33990.36
694.423	34085.28
694.769	34026.52
695.116	33840.31
695.462	34029.23
695.808	33850.03
696.155	33940.42
696.501	33716.02
696.847	33836.02
697.193	33539.08
697.539	33760.99
697.885	33562.58
698.231	33394.45
698.577	33394.45
698.923	33349.48
699.269	33144.51
699.614	33064.96
699.96	32942.93
700.306	32915.36
700.651	32847.57
700.997	32704.07
701.342	32685.09
701.688	32715.14
702.033	32632.88
702.379	32618.65
702.724	32411.42
703.069	32706.1
703.415	32170.75
703.76	32231.77
704.105	32087.36
704.45	32077.87
704.795	31970.76
705.14	31836.3
705.485	31779.57
705.83	31735.28
706.175	31753.36
706.52	31665.45
706.865	31516.08
707.209	31479.02
707.554	31403.76
707.899	31565.34
708.243	31187.95
708.588	31264.56
708.932	31100.04
709.277	31102.08
709.621	31226.59
709.966	30951.12
710.31	31075.41
710.654	30766.72
710.998	30798.36
711.342	30794.97
711.687	30535.76
712.031	30509.78
712.375	30394.53
712.719	30411.25
713.063	30427.29
713.407	30423.23
713.75	30165.38
714.094	30285.15
714.438	30095.1
714.782	30154.76
715.125	29927.42
715.469	30103.23
715.812	29851.94
716.156	29736.24
716.499	29746.41
716.843	29743.47
717.186	29564.49
717.53	29621.21
717.873	29725.39
718.216	29475.23
718.559	29416.7
718.902	29280.43
719.246	29253.09
719.589	29240.66
719.932	29156.37
720.275	29180.09
720.617	29017.84
720.96	29060.78
721.303	29037.5
721.646	29079.76
721.989	28767.68
722.331	28904.85
722.674	28728.13
723.016	28912.3
723.359	28835.02
723.701	28867.11
724.044	28567.68
724.386	28331.98
724.729	28613.56
725.071	28388.48
725.413	28581.01
725.755	28470.06
726.097	28272.55
726.439	28190.74
726.782	28240.91
727.124	28357.52
727.465	28142.83
727.807	28149.16
728.149	28146.22
728.491	28001.37
728.833	28078.65
729.175	27968.15
729.516	27933.12
729.858	27745.56
730.199	27825.33
730.541	27736.74
730.882	27687.25
731.224	27785.78
731.565	27658.33
731.906	27597.09
732.248	27590.76
732.589	27479.35
732.93	27334.49
733.271	27487.94
733.612	27435.51
733.953	27400.71
734.294	27280.26
734.635	27242.74
734.976	27349.86
735.317	27218.34
735.658	27109.19
735.999	27067.83
736.339	26975.63
736.68	27070.09
737.021	26995.07
737.361	26908.74
737.702	26939.93
738.042	26840.27
738.383	26818.8
738.723	26879.59
739.063	26661.74
739.404	26867.84
739.744	26569.09
740.084	26579.26
740.424	26596.89
740.764	26540.16
741.104	26672.82
741.444	26381.52
741.784	26292.94
742.124	26368.42
742.464	26420.39
742.804	26304.46
743.143	26197.57
743.483	26317.12
743.823	26166.16
744.162	26110.34
744.502	26125.03
744.841	26110.57
745.181	26143.11
745.52	26013.17
745.86	26101.08
746.199	25912.38
746.538	25769.34
746.877	25806.17
747.216	25870.58
747.556	25809.34
747.895	25840.52
748.234	25640.98
748.573	25579.06
748.911	25514.2
749.25	25528.44
749.589	25444.6
749.928	25387.88
750.267	25348.78
750.605	25325.96
750.944	25230.82
751.283	25150.6
751.621	25146.98
751.96	25110.37
752.298	25033.99
752.636	25102.91
752.975	24917.16
753.313	24888
753.651	24921.22
753.989	24735.92
754.327	24739.08
754.666	24568.69
755.004	24619.31
755.342	24587.45
755.679	24594.68
756.017	24485.08
756.355	24544.06
756.693	24224.97
757.031	24326.89
757.368	24163.73
757.706	24239.21
758.044	24105.88
758.381	24216.61
758.719	24043.51
759.056	23946.56
759.394	23886.67
759.731	23705.66
760.068	23717.19
760.405	23507.93
760.743	23437.19
761.08	23513.58
761.417	23374.37
761.754	23330.3
762.091	23289.85
762.428	23248.27
762.765	23034.72
763.102	23071.33
763.438	23080.59
763.775	22926.47
764.112	23004.21
764.449	22904.78
764.785	22754.5
765.122	22671.34
765.458	22525.13
765.795	22494.85
766.131	22522.87
766.467	22518.12
766.804	22314.96
767.14	22217.11
767.476	22177.79
767.812	22065.03
768.148	22004.46
768.485	21900.29
768.821	21845.15
769.157	21814.86
769.492	21841.3
769.828	21625.72
770.164	21524.02
770.5	21455.55
770.836	21392.05
771.171	21218.27
771.507	21319.96
771.842	21090.59
772.178	21063.25
772.513	20995
772.849	21046.3
773.184	20844.49
773.519	20895.11
773.855	20847.66
774.19	20702.35
774.525	20603.6
774.86	20529.25
775.195	20585.29
775.53	20378.07
775.865	20381.91
776.2	20200.9
776.535	20150.28
776.87	20241.12
777.205	19996.61
777.539	19941.47
777.874	19922.48
778.209	19752.77
778.543	19779.21
778.878	19568.37
779.212	19609.05
779.547	19526.79
779.881	19582.38
780.215	19279.11
780.55	19431.88
780.884	19241.15
781.218	19220.13
781.552	19226.01
781.886	19051.32
782.22	18890.65
782.554	18906.24
782.888	18753.02
783.222	18716.87
783.556	18618.11
783.889	18588.51
784.223	18473.94
784.557	18546.93
784.89	18380.15
785.224	18347.61
785.557	18324.79
785.891	18264.45
786.224	18156.66
786.558	18133.83
786.891	18034.17
787.224	17940.84
787.557	17865.82
787.891	17780.39
788.224	17769.09
788.557	17754.86
788.89	17685.26
789.223	17658.36
789.556	17553.51
789.888	17452.04
790.221	17465.83
790.554	17272.61
790.887	17301.99
791.219	17286.85
791.552	17228.32
791.884	17059.74
792.217	16944.71
792.549	16994.65
792.882	16810.25
793.214	16695.68
793.546	16832.4
793.879	16622.23
794.211	16616.36
794.543	16604.15
794.875	16591.72
795.207	16619.52
795.539	16517.15
795.871	16512.86
796.203	16321.68
796.535	16268.12
796.867	16372.3
797.198	16176.37
797.53	16298.4
797.862	16026.09
798.193	16045.3
798.525	15935.92
798.856	16004.62
799.188	15783.16
799.519	15758.3
799.85	15703.16
800.182	15683.73
800.513	15608.7
800.844	15537.29
801.175	15606.89
801.506	15499.1
801.837	15462.71
802.168	15467.91
802.499	15336.16
802.83	15305.66
803.161	15311.53
803.491	15128.26
803.822	15160.8
804.153	15009.85
804.483	15023.63
804.814	14956.97
805.145	14939.79
805.475	14921.71
805.805	14931.66
806.136	14910.19
806.466	14944.31
806.796	14845.78
807.126	14671.32
807.457	14614.38
807.787	14660.02
808.117	14594.49
808.447	14585.45
808.777	14546.35
809.107	14513.59
809.436	14436.53
809.766	14416.64
810.096	14407.6
810.426	14234.27
810.755	14283.08
811.085	14282.86
811.414	14252.58
811.744	14188.4
812.073	14104.56
812.403	14136.2
812.732	13961.96
813.061	14044.9
813.39	13931.23
813.719	13933.26
814.049	13977.1
814.378	13931.68
814.707	13858.69
815.036	13834.28
815.365	13733.04
815.693	13680.61
816.022	13652.37
816.351	13577.57
816.68	13527.62
817.008	13520.62
817.337	13431.81
817.665	13455.76
817.994	13389.78
818.322	13457.34
818.651	13398.81
818.979	13350.91
819.307	13423.67
819.636	13369.89
819.964	13239.04
820.292	13271.59
820.62	13288.99
820.948	13240.17
821.276	13341.19
821.604	13224.13
821.932	13241.3
822.259	13266.16
822.587	13173.74
822.915	13171.25
823.243	13261.42
823.57	13187.52
823.898	13127.64
824.225	13194.53
824.553	13198.59
824.88	13131.48
825.207	13134.87
825.535	13104.13
825.862	13068.2
826.189	13154.08
826.516	13121.76
826.843	13202.44
827.17	13112.72
827.497	13178.26
827.824	13149.56
828.151	13143.91
828.478	13162.21
828.805	13119.05
829.131	13142.55
829.458	13046.06
829.785	12971.25
830.111	13024.36
830.438	13079.27
830.764	13125.83
831.09	13046.28
831.417	13011.71
831.743	12988.88
832.069	13117.69
832.395	12938.94
832.722	13037.47
833.048	12954.31
833.374	13020.97
833.7	12900.97
834.026	12945.27
834.351	12979.39
834.677	12912.73
835.003	12952.5
835.329	12891.94
835.654	12930.13
835.98	12837.47
836.306	12822.33
836.631	12785.27
836.956	12822.33
837.282	12817.59
837.607	12743.46
837.932	12755.89
838.258	12695.1
838.583	12699.17
838.908	12679.06
839.233	12656.91
839.558	12642.45
839.883	12600.19
840.208	12636.35
840.533	12571.72
840.858	12470.25
841.182	12520.87
841.507	12483.36
841.832	12489.69
842.156	12458.95
842.481	12486.3
842.805	12371.5
843.13	12388.67
843.454	12358.16
843.778	12309.58
844.103	12301.44
844.427	12242.23
844.751	12181.22
845.075	12199.98
845.399	12178.73
845.723	12089.7
846.047	12091.05
846.371	11921.79
846.695	11986.42
847.019	11908.68
847.343	11892.87
847.666	11844.5
847.99	11773.55
848.313	11720.21
848.637	11725.64
848.96	11668.46
849.284	11635.92
849.607	11581.91
849.931	11539.88
850.254	11505.08
850.577	11363.61
850.9	11310.96
851.223	11341.69
851.546	11228.02
851.869	11138.76
852.192	11216.27
852.515	11128.59
852.838	11086.56
853.161	11086.33
853.483	11013.79
853.806	10998.88
854.129	11014.24
854.451	10913.23
854.774	10894.25
855.096	10858.09
855.419	10741.94
855.741	10795.27
856.063	10695.16
856.385	10660.81
856.708	10666.46
857.03	10644.99
857.352	10605.67
857.674	10551.66
857.996	10589.4
858.318	10505.33
858.64	10513.24
858.961	10457.2
859.283	10415.84
859.605	10375.39
859.926	10368.39
860.248	10336.3
860.57	10259.69
860.891	10350.53
861.212	10240.03
861.534	10216.07
861.855	10251.78
862.176	10208.39
862.498	10155.28
862.819	10160.26
863.14	10112.12
863.461	10094.49
863.782	10095.62
864.103	10042.29
864.424	10026.02
864.745	9985.8
865.065	10035.06
865.386	9974.95
865.707	9941.05
866.027	10028.06
866.348	9890.43
866.668	9932.46
866.989	9817.44
867.309	9870.55
867.63	9871.9
867.95	9831
868.27	9696.99
868.59	9781.28
868.91	9783.54
869.23	9809.53
869.55	9684.56
869.87	9726.14
870.19	9679.82
870.51	9690.44
870.83	9699.7
871.15	9635.3
871.469	9626.26
871.789	9628.74
872.109	9653.15
872.428	9580.38
872.748	9627.84
873.067	9563.89
873.386	9647.73
873.706	9546.94
874.025	9459.26
874.344	9475.53
874.663	9478.24
874.982	9437.56
875.301	9404.12
875.62	9426.94
875.939	9382.42
876.258	9387.85
876.577	9306.49
876.896	9394.17
877.214	9320.5
877.533	9374.29
877.852	9318.02
878.17	9330.22
878.489	9343.55
878.807	9247.74
879.125	9264.69
879.444	9336.1
879.762	9264.46
880.08	9228.53
880.398	9202.99
880.716	9179.49
881.034	9158.93
881.352	9139.72
881.67	9095.42
881.988	9099.49
882.306	9066.95
882.624	9034.64
882.941	9054.3
883.259	8996.44
883.577	8994.86
883.894	8980.17
884.212	8960.74
884.529	8944.47
884.846	8945.6
885.164	8914.41
885.481	8911.93
885.798	8885.03
886.115	8873.51
886.432	8830.35
886.75	8767.75
887.067	8757.35
887.383	8734.98
887.7	8751.93
888.017	8723.46
888.334	8648.88
888.651	8620.86
888.967	8598.94
889.284	8540.86
889.6	8600.3
889.917	8538.15
890.233	8494.76
890.55	8510.58
890.866	8520.98
891.182	8471.71
891.498	8425.39
891.815	8467.87
892.131	8355.78
892.447	8337.03
892.763	8304.94
893.079	8311.49
893.395	8311.04
893.71	8290.25
894.026	8224.04
894.342	8158.5
894.657	8156.69
894.973	8124.15
895.289	8113.08
895.604	8157.14
895.92	8060.2
896.235	8051.38
896.55	8025.4
896.865	8045.28
897.181	7989.01
897.496	8028.11
897.811	7920.77
898.126	7914.44
898.441	7880.77
898.756	7834.67
899.071	7801.22
899.386	7846.42
899.7	7807.55
900.015	7762.58
900.33	7666.99
900.644	7648.01
900.959	7679.19
901.273	7632.64
901.588	7582.47
901.902	7581.34
902.216	7579.31
902.531	7499.08
902.845	7477.61
903.159	7415.69
903.473	7405.75
903.787	7413.21
904.101	7317.39
904.415	7306.09
904.729	7267.45
905.042	7206.21
905.356	7227
905.67	7224.51
905.984	7194.68
906.297	7175.02
906.611	7109.94
906.924	7094.35
907.237	7112.2
907.551	7104.52
907.864	6999.43
908.177	7025.87
908.491	6979.32
908.804	6986.33
909.117	6911.53
909.43	6916.72
909.743	6815.03
910.056	6789.5
910.368	6740.91
910.681	6807.35
910.994	6754.92
911.307	6730.06
911.619	6690.74
911.932	6723.51
912.244	6623.17
912.557	6624.08
912.869	6570.97
913.181	6567.58
913.494	6596.28
913.806	6510.18
914.118	6473.57
914.43	6433.35
914.742	6404.87
915.054	6439.22
915.366	6459.56
915.678	6335.27
915.99	6300.47
916.302	6329.62
916.613	6278.78
916.925	6258.44
917.236	6232.68
917.548	6241.26
917.859	6298.44
918.171	6134.15
918.482	6092.11
918.794	6120.81
919.105	6108.61
919.416	6035.84
919.727	6030.42
920.038	6075.84
920.349	5939.12
920.66	5960.82
920.971	5998.1
921.282	5891.67
921.593	5845.79
921.903	5848.05
922.214	5815.96
922.525	5792.46
922.835	5737.32
923.146	5714.95
923.456	5755.85
923.767	5665.01
924.077	5693.71
924.387	5634.27
924.697	5631.79
925.008	5639.7
925.318	5619.36
925.628	5589.53
925.938	5568.51
926.248	5526.93
926.558	5496.88
926.867	5498.01
927.177	5476.54
927.487	5394.73
927.796	5406.93
928.106	5420.49
928.416	5370.55
928.725	5312.02
929.034	5341.63
929.344	5312.93
929.653	5230.67
929.962	5242.19
930.271	5212.59
930.581	5242.87
930.89	5187.73
931.199	5135.3
931.508	5136.43
931.817	5104.34
932.125	5106.38
932.434	5077.23
932.743	5022.09
933.051	4972.37
933.36	5044.91
933.669	4957.68
933.977	4966.04
934.286	4936.89
934.594	4944.35
934.902	4872.71
935.21	4839.04
935.519	4881.3
935.827	4825.93
936.135	4801.07
936.443	4769.21
936.751	4758.82
937.059	4747.52
937.367	4724.01
937.674	4718.82
937.982	4704.58
938.29	4701.64
938.597	4703.9
938.905	4618.71
939.213	4588.42
939.52	4566.28
939.827	4588.65
940.135	4600.4
940.442	4552.95
940.749	4554.98
941.056	4525.6
941.363	4459.84
941.67	4460.74
941.977	4409.67
942.284	4409.22
942.591	4417.36
942.898	4347.98
943.205	4392.27
943.511	4345.04
943.818	4311.6
944.125	4285.61
944.431	4277.7
944.738	4293.29
945.044	4259.17
945.35	4250.35
945.657	4238.15
945.963	4197.7
946.269	4203.58
946.575	4189.56
946.881	4106.86
947.187	4123.13
947.493	4111.83
947.799	4043.13
948.105	4020.76
948.41	4019.17
948.716	4019.17
949.022	4015.78
949.327	3977.82
949.633	3959.06
949.938	3957.25
950.244	3970.59
950.549	3982.11
950.854	3922.23
951.16	3883.81
951.465	3913.41
951.77	3890.82
952.075	3845.62
952.38	3805.62
952.685	3884.26
952.99	3802.23
953.294	3766.07
953.599	3746.41
953.904	3767.2
954.209	3708
954.513	3730.14
954.818	3687.43
955.122	3693.98
955.426	3658.73
955.731	3670.48
956.035	3608.79
956.339	3630.26
956.643	3597.04
956.948	3562.91
957.252	3560.2
957.556	3511.16
957.86	3493.76
958.163	3518.62
958.467	3549.58
958.771	3490.83
959.075	3502.13
959.378	3456.48
959.682	3485.63
959.985	3453.31
960.289	3396.14
960.592	3372.41
960.896	3401.34
961.199	3350.94
961.502	3371.51
961.805	3308.46
962.108	3335.58
962.411	3308.23
962.714	3296.03
963.017	3270.04
963.32	3266.65
963.623	3259.87
963.926	3272.75
964.228	3243.38
964.531	3220.78
964.833	3257.84
965.136	3166.99
965.438	3161.34
965.741	3162.25
966.043	3148.46
966.345	3147.33
966.648	3147.11
966.95	3116.15
967.252	3084.06
967.554	3087.9
967.856	3077.5
968.158	3040.89
968.46	3019.43
968.761	3049.03
969.063	2975.36
969.365	2974.23
969.666	3004.74
969.968	2994.79
970.269	2917.51
970.571	2948.24
970.872	2937.62
971.174	2936.72
971.475	2867.34
971.776	2914.8
972.077	2887.45
972.378	2870.73
972.679	2848.36
972.98	2816.27
973.281	2832.31
973.582	2859.88
973.883	2830.73
974.183	2807.68
974.484	2787.12
974.785	2784.86
975.085	2755.93
975.386	2748.92
975.686	2752.99
975.986	2738.53
976.287	2715.48
976.587	2697.85
976.887	2681.81
977.187	2700.11
977.487	2695.82
977.787	2622.6
978.087	2635.48
978.387	2666.89
978.687	2593.9
978.987	2575.6
979.286	2593
979.586	2600
979.885	2576.73
980.185	2556.16
980.484	2550.51
980.784	2524.07
981.083	2526.11
981.382	2496.95
981.682	2512.32
981.981	2496.05
982.28	2501.93
982.579	2478.88
982.878	2496.73
983.177	2470.51
983.475	2409.27
983.774	2411.31
984.073	2431.87
984.372	2409.5
984.67	2382.83
984.969	2372.44
985.267	2389.84
985.566	2379.44
985.864	2367.24
986.162	2345.09
986.461	2329.27
986.759	2314.81
987.057	2305.32
987.355	2292.21
987.653	2294.02
987.951	2297.19
988.249	2281.59
988.547	2265.55
988.844	2235.94
989.142	2206.11
989.44	2256.51
989.737	2223.51
990.035	2206.57
990.332	2178.09
990.63	2215.38
990.927	2187.81
991.224	2157.3
991.521	2161.6
991.819	2138.09
992.116	2167.47
992.413	2139.45
992.71	2099
993.006	2144.2
993.303	2101.71
993.6	2057.42
993.897	2103.97
994.193	2070.98
994.49	2019.45
994.787	2035.05
995.083	2048.83
995.379	2049.51
995.676	2055.16
995.972	2030.3
996.268	2003.86
996.565	1993.69
996.861	1990.75
997.157	2020.36
997.453	1970.87
997.749	1939.45
998.044	1938.55
998.34	1920.02
998.636	1933.35
998.932	1939.45
999.227	1894.94
999.523	1903.07
999.818	1880.47
1000.114	1881.6
1000.409	1849.97
1000.704	1852.68
1001	1845.45
1001.295	1844.77
1001.59	1827.82
1001.885	1838.44
1002.18	1796.86
1002.475	1792.57
1002.77	1759.57
1003.065	1777.2
1003.359	1749.4
1003.654	1771.55
1003.949	1765.22
1004.243	1728.16
1004.538	1707.14
1004.832	1753.92
1005.127	1722.29
1005.421	1694.49
1005.715	1701.49
1006.009	1690.87
1006.304	1702.85
1006.598	1689.29
1006.892	1684.77
1007.186	1647.26
1007.48	1624.43
1007.773	1647.71
1008.067	1642.06
1008.361	1605.23
1008.655	1621.27
1008.948	1594.6
1009.242	1612.46
1009.535	1590.31
1009.829	1571.78
1010.122	1570.42
1010.415	1541.05
1010.708	1552.57
1011.001	1558.67
1011.295	1517.77
1011.588	1532.23
1011.881	1491.56
1012.173	1513.25
1012.466	1510.77
1012.759	1503.99
1013.052	1484.78
1013.344	1475.96
1013.637	1496.08
1013.93	1446.59
1014.222	1449.98
1014.514	1450.2
1014.807	1417.21
1015.099	1399.13
1015.391	1400.26
1015.683	1390.32
1015.976	1386.93
1016.268	1368.85
1016.56	1406.59
1016.851	1371.33
1017.143	1365.23
1017.435	1354.61
1017.727	1351.67
1018.018	1329.75
1018.31	1323.2
1018.602	1309.87
1018.893	1333.14
1019.185	1313.71
1019.476	1298.57
1019.767	1300.38
1020.058	1304.67
1020.35	1268.96
1020.641	1270.32
1020.932	1232.35
1021.223	1248.85
1021.514	1223.77
1021.804	1194.84
1022.095	1213.82
1022.386	1223.99
1022.677	1180.38
1022.967	1204.11
1023.258	1179.93
1023.548	1173.37
1023.839	1186.03
1024.129	1172.24
1024.419	1191.68
1024.709	1161.4
1025	1165.01
1025.29	1146.93
1025.58	1141.74
1025.87	1133.15
1026.16	1126.59
1026.449	1115.07
1026.739	1108.06
1027.029	1088.63
1027.319	1088.4
1027.608	1094.51
1027.898	1096.54
1028.187	1069.87
1028.477	1067.84
1028.766	1057.44
1029.055	1062.64
1029.344	1044.79
1029.634	1006.37
1029.923	1037.56
1030.212	1020.16
1030.501	1001.63
1030.79	1005.92
1031.078	1000.04
1031.367	992.13
1031.656	980.84
1031.945	1005.02
1032.233	985.13
1032.522	980.84
1032.81	955.53
1033.099	975.64
1033.387	951.91
1033.675	949.2
1033.963	960.05
1034.251	965.69
1034.54	955.98
1034.828	940.61
1035.116	924.57
1035.403	931.12
1035.691	907.62
1035.979	904.91
1036.267	887.05
1036.554	899.26
1036.842	885.25
1037.129	862.87
1037.417	887.5
1037.704	878.69
1037.992	874.85
1038.279	859.71
1038.566	863.55
1038.853	863.55
1039.14	863.55
