Data from White_paper_FLMS001491_054.txt Node
Date: Tue Feb 07 10:35:16 GMT 2017
User: dcchb
Spectrometer: FLMS00149
Trigger mode: 0
Integration Time (sec): 2.000000E-2
Scans to average: 10
Electric dark correction enabled: true
Nonlinearity correction enabled: false
Boxcar width: 0
XAxis mode: Wavelengths
Number of Pixels in Spectrum: 2048
>>>>>Begin Spectral Data<<<<<
341.393	-10.24
341.776	-10.24
342.16	-10.24
342.543	-55.44
342.927	-49.79
343.31	-86.4
343.693	-70.13
344.077	-71.48
344.46	-76.23
344.843	-46.85
345.226	-26.96
345.61	-33.06
345.993	-21.31
346.376	4
346.759	10.1
347.142	16.65
347.525	39.48
347.908	62.75
348.291	74.5
348.674	102.53
349.057	122.41
349.44	111.56
349.823	151.34
350.206	164.44
350.588	203.54
350.971	232.69
351.354	242.86
351.737	263.43
352.119	285.8
352.502	301.39
352.884	289.41
353.267	319.24
353.65	316.08
354.032	321.95
354.414	329.64
354.797	336.42
355.179	346.81
355.562	360.15
355.944	369.86
356.326	362.63
356.709	354.27
357.091	368.51
357.473	383.2
357.855	368.73
358.238	372.35
358.62	384.1
359.002	368.51
359.384	350.2
359.766	364.44
360.148	354.95
360.53	376.64
360.912	347.72
361.294	373.03
361.676	366.47
362.057	363.54
362.439	376.87
362.821	382.29
363.203	366.02
363.584	359.69
363.966	377.55
364.348	352.91
364.729	370.09
365.111	366.47
365.493	376.87
365.874	377.09
366.256	369.64
366.637	370.77
367.019	352.01
367.4	359.92
367.781	361.5
368.163	373.93
368.544	353.82
368.925	342.29
369.306	366.93
369.688	357.43
370.069	342.29
370.45	361.95
370.831	352.69
371.212	370.09
371.593	359.92
371.974	380.03
372.355	371.22
372.736	375.96
373.117	384.55
373.498	354.5
373.879	356.08
374.26	359.47
374.641	356.53
375.021	354.95
375.402	374.38
375.783	382.07
376.163	379.35
376.544	388.85
376.925	394.27
377.305	406.02
377.686	401.05
378.066	390.43
378.447	369.64
378.827	410.31
379.208	406.47
379.588	397.43
379.968	396.98
380.349	405.57
380.729	412.8
381.109	416.42
381.489	423.87
381.87	431.1
382.25	409.41
382.63	402.86
383.01	430.88
383.39	428.17
383.77	452.35
384.15	450.76
384.53	431.56
384.91	432.46
385.29	441.5
385.67	434.72
386.049	447.38
386.429	453.93
386.809	467.04
387.189	453.02
387.568	473.36
387.948	455.28
388.328	480.14
388.707	456.41
389.087	491.22
389.466	492.57
389.846	509.97
390.225	484.21
390.605	501.84
390.984	543.42
391.363	513.14
391.743	487.37
392.122	505
392.501	530.54
392.881	524.44
393.26	532.34
393.639	539.8
394.018	549.97
394.397	552.68
394.776	541.61
395.155	532.57
395.534	554.27
395.913	556.75
396.292	595.62
396.671	573.02
397.05	561.5
397.429	608.95
397.808	585
398.186	595.39
398.565	619.8
398.944	630.2
399.323	619.12
399.701	634.94
400.08	617.77
400.458	640.36
400.837	661.38
401.215	657.54
401.594	672.68
401.972	654.15
402.351	691.66
402.729	725.33
403.107	690.08
403.486	693.47
403.864	737.31
404.242	741.83
404.62	757.65
404.999	759.46
405.377	776.18
405.755	801.49
406.133	804.2
406.511	823.41
406.889	840.59
407.267	860.47
407.645	852.11
408.023	909.51
408.401	916.29
408.779	930.53
409.156	938.44
409.534	974.37
409.912	996.74
410.29	1043.97
410.667	1049.62
411.045	1097.08
411.422	1115.15
411.8	1134.81
412.178	1154.02
412.555	1204.19
412.933	1207.58
413.31	1282.61
413.687	1280.35
414.065	1296.62
414.442	1321.48
414.819	1355.6
415.197	1355.15
415.574	1428.37
415.951	1446.9
416.328	1469.5
416.705	1492.55
417.082	1499.32
417.46	1532.09
417.837	1561.7
418.214	1606.44
418.591	1647.57
418.967	1652.54
419.344	1649.15
419.721	1733.44
420.098	1736.61
420.475	1774.35
420.852	1809.15
421.228	1802.37
421.605	1824.74
421.982	1869.94
422.358	1909.03
422.735	1905.87
423.111	1926.88
423.488	1944.96
423.864	1970.73
424.241	2008.92
424.617	2044.17
424.994	2035.58
425.37	2127.78
425.746	2099.54
426.123	2158.06
426.499	2192.87
426.875	2187.22
427.251	2238.97
427.627	2287.1
428.003	2288.23
428.379	2362.35
428.756	2376.82
429.132	2395.57
429.507	2464.27
429.883	2462.46
430.259	2512.18
430.635	2558.51
431.011	2576.81
431.387	2618.17
431.763	2713.3
432.138	2757.15
432.514	2764.83
432.89	2781.1
433.265	2860.19
433.641	2901.1
434.016	2918.95
434.392	2934.09
434.767	3021.32
435.143	3006.4
435.518	3051.15
435.894	3114.2
436.269	3178.83
436.644	3212.95
437.02	3202.78
437.395	3268.77
437.77	3312.61
438.145	3353.74
438.52	3355.77
438.895	3394.42
439.271	3457.92
439.646	3530.46
440.021	3526.84
440.395	3569.55
440.77	3533.17
441.145	3557.8
441.52	3650.91
441.895	3597.8
442.27	3678.02
442.645	3669.21
443.019	3775.2
443.394	3730.68
443.769	3772.03
444.143	3782.65
444.518	3819.72
444.892	3819.94
445.267	3881.86
445.641	3905.36
446.016	3951.24
446.39	3934.29
446.764	3987.85
447.139	4022.42
447.513	4056.55
447.887	4098.13
448.262	4051.8
448.636	4102.87
449.01	4118.24
449.384	4195.75
449.758	4162.08
450.132	4271.46
450.506	4302.64
450.88	4320.04
451.254	4319.59
451.628	4357.55
452.002	4412.69
452.376	4430.32
452.75	4461.28
453.123	4514.61
453.497	4557.78
453.871	4645.91
454.244	4732.69
454.618	4766.36
454.992	4826.24
455.365	4809.52
455.739	4922.06
456.112	5035.73
456.486	5008.61
456.859	5089.29
457.232	5210.87
457.606	5134.94
457.979	5259
458.352	5382.84
458.725	5459.45
459.099	5420.58
459.472	5557.52
459.845	5588.26
460.218	5657.18
460.591	5678.42
460.964	5718.42
461.337	5933.56
461.71	5978.53
462.083	6028.92
462.456	6023.95
462.829	6108.47
463.201	6149.82
463.574	6167
463.947	6348.46
464.32	6479.53
464.692	6503.49
465.065	6502.81
465.438	6622.35
465.81	6753.88
466.183	6814.89
466.555	6966.3
466.928	6972.85
467.3	6968.56
467.672	7104.6
468.045	7344.37
468.417	7317.93
468.789	7415.1
469.161	7542.33
469.534	7693.96
469.906	7771.02
470.278	7838.82
470.65	7962.21
471.022	8157.68
471.394	8314.06
471.766	8312.25
472.138	8413.27
472.51	8580.27
472.882	8734.39
473.253	8820.71
473.625	8959.24
473.997	9188.84
474.369	9175.51
474.74	9300.48
475.112	9405.56
475.484	9596.51
475.855	9757.41
476.227	9813
476.598	10120.79
476.97	10215.25
477.341	10382.03
477.713	10512.2
478.084	10648.46
478.455	10951.05
478.827	10989.24
479.198	11346.75
479.569	11380.2
479.94	11654.09
480.311	11777.47
480.682	12075.09
481.053	12325.93
481.424	12489.77
481.795	12609.09
482.166	12801.17
482.537	12976.76
482.908	13213.14
483.279	13377.43
483.65	13540.14
484.021	13891.99
484.391	14003.85
484.762	14098.54
485.133	14269.84
485.503	14482.26
485.874	14884.51
486.244	14909.14
486.615	15116.37
486.985	15382.35
487.356	15663.7
487.726	15782.79
488.097	16103.01
488.467	16156.34
488.837	16549.78
489.207	16649.21
489.578	16877.23
489.948	17086.26
490.318	17310.43
490.688	17399.47
491.058	17616.87
491.428	17766.69
491.798	18042.62
492.168	18287.81
492.538	18359.22
492.908	18646.44
493.278	18888.47
493.648	18875.14
494.017	19213.44
494.387	19286.88
494.757	19452.07
495.126	19634.44
495.496	19701.33
495.866	19890.25
496.235	20156.46
496.605	20227.65
496.974	20403.01
497.344	20620.63
497.713	20673.28
498.082	20834.64
498.452	21045.7
498.821	21158.47
499.19	21145.14
499.559	21464.45
499.928	21556.42
500.298	21706.7
500.667	21940.6
501.036	21878.68
501.405	21974.94
501.774	22180.36
502.143	22386.91
502.512	22335.84
502.88	22655.38
503.249	22660.35
503.618	22927.24
503.987	22963.62
504.356	23101.69
504.724	23234.35
505.093	23261.46
505.462	23465.53
505.83	23678.85
506.199	23844.27
506.567	24215.56
506.936	24107.09
507.304	24372.17
507.672	24515.22
508.041	24624.14
508.409	24764.25
508.777	24996.56
509.145	25135.99
509.514	25278.13
509.882	25440.39
510.25	25393.84
510.618	25709.76
510.986	25751.57
511.354	25969.42
511.722	26126.47
512.09	26400.14
512.458	26559.01
512.826	26715.84
513.193	26855.27
513.561	26909.96
513.929	27209.84
514.297	27371.19
514.664	27570.5
515.032	27530.73
515.4	27901.57
515.767	28082.35
516.135	28209.36
516.502	28174.33
516.869	28640.98
517.237	28713.07
517.604	28578.16
517.972	28946.06
518.339	29254.53
518.706	29260.63
519.073	29377.46
519.44	29599.38
519.808	29913.27
520.175	29953.49
520.542	30238
520.909	30476.42
521.276	30496.3
521.643	30848.16
522.009	31062.16
522.376	31258.99
522.743	31423.06
523.11	31717.97
523.477	31974.91
523.843	32214.45
524.21	32549.36
524.577	32639.3
524.943	32795.45
525.31	32947.09
525.676	33334.87
526.043	33484.25
526.409	33601.31
526.776	34037.9
527.142	34085.13
527.508	34143.66
527.874	34493.03
528.241	34708.85
528.607	34757.89
528.973	35132.56
529.339	35236.97
529.705	35559.67
530.071	35707.01
530.437	35946.33
530.803	36057.74
531.169	36422.47
531.535	36320.78
531.901	36506.09
532.267	36692.52
532.632	36950.37
532.998	37073.08
533.364	37228.33
533.73	37320.98
534.095	37692.05
534.461	37763.68
534.826	37947.18
535.192	37988.31
535.557	38276.44
535.923	38308.07
536.288	38476.66
536.653	38669.2
537.019	38836.42
537.384	38875.52
537.749	39099.92
538.114	39212.01
538.479	39272.8
538.845	39397.76
539.21	39470.08
539.575	39630.3
539.94	39761.14
540.305	40084.07
540.67	39897.19
541.034	40212.43
541.399	40404.06
541.764	40472.54
542.129	40592.08
542.494	40784.17
542.858	40894.45
543.223	41081.11
543.587	41181.9
543.952	41205.85
544.316	41528.55
544.681	41438.84
545.045	41707.76
545.41	41952.05
545.774	41860.98
546.138	42120.4
546.503	42095.09
546.867	42198.59
547.231	42463.45
547.595	42675.87
547.959	42733.72
548.324	42871.8
548.688	42948.18
549.052	43088.74
549.416	43098.91
549.779	43212.35
550.143	43253.93
550.507	43614.6
550.871	43820.02
551.235	43776.41
551.599	44092.33
551.962	44123.51
552.326	44171.88
552.689	44605.54
553.053	44456.39
553.417	44449.38
553.78	45011.63
554.143	44870.61
554.507	45218.85
554.87	45356.93
555.234	45585.62
555.597	45336.59
555.96	45538.17
556.323	45800.98
556.686	45857.03
557.05	46070.81
557.413	46157.13
557.776	46300.86
558.139	46529.1
558.502	46537.91
558.865	46708.98
559.228	47038.24
559.59	47164.79
559.953	47109.43
560.316	47646.13
560.679	47583.54
561.041	47740.82
561.404	47979.68
561.767	48207.25
562.129	48030.98
562.492	48468.03
562.854	48353.46
563.217	48529.73
563.579	48644.3
563.941	48898.08
564.304	49083.16
564.666	49327.22
565.028	49300.1
565.39	49523.6
565.753	49645.63
566.115	49766.76
566.477	49970.82
566.839	50122.91
567.201	50371.26
567.563	50310.02
567.925	50545.94
568.287	50625.49
568.648	50707.52
569.01	50837.01
569.372	51097.34
569.734	50950.91
570.095	51217.11
570.457	51405.36
570.819	51364.68
571.18	51515.64
571.542	51737.78
571.903	51763.09
572.265	51927.38
572.626	51891.45
572.987	52114.04
573.349	52076.53
573.71	52201.27
574.071	52339.12
574.432	52488.27
574.794	52595.61
575.155	52667.7
575.516	52578.66
575.877	52758.32
576.238	52792.89
576.599	52895.49
576.96	52965.77
577.32	53004.64
577.681	53198.76
578.042	53261.81
578.403	53233.56
578.763	53358.75
579.124	53408.47
579.485	53541.8
579.845	53627.67
580.206	53565.07
580.566	53568.24
580.927	53621.8
581.287	53731.4
581.648	53667.9
582.008	53737.27
582.368	53744.96
582.728	53883.03
583.089	53792.41
583.449	53853.88
583.809	53896.37
584.169	53998.06
584.529	53968.68
584.889	54153.08
585.249	54078.28
585.609	53900.89
585.969	54148.11
586.329	54029.47
586.688	54137.26
587.048	54099.52
587.408	54083.48
587.768	54103.37
588.127	54055.23
588.487	54148.79
588.846	54434.66
589.206	54096.59
589.565	54208.9
589.925	54243.25
590.284	54162.57
590.643	54291.84
591.003	54277.82
591.362	54462.68
591.721	54349.01
592.08	54464.94
592.44	54503.81
592.799	54543.58
593.158	54439.85
593.517	54472.17
593.876	54536.35
594.235	54457.25
594.593	54536.8
594.952	54618.38
595.311	54505.39
595.67	54597.82
596.029	54790.35
596.387	54741.77
596.746	54808.43
597.104	54683.01
597.463	54606.86
597.822	54759.85
598.18	54690.02
598.538	54705.16
598.897	54862.44
599.255	54604.14
599.613	55124.13
599.972	54861.31
600.33	54998.26
600.688	54876.45
601.046	54992.61
601.404	55008.2
601.762	55036.22
602.12	55144.47
602.478	55061.98
602.836	55136.78
603.194	55032.38
603.552	55048.43
603.91	55018.37
604.268	55115.32
604.625	55090.01
604.983	55219.95
605.341	55136.33
605.698	55290.9
606.056	55259.72
606.413	55223.11
606.771	55351.24
607.128	55288.42
607.485	55244.58
607.843	55346.5
608.2	55442.54
608.557	55505.36
608.914	55459.49
609.272	55551.01
609.629	55595.98
609.986	55614.29
610.343	55496.32
610.7	55686.37
611.057	55638.24
611.414	55620.61
611.771	55678.01
612.127	55772.25
612.484	55738.12
612.841	55817.67
613.198	55756.88
613.554	55723.89
613.911	55871
614.267	55914.84
614.624	55867.16
614.98	55917.33
615.337	55991.9
615.693	55987.84
616.05	55959.14
616.406	56065.35
616.762	56001.62
617.118	55971.34
617.475	55982.86
617.831	56115.29
618.187	56111.45
618.543	56087.49
618.899	56264.66
619.255	56235.29
619.611	56188.06
619.967	56249.98
620.323	56303.99
620.678	56173.37
621.034	56188.28
621.39	56201.62
621.746	56181.95
622.101	56467.37
622.457	56181.05
622.812	56262.18
623.168	56378.79
623.523	56326.58
623.879	56385.57
624.234	56215.63
624.589	56276.19
624.945	56389.41
625.3	56350.76
625.655	56326.81
626.01	56356.87
626.365	56309.18
626.72	56379.24
627.075	56294.04
627.43	56291.56
627.785	56261.27
628.14	56346.47
628.495	56362.06
628.85	56276.19
629.205	56268.51
629.559	56373.14
629.914	56298.79
630.269	56341.27
630.623	56210.65
630.978	56228.96
631.332	56327.49
631.687	56388.5
632.041	56263.76
632.396	56324.55
632.75	56175.4
633.104	56270.99
633.459	56092.47
633.813	56093.82
634.167	56129.08
634.521	56153.93
634.875	56130.88
635.229	56024.67
635.583	55947.84
635.937	55973.15
636.291	55949.64
636.645	56059.92
636.999	55886.14
637.352	55970.66
637.706	55875.97
638.06	56061.28
638.413	55938.12
638.767	55808.86
639.121	55981.96
639.474	55863.55
639.828	55781.51
640.181	55859.93
640.534	55881.17
640.888	55752.59
641.241	55671.91
641.594	55763.66
641.947	55808.18
642.301	55676.21
642.654	55780.16
643.007	55738.12
643.36	55760.27
643.713	55601.18
644.066	55816.31
644.419	55623.33
644.771	55388.98
645.124	55063.11
645.477	55177.69
645.83	54975.43
646.182	54914.64
646.535	54812.27
646.888	54851.59
647.24	54727.98
647.593	54899.5
647.945	54790.35
648.298	54710.81
648.65	54669.23
649.002	54589.23
649.355	54735.21
649.707	54689.11
650.059	54805.04
650.411	55194.18
650.763	55156.45
651.115	55459.71
651.467	55318.7
651.819	55395.99
652.171	55359.83
652.523	55243.9
652.875	55198.7
653.227	55144.69
653.578	55315.09
653.93	55313.5
654.282	55161.19
654.633	55067.86
654.985	55145.15
655.337	55139.72
655.688	55147.18
656.039	55177.69
656.391	55040.06
656.742	55032.15
657.094	55057.92
657.445	55126.62
657.796	55035.09
658.147	55045.94
658.498	55036.67
658.849	55080.29
659.2	55058.59
659.551	54916
659.902	54997.81
660.253	54933.4
660.604	55006.17
660.955	54882.1
661.306	54983.57
661.656	54901.54
662.007	54931.14
662.358	54939.95
662.708	54864.25
663.059	54866.51
663.409	54749.45
663.76	54954.87
664.11	54769.34
664.461	54857.92
664.811	54820.18
665.161	54850.69
665.511	54806.85
665.862	54803.23
666.212	54865.38
666.562	54804.36
666.912	54761.43
667.262	54713.52
667.612	54680.3
667.962	54784.48
668.312	54710.13
668.662	54782.67
669.011	54671.49
669.361	54637.36
669.711	54550.13
670.06	54546.52
670.41	54573.18
670.76	54485.73
671.109	54650.47
671.459	54573.18
671.808	54499.74
672.157	54563.47
672.507	54403.02
672.856	54286.41
673.205	54392.17
673.554	54453.86
673.904	54311.5
674.253	54525.28
674.602	54494.99
674.951	53930.71
675.3	53901.11
675.649	54238.05
675.998	54172.74
676.346	54202.12
676.695	54312.63
677.044	54078.06
677.393	54178.17
677.741	54182.69
678.09	54038.73
678.438	53996.93
678.787	54085.29
679.135	54073.08
679.484	53790.15
679.832	53921
680.181	53718.52
680.529	53823.6
680.877	53715.13
681.225	53669.7
681.573	53882.13
681.922	53664.28
682.27	53544.28
682.618	53576.6
682.966	53434.91
683.314	53497.05
683.661	53412.08
684.009	53283.5
684.357	53241.92
684.705	53231.3
685.053	53177.29
685.4	53110.62
685.748	52932.32
686.095	52926
686.443	52837.18
686.79	52798.99
687.138	52848.94
687.485	52790.18
687.832	52553.8
688.18	52695.49
688.527	52475.61
688.874	52495.72
689.221	52396.97
689.568	52314.71
689.915	52208.5
690.262	52130.54
690.609	52128.5
690.956	51959.47
691.303	51911.33
691.65	51804.22
691.997	51731.22
692.344	51500.5
692.69	51552.47
693.037	51563.09
693.383	51265.25
693.73	51373.49
694.077	51162.88
694.423	51231.58
694.769	51137.34
695.116	50979.83
695.462	50956.1
695.808	50858.48
696.155	50900.74
696.501	50689.9
696.847	50705.71
697.193	50325.39
697.539	50614.42
697.885	50314.76
698.231	50106.18
698.577	50179.4
698.923	50073.64
699.269	49915.68
699.614	49776.25
699.96	49755.46
700.306	49713.42
700.651	49463.04
700.997	49323.6
701.342	49351.85
701.688	49394.56
702.033	49086.77
702.379	49224.62
702.724	48974.01
703.069	49045.65
703.415	48669.84
703.76	48753.45
704.105	48746.22
704.45	48558.2
704.795	48448.37
705.14	48230.07
705.485	48225.1
705.83	48062.85
706.175	48174.71
706.52	47996.18
706.865	47815.85
707.209	47793.93
707.554	47696.3
707.899	47790.54
708.243	47472.58
708.588	47563.2
708.932	47298.12
709.277	47260.38
709.621	47239.37
709.966	46958.02
710.31	46999.6
710.654	46687.06
710.998	46916.89
711.342	46804.12
711.687	46611.36
712.031	46713.28
712.375	46323.23
712.719	46523.45
713.063	46338.15
713.407	46511.7
713.75	46156.23
714.094	46233.06
714.438	45981.77
714.782	46147.19
715.125	45908.55
715.469	45906.52
715.812	45713.08
716.156	45501.78
716.499	45650.48
716.843	45605.28
717.186	45349.92
717.53	45508.56
717.873	45390.83
718.216	45304.95
718.559	45127.78
718.902	44939.54
719.246	45165.07
719.589	44948.13
719.932	44704.74
720.275	44828.36
720.617	44764.4
720.96	44662.26
721.303	44493.45
721.646	44584.75
721.989	44399.89
722.331	44484.18
722.674	44281.7
723.016	44398.99
723.359	44159.45
723.701	44258.65
724.044	43919.9
724.386	43783.86
724.729	43924.2
725.071	43851.88
725.413	43850.3
725.755	43658.22
726.097	43591.78
726.439	43342.29
726.782	43557.43
727.124	43600.82
727.465	43347.72
727.807	43334.38
728.149	43378.9
728.491	43180.26
728.833	43216.42
729.175	43009.65
729.516	42964.9
729.858	42845.58
730.199	43005.13
730.541	42849.42
730.882	42878.12
731.224	42805.58
731.565	42746.38
731.906	42669.09
732.248	42688.98
732.589	42489.89
732.93	42351.81
733.271	42327.63
733.612	42384.58
733.953	42337.8
734.294	42160.18
734.635	42259.61
734.976	42263.22
735.317	42092.61
735.658	42058.48
735.999	42020.29
736.339	41902.1
736.68	42095.55
737.021	41694.88
737.361	41670.02
737.702	41898.49
738.042	41682.22
738.383	41649.91
738.723	41707.08
739.063	41594.32
739.404	41492.85
739.744	41557.71
740.084	41313.42
740.424	41366.98
740.764	41231.16
741.104	41274.78
741.444	41018.96
741.784	40980.77
742.124	41119.53
742.464	41026.65
742.804	40810.83
743.143	40868.01
743.483	40928.8
743.823	40738.07
744.162	40779.87
744.502	40718.41
744.841	40488.58
745.181	40644.28
745.52	40416.49
745.86	40597.96
746.199	40358.42
746.538	40268.93
746.877	40352.09
747.216	40282.03
747.556	40224.18
747.895	40314.58
748.234	40061.02
748.573	40002.27
748.911	39994.81
749.25	39938.31
749.589	39801.14
749.928	39780.13
750.267	39910.74
750.605	39713.46
750.944	39537.65
751.283	39480.93
751.621	39565.44
751.96	39290.42
752.298	39285.68
752.636	39299.69
752.975	39028.96
753.313	38883.88
753.651	39175.62
753.989	38908.96
754.327	38787.16
754.666	38654.28
755.004	38772.7
755.342	38736.09
755.679	38503.78
756.017	38459.03
756.355	38442.99
756.693	38254.06
757.031	38295.42
757.368	38039.61
757.706	38138.14
758.044	38026.95
758.381	38023.11
758.719	37769.78
759.056	37901.08
759.394	37659.05
759.731	37507.64
760.068	37290.25
760.405	37205.5
760.743	37089.12
761.08	37200.99
761.417	36899.07
761.754	36888
762.091	36756.25
762.428	36747.66
762.765	36539.53
763.102	36812.52
763.438	36395.36
763.775	36343.15
764.112	36278.07
764.449	36324.4
764.785	36076.95
765.122	35872.66
765.458	35776.16
765.795	35848.25
766.131	35632.44
766.467	35555.83
766.804	35318.1
767.14	35214.82
767.476	35183.41
767.812	35161.26
768.148	35059.8
768.485	34836.75
768.821	34641.73
769.157	34668.85
769.492	34612.35
769.828	34525.12
770.164	34128.3
770.5	34209.88
770.836	34227.05
771.171	33935.08
771.507	33780.06
771.842	33592.72
772.178	33586.39
772.513	33581.42
772.849	33363.57
773.184	33185.05
773.519	33326.28
773.855	33164.93
774.19	32898.5
774.525	32733.08
774.86	32913.41
775.195	32684.27
775.53	32498.06
775.865	32402.69
776.2	32209.03
776.535	32025.3
776.87	31950.05
777.205	31949.37
777.539	31721.13
777.874	31875.48
778.209	31640
778.543	31548.7
778.878	31299.9
779.212	31269.84
779.547	31099.45
779.881	31098.55
780.215	30965.89
780.55	30952.34
780.884	30713.92
781.218	30605
781.552	30694.26
781.886	30421.05
782.22	30311.22
782.554	30200.27
782.888	29950.33
783.222	29868.97
783.556	29706.49
783.889	29767.28
784.223	29487.29
784.557	29438.48
784.89	29575.2
785.224	29245.71
785.557	29150.58
785.891	29157.81
786.224	28990.13
786.558	28989.45
786.891	28775.67
787.224	28643.02
787.557	28529.12
787.891	28470.82
788.224	28543.81
788.557	28466.3
788.89	28279.86
789.223	28266.3
789.556	27955.35
789.888	27923.26
790.221	27879.65
790.554	27649.6
790.887	27747.22
791.219	27578.87
791.552	27509.04
791.884	27314.01
792.217	27361.02
792.549	27235.6
792.882	27008.48
793.214	26913.35
793.546	27014.13
793.879	26721.26
794.211	26707.25
794.543	26840.35
794.875	26522.85
795.207	26603.75
795.539	26405.34
795.871	26326.92
796.203	26179.35
796.535	26197.66
796.867	26041.5
797.198	26016.42
797.53	25881.51
797.862	25806.93
798.193	25827.27
798.525	25652.81
798.856	25632.25
799.188	25345.93
799.519	25358.36
799.85	25092.15
800.182	25280.17
800.513	25190
800.844	24931.25
801.175	25082.43
801.506	24975.54
801.837	24840.63
802.168	24811.48
802.499	24689.9
802.83	24605.61
803.161	24483.58
803.491	24513.18
803.822	24509.79
804.153	24362.9
804.483	24236.35
804.814	24044.72
805.145	24029.58
805.475	24056.92
805.805	23990.71
806.136	24015.8
806.466	23921.56
806.796	23864.39
807.126	23708.68
807.457	23690.38
807.787	23548.91
808.117	23455.13
808.447	23430.05
808.777	23514.11
809.107	23285.87
809.436	23256.04
809.766	23274.8
810.096	23099.44
810.426	23091.53
810.755	23144.18
811.085	23053.79
811.414	22902.83
811.744	22690.63
812.073	22658.32
812.403	22809.05
812.732	22619.45
813.061	22596.17
813.39	22549.17
813.719	22303.75
814.049	22488.15
814.378	22381.49
814.707	22351.66
815.036	22201.38
815.365	22071.67
815.693	21991.67
816.022	22015.17
816.351	21901.95
816.68	21767.04
817.008	21910.54
817.337	21596.42
817.665	21663.99
817.994	21819.02
818.322	21593.94
818.651	21623.09
818.979	21507.39
819.307	21598.91
819.636	21532.7
819.964	21365.47
820.292	21431
820.62	21411.34
820.948	21310.33
821.276	21359.37
821.604	21274.85
821.932	21320.5
822.259	21264.68
822.587	21257.45
822.915	21268.75
823.243	21311.46
823.57	21222.2
823.898	21233.27
824.225	21135.87
824.553	21169.54
824.88	21207.06
825.207	21209.54
825.535	21111.92
825.862	21201.86
826.189	21080.73
826.516	21186.26
826.843	21250.9
827.17	21235.98
827.497	21174.29
827.824	21198.69
828.151	21243.21
828.478	21195.08
828.805	21136.55
829.131	21145.36
829.458	21082.99
829.785	21113.27
830.111	21048.19
830.438	21171.58
830.764	21159.15
831.09	21238.02
831.417	21014.29
831.743	21172.48
832.069	21084.57
832.395	20975.65
832.722	20970.9
833.048	20885.93
833.374	20972.03
833.7	20830.79
834.026	20898.59
834.351	20899.49
834.677	20936.55
835.003	20981.3
835.329	20822.88
835.654	20866.27
835.98	20618.82
836.306	20809.55
836.631	20632.16
836.956	20755.77
837.282	20672.83
837.607	20604.59
837.932	20532.5
838.258	20580.18
838.583	20529.11
838.908	20495.44
839.233	20420.41
839.558	20432.16
839.883	20310.81
840.208	20348.09
840.533	20345.61
840.858	20250.24
841.182	20219.51
841.507	20205.73
841.832	20123.24
842.156	19999.4
842.481	20117.14
842.805	19967.09
843.13	19933.42
843.454	19918.28
843.778	19829.46
844.103	19757.15
844.427	19758.28
844.751	19804.15
845.075	19575.01
845.399	19617.94
845.723	19611.62
846.047	19651.39
846.371	19385.41
846.695	19403.49
847.019	19245.75
847.343	19188.13
847.666	19105.19
847.99	19003.72
848.313	18979.09
848.637	18854.8
848.96	18740.68
849.284	18728.02
849.607	18637.18
849.931	18591.3
850.254	18407.58
850.577	18364.64
850.9	18277.64
851.223	18261.14
851.546	18119.23
851.869	18013.47
852.192	18030.19
852.515	17982.51
852.838	17863.87
853.161	17786.58
853.483	17750.65
853.806	17645.34
854.129	17619.58
854.451	17549.52
854.774	17500.49
855.096	17450.09
855.419	17406.7
855.741	17411
856.063	17337.78
856.385	17160.83
856.708	17245.8
857.03	17098.01
857.352	17149.31
857.674	16989.31
857.996	16893.04
858.318	16891.24
858.64	16829.32
858.961	16878.81
859.283	16742.99
859.605	16801.97
859.926	16686.5
860.248	16709.55
860.57	16550.91
860.891	16647.85
861.212	16539.83
861.534	16394.07
861.855	16446.73
862.176	16490.34
862.498	16410.8
862.819	16326.28
863.14	16323.79
863.461	16273.4
863.782	16185.49
864.103	16174.19
864.424	16175.55
864.745	16169.67
865.065	16136.68
865.386	15986.85
865.707	16072.28
866.027	16076.57
866.348	15956.57
866.668	15947.76
866.989	15912.51
867.309	15809.68
867.63	15841.09
867.95	15915.22
868.27	15780.53
868.59	15800.19
868.91	15786.63
869.23	15712.74
869.55	15627.09
869.87	15727.65
870.19	15686.97
870.51	15754.09
870.83	15595.23
871.15	15556.58
871.469	15563.14
871.789	15526.75
872.109	15501.89
872.428	15432.52
872.748	15523.81
873.067	15426.87
873.386	15409.69
873.706	15458.73
874.025	15299.87
874.344	15312.07
874.663	15349.58
874.982	15288.57
875.301	15264.84
875.62	15227.33
875.939	15221.45
876.258	15101.45
876.577	15004.28
876.896	15166.76
877.214	15076.6
877.533	15075.69
877.852	15036.37
878.17	15034.79
878.489	14976.48
878.807	14969.71
879.125	14891.29
879.444	14940.1
879.762	14816.49
880.08	14851.97
880.398	14725.64
880.716	14733.1
881.034	14741.69
881.352	14713.21
881.67	14682.71
881.988	14652.65
882.306	14625.76
882.624	14612.2
882.941	14557.51
883.259	14538.53
883.577	14524.52
883.894	14461.02
884.212	14437.97
884.529	14407.23
884.846	14437.74
885.164	14376.27
885.481	14262.38
885.798	14312.55
886.115	14196.84
886.432	14177.41
886.75	14182.61
887.067	14189.84
887.383	14059.9
887.7	14077.07
888.017	13994.14
888.334	13986.23
888.651	13925.21
888.967	13883.41
889.284	13847.93
889.6	13841.37
889.917	13707.37
890.233	13825.55
890.55	13650.19
890.866	13667.59
891.182	13565.45
891.498	13621.49
891.815	13543.3
892.131	13454.72
892.447	13460.59
892.763	13398.9
893.079	13430.08
893.395	13351.44
893.71	13247.26
894.026	13305.12
894.342	13175.63
894.657	13090.43
894.973	13142.63
895.289	13105.12
895.604	13129.08
895.92	12922.53
896.235	12961.85
896.55	12945.35
896.865	12892.02
897.181	12869.87
897.496	12850.21
897.811	12800.04
898.126	12716.66
898.441	12669.2
898.756	12657.68
899.071	12574.06
899.386	12561.41
899.7	12443.22
900.015	12430.56
900.33	12401.19
900.644	12355.99
900.959	12349.21
901.273	12245.48
901.588	12256.78
901.902	12085.26
902.216	12083.68
902.531	12073.06
902.845	12024.47
903.159	11986.96
903.473	11893.63
903.787	11882.78
904.101	11776.57
904.415	11834.87
904.729	11777.02
905.042	11730.24
905.356	11682.56
905.67	11657.02
905.984	11613.86
906.297	11517.59
906.611	11418.61
906.924	11396.47
907.237	11484.6
907.551	11343.36
907.864	11299.07
908.177	11179.52
908.491	11260.88
908.804	11131.84
909.117	11093.87
909.43	11076.47
909.743	10958.96
910.056	10927.55
910.368	10949.7
910.681	10847.78
910.994	10865.86
911.307	10789.25
911.619	10594.91
911.932	10709.48
912.244	10626.09
912.557	10615.02
912.869	10552.19
913.181	10529.82
913.494	10472.2
913.806	10400.56
914.118	10441.69
914.43	10351.97
914.742	10335.25
915.054	10255.03
915.366	10176.16
915.678	10160.57
915.99	10172.09
916.302	10040.8
916.613	10008.48
916.925	9993.79
917.236	9952.44
917.548	9919.22
917.859	9942.94
918.171	9830.63
918.482	9716.51
918.794	9720.35
919.105	9688.26
919.416	9650.98
919.727	9637.19
920.038	9592.45
920.349	9554.93
920.66	9506.35
920.971	9443.3
921.282	9413.02
921.593	9385.67
921.903	9285.11
922.214	9246.24
922.525	9228.39
922.835	9249.18
923.146	9123.53
923.456	9071.1
923.767	9133.47
924.077	9068.84
924.387	9014.61
924.697	8965.34
925.008	9001.95
925.318	8969.41
925.628	8850.54
925.938	8787.95
926.248	8763.99
926.558	8709.3
926.867	8695.29
927.177	8697.78
927.487	8681.06
927.796	8521.74
928.106	8505.02
928.416	8470.22
928.725	8469.31
929.034	8400.61
929.344	8442.65
929.653	8381.86
929.962	8308.64
930.271	8269.09
930.581	8237.9
930.89	8221.18
931.199	8144.35
931.508	8184.57
931.817	8117.23
932.125	8081.07
932.434	8041.3
932.743	7942.55
933.051	7998.59
933.36	7929.44
933.669	7847.41
933.977	7847.18
934.286	7907.29
934.594	7677.02
934.902	7718.82
935.21	7690.8
935.519	7720.86
935.827	7686.05
936.135	7602.89
936.443	7528.09
936.751	7529.9
937.059	7551.82
937.367	7435.44
937.674	7440.41
937.982	7398.6
938.29	7378.72
938.597	7357.02
938.905	7293.75
939.213	7272.05
939.52	7211.27
939.827	7232.06
940.135	7174.2
940.442	7112.74
940.749	7091.72
941.056	7119.74
941.363	6979.18
941.67	6988.67
941.977	6992.29
942.284	6959.75
942.591	6943.7
942.898	6919.3
943.205	6912.97
943.511	6871.39
943.818	6802.91
944.125	6696.25
944.431	6693.09
944.738	6687.66
945.044	6707.78
945.35	6614.67
945.657	6641.11
945.963	6597.27
946.269	6525.63
946.575	6513.43
946.881	6493.54
947.187	6482.02
947.493	6410.83
947.799	6370.16
948.105	6352.08
948.41	6366.77
948.716	6386.65
949.022	6254.23
949.327	6256.71
949.633	6172.65
949.938	6147.79
950.244	6198.18
950.549	6101.69
950.854	6112.99
951.16	6118.86
951.465	6078.87
951.77	6015.36
952.075	6041.58
952.38	5983.95
952.685	5962.94
952.99	5910.73
953.294	5952.09
953.599	5897.85
953.904	5830.96
954.209	5747.57
954.513	5837.52
954.818	5787.57
955.122	5749.16
955.426	5682.72
955.731	5648.82
956.035	5657.86
956.339	5653.34
956.643	5619.89
956.948	5584.64
957.252	5493.57
957.556	5564.53
957.86	5469.84
958.163	5493.34
958.467	5451.99
958.771	5474.59
959.075	5477.3
959.378	5378.32
959.682	5355.49
959.985	5336.06
960.289	5291.54
960.592	5294.48
960.896	5261.49
961.199	5219.91
961.502	5260.36
961.805	5207.25
962.108	5134.03
962.411	5145.1
962.714	5131.55
963.017	5090.87
963.32	5117.99
963.623	5066.01
963.926	5025.56
964.228	4995.73
964.531	5033.47
964.833	4968.61
965.136	4896.98
965.438	4985.34
965.741	4846.13
966.043	4882.06
966.345	4883.19
966.648	4845.68
966.95	4791.22
967.252	4781.27
967.554	4804.32
967.856	4755.74
968.158	4699.24
968.46	4702.63
968.761	4642.97
969.063	4670.09
969.365	4612.01
969.666	4612.92
969.968	4545.8
970.269	4562.97
970.571	4538.34
970.872	4532.01
971.174	4507.83
971.475	4494.27
971.776	4503.54
972.077	4450.66
972.378	4419.7
972.679	4369.53
972.98	4375.86
973.281	4355.52
973.582	4372.24
973.883	4331.79
974.183	4278.46
974.484	4313.71
974.785	4244.11
975.085	4273.72
975.386	4240.04
975.686	4217.45
975.986	4193.49
976.287	4163.21
976.587	4146.71
976.887	4092.25
977.187	4121.85
977.487	4089.54
977.787	4109.2
978.087	4087.28
978.387	4027.39
978.687	4024
978.987	3974.51
979.286	3974.74
979.586	3969.77
979.885	3944.23
980.185	3889.09
980.484	3892.93
980.784	3878.47
981.083	3868.08
981.382	3800.51
981.682	3830.11
981.981	3812.26
982.28	3778.36
982.579	3758.7
982.878	3790.56
983.177	3741.53
983.475	3721.87
983.774	3725.26
984.073	3658.82
984.372	3660.62
984.67	3639.83
984.969	3655.65
985.267	3648.42
985.566	3594.19
985.864	3593.28
986.162	3581.3
986.461	3560.06
986.759	3548.99
987.057	3533.4
987.355	3474.41
987.653	3503.34
987.951	3479.39
988.249	3465.15
988.547	3447.75
988.844	3412.72
989.142	3390.12
989.44	3382.44
989.737	3380.41
990.035	3338.82
990.332	3297.24
990.63	3323.68
990.927	3304.93
991.224	3262.67
991.521	3287.98
991.819	3277.13
992.116	3245.95
992.413	3203.91
992.71	3220.41
993.006	3240.75
993.303	3128.89
993.6	3168.66
993.897	3169.79
994.193	3133.41
994.49	3099.28
994.787	3111.94
995.083	3099.06
995.379	3060.41
995.676	3057.93
995.972	3028.32
996.268	3026.52
996.565	3013.41
996.861	2996.69
997.157	2988.55
997.453	2954.88
997.749	2937.93
998.044	2934.09
998.34	2898.16
998.636	2903.81
998.932	2894.77
999.227	2880.08
999.523	2871.04
999.818	2845.05
1000.114	2818.61
1000.409	2779.52
1000.704	2823.36
1001	2758.05
1001.295	2753.76
1001.59	2742.91
1001.885	2711.72
1002.18	2720.08
1002.475	2700.2
1002.77	2674.66
1003.065	2663.14
1003.359	2665.62
1003.654	2654.77
1003.949	2636.47
1004.243	2637.6
1004.538	2594.44
1004.832	2565.06
1005.127	2542.01
1005.421	2508.34
1005.715	2511.05
1006.009	2499.52
1006.304	2487.1
1006.598	2464.5
1006.892	2469.69
1007.186	2453.2
1007.48	2439.64
1007.773	2431.05
1008.067	2401.67
1008.361	2382.01
1008.655	2353.99
1008.948	2396.93
1009.242	2367.78
1009.535	2332.52
1009.829	2296.14
1010.122	2317.16
1010.415	2301.79
1010.708	2255.69
1011.001	2272.19
1011.295	2221.34
1011.588	2232.87
1011.881	2207.55
1012.173	2204.39
1012.466	2221.34
1012.759	2175.69
1013.052	2189.25
1013.344	2169.36
1013.637	2148.57
1013.93	2115.58
1014.222	2122.13
1014.514	2080.33
1014.807	2094.56
1015.099	2065.19
1015.391	2053.43
1015.683	2077.39
1015.976	2053.43
1016.268	2020.22
1016.56	1997.62
1016.851	2013.89
1017.143	1973.89
1017.435	1968.47
1017.727	1954.68
1018.018	1960.78
1018.31	1941.57
1018.602	1952.65
1018.893	1928.69
1019.185	1890.73
1019.476	1900.67
1019.767	1898.18
1020.058	1878.75
1020.35	1827.23
1020.641	1848.24
1020.932	1804.63
1021.223	1811.18
1021.514	1788.36
1021.804	1756.49
1022.095	1759.88
1022.386	1747.23
1022.677	1744.74
1022.967	1740.67
1023.258	1703.61
1023.548	1690.96
1023.839	1676.95
1024.129	1722.82
1024.419	1685.76
1024.709	1668.36
1025	1696.83
1025.29	1636.5
1025.58	1607.34
1025.87	1615.25
1026.16	1601.02
1026.449	1580.23
1026.739	1557.18
1027.029	1582.94
1027.319	1554.69
1027.608	1538.65
1027.898	1538.19
1028.187	1515.6
1028.477	1483.96
1028.766	1506.33
1029.055	1495.03
1029.344	1454.13
1029.634	1494.81
1029.923	1469.72
1030.212	1477.4
1030.501	1438.76
1030.79	1456.39
1031.078	1430.4
1031.367	1411.19
1031.656	1430.4
1031.945	1386.56
1032.233	1393.11
1032.522	1381.81
1032.81	1356.28
1033.099	1325.32
1033.387	1361.25
1033.675	1342.94
1033.963	1294.81
1034.251	1330.52
1034.54	1315.38
1034.828	1310.63
1035.116	1302.27
1035.403	1298.65
1035.691	1252.78
1035.979	1235.38
1036.267	1239.22
1036.554	1246.68
1036.842	1250.07
1037.129	1218.65
1037.417	1218.43
1037.704	1205.32
1037.992	1201.48
1038.279	1194.02
1038.566	1154.25
1038.853	1154.25
1039.14	1154.25
