Data from White_reflection_standard_FLMS001491_100.txt Node
Date: Tue Feb 07 10:32:15 GMT 2017
User: dcchb
Spectrometer: FLMS00149
Trigger mode: 0
Integration Time (sec): 2.000000E-2
Scans to average: 10
Electric dark correction enabled: true
Nonlinearity correction enabled: false
Boxcar width: 0
XAxis mode: Wavelengths
Number of Pixels in Spectrum: 2048
>>>>>Begin Spectral Data<<<<<
341.393	-15.79
341.776	-15.79
342.16	-15.79
342.543	-44.26
342.927	-44.04
343.31	-61.44
343.693	-83.81
344.077	-61.44
344.46	-51.72
344.843	-42.68
345.226	-31.61
345.61	-35.23
345.993	-15.56
346.376	2.29
346.759	-13.3
347.142	40.03
347.525	26.24
347.908	63.08
348.291	87.03
348.674	91.55
349.057	86.58
349.44	107.6
349.823	112.57
350.206	178.78
350.588	229.85
350.971	242.51
351.354	266.91
351.737	291.32
352.119	292.45
352.502	295.61
352.884	324.54
353.267	328.38
353.65	328.38
354.032	355.27
354.414	349.17
354.797	354.14
355.179	362.5
355.562	384.88
355.944	391.2
356.326	382.62
356.709	399.34
357.091	385.1
357.473	390.75
357.855	422.16
358.238	418.1
358.62	401.15
359.002	411.77
359.384	397.31
359.766	404.31
360.148	436.85
360.53	414.48
360.912	410.41
361.294	413.12
361.676	409.96
362.057	399.11
362.439	412.45
362.821	401.6
363.203	428.27
363.584	399.79
363.966	392.11
364.348	392.11
364.729	393.69
365.111	419.68
365.493	422.16
365.874	400.24
366.256	413.12
366.637	437.76
367.019	431.43
367.4	412.9
367.781	409.73
368.163	427.36
368.544	420.36
368.925	416.97
369.306	434.37
369.688	414.93
370.069	418.32
370.45	440.02
370.831	437.98
371.212	430.3
371.593	430.3
371.974	440.02
372.355	457.19
372.736	454.48
373.117	488.6
373.498	472.11
373.879	451.54
374.26	453.35
374.641	455.61
375.021	428.94
375.402	472.56
375.783	474.14
376.163	501.94
376.544	507.36
376.925	491.77
377.305	474.82
377.686	500.35
378.066	508.26
378.447	489.28
378.827	516.62
379.208	482.95
379.588	503.07
379.968	505.78
380.349	541.48
380.729	531.54
381.109	544.19
381.489	523.86
381.87	544.42
382.25	541.48
382.63	553.46
383.01	575.38
383.39	575.61
383.77	592.1
384.15	584.19
384.53	611.09
384.91	580.13
385.29	583.74
385.67	604.08
386.049	606.57
386.429	607.47
386.809	633.46
387.189	619.45
387.568	641.14
387.948	651.76
388.328	639.79
388.707	656.28
389.087	662.84
389.466	679.11
389.846	669.62
390.225	672.1
390.605	689.95
390.984	708.71
391.363	710.97
391.743	727.24
392.122	737.64
392.501	728.6
392.881	753.91
393.26	755.26
393.639	750.52
394.018	791.42
394.397	771.08
394.776	796.84
395.155	757.75
395.534	783.28
395.913	815.37
396.292	825.77
396.671	824.64
397.05	842.49
397.429	842.49
397.808	852.66
398.186	836.62
398.565	842.04
398.944	849.95
399.323	848.82
399.701	884.3
400.08	903.96
400.458	899.21
400.837	902.83
401.215	939.44
401.594	924.98
401.972	947.35
402.351	950.74
402.729	955.71
403.107	974.92
403.486	994.8
403.864	987.8
404.242	1021.7
404.62	1030.06
404.999	1009.27
405.377	1030.28
405.755	1063.73
406.133	1077.74
406.511	1073.22
406.889	1102.6
407.267	1108.93
407.645	1142.37
408.023	1132.65
408.401	1134.91
408.779	1155.7
409.156	1169.04
409.534	1208.13
409.912	1225.53
410.29	1252.88
410.667	1227.79
411.045	1275.7
411.422	1287.9
411.8	1308.47
412.178	1330.84
412.555	1354.57
412.933	1330.84
413.31	1389.37
413.687	1418.07
414.065	1415.58
414.442	1431.4
414.819	1456.94
415.197	1435.7
415.574	1499.42
415.951	1518.41
416.328	1526.32
416.705	1516.82
417.082	1501.46
417.46	1569.7
417.837	1589.82
418.214	1613.09
418.591	1604.05
418.967	1627.56
419.344	1672.98
419.721	1628.01
420.098	1667.33
420.475	1685.18
420.852	1711.62
421.228	1733.77
421.605	1738.29
421.982	1760.89
422.358	1778.51
422.735	1815.35
423.111	1814.9
423.488	1860.77
423.864	1880.2
424.241	1861.9
424.617	1915.01
424.994	1921.79
425.37	1952.52
425.746	1958.62
426.123	2012.63
426.499	1995.23
426.875	2035.91
427.251	2073.65
427.627	2117.03
428.003	2127.2
428.379	2161.1
428.756	2154.77
429.132	2220.76
429.507	2267.77
429.883	2246.75
430.259	2299.4
430.635	2340.08
431.011	2386.86
431.387	2437.03
431.763	2455.78
432.138	2442.9
432.514	2480.19
432.89	2529.45
433.265	2525.84
433.641	2638.6
434.016	2649.9
434.392	2674.08
434.767	2723.57
435.143	2718.83
435.518	2799.73
435.894	2795.43
436.269	2839.05
436.644	2856.45
437.02	2896.22
437.395	2910.46
437.77	2933.96
438.145	2987.97
438.52	3054.64
438.895	3059.16
439.271	3074.98
439.646	3178.7
440.021	3153.62
440.395	3183.9
440.77	3158.36
441.145	3226.84
441.52	3277.68
441.895	3256.44
442.27	3327.4
442.645	3318.13
443.019	3366.04
443.394	3364.46
443.769	3407.17
444.143	3390
444.518	3479.03
444.892	3465.7
445.267	3496.21
445.641	3544.12
446.016	3585.47
446.39	3573.49
446.764	3611.91
447.139	3618.24
447.513	3665.92
447.887	3662.3
448.262	3717.22
448.636	3768.74
449.01	3741.17
449.384	3825.69
449.758	3843.99
450.132	3874.5
450.506	3950.21
450.88	3989.98
451.254	3971.45
451.628	4020.94
452.002	4090.99
452.376	4100.03
452.75	4114.27
453.123	4163.99
453.497	4222.97
453.871	4307.94
454.244	4340.03
454.618	4416.41
454.992	4448.05
455.365	4438.33
455.739	4571.21
456.112	4609.62
456.486	4730.53
456.859	4698.21
457.232	4875.83
457.606	4785.21
457.979	4859.56
458.352	4967.81
458.725	5044.87
459.099	5078.54
459.472	5190.85
459.845	5218.87
460.218	5293
460.591	5303.84
460.964	5366.21
461.337	5467
461.71	5522.37
462.083	5584.97
462.456	5670.39
462.829	5659.77
463.201	5839.65
463.574	5820.44
463.947	5960.1
464.32	6062.24
464.692	6124.16
465.065	6131.17
465.438	6285.29
465.81	6344.49
466.183	6349.01
466.555	6519.63
466.928	6575.22
467.3	6591.04
467.672	6688.67
468.045	6821.32
468.417	6909.23
468.789	6953.74
469.161	7026.51
469.534	7185.6
469.906	7295.2
470.278	7374.07
470.65	7472.6
471.022	7652.93
471.394	7765.25
471.766	7824.68
472.138	7912.14
472.51	8153.94
472.882	8206.59
473.253	8323.43
473.625	8410.65
473.997	8655.62
474.369	8693.36
474.74	8736.07
475.112	8932.22
475.484	9126.57
475.855	9303.51
476.227	9359.33
476.598	9595.03
476.97	9688.81
477.341	9895.14
477.713	10067.11
478.084	10139.42
478.455	10342.13
478.827	10504.38
479.198	10782.12
479.569	10796.58
479.94	11120.41
480.311	11201.09
480.682	11500.06
481.053	11757.69
481.424	11898.25
481.795	12060.05
482.166	12191.8
482.537	12376.65
482.908	12585.69
483.279	12738.45
483.65	13065.45
484.021	13368.26
484.391	13362.61
484.762	13566.68
485.133	13733.45
485.503	13881.7
485.874	14193.1
486.244	14344.74
486.615	14632.19
486.985	14814.55
487.356	14973.87
487.726	15149.46
488.097	15600.3
488.467	15482.33
488.837	15858.14
489.207	16068.98
489.578	16332.71
489.948	16497
490.318	16711
490.688	16729.08
491.058	17047.49
491.428	17266.47
491.798	17432.56
492.168	17793.01
492.538	17818.99
492.908	18188.7
493.278	18320.68
493.648	18357.06
494.017	18603.15
494.387	18791.85
494.757	18922.47
495.126	19145.06
495.496	19156.36
495.866	19299.41
496.235	19613.07
496.605	19702.79
496.974	19830.24
497.344	20044.47
497.713	20215.09
498.082	20403.11
498.452	20598.36
498.821	20672.25
499.19	20717
499.559	21027.5
499.928	21149.75
500.298	21247.83
500.667	21574.6
501.036	21536.86
501.405	21670.42
501.774	21805.56
502.143	21977.53
502.512	22166.23
502.88	22363.06
503.249	22412.77
503.618	22496.61
503.987	22666.32
504.356	22780.45
504.724	23003.49
505.093	23081
505.462	23171.4
505.83	23306.53
506.199	23554.66
506.567	23926.18
506.936	23868.33
507.304	24163.46
507.672	24262.44
508.041	24356
508.409	24587.4
508.777	24849.09
509.145	24948.07
509.514	25007.05
509.882	25207.28
510.25	25259.7
510.618	25535.85
510.986	25682.97
511.354	26055.16
511.722	26163.18
512.09	26429.39
512.458	26443.63
512.826	26691.76
513.193	26977.4
513.561	26957.74
513.929	27108.02
514.297	27361.79
514.664	27694.44
515.032	27679.98
515.4	28012.63
515.767	28076.8
516.135	28338.94
516.502	28191.6
516.869	28736.67
517.237	28757.46
517.604	28746.39
517.972	29156.78
518.339	29540.95
518.706	29526.71
519.073	29583.43
519.44	29913.59
519.808	30278.78
520.175	30207.6
520.542	30711.54
520.909	30898.65
521.276	30846.67
521.643	31261.13
522.009	31443.04
522.376	31698.63
522.743	31981.79
523.11	32253.64
523.477	32450.47
523.843	32751.48
524.21	33131.59
524.577	33287.51
524.943	33372.03
525.31	33651.8
525.676	33994.16
526.043	34193.93
526.409	34389.18
526.776	34865.1
527.142	34744.65
527.508	34986.68
527.874	35267.12
528.241	35579.88
528.607	35689.03
528.973	36037.5
529.339	36045.86
529.705	36496.02
530.071	36635
530.437	36613.98
530.803	36938.72
531.169	37160.18
531.535	37165.15
531.901	37476.78
532.267	37641.52
532.632	37818.47
532.998	37994.28
533.364	38222.98
533.73	38339.36
534.095	38602.4
534.461	38746.58
534.826	38898.67
535.192	39139.79
535.557	39388.15
535.923	39364.42
536.288	39628.59
536.653	39777.74
537.019	39833.56
537.384	39941.8
537.749	40067.22
538.114	40234.22
538.479	40386.99
538.845	40668.34
539.21	40506.31
539.575	40765.96
539.94	40862.23
540.305	41235.33
540.67	41026.75
541.034	41350.13
541.399	41512.61
541.764	41598.03
542.129	41707.86
542.494	41816.78
542.858	42036.89
543.223	42082.76
543.587	42322.53
543.952	42286.37
544.316	42515.52
544.681	42526.14
545.045	42753.03
545.41	42946.47
545.774	43061.04
546.138	43088.61
546.503	43273.69
546.867	43351.88
547.231	43612.21
547.595	43790.97
547.959	44012.66
548.324	43906.9
548.688	44047.91
549.052	44327.9
549.416	44284.97
549.779	44498.52
550.143	44527.22
550.507	44959.98
550.871	45036.81
551.235	44972.41
551.599	45272.28
551.962	45458.95
552.326	45508.44
552.689	45721.76
553.053	45692.39
553.417	45801.76
553.78	46298.47
554.143	46156.1
554.507	46322.2
554.87	46554.28
555.234	46886.03
555.597	46660.95
555.96	46958.57
556.323	46985.69
556.686	47133.25
557.05	47377.77
557.413	47549.06
557.776	47668.61
558.139	47882.39
558.502	47998.77
558.865	48056.39
559.228	48384.52
559.59	48562.59
559.953	48630.84
560.316	49047.55
560.679	49024.28
561.041	49260.65
561.404	49455.23
561.767	49608.89
562.129	49546.97
562.492	49937.25
562.854	49971.82
563.217	49913.97
563.579	50207.07
563.941	50450.23
564.304	50533.84
564.666	50781.29
565.028	50936.99
565.39	50936.09
565.753	51120.94
566.115	51331.56
566.477	51419.02
566.839	51530.2
567.201	51753.47
567.563	51695.84
567.925	51968.61
568.287	51994.82
568.648	51957.08
569.01	52212.44
569.372	52418.76
569.734	52380.57
570.095	52511.19
570.457	52720
570.819	52769.49
571.18	52840.9
571.542	52995.92
571.903	52993.89
572.265	53065.3
572.626	53216.71
572.987	53300.55
573.349	53410.38
573.71	53491.05
574.071	53568.56
574.432	53718.39
574.794	53818.27
575.155	53756.35
575.516	53747.77
575.877	53947.31
576.238	54009.68
576.599	54122.22
576.96	54093.97
577.32	54131.26
577.681	54225.27
578.042	54323.8
578.403	54301.88
578.763	54366.51
579.124	54405.83
579.485	54460.52
579.845	54569.89
580.206	54483.57
580.566	54449.67
580.927	54599.72
581.287	54688.31
581.648	54583.23
582.008	54727.85
582.368	54694.18
582.728	54771.24
583.089	54698.7
583.449	54666.39
583.809	54849.66
584.169	54838.36
584.529	54739.38
584.889	54964.46
585.249	54786.61
585.609	54678.59
585.969	54844.69
586.329	54874.52
586.688	54785.48
587.048	54802.2
587.408	54862.99
587.768	54717.91
588.127	54769.44
588.487	54801.98
588.846	54963.33
589.206	54744.58
589.565	54814.86
589.925	54993.38
590.284	54812.82
590.643	54915.42
591.003	54933.27
591.362	54986.61
591.721	54924.23
592.08	54989.99
592.44	55046.26
592.799	54968.3
593.158	54945.93
593.517	55041.29
593.876	54971.01
594.235	54966.27
594.593	54986.15
594.952	55057.79
595.311	54994.29
595.67	55066.15
596.029	55176.43
596.387	55234.06
596.746	55232.7
597.104	55112.93
597.463	55135.3
597.822	55317.44
598.18	55116.55
598.538	55048.52
598.897	55277.9
599.255	55095.08
599.613	55390.66
599.972	55219.82
600.33	55366.03
600.688	55251.46
601.046	55338.23
601.404	55446.93
601.762	55396.31
602.12	55452.36
602.478	55476.31
602.836	55492.13
603.194	55333.49
603.552	55446.93
603.91	55378.01
604.268	55526.7
604.625	55426.82
604.983	55636.08
605.341	55456.65
605.698	55595.4
606.056	55669.3
606.413	55629.98
606.771	55691.22
607.128	55731.9
607.485	55665.68
607.843	55696.19
608.2	55819.58
608.557	55921.95
608.914	55759.69
609.272	55941.38
609.629	55910.42
609.986	55970.99
610.343	55910.2
610.7	56129.85
611.057	56004.66
611.414	55977.54
611.771	56081.72
612.127	56178.89
612.484	56139.12
612.841	56202.17
613.198	56124.43
613.554	56160.59
613.911	56311.77
614.267	56295.05
614.624	56204.43
614.98	56292.79
615.337	56461.14
615.693	56323.29
616.05	56331.88
616.406	56460.69
616.762	56295.05
617.118	56396.29
617.475	56468.6
617.831	56462.72
618.187	56520.35
618.543	56559.9
618.899	56655.26
619.255	56616.17
619.611	56540.46
619.967	56671.98
620.323	56615.49
620.678	56610.07
621.034	56533.23
621.39	56579.33
621.746	56530.07
622.101	56735.71
622.457	56481.93
622.812	56603.06
623.168	56576.62
623.523	56674.92
623.879	56739.78
624.234	56512.67
624.589	56589.73
624.945	56657.52
625.3	56703.62
625.655	56640.12
626.01	56667.01
626.365	56702.94
626.72	56588.6
627.075	56633.79
627.43	56558.77
627.785	56617.07
628.14	56573.46
628.495	56640.57
628.85	56507.69
629.205	56526.68
629.559	56570.52
629.914	56440.8
630.269	56532.33
630.623	56361.94
630.978	56387.92
631.332	56493.68
631.687	56454.59
632.041	56348.83
632.396	56435.15
632.75	56280.36
633.104	56406.68
633.459	56231.32
633.813	56199.45
634.167	56168.04
634.521	56224.31
634.875	56261.6
635.229	56151.09
635.583	56034.04
635.937	55989.97
636.291	55967.6
636.645	55942.29
636.999	55896.41
637.352	55978.9
637.706	55818.9
638.06	55856.64
638.413	55849.41
638.767	55672.01
639.121	55769.86
639.474	55644.44
639.828	55629.75
640.181	55650.99
640.534	55642.86
640.888	55545.91
641.241	55487.16
641.594	55488.51
641.947	55515.63
642.301	55473.82
642.654	55502.3
643.007	55384.79
643.36	55422.07
643.713	55320.38
644.066	55404.9
644.419	55195.19
644.771	55008.98
645.124	54686.73
645.477	54667.74
645.83	54510.46
646.182	54415.77
646.535	54333.29
646.888	54354.98
647.24	54158.15
647.593	54367.41
647.945	54220.3
648.298	54100.75
648.65	54162.67
649.002	53966.97
649.355	54070.02
649.707	54034.99
650.059	54176.23
650.411	54469.56
650.763	54443.79
651.115	54791.36
651.467	54663
651.819	54608.76
652.171	54556.11
652.523	54533.06
652.875	54463.45
653.227	54401.08
653.578	54569.21
653.93	54429.78
654.282	54314.31
654.633	54291.71
654.985	54276.34
655.337	54229.11
655.688	54255.1
656.039	54405.6
656.391	54109.11
656.742	54053.75
657.094	54141.2
657.445	54245.38
657.796	54178.26
658.147	54013.75
658.498	54041.09
658.849	54178.26
659.2	54048.55
659.551	53969.91
659.902	53997.7
660.253	53990.02
660.604	53960.19
660.955	53879.52
661.306	54022.79
661.656	53988.67
662.007	53909.35
662.358	53879.97
662.708	53897.37
663.059	53818.27
663.409	53751.16
663.76	53888.55
664.11	53872.51
664.461	53874.77
664.811	53852.4
665.161	53766.3
665.511	53664.61
665.862	53729.01
666.212	53788.67
666.562	53752.97
666.912	53602.46
667.262	53676.81
667.612	53721.55
667.962	53634.78
668.312	53635.68
668.662	53705.73
669.011	53570.6
669.361	53531.95
669.711	53516.59
670.06	53428.91
670.41	53412.18
670.76	53353.2
671.109	53421.22
671.459	53332.41
671.808	53340.77
672.157	53415.12
672.507	53251.28
672.856	53306.88
673.205	53294.67
673.554	53338.06
673.904	53251.96
674.253	53367.66
674.602	53214.67
674.951	52742.6
675.3	52612.43
675.649	53122.7
675.998	53030.27
676.346	52979.2
676.695	53206.54
677.044	52920.22
677.393	52999.76
677.741	53013.78
678.09	52854.91
678.438	52808.13
678.787	52850.84
679.135	52856.04
679.484	52602.94
679.832	52829.37
680.181	52696.95
680.529	52714.35
680.877	52523.84
681.225	52593.67
681.573	52690.17
681.922	52427.58
682.27	52385.77
682.618	52442.27
682.966	52190.52
683.314	52374.7
683.661	52241.37
684.009	52083.63
684.357	52080.01
684.705	51928.61
685.053	51989.17
685.4	51920.92
685.748	51845.9
686.095	51764.32
686.443	51680.48
686.79	51604.1
687.138	51629.63
687.485	51620.37
687.832	51423.99
688.18	51545.34
688.527	51315.52
688.874	51273.71
689.221	51191.45
689.568	51065.58
689.915	51007.73
690.262	50892.25
690.609	50814.96
690.956	50768.86
691.303	50668.07
691.65	50452.49
691.997	50448.65
692.344	50332.49
692.69	50322.55
693.037	50273.73
693.383	49925.72
693.73	50115.77
694.077	49934.76
694.423	49935.21
694.769	49780.64
695.116	49594.43
695.462	49551.27
695.808	49497.03
696.155	49529.12
696.501	49182.46
696.847	49170.49
697.193	48966.65
697.539	49138.62
697.885	48849.59
698.231	48706.09
698.577	48755.81
698.923	48578.41
699.269	48501.13
699.614	48262.26
699.96	48307.01
700.306	48223.39
700.651	48067.24
700.997	47846.23
701.342	47866.34
701.688	47735.5
702.033	47692.56
702.379	47580.25
702.724	47458.44
703.069	47514.71
703.415	47098.45
703.76	47087.15
704.105	47064.33
704.45	47056.87
704.795	46835.86
705.14	46587.96
705.485	46601.06
705.83	46359.94
706.175	46561.29
706.52	46302.77
706.865	46163.33
707.209	46163.56
707.554	46119.04
707.899	46035.43
708.243	45826.17
708.588	45754.31
708.932	45433.18
709.277	45519.51
709.621	45553.41
709.966	45215.79
710.31	45406.07
710.654	44965.17
710.998	45031.84
711.342	45116.58
711.687	44868.9
712.031	44798.17
712.375	44563.6
712.719	44706.88
713.063	44598.18
713.407	44605.64
713.75	44488.12
714.094	44278.86
714.438	44172.2
714.782	44214.68
715.125	43975.37
715.469	44122.03
715.812	43953.67
716.156	43661.93
716.499	43598.88
716.843	43591.2
717.186	43474.59
717.53	43586.45
717.873	43578.77
718.216	43434.37
718.559	43268.72
718.902	42987.37
719.246	43021.5
719.589	42924.78
719.932	42887.04
720.275	42802.97
720.617	42735.18
720.96	42689.75
721.303	42586.25
721.646	42556.2
721.989	42283.44
722.331	42384.68
722.674	42349.65
723.016	42429.42
723.359	42193.72
723.701	42241.63
724.044	42032.82
724.386	41862.2
724.729	41978.13
725.071	41847.06
725.413	41814.97
725.755	41854.97
726.097	41477.58
726.439	41420.41
726.782	41408.21
727.124	41515.55
727.465	41369.56
727.807	41151.94
728.149	41181.32
728.491	41071.94
728.833	41165.05
729.175	40977.26
729.516	40920.31
729.858	41014.32
730.199	40888.22
730.541	40783.36
730.882	40882.12
731.224	40810.93
731.565	40566.65
731.906	40460.43
732.248	40549.7
732.589	40246.43
732.93	40274.22
733.271	40132.76
733.612	40244.39
733.953	40176.37
734.294	40252.98
734.635	39972.54
734.976	40048.24
735.317	39915.59
735.658	39849.38
735.999	39664.97
736.339	39541.36
736.68	39651.87
737.021	39546.11
737.361	39397.86
737.702	39706.33
738.042	39510.63
738.383	39276.74
738.723	39295.49
739.063	39029.51
739.404	39282.84
739.744	39046.91
740.084	38925.56
740.424	38915.84
740.764	38933.69
741.104	39028.61
741.444	38703.64
741.784	38563.31
742.124	38622.74
742.464	38621.39
742.804	38550.43
743.143	38458.23
743.483	38477.43
743.823	38271.79
744.162	38288.06
744.502	38347.72
744.841	37996.77
745.181	38217.78
745.52	37885.13
745.86	38096.43
746.199	37766.49
746.538	37789.32
746.877	37922.65
747.216	37787.74
747.556	37700.96
747.895	37687.4
748.234	37559.27
748.573	37455.99
748.911	37378.48
749.25	37381.64
749.589	37196.11
749.928	37395.43
750.267	37259.16
750.605	37145.49
750.944	37113.18
751.283	36978.49
751.621	37036.79
751.96	36798.83
752.298	36592.96
752.636	36709.57
752.975	36484.49
753.313	36261.67
753.651	36555
753.989	36204.95
754.327	36286.98
754.666	36046.76
755.004	36028.01
755.342	36091.28
755.679	35986.43
756.017	35696.04
756.355	35682.71
756.693	35618.75
757.031	35728.58
757.368	35368.14
757.706	35362.49
758.044	35160.01
758.381	35288.14
758.719	35067.81
759.056	35073.46
759.394	34964.53
759.731	34834.14
760.068	34797.08
760.405	34592.11
760.743	34264.66
761.08	34521.38
761.417	34341.27
761.754	34060.83
762.091	34263.99
762.428	33996.42
762.765	33894.5
763.102	33993.71
763.438	33727.05
763.775	33549.2
764.112	33586.94
764.449	33630.56
764.785	33548.3
765.122	33223.79
765.458	33105.37
765.795	33034.41
766.131	33066.05
766.467	32847.07
766.804	32648.89
767.14	32538.61
767.476	32569.12
767.812	32299.97
768.148	32351.04
768.485	32094.78
768.821	31976.81
769.157	31880.09
769.492	31889.81
769.828	31877.38
770.164	31582.25
770.5	31480.1
770.836	31454.79
771.171	31278.98
771.507	31220.68
771.842	30863.4
772.178	31005.09
772.513	30880.12
772.849	30810.74
773.184	30610.52
773.519	30667.92
773.855	30528.94
774.19	30352.9
774.525	30280.14
774.86	30217.76
775.195	30074.04
775.53	30018.9
775.865	29796.76
776.2	29599.93
776.535	29478.35
776.87	29376.88
777.205	29301.63
777.539	29204.91
777.874	29178.02
778.209	28978.93
778.543	29005.14
778.878	28730.8
779.212	28730.12
779.547	28630.46
779.881	28556.57
780.215	28419.17
780.55	28496.23
780.884	28237.03
781.218	28137.14
781.552	28172.17
781.886	27906.87
782.22	27860.09
782.554	27659.19
782.888	27531.73
783.222	27395.92
783.556	27247
783.889	27224.85
784.223	27047.23
784.557	27107.34
784.89	27175.13
785.224	26920.22
785.557	26744.41
785.891	26736.27
786.224	26567.92
786.558	26563.85
786.891	26348.49
787.224	26264.2
787.557	26128.38
787.891	26111.21
788.224	26104.88
788.557	25958.44
788.89	25970.19
789.223	25910.76
789.556	25740.14
789.888	25699.47
790.221	25401.62
790.554	25330.21
790.887	25320.72
791.219	25231.68
791.552	25186.71
791.884	25041.86
792.217	24873.72
792.549	24845.7
792.882	24715.54
793.214	24534.75
793.546	24695.42
793.879	24514.19
794.211	24289.33
794.543	24458.37
794.875	24247.53
795.207	24278.03
795.539	24116
795.871	24165.04
796.203	23963.92
796.535	23805.5
796.867	23772.74
797.198	23666.07
797.53	23714.21
797.862	23507.43
798.193	23593.76
798.525	23378.62
798.856	23330.49
799.188	23163.04
799.519	23062.25
799.85	23026.32
800.182	22985.86
800.513	23118.74
800.844	22828.35
801.175	22885.3
801.506	22850.73
801.837	22666.1
802.168	22657.29
802.499	22485.99
802.83	22428.82
803.161	22403.06
803.491	22454.35
803.822	22297.52
804.153	22276.73
804.483	22025.44
804.814	21997.87
805.145	21920.13
805.475	21926.91
805.805	21858.44
806.136	21862.05
806.466	21834.71
806.796	21737.99
807.126	21503.42
807.457	21568.05
807.787	21461.84
808.117	21417.09
808.447	21461.61
808.777	21387.26
809.107	21262.52
809.436	21256.42
809.766	21127.38
810.096	21223.2
810.426	21028.18
810.755	21058.68
811.085	20965.35
811.414	20956.77
811.744	20791.57
812.073	20632.93
812.403	20753.61
812.732	20574.18
813.061	20581.63
813.39	20525.59
813.719	20397.91
814.049	20480.85
814.378	20319.95
814.707	20243.79
815.036	20204.47
815.365	20089.67
815.693	20022.1
816.022	20035.89
816.351	19902.56
816.68	19862.33
817.008	19860.07
817.337	19692.84
817.665	19651.71
817.994	19718.15
818.322	19684.93
818.651	19559.97
818.979	19633.18
819.307	19623.92
819.636	19598.61
819.964	19417.6
820.292	19505.05
820.62	19508.22
820.948	19344.38
821.276	19460.08
821.604	19366.07
821.932	19521.55
822.259	19480.19
822.587	19390.25
822.915	19373.53
823.243	19423.47
823.57	19368.33
823.898	19312.06
824.225	19215.57
824.553	19204.27
824.88	19290.59
825.207	19349.8
825.535	19270.93
825.862	19389.57
826.189	19246.75
826.516	19332.63
826.843	19308.9
827.17	19272.97
827.497	19324.49
827.824	19213.31
828.151	19316.81
828.478	19167.43
828.805	19392.51
829.131	19181.67
829.458	19217.15
829.785	19136.7
830.111	19038.62
830.438	19293.98
830.764	19254.66
831.09	19218.28
831.417	19127.43
831.743	19131.05
832.069	19097.83
832.395	19092.63
832.722	19172.41
833.048	19013.09
833.374	19129.24
833.7	18943.26
834.026	19010.15
834.351	18980.09
834.677	19009.02
835.003	18981.22
835.329	18999.08
835.654	18950.94
835.98	18805.86
836.306	18897.84
836.631	18722.47
836.956	18800.66
837.282	18820.32
837.607	18716.6
837.932	18625.75
838.258	18697.84
838.583	18538.75
838.908	18593.89
839.233	18614.23
839.558	18491.52
839.883	18489.49
840.208	18422.14
840.533	18411.52
840.858	18470.73
841.182	18339.89
841.507	18362.26
841.832	18242.71
842.156	18276.84
842.481	18222.6
842.805	18146.44
843.13	18141.25
843.454	18081.13
843.778	18067.8
844.103	18000.01
844.427	17986.9
844.751	17964.53
845.075	17786.91
845.399	17860.12
845.723	17671.43
846.047	17696.29
846.371	17579.45
846.695	17548.49
847.019	17414.03
847.343	17307.82
847.666	17280.7
847.99	17255.62
848.313	17140.14
848.637	17153.7
848.96	17111.44
849.284	16946.02
849.607	16876.65
849.931	16846.36
850.254	16697.22
850.577	16643.43
850.9	16505.58
851.223	16499.48
851.546	16425.36
851.869	16339.49
852.192	16408.18
852.515	16326.83
852.838	16127.06
853.161	16143.33
853.483	16049.1
853.806	15954.19
854.129	16102.66
854.451	15994.41
854.774	15794.42
855.096	15750.12
855.419	15741.76
855.741	15860.63
856.063	15594.87
856.385	15605.04
856.708	15603.46
857.03	15478.49
857.352	15497.47
857.674	15509.9
857.996	15398.27
858.318	15309.46
858.64	15359.17
858.961	15288.21
859.283	15222.9
859.605	15200.76
859.926	15201.66
860.248	15112.63
860.57	15008.9
860.891	15006.19
861.212	14938.62
861.534	14884.83
861.855	14892.74
862.176	14883.48
862.498	14910.14
862.819	14859.75
863.14	14753.99
863.461	14754.89
863.782	14650.26
864.103	14724.16
864.424	14685.52
864.745	14688.23
865.065	14600.32
865.386	14570.72
865.707	14533.43
866.027	14529.36
866.348	14551.51
866.668	14557.84
866.989	14519.42
867.309	14318.07
867.63	14443.49
867.95	14461.57
868.27	14209.6
868.59	14275.81
868.91	14234.91
869.23	14238.52
869.55	14129.15
869.87	14315.36
870.19	14218.41
870.51	14123.05
870.83	14140.67
871.15	14058.64
871.469	14062.03
871.789	14041.92
872.109	14121.92
872.428	13983.62
872.748	13968.93
873.067	13947.46
873.386	14007.8
873.706	13973.22
874.025	13962.82
874.344	13796.28
874.663	13881.92
874.982	13881.92
875.301	13768.03
875.62	13758.08
875.939	13701.81
876.258	13682.61
876.577	13594.7
876.896	13686.22
877.214	13597.86
877.533	13670.18
877.852	13588.37
878.17	13613.23
878.489	13632.44
878.807	13541.37
879.125	13666.79
879.444	13558.99
879.762	13521.48
880.08	13439.45
880.398	13458.66
880.716	13356.97
881.034	13333.24
881.352	13293.46
881.67	13285.78
881.988	13334.59
882.306	13291.43
882.624	13213.47
882.941	13137.76
883.259	13164.65
883.577	13144.99
883.894	13123.75
884.212	13045.11
884.529	13068.39
884.846	12982.74
885.164	13076.97
885.481	12966.02
885.798	12907.94
886.115	12890.99
886.432	12872.46
886.75	12818
887.067	12786.36
887.383	12729.41
887.7	12699.58
888.017	12690.54
888.334	12596.31
888.651	12661.84
888.967	12595.18
889.284	12563.77
889.6	12572.58
889.917	12503.2
890.233	12492.36
890.55	12443.09
890.866	12422.53
891.182	12352.7
891.498	12311.12
891.815	12273.38
892.131	12247.84
892.447	12126.26
892.763	12116.32
893.079	12090.56
893.395	12162.19
893.71	12039.71
894.026	12003.33
894.342	11980.28
894.657	11947.06
894.973	11929.88
895.289	11889.43
895.604	11858.25
895.92	11764.01
896.235	11730.12
896.55	11754.3
896.865	11683.34
897.181	11583.23
897.496	11548.65
897.811	11621.42
898.126	11522.21
898.441	11459.39
898.756	11391.59
899.071	11378.03
899.386	11349.11
899.7	11261.2
900.015	11233.41
900.33	11172.62
900.644	11280.64
900.959	11176.91
901.273	11099.85
901.588	11086.97
901.902	11003.13
902.216	10970.36
902.531	10921.32
902.845	10935.11
903.159	10911.83
903.473	10753.87
903.787	10740.08
904.101	10696.92
904.415	10689.69
904.729	10641.33
905.042	10553.2
905.356	10622.12
905.67	10518.62
905.984	10533.76
906.297	10468.23
906.611	10386.65
906.924	10372.86
907.237	10364.95
907.551	10315.46
907.864	10297.84
908.177	10292.86
908.491	10204.05
908.804	10140.78
909.117	10039.99
909.43	10068.01
909.743	9969.48
910.056	9974.46
910.368	9897.62
910.681	9787.79
910.994	9865.08
911.307	9797.96
911.619	9768.81
911.932	9762.71
912.244	9722.26
912.557	9613.79
912.869	9557.52
913.181	9528.82
913.494	9548.03
913.806	9472.1
914.118	9439.78
914.43	9399.56
914.742	9383.51
915.054	9323.17
915.366	9354.81
915.678	9190.3
915.99	9158.21
916.302	9186.91
916.613	9098.32
916.925	9078.89
917.236	9059.45
917.548	9022.84
917.859	8963.18
918.171	8910.98
918.482	8798.67
918.794	8845.45
919.105	8845.45
919.416	8729.52
919.727	8783.3
920.038	8824.43
920.349	8637.99
920.66	8661.72
920.971	8607.03
921.282	8558.45
921.593	8461.05
921.903	8514.83
922.214	8462.86
922.525	8399.81
922.835	8369.75
923.146	8320.71
923.456	8296.76
923.767	8235.74
924.077	8228.29
924.387	8209.76
924.697	8199.36
925.008	8146.25
925.318	8125.24
925.628	8049.99
925.938	8032.59
926.248	7924.11
926.558	7904.45
926.867	7904.45
927.177	7824.91
927.487	7865.81
927.796	7741.97
928.106	7780.39
928.416	7737.9
928.725	7767.73
929.034	7709.66
929.344	7660.84
929.653	7649.77
929.962	7535.2
930.271	7483.45
930.581	7481.87
930.89	7407.74
931.199	7457.91
931.508	7365.71
931.817	7443.9
932.125	7354.64
932.434	7308.76
932.743	7201.19
933.051	7247.07
933.36	7178.82
933.669	7134.3
933.977	7131.59
934.286	7089.56
934.594	7068.32
934.902	7000.97
935.21	7033.29
935.519	6966.4
935.827	6973.4
936.135	6940.41
936.443	6866.51
936.751	6807.76
937.059	6813.41
937.367	6834.65
937.674	6776.12
937.982	6773.64
938.29	6708.78
938.597	6659.97
938.905	6638.95
939.213	6591.27
939.52	6592.62
939.827	6557.37
940.135	6497.03
940.442	6477.37
940.749	6539.52
941.056	6459.97
941.363	6434.44
941.67	6382.46
941.977	6335.23
942.284	6297.72
942.591	6318.73
942.898	6241.22
943.205	6213.88
943.511	6184.72
943.818	6197.15
944.125	6186.53
944.431	6169.58
944.738	6125.74
945.044	6115.57
945.35	6069.25
945.657	5973.43
945.963	6013.66
946.269	5949.48
946.575	5919.42
946.881	5873.32
947.187	5876.71
947.493	5829.03
947.799	5830.61
948.105	5823.38
948.41	5799.2
948.716	5738.41
949.022	5697.96
949.327	5741.57
949.633	5696.38
949.938	5609.82
950.244	5669.03
950.549	5627
950.854	5588.13
951.16	5586.77
951.465	5492.09
951.77	5489.83
952.075	5497.96
952.38	5456.83
952.685	5459.32
952.99	5361.92
953.294	5365.31
953.599	5309.27
953.904	5346.1
954.209	5290.51
954.513	5267.69
954.818	5250.74
955.122	5261.13
955.426	5224.52
955.731	5202.15
956.035	5141.59
956.339	5155.37
956.643	5100.69
956.948	5080.12
957.252	5098.65
957.556	5064.08
957.86	5034.25
958.163	5039.9
958.467	4980.24
958.771	4961.25
959.075	4966
959.378	4944.08
959.682	4878.32
959.985	4902.95
960.289	4837.64
960.592	4837.64
960.896	4821.14
961.199	4749.51
961.502	4794.7
961.805	4764.42
962.108	4752.9
962.411	4761.03
962.714	4683.29
963.017	4668.15
963.32	4624.09
963.623	4618.89
963.926	4614.14
964.228	4581.38
964.531	4544.54
964.833	4577.76
965.136	4516.52
965.438	4522.4
965.741	4488.05
966.043	4462.96
966.345	4460.02
966.648	4368.27
966.95	4420.25
967.252	4419.12
967.554	4387.94
967.856	4310.65
968.158	4300.71
968.46	4284.21
968.761	4286.47
969.063	4286.92
969.365	4207.38
969.666	4213.7
969.968	4183.65
970.269	4161.73
970.571	4165.79
970.872	4153.59
971.174	4123.76
971.475	4094.38
971.776	4109.75
972.077	4093.71
972.378	4052.35
972.679	4023.88
972.98	3987.04
973.281	4016.87
973.582	4003.09
973.883	3978.23
974.183	3929.87
974.484	3927.61
974.785	3883.09
975.085	3904.56
975.386	3892.36
975.686	3861.17
975.986	3845.12
976.287	3840.61
976.587	3802.41
976.887	3779.59
977.187	3757.9
977.487	3729.2
977.787	3752.02
978.087	3700.04
978.387	3717.67
978.687	3666.82
978.987	3639.93
979.286	3625.92
979.586	3614.17
979.885	3633.38
980.185	3575.3
980.484	3604.45
980.784	3534.85
981.083	3568.52
981.382	3555.64
981.682	3517.9
981.981	3524.68
982.28	3478.81
982.579	3463.44
982.878	3452.59
983.177	3429.77
983.475	3414.85
983.774	3402.65
984.073	3389.09
984.372	3394.97
984.67	3360.62
984.969	3351.35
985.267	3336.89
985.566	3311.35
985.864	3315.42
986.162	3269.55
986.461	3300.73
986.759	3287.4
987.057	3244.24
987.355	3238.14
987.653	3201.53
987.951	3173.96
988.249	3205.37
988.547	3169.89
988.844	3139.61
989.142	3145.26
989.44	3109.1
989.737	3132.15
990.035	3090.57
990.332	3028.65
990.63	3073.62
990.927	3058.25
991.224	2997.69
991.521	3015.09
991.819	2956.33
992.116	3004.92
992.413	2946.39
992.71	2945.71
993.006	2940.52
993.303	2906.84
993.6	2931.7
993.897	2923.79
994.193	2904.58
994.49	2893.51
994.787	2839.73
995.083	2840.41
995.379	2838.6
995.676	2836.34
995.972	2795.89
996.268	2760.18
996.565	2788.43
996.861	2782.1
997.157	2751.59
997.453	2730.8
997.749	2701.88
998.044	2713.63
998.34	2686.06
998.636	2651.94
998.932	2660.52
999.227	2637.7
999.523	2649.45
999.818	2625.5
1000.114	2591.82
1000.409	2543.01
1000.704	2579.62
1001	2559.96
1001.295	2534.88
1001.59	2516.8
1001.885	2518.83
1002.18	2490.36
1002.475	2479.96
1002.77	2428.44
1003.065	2462.11
1003.359	2447.87
1003.654	2414.65
1003.949	2406.29
1004.243	2406.74
1004.538	2397.48
1004.832	2384.37
1005.127	2360.64
1005.421	2346.63
1005.715	2361.32
1006.009	2329.46
1006.304	2339.4
1006.598	2293.3
1006.892	2256.24
1007.186	2280.19
1007.48	2256.24
1007.773	2233.87
1008.067	2268.22
1008.361	2189.58
1008.655	2196.13
1008.948	2185.73
1009.242	2146.64
1009.535	2135.57
1009.829	2174.21
1010.122	2125.62
1010.415	2124.72
1010.708	2119.07
1011.001	2110.03
1011.295	2092.18
1011.588	2065.74
1011.881	2066.41
1012.173	2053.99
1012.466	2019.18
1012.759	2026.87
1013.052	2014.89
1013.344	1997.94
1013.637	1967.21
1013.93	1963.14
1014.222	1946.19
1014.514	1966.08
1014.807	1925.4
1015.099	1934.89
1015.391	1899.19
1015.683	1940.54
1015.976	1895.8
1016.268	1877.49
1016.56	1840.43
1016.851	1856.93
1017.143	1867.32
1017.435	1843.14
1017.727	1834.78
1018.018	1823.94
1018.31	1809.25
1018.602	1778.06
1018.893	1774.22
1019.185	1758.17
1019.476	1775.8
1019.767	1706.42
1020.058	1741.23
1020.35	1726.08
1020.641	1677.27
1020.932	1698.97
1021.223	1674.11
1021.514	1643.6
1021.804	1644.96
1022.095	1634.79
1022.386	1628.46
1022.677	1596.6
1022.967	1614
1023.258	1597.05
1023.548	1586.43
1023.839	1553.66
1024.129	1546.43
1024.419	1563.15
1024.709	1544.62
1025	1517.73
1025.29	1536.03
1025.58	1516.6
1025.87	1490.38
1026.16	1475.02
1026.449	1491.51
1026.739	1492.19
1027.029	1452.65
1027.319	1465.75
1027.608	1476.37
1027.898	1442.7
1028.187	1426.43
1028.477	1429.37
1028.766	1414.23
1029.055	1384.17
1029.344	1382.36
1029.634	1363.61
1029.923	1378.52
1030.212	1351.86
1030.501	1344.4
1030.79	1342.82
1031.078	1335.36
1031.367	1319.32
1031.656	1308.24
1031.945	1275.7
1032.233	1302.14
1032.522	1269.37
1032.81	1265.53
1033.099	1271.18
1033.387	1248.81
1033.675	1235.93
1033.963	1242.26
1034.251	1259.43
1034.54	1228.7
1034.828	1207
1035.116	1192.54
1035.403	1195.48
1035.691	1177.62
1035.979	1181.69
1036.267	1189.15
1036.554	1167.46
1036.842	1157.06
1037.129	1174.01
1037.417	1135.82
1037.704	1129.49
1037.992	1120.45
1038.279	1134.24
1038.566	1090.85
1038.853	1090.85
1039.14	1090.85
