Data from white_steel_sheet_FLMS001491_097.txt Node
Date: Tue Feb 07 10:58:50 GMT 2017
User: dcchb
Spectrometer: FLMS00149
Trigger mode: 0
Integration Time (sec): 2.000000E-2
Scans to average: 10
Electric dark correction enabled: true
Nonlinearity correction enabled: false
Boxcar width: 0
XAxis mode: Wavelengths
Number of Pixels in Spectrum: 2048
>>>>>Begin Spectral Data<<<<<
341.393	-15.76
341.776	-15.76
342.16	-15.76
342.543	-41.52
342.927	-68.87
343.31	-70
343.693	-54.86
344.077	-45.59
344.46	-60.96
344.843	-54.41
345.226	-36.33
345.61	-41.75
345.993	-24.58
346.376	-12.6
346.759	4.35
347.142	30.56
347.525	45.93
347.908	55.87
348.291	65.82
348.674	85.48
349.057	113.05
349.44	114.4
349.823	136.1
350.206	151.01
350.588	176.78
350.971	201.18
351.354	225.36
351.737	242.08
352.119	248.86
352.502	251.12
352.884	253.61
353.267	306.94
353.65	304.46
354.032	300.39
354.414	294.74
354.797	306.26
355.179	330.44
355.562	325.02
355.944	312.14
356.326	322.31
356.709	333.61
357.091	339.71
357.473	341.97
357.855	350.1
358.238	340.39
358.62	340.84
359.002	318.69
359.384	328.64
359.766	337.9
360.148	333.38
360.53	338.35
360.912	318.69
361.294	340.16
361.676	346.49
362.057	335.41
362.439	345.13
362.821	323.21
363.203	346.26
363.584	328.41
363.966	327.73
364.348	318.69
364.729	318.69
365.111	317.34
365.493	322.76
365.874	317.11
366.256	312.59
366.637	319.82
367.019	326.15
367.4	319.37
367.781	333.16
368.163	321.63
368.544	311.23
368.925	315.3
369.306	313.04
369.688	318.24
370.069	331.35
370.45	323.21
370.831	330.9
371.212	327.05
371.593	327.73
371.974	324.12
372.355	304.68
372.736	318.69
373.117	333.38
373.498	327.73
373.879	318.69
374.26	317.11
374.641	332.93
375.021	342.42
375.402	325.02
375.783	354.4
376.163	334.28
376.544	337.22
376.925	340.84
377.305	346.94
377.686	325.02
378.066	352.82
378.447	346.49
378.827	367.73
379.208	348.97
379.588	350.56
379.968	367.5
380.349	348.97
380.729	352.36
381.109	338.13
381.489	376.77
381.87	358.92
382.25	350.33
382.63	375.19
383.01	343.78
383.39	367.28
383.77	356.43
384.15	370.89
384.53	355.75
384.91	391.01
385.29	391.91
385.67	376.54
386.049	372.93
386.429	366.37
386.809	377.9
387.189	406.6
387.568	405.24
387.948	393.72
388.328	385.36
388.707	395.53
389.087	399.14
389.466	417.22
389.846	412.48
390.225	402.08
390.605	412.25
390.984	426.49
391.363	413.83
391.743	414.28
392.122	441.4
392.501	433.49
392.881	438.69
393.26	422.87
393.639	435.98
394.018	472.81
394.397	439.82
394.776	463.1
395.155	464.23
395.534	482.08
395.913	461.51
396.292	475.07
396.671	475.07
397.05	485.69
397.429	477.33
397.808	492.02
398.186	489.31
398.565	501.51
398.944	511.68
399.323	522.98
399.701	522.53
400.08	508.74
400.458	537.44
400.837	552.58
401.215	539.7
401.594	565.92
401.972	548.06
402.351	572.92
402.729	553.94
403.107	583.09
403.486	583.54
403.864	587.39
404.242	604.56
404.62	610.21
404.999	623.99
405.377	627.16
405.755	639.59
406.133	648.85
406.511	645.01
406.889	661.96
407.267	660.15
407.645	684.11
408.023	701.28
408.401	695.41
408.779	713.71
409.156	712.58
409.534	729.75
409.912	750.77
410.29	771.56
410.667	766.82
411.045	787.61
411.422	779.47
411.8	810.2
412.178	828.51
412.555	838.23
412.933	841.62
413.31	846.59
413.687	857.89
414.065	867.38
414.442	878.23
414.819	902.41
415.197	921.84
415.574	908.51
415.951	943.08
416.328	938.34
416.705	918.45
417.082	939.92
417.46	955.51
417.837	970.43
418.214	978.11
418.591	978.79
418.967	974.49
419.344	995.06
419.721	1026.24
420.098	1017.43
420.475	1047.49
420.852	1049.07
421.228	1071.89
421.605	1069.41
421.982	1087.71
422.358	1085.68
422.735	1106.02
423.111	1117.99
423.488	1146.92
423.864	1132.68
424.241	1120.48
424.617	1145.11
424.994	1170.2
425.37	1164.77
425.746	1194.6
426.123	1226.24
426.499	1231.44
426.875	1241.83
427.251	1235.28
427.627	1252.68
428.003	1277.31
428.379	1313.92
428.756	1313.47
429.132	1370.19
429.507	1349.85
429.883	1367.03
430.259	1395.05
430.635	1356.63
431.011	1419.23
431.387	1413.8
431.763	1483.18
432.138	1442.28
432.514	1470.07
432.89	1496.06
433.265	1547.59
433.641	1538.55
434.016	1574.93
434.392	1561.15
434.767	1615.61
435.143	1627.36
435.518	1639.79
435.894	1661.03
436.269	1677.07
436.644	1676.4
437.02	1748.03
437.395	1703.74
437.77	1754.81
438.145	1775.15
438.52	1775.83
438.895	1830.52
439.271	1802.72
439.646	1864.19
440.021	1874.81
440.395	1861.25
440.77	1890.4
441.145	1897.18
441.52	1927.24
441.895	1932.44
442.27	1955.49
442.645	1937.63
443.019	2003.39
443.394	1999.1
443.769	2034.35
444.143	2019.66
444.518	2044.75
444.892	2043.84
445.267	2055.82
445.641	2103.96
446.016	2109.15
446.39	2134.69
446.764	2178.76
447.139	2135.82
447.513	2192.54
447.887	2189.6
448.262	2202.03
448.636	2188.25
449.01	2214.69
449.384	2299.88
449.758	2301.46
450.132	2295.14
450.506	2270.28
450.88	2359.32
451.254	2331.29
451.628	2371.75
452.002	2409.03
452.376	2418.07
452.75	2416.72
453.123	2429.37
453.497	2505.75
453.871	2514.34
454.244	2588.24
454.618	2606.32
454.992	2635.69
455.365	2632.3
455.739	2672.08
456.112	2724.96
456.486	2739.65
456.859	2767.67
457.232	2812.86
457.606	2795.69
457.979	2836.82
458.352	2894.44
458.725	2908.23
459.099	2948.23
459.472	2973.99
459.845	3068.68
460.218	3060.32
460.591	3067.55
460.964	3078.17
461.337	3198.62
461.71	3229.8
462.083	3250.14
462.456	3281.55
462.829	3295.56
463.201	3311.38
463.574	3380.08
463.947	3414.43
464.32	3479.96
464.692	3482.22
465.065	3548.21
465.438	3581.21
465.81	3613.07
466.183	3676.8
466.555	3711.82
466.928	3768.09
467.3	3757.92
467.672	3842.22
468.045	3937.58
468.417	3910.01
468.789	3926.28
469.161	4032.04
469.534	4042.89
469.906	4178.48
470.278	4230.68
470.65	4195.88
471.022	4277.68
471.394	4393.84
471.766	4437.45
472.138	4503.89
472.51	4570.33
472.882	4682.42
473.253	4697.79
473.625	4751.12
473.997	4862.08
474.369	4877.89
474.74	4902.53
475.112	5042.64
475.484	5108.85
475.855	5253.03
476.227	5195.85
476.598	5399.01
476.97	5449.4
477.341	5532.11
477.713	5605.78
478.084	5658.66
478.455	5819.34
478.827	5859.11
479.198	5997.41
479.569	6083.51
479.94	6162.83
480.311	6242.38
480.682	6391.53
481.053	6509.72
481.424	6632.65
481.795	6692.31
482.166	6848.92
482.537	6899.99
482.908	7072.41
483.279	7137.27
483.65	7249.13
484.021	7343.37
484.391	7501.78
484.762	7559.63
485.133	7591.95
485.503	7767.99
485.874	7876.69
486.244	7921.2
486.615	8123.01
486.985	8274.42
487.356	8350.35
487.726	8411.36
488.097	8589.21
488.467	8639.38
488.837	8865.13
489.207	8920.73
489.578	9074.39
489.948	9041.4
490.318	9205.46
490.688	9361.39
491.058	9453.37
491.428	9535.62
491.798	9639.35
492.168	9889.29
492.538	9817.43
492.908	10050.41
493.278	10098.77
493.648	10207.7
494.017	10327.69
494.387	10400.91
494.757	10484.98
495.126	10623.05
495.496	10638.19
495.866	10740.57
496.235	10859.21
496.605	10956.83
496.974	11024.4
497.344	11181.46
497.713	11209.93
498.082	11399.08
498.452	11456.03
498.821	11456.03
499.19	11622.12
499.559	11727.43
499.928	11701.44
500.298	11799.29
500.667	11984.15
501.036	12029.34
501.405	12116.57
501.774	12055.56
502.143	12250.81
502.512	12348.43
502.88	12470.01
503.249	12519.73
503.618	12590.01
503.987	12629.1
504.356	12841.98
504.724	12856.67
505.093	12932.6
505.462	13029.32
505.83	13111.58
506.199	13183.44
506.567	13425.47
506.936	13405.58
507.304	13543.43
507.672	13526.25
508.041	13650.77
508.409	13828.39
508.777	13919.69
509.145	13979.12
509.514	14057.54
509.882	14288.49
510.25	14302.05
510.618	14265.9
510.986	14445.78
511.354	14622.95
511.722	14675.6
512.09	14750.86
512.458	14754.92
512.826	14987.23
513.193	15100.45
513.561	15196.72
513.929	15345.19
514.297	15418.86
514.664	15535.69
515.032	15621.57
515.4	15701.56
515.767	15882.12
516.135	15947.43
516.502	15920.77
516.869	16157.15
517.237	16147.65
517.604	16259.52
517.972	16500.87
518.339	16611.37
518.706	16629.68
519.073	16774.3
519.44	16849.33
519.808	17096.78
520.175	17101.53
520.542	17383.1
520.909	17451.58
521.276	17491.35
521.643	17651.8
522.009	17768.63
522.376	17905.35
522.743	18070.54
523.11	18306.69
523.477	18493.36
523.843	18558.89
524.21	18758.43
524.577	18912.55
524.943	19002.27
525.31	19121.36
525.676	19321.36
526.043	19364.29
526.409	19429.6
526.776	19816.94
527.142	19754.11
527.508	19900.32
527.874	20095.57
528.241	20275.23
528.607	20253.54
528.973	20502.12
529.339	20465.73
529.705	20739.17
530.071	20970.58
530.437	20926.06
530.803	21047.86
531.169	21321.3
531.535	21319.27
531.901	21362.88
532.267	21524.69
532.632	21629.54
532.998	21754.51
533.364	21798.35
533.73	21983.89
534.095	22040.61
534.461	22046.93
534.826	22361.28
535.192	22396.08
535.557	22553.81
535.923	22534.83
536.288	22593.36
536.653	22804.2
537.019	22763.53
537.384	22857.99
537.749	23027.47
538.114	23033.35
538.479	23194.25
538.845	23251.87
539.21	23176.4
539.575	23307.01
539.94	23494.13
540.305	23559.66
540.67	23662.94
541.034	23782.71
541.399	23907.9
541.764	23922.59
542.129	23988.13
542.494	24111.06
542.858	24168.91
543.223	24339.98
543.587	24439.87
543.952	24382.24
544.316	24511.73
544.681	24549.92
545.045	24615.91
545.41	24745.39
545.774	24875.79
546.138	24797.14
546.503	24932.28
546.867	25054.54
547.231	25285.04
547.595	25268.77
547.959	25250.01
548.324	25319.62
548.688	25462.21
549.052	25544.47
549.416	25671.02
549.779	25706.73
550.143	25760.96
550.507	26019.94
550.871	26003.89
551.235	25985.59
551.599	26327.27
551.962	26274.62
552.326	26406.14
552.689	26451.11
553.053	26374.5
553.417	26553.48
553.78	26886.13
554.143	26736.98
554.507	27035.96
554.87	27037.76
555.234	27274.14
555.597	27192.79
555.96	27388.04
556.323	27483.4
556.686	27476.4
557.05	27753.23
557.413	27747.35
557.776	27863.28
558.139	28092.43
558.502	28095.59
558.865	28182.14
559.228	28383.49
559.59	28374
559.953	28451.29
560.316	28809.47
560.679	28785.29
561.041	29089.46
561.404	28977.37
561.767	29265.95
562.129	29268.44
562.492	29509.11
562.854	29394.76
563.217	29554.76
563.579	29701.42
563.941	29943.22
564.304	29982.54
564.666	30205.14
565.028	30226.61
565.39	30317.45
565.753	30543.43
566.115	30558.58
566.477	30843.77
566.839	30808.06
567.201	31009.86
567.563	31144.1
567.925	31259.57
568.287	31328.72
568.648	31289.63
569.01	31465.9
569.372	31488.72
569.734	31595.38
570.095	31821.14
570.457	32001.7
570.819	32115.37
571.18	32114.24
571.542	32173.9
571.903	32267.46
572.265	32388.58
572.626	32517.85
572.987	32367.57
573.349	32669.03
573.71	32754.68
574.071	32890.27
574.432	32912.86
574.794	33114.44
575.155	33098.62
575.516	32963.48
575.877	33107.89
576.238	33178.17
576.599	33283.25
576.96	33424.94
577.32	33359.63
577.681	33480.53
578.042	33522.34
578.403	33488.44
578.763	33628.78
579.124	33661.32
579.485	33853.63
579.845	33857.47
580.206	33770.02
580.566	33854.08
580.927	33838.94
581.287	34013.4
581.648	33984.7
582.008	34059.5
582.368	33916.23
582.728	34159.16
583.089	34040.74
583.449	33913.29
583.809	33950.58
584.169	34200.29
584.529	33928.43
584.889	34339.27
585.249	34051.82
585.609	33913.06
585.969	34248.42
586.329	34036.22
586.688	34104.02
587.048	34129.55
587.408	33918.71
587.768	34124.36
588.127	33934.31
588.487	33954.42
588.846	34222.43
589.206	34119.61
589.565	34156.9
589.925	34130.23
590.284	34165.49
590.643	34119.84
591.003	34224.02
591.362	34354.63
591.721	34244.35
592.08	34159.16
592.44	34327.52
592.799	34262.21
593.158	34106.05
593.517	34109.44
593.876	34208.87
594.235	34132.72
594.593	34176.56
594.952	34228.31
595.311	34084.58
595.67	34182.66
596.029	34362.09
596.387	34480.05
596.746	34391.92
597.104	34167.29
597.463	34221.53
597.822	34362.54
598.18	34110.57
598.538	34188.99
598.897	34458.13
599.255	34155.32
599.613	34619.03
599.972	34421.98
600.33	34353.5
600.688	34289.55
601.046	34566.61
601.404	34661.97
601.762	34554.63
602.12	34620.16
602.478	34486.61
602.836	34675.75
603.194	34494.74
603.552	34503.78
603.91	34387.85
604.268	34596.66
604.625	34527.96
604.983	34597.11
605.341	34418.13
605.698	34641.86
606.056	34689.09
606.413	34701.97
606.771	34641.63
607.128	34734.06
607.485	34704
607.843	34652.25
608.2	34898.8
608.557	34881.4
608.914	34774.74
609.272	34991.9
609.629	34976.09
609.986	35067.83
610.343	34844.79
610.7	35262.86
611.057	35245.91
611.414	35135.4
611.771	35195.06
612.127	35216.53
612.484	35260.37
612.841	35395.28
613.198	35233.48
613.554	35125.46
613.911	35488.61
614.267	35451.33
614.624	35370.65
614.98	35519.8
615.337	35619.68
615.693	35670.31
616.05	35474.15
616.406	35752.56
616.762	35588.73
617.118	35641.15
617.475	35546.92
617.831	35765.67
618.187	35742.62
618.543	35782.84
618.899	36116.17
619.255	35954.82
619.611	35819.23
619.967	35891.09
620.323	36040.92
620.678	35938.55
621.034	35839.79
621.39	35914.82
621.746	35900.36
622.101	36221.93
622.457	35861.49
622.812	36004.99
623.168	36151.65
623.523	36062.39
623.879	36179.44
624.234	35940.35
624.589	36059.45
624.945	36140.8
625.3	36024.42
625.655	36075.72
626.01	36002.05
626.365	36089.5
626.72	35905.78
627.075	36097.41
627.43	35959.11
627.785	35892.45
628.14	35995.27
628.495	36058.32
628.85	36069.84
629.205	35848.61
629.559	36235.71
629.914	35894.93
630.269	35923.63
630.623	35876.85
630.978	35730.42
631.332	35710.53
631.687	36040.24
632.041	35756.63
632.396	35888.15
632.75	35658.1
633.104	35538.56
633.459	35589.63
633.813	35573.81
634.167	35586.47
634.521	35546.69
634.875	35647.48
635.229	35541.95
635.583	35336.3
635.937	35365
636.291	35321.39
636.645	35239.13
636.999	35192.58
637.352	35206.59
637.706	35099.25
638.06	35151.67
638.413	35066.71
638.767	34995.29
639.121	35111.68
639.474	34733.83
639.828	34846.6
640.181	34981.74
640.534	34849.54
640.888	34716.66
641.241	34656.09
641.594	34538.13
641.947	34791.46
642.301	34374.75
642.654	34527.06
643.007	34445.48
643.36	34409.77
643.713	34385.59
644.066	34519.83
644.419	34378.36
644.771	34138.14
645.124	33682.33
645.477	33682.11
645.83	33407.31
646.182	33411.83
646.535	33204.61
646.888	33286.19
647.24	33069.24
647.593	33432.4
647.945	33245.06
648.298	33179.75
648.65	33025.4
649.002	32905.63
649.355	33089.36
649.707	32900.21
650.059	33013.2
650.411	33436.24
650.763	33514.43
651.115	33866.96
651.467	33628.1
651.819	33656.35
652.171	33665.39
652.523	33582.68
652.875	33534.09
653.227	33285.28
653.578	33638.49
653.93	33389.24
654.282	33501.77
654.633	33377.26
654.985	33374.09
655.337	33351.04
655.688	33158.05
656.039	33355.79
656.391	32989.7
656.742	33234.44
657.094	33138.17
657.445	33315.79
657.796	33202.35
658.147	33026.31
658.498	33078.06
658.849	33182.91
659.2	33074.22
659.551	32854.79
659.902	33035.12
660.253	32841
660.604	32799.42
660.955	32793.32
661.306	32762.36
661.656	32763.26
662.007	32680.78
662.358	32632.87
662.708	32577.5
663.059	32640.78
663.409	32368.02
663.76	32649.82
664.11	32544.51
664.461	32653.21
664.811	32437.4
665.161	32416.61
665.511	32158.76
665.862	32314.91
666.212	32342.71
666.562	32202.6
666.912	32160.11
667.262	32028.59
667.612	31916.05
667.962	31817.07
668.312	31784.31
668.662	31897.97
669.011	31803.51
669.361	31579.34
669.711	31693.23
670.06	31482.39
670.41	31286.92
670.76	31317.88
671.109	31384.99
671.459	31345.67
671.808	31181.61
672.157	31187.94
672.507	30979.58
672.856	30978.68
673.205	30961.5
673.554	31048.73
673.904	30817.55
674.253	31054.16
674.602	30738.01
674.951	30325.13
675.3	30280.84
675.649	30659.59
675.998	30628.63
676.346	30695.29
676.695	30676.31
677.044	30532.81
677.393	30544.34
677.741	30612.36
678.09	30404.68
678.438	30463.21
678.787	30533.72
679.135	30523.1
679.484	30342.54
679.832	30570.1
680.181	30307.06
680.529	30371.24
680.877	30316.1
681.225	30321.52
681.573	30493.04
681.922	30208.53
682.27	30162.65
682.618	30353.38
682.966	30214.86
683.314	30339.37
683.661	30367.85
684.009	30072.03
684.357	30149.77
684.705	30131.69
685.053	30177.34
685.4	30201.07
685.748	30115.65
686.095	30186.16
686.443	30063.9
686.79	29923.34
687.138	30121.3
687.485	30088.98
687.832	29946.39
688.18	30039.27
688.527	29983.9
688.874	30006.05
689.221	29893.28
689.568	30060.28
689.915	29904.58
690.262	29886.28
690.609	29818.93
690.956	29744.81
691.303	29775.09
691.65	29752.04
691.997	29712.04
692.344	29491.03
692.69	29592.5
693.037	29611.71
693.383	29473.41
693.73	29601.31
694.077	29390.7
694.423	29412.39
694.769	29363.13
695.116	29308.89
695.462	29333.97
695.808	29174.2
696.155	29179.18
696.501	29084.04
696.847	29012.18
697.193	28808.34
697.539	28902.12
697.885	28722.24
698.231	28683.14
698.577	28747.1
698.923	28730.6
699.269	28535.35
699.614	28408.58
699.96	28366.54
700.306	28388.91
700.651	28237.05
700.997	28245.19
701.342	28103.05
701.688	28027.34
702.033	28071.63
702.379	27984.41
702.724	27944.63
703.069	27846.33
703.415	27641.36
703.76	27633.23
704.105	27644.08
704.45	27575.15
704.795	27417.41
705.14	27376.74
705.485	27331.09
705.83	27100.81
706.175	27300.13
706.52	27229.4
706.865	27003.19
707.209	27014.04
707.554	26935.62
707.899	26968.84
708.243	26861.05
708.588	26700.6
708.932	26605.23
709.277	26687.26
709.621	26619.47
709.966	26462.86
710.31	26621.73
710.654	26338.12
710.998	26349.19
711.342	26438.23
711.687	26302.87
712.031	26263.55
712.375	26142.42
712.719	26082.76
713.063	26029.65
713.407	26108.52
713.75	25946.72
714.094	25923.44
714.438	25900.39
714.782	25880.96
715.125	25763.9
715.469	25791.92
715.812	25645.26
716.156	25506.73
716.499	25430.12
716.843	25459.05
717.186	25292.27
717.53	25476.45
717.873	25385.15
718.216	25371.82
718.559	25224.03
718.902	25080.53
719.246	25108.1
719.589	25064.03
719.932	24981.32
720.275	25000.53
720.617	24899.97
720.96	24875.79
721.303	24851.38
721.646	24921.89
721.989	24658.62
722.331	24852.96
722.674	24705.4
723.016	24642.57
723.359	24639.18
723.701	24554.44
724.044	24463.82
724.386	24362.35
724.729	24553.76
725.071	24467.44
725.413	24439.41
725.755	24407.55
726.097	24255.01
726.439	24219.98
726.782	24132.53
727.124	24174.34
727.465	24154.68
727.807	24187.44
728.149	24064.51
728.491	23910.61
728.833	23990.84
729.175	23946.77
729.516	23880.33
729.858	23757.4
730.199	23872.88
730.541	23802.59
730.882	23777.06
731.224	23780.67
731.565	23662.49
731.906	23513.34
732.248	23697.74
732.589	23628.81
732.93	23323.06
733.271	23373.68
733.612	23488.25
733.953	23427.92
734.294	23452.32
734.635	23371.42
734.976	23304.53
735.317	23257.07
735.658	23206.23
735.999	23049.85
736.339	23181.37
736.68	23134.14
737.021	23048.94
737.361	23080.35
737.702	23120.58
738.042	22923.3
738.383	22982.28
738.723	22968.04
739.063	22817.99
739.404	22863.41
739.744	22719.23
740.084	22761.72
740.424	22835.61
740.764	22692.79
741.104	22783.19
741.444	22584.32
741.784	22563.53
742.124	22524.44
742.464	22541.38
742.804	22434.72
743.143	22484.21
743.483	22510.88
743.823	22279.92
744.162	22252.35
744.502	22275.63
744.841	22121.28
745.181	22291
745.52	22158.57
745.86	22158.57
746.199	22046.71
746.538	22037.9
746.877	22078.57
747.216	22073.83
747.556	22044.45
747.895	21952.7
748.234	21782.76
748.573	21912.93
748.911	21781.63
749.25	21820.95
749.589	21628.19
749.928	21648.3
750.267	21709.77
750.605	21665.93
750.944	21569.43
751.283	21568.98
751.621	21537.57
751.96	21443.33
752.298	21460.28
752.636	21442.88
752.975	21315.65
753.313	21192.49
753.651	21331.25
753.989	21200.85
754.327	21164.25
754.666	21099.61
755.004	21074.08
755.342	21048.32
755.679	21078.82
756.017	20940.52
756.355	20874.31
756.693	20824.59
757.031	20786.85
757.368	20700.98
757.706	20744.82
758.044	20611.72
758.381	20626.63
758.719	20555.22
759.056	20462.8
759.394	20390.03
759.731	20290.82
760.068	20228.9
760.405	20152.97
760.743	20183.25
761.08	20110.26
761.417	19938.52
761.754	20008.8
762.091	19919.31
762.428	19778.29
762.765	19769.25
763.102	19825.98
763.438	19673.44
763.775	19606.32
764.112	19578.07
764.449	19510.96
764.785	19404.97
765.122	19286.1
765.458	19167.69
765.795	19160
766.131	19203.39
766.467	19126.56
766.804	19028.48
767.14	18906.68
767.476	18927.69
767.812	18897.41
768.148	18882.72
768.485	18660.13
768.821	18705.78
769.157	18597.08
769.492	18569.29
769.828	18409.74
770.164	18345.79
770.5	18308.5
770.836	18340.82
771.171	18243.42
771.507	18122.74
771.842	18045.01
772.178	18029.64
772.513	17976.53
772.849	17884.11
773.184	17859.93
773.519	17920.94
773.855	17800.72
774.19	17604.57
774.525	17620.61
774.86	17597.79
775.195	17496.09
775.53	17526.38
775.865	17401.63
776.2	17308.53
776.535	17170.23
776.87	17236.21
777.205	17041.42
777.539	16996.67
777.874	17042.32
778.209	16930.91
778.543	16901.08
778.878	16823.57
779.212	16676
779.547	16609.34
779.881	16527.76
780.215	16524.82
780.55	16529.57
780.884	16373.41
781.218	16391.72
781.552	16332.28
781.886	16294.54
782.22	16206.18
782.554	16117.15
782.888	15931.61
783.222	15942.24
783.556	15843.26
783.889	15859.98
784.223	15803.93
784.557	15710.38
784.89	15760.09
785.224	15667.44
785.557	15550.16
785.891	15493.21
786.224	15508.8
786.558	15452.31
786.891	15365.75
787.224	15265.87
787.557	15175.02
787.891	15250.05
788.224	15180.9
788.557	15175.93
788.89	15090.51
789.223	15095.48
789.556	14953.56
789.888	14985.43
790.221	14840.8
790.554	14728.71
790.887	14750.86
791.219	14681.03
791.552	14547.47
791.884	14611.65
792.217	14498.21
792.549	14503.63
792.882	14374.59
793.214	14370.98
793.546	14298.89
793.879	14244.88
794.211	14208.95
794.543	14192.45
794.875	14223.19
795.207	14169.63
795.539	14104.54
795.871	13994.26
796.203	13975.28
796.535	13888.96
796.867	13852.8
797.198	13758.56
797.53	13891.89
797.862	13718.79
798.193	13747.94
798.525	13687.61
798.856	13667.04
799.188	13458.69
799.519	13464.34
799.85	13396.31
800.182	13440.83
800.513	13450.32
800.844	13284.23
801.175	13336.65
801.506	13282.19
801.837	13222.08
802.168	13181.18
802.499	13144.12
802.83	12987.96
803.161	13072.93
803.491	13130.56
803.822	12975.53
804.153	12919.04
804.483	12751.59
804.814	12809.89
805.145	12790
805.475	12746.61
805.805	12659.61
806.136	12672.49
806.466	12670.01
806.796	12603.57
807.126	12549.33
807.457	12470.92
807.787	12477.47
808.117	12432.72
808.447	12414.42
808.777	12404.25
809.107	12286.51
809.436	12357.7
809.766	12295.1
810.096	12233.86
810.426	12200.64
810.755	12215.78
811.085	12182.56
811.414	12103.47
811.744	12102.11
812.073	12038.84
812.403	12046.97
812.732	11951.83
813.061	12039.74
813.39	11949.12
813.719	11904.6
814.049	11920.2
814.378	11942.57
814.707	11820.54
815.036	11782.8
815.365	11762.46
815.693	11652.63
816.022	11679.75
816.351	11623.48
816.68	11568.34
817.008	11589.58
817.337	11392.53
817.665	11518.62
817.994	11487.44
818.322	11539.87
818.651	11338.97
818.979	11409.25
819.307	11422.58
819.636	11449.7
819.964	11273.21
820.292	11244.96
820.62	11240.21
820.948	11244.28
821.276	11258.29
821.604	11235.69
821.932	11245.86
822.259	11291.06
822.587	11228.91
822.915	11229.37
823.243	11211.97
823.57	11098.75
823.898	11228.91
824.225	11160.67
824.553	11207.45
824.88	11143.72
825.207	11261.68
825.535	11199.76
825.862	11244.73
826.189	11186.2
826.516	11248.8
826.843	11259.42
827.17	11235.02
827.497	11184.4
827.824	11215.81
828.151	11237.28
828.478	11123.61
828.805	11176.71
829.131	11161.57
829.458	11141.23
829.785	11100.78
830.111	11227.56
830.438	11137.84
830.764	11118.41
831.09	11102.14
831.417	11086.09
831.743	11170.16
832.069	11102.36
832.395	11048.58
832.722	11106.66
833.048	11019.65
833.374	11013.55
833.7	11002.48
834.026	11037.73
834.351	11017.17
834.677	10999.77
835.003	11037.28
835.329	10985.08
835.654	10943.27
835.98	10991.63
836.306	10923.39
836.631	10888.81
836.956	10974.23
837.282	10905.98
837.607	10936.04
837.932	10843.61
838.258	10887.68
838.583	10804.07
838.908	10685.2
839.233	10724.07
839.558	10766.78
839.883	10712.77
840.208	10637.97
840.533	10693.33
840.858	10644.52
841.182	10651.98
841.507	10740.57
841.832	10522.72
842.156	10661.92
842.481	10560.23
842.805	10569.72
843.13	10576.5
843.454	10503.96
843.778	10485.43
844.103	10446.11
844.427	10375.15
844.751	10476.39
845.075	10331.08
845.399	10338.99
845.723	10274.59
846.047	10315.94
846.371	10239.79
846.695	10211.54
847.019	10130.41
847.343	10099
847.666	10075.05
847.99	10034.59
848.313	10030.98
848.637	9947.14
848.96	9943.52
849.284	9900.36
849.607	9870.53
849.931	9810.87
850.254	9665.34
850.577	9646.13
850.9	9614.04
851.223	9700.82
851.546	9584.44
851.869	9464.67
852.192	9532.69
852.515	9439.36
852.838	9441.84
853.161	9434.16
853.483	9421.96
853.806	9348.74
854.129	9367.27
854.451	9242.53
854.774	9271.23
855.096	9233.71
855.419	9185.58
855.741	9188.52
856.063	9115.52
856.385	9088.63
856.708	9123.21
857.03	9072.59
857.352	9054.73
857.674	9010.67
857.996	8989.88
858.318	8927.05
858.64	8921.63
858.961	8937.9
859.283	8891.57
859.605	8864.91
859.926	8830.33
860.248	8766.38
860.57	8739.94
860.891	8753.72
861.212	8779.49
861.534	8708.08
861.855	8725.02
862.176	8707.4
862.498	8633.05
862.819	8676.44
863.14	8640.06
863.461	8515.31
863.782	8574.07
864.103	8548.08
864.424	8547.18
864.745	8600.06
865.065	8538.14
865.386	8511.25
865.707	8472.6
866.027	8487.06
866.348	8472.38
866.668	8485.94
866.989	8375.43
867.309	8332.04
867.63	8398.25
867.95	8392.83
868.27	8389.44
868.59	8334.07
868.91	8351.25
869.23	8311.48
869.55	8267.41
869.87	8307.41
870.19	8287.3
870.51	8299.27
870.83	8277.58
871.15	8272.61
871.469	8221.08
871.789	8246.39
872.109	8222.67
872.428	8101.31
872.748	8170.69
873.067	8132.72
873.386	8142.67
873.706	8119.84
874.025	8054.53
874.344	8089.56
874.663	8101.99
874.982	8080.07
875.301	8092.5
875.62	8011.6
875.939	7984.93
876.258	7986.97
876.577	8000.52
876.896	7968.66
877.214	7931.83
877.533	7986.51
877.852	7896.8
878.17	7906.52
878.489	7907.65
878.807	7923.46
879.125	7907.87
879.444	7908.1
879.762	7909.23
880.08	7928.44
880.398	7808.44
880.716	7893.41
881.034	7802.34
881.352	7859.96
881.67	7795.33
881.988	7826.97
882.306	7725.73
882.624	7726.41
882.941	7706.29
883.259	7661.1
883.577	7651.15
883.894	7617.48
884.212	7648.67
884.529	7589.46
884.846	7577.26
885.164	7619.74
885.481	7574.32
885.798	7546.07
886.115	7515.79
886.432	7492.74
886.75	7427.88
887.067	7482.57
887.383	7416.13
887.7	7360.31
888.017	7429.01
888.334	7409.58
888.651	7395.12
888.967	7359.19
889.284	7279.87
889.6	7269.24
889.917	7250.04
890.233	7213.88
890.55	7195.57
890.866	7315.8
891.182	7247.55
891.498	7199.64
891.815	7158.74
892.131	7134.78
892.447	7150.83
892.763	7062.47
893.079	7050.27
893.395	7014.79
893.71	7001.23
894.026	7031.96
894.342	7016.14
894.657	6991.74
894.973	6934.79
895.289	6911.29
895.604	6893.43
895.92	6870.16
896.235	6816.15
896.55	6897.73
896.865	6818.18
897.181	6760.56
897.496	6769.14
897.811	6784.28
898.126	6763.95
898.441	6667.9
898.756	6654.57
899.071	6630.16
899.386	6662.48
899.7	6628.13
900.015	6575.7
900.33	6592.88
900.644	6514.91
900.959	6485.08
901.273	6504.74
901.588	6459.55
901.902	6478.53
902.216	6452.32
902.531	6417.29
902.845	6396.27
903.159	6335.03
903.473	6346.33
903.787	6292.32
904.101	6268.37
904.415	6267.24
904.729	6167.58
905.042	6175.49
905.356	6179.78
905.67	6151.76
905.984	6142.27
906.297	6138.2
906.611	6097.75
906.924	6085.55
907.237	6030.63
907.551	6066.56
907.864	5979.33
908.177	5968.26
908.491	5954.48
908.804	5944.08
909.117	5878.32
909.43	5913.35
909.743	5880.13
910.056	5849.62
910.368	5853.01
910.681	5787.02
910.994	5775.95
911.307	5753.58
911.619	5728.27
911.932	5667.93
912.244	5658.89
912.557	5659.12
912.869	5668.83
913.181	5644.2
913.494	5573.02
913.806	5546.8
914.118	5566.01
914.43	5510.87
914.742	5511.32
915.054	5468.84
915.366	5493.7
915.678	5482.4
915.99	5378.9
916.302	5375.28
916.613	5337.09
916.925	5322.63
917.236	5351.1
917.548	5337.77
917.859	5312.46
918.171	5231.56
918.482	5270.88
918.794	5186.81
919.105	5234.04
919.416	5151.11
919.727	5152.92
920.038	5126.48
920.349	5104.78
920.66	5113.14
920.971	5067.04
921.282	5062.3
921.593	5004.9
921.903	4996.54
922.214	4985.24
922.525	4955.41
922.835	4952.24
923.146	4902.07
923.456	4879.25
923.767	4850.32
924.077	4901.85
924.387	4848.52
924.697	4783.89
925.008	4785.24
925.318	4831.12
925.628	4801.74
925.938	4740.95
926.248	4710.89
926.558	4701.85
926.867	4685.58
927.177	4690.78
927.487	4666.15
927.796	4586.38
928.106	4593.38
928.416	4620.73
928.725	4568.98
929.034	4534.85
929.344	4544.34
929.653	4531.91
929.962	4455.53
930.271	4458.47
930.581	4470.67
930.89	4420.05
931.199	4407.62
931.508	4361.07
931.817	4399.49
932.125	4376.66
932.434	4326.5
932.743	4325.82
933.051	4284.24
933.36	4270.68
933.669	4210.79
933.977	4275.88
934.286	4205.6
934.594	4228.87
934.902	4185.94
935.21	4210.79
935.519	4189.55
935.827	4128.54
936.135	4096.67
936.443	4113.85
936.751	4090.57
937.059	4076.79
937.367	4010.12
937.674	4011.48
937.982	4002.89
938.29	4007.86
938.597	4034.53
938.905	3912.04
939.213	3986.62
939.52	3894.64
939.827	3970.35
940.135	3907.07
940.442	3873.63
940.749	3870.46
941.056	3867.07
941.363	3851.25
941.67	3818.26
941.977	3795.89
942.284	3761.31
942.591	3807.41
942.898	3790.01
943.205	3735.78
943.511	3707.08
943.818	3663.24
944.125	3686.06
944.431	3670.47
944.738	3644.48
945.044	3631.15
945.35	3663.69
945.657	3617.59
945.963	3578.27
946.269	3596.57
946.575	3570.13
946.881	3560.64
947.187	3569.91
947.493	3495.56
947.799	3538.72
948.105	3489
948.41	3495.78
948.716	3508.44
949.022	3464.82
949.327	3463.92
949.633	3436.8
949.938	3381.44
950.244	3386.18
950.549	3371.95
950.854	3347.31
951.16	3364.04
951.465	3355.22
951.77	3348.89
952.075	3350.93
952.38	3304.6
952.685	3307.54
952.99	3298.27
953.294	3242.91
953.599	3243.81
953.904	3222.12
954.209	3210.82
954.513	3227.77
954.818	3192.29
955.122	3192.51
955.426	3149.8
955.731	3143.25
956.035	3119.3
956.339	3080.88
956.643	3084.04
956.948	3082.01
957.252	3060.99
957.556	3065.06
957.86	3044.95
958.163	3081.56
958.467	3022.58
958.771	2992.07
959.075	2992.07
959.378	2981.45
959.682	2958.4
959.985	2955.68
960.289	2915.69
960.592	2924.5
960.896	2894.44
961.199	2901
961.502	2892.18
961.805	2854.44
962.108	2865.29
962.411	2850.83
962.714	2835.69
963.017	2834.56
963.32	2842.02
963.623	2841.79
963.926	2809.02
964.228	2771.51
964.531	2805.86
964.833	2793.88
965.136	2762.47
965.438	2740.32
965.741	2715.01
966.043	2738.06
966.345	2703.04
966.648	2714.34
966.95	2688.57
967.252	2657.61
967.554	2675.01
967.856	2682.25
968.158	2609.48
968.46	2612.19
968.761	2650.83
969.063	2588.24
969.365	2563.83
969.666	2596.6
969.968	2547.11
970.269	2558.41
970.571	2568.35
970.872	2542.36
971.174	2542.59
971.475	2525.87
971.776	2502.14
972.077	2498.07
972.378	2501.91
972.679	2482.7
972.98	2480.67
973.281	2450.84
973.582	2426.89
973.883	2437.28
974.183	2408.13
974.484	2413.55
974.785	2401.58
975.085	2369.26
975.386	2373.55
975.686	2382.82
975.986	2336.27
976.287	2361.12
976.587	2333.1
976.887	2356.15
977.187	2317.06
977.487	2317.96
977.787	2309.6
978.087	2324.97
978.387	2273.44
978.687	2255.59
978.987	2234.57
979.286	2251.75
979.586	2232.09
979.885	2203.84
980.185	2226.66
980.484	2224.18
980.784	2194.58
981.083	2185.54
981.382	2196.61
981.682	2159.1
981.981	2145.31
982.28	2157.06
982.579	2160.9
982.878	2128.59
983.177	2104.41
983.475	2119.77
983.774	2111.41
984.073	2079.78
984.372	2076.84
984.67	2077.06
984.969	2067.57
985.267	2079.32
985.566	2039.32
985.864	2045.2
986.162	2030.29
986.461	2036.61
986.759	2033.22
987.057	2002.04
987.355	2009.27
987.653	1990.96
987.951	1956.16
988.249	1975.82
988.547	1958.88
988.844	1988.03
989.142	1973.79
989.44	1955.71
989.737	1940.12
990.035	1941.7
990.332	1885.66
990.63	1918.42
990.927	1909.16
991.224	1872.1
991.521	1898.31
991.819	1861.48
992.116	1869.61
992.413	1871.42
992.71	1849.73
993.006	1835.49
993.303	1857.86
993.6	1834.36
993.897	1834.36
994.193	1824.87
994.49	1809.95
994.787	1785.32
995.083	1757.3
995.379	1770.18
995.676	1742.61
995.972	1780.35
996.268	1781.25
996.565	1761.37
996.861	1760.46
997.157	1728.37
997.453	1737.41
997.749	1694.48
998.044	1692.44
998.34	1688.37
998.636	1669.84
998.932	1682.5
999.227	1650.18
999.523	1651.31
999.818	1652.89
1000.114	1642.5
1000.409	1629.62
1000.704	1620.8
1001	1593.69
1001.295	1618.32
1001.59	1622.39
1001.885	1589.62
1002.18	1568.6
1002.475	1562.95
1002.77	1576.29
1003.065	1553.24
1003.359	1545.33
1003.654	1541.71
1003.949	1549.85
1004.243	1528.6
1004.538	1495.38
1004.832	1520.24
1005.127	1524.31
1005.421	1499.68
1005.715	1501.26
1006.009	1435.05
1006.304	1443.86
1006.598	1463.07
1006.892	1464.42
1007.186	1430.53
1007.48	1438.66
1007.773	1440.02
1008.067	1417.65
1008.361	1425.1
1008.655	1426.01
1008.948	1394.6
1009.242	1375.16
1009.535	1365.44
1009.829	1357.76
1010.122	1361.6
1010.415	1362.51
1010.708	1385.33
1011.001	1343.52
1011.295	1379.68
1011.588	1345.78
1011.881	1321.83
1012.173	1314.82
1012.466	1306.46
1012.759	1314.6
1013.052	1314.15
1013.344	1286.35
1013.637	1284.77
1013.93	1266.46
1014.222	1262.4
1014.514	1269.4
1014.807	1258.33
1015.099	1266.46
1015.391	1234.83
1015.683	1249.06
1015.976	1200.48
1016.268	1245.9
1016.56	1205
1016.851	1225.56
1017.143	1190.99
1017.435	1208.61
1017.727	1187.82
1018.018	1205.22
1018.31	1180.14
1018.602	1191.21
1018.893	1157.99
1019.185	1163.87
1019.476	1136.98
1019.767	1157.77
1020.058	1144.89
1020.35	1129.74
1020.641	1128.16
1020.932	1125.9
1021.223	1114.15
1021.514	1093.36
1021.804	1098.11
1022.095	1092.23
1022.386	1102.4
1022.677	1061.95
1022.967	1080.48
1023.258	1057.43
1023.548	1059.24
1023.839	1043.64
1024.129	1035.28
1024.419	1025.34
1024.709	1025.57
1025	1014.04
1025.29	1043.87
1025.58	1031.89
1025.87	984.44
1026.16	997.77
1026.449	976.75
1026.739	994.38
1027.029	972.46
1027.319	992.12
1027.608	968.39
1027.898	960.94
1028.187	974.27
1028.477	953.03
1028.766	943.76
1029.055	925.23
1029.344	931.56
1029.634	935.85
1029.923	902.18
1030.212	917.32
1030.501	913.48
1030.79	903.08
1031.078	915.74
1031.367	881.84
1031.656	900.37
1031.945	887.26
1032.233	886.13
1032.522	863.31
1032.81	866.93
1033.099	862.41
1033.387	887.26
1033.675	852.01
1033.963	851.33
1034.251	847.72
1034.54	854.05
1034.828	810.43
1035.116	837.1
1035.403	840.49
1035.691	820.6
1035.979	831
1036.267	831.22
1036.554	796.65
1036.842	808.4
1037.129	769.75
1037.417	783.54
1037.704	797.78
1037.992	797.78
1038.279	775.63
1038.566	781.73
1038.853	781.73
1039.14	781.73
