Data from White_reflection_standard_FLMS001491_036.txt Node
Date: Tue Feb 07 10:32:02 GMT 2017
User: dcchb
Spectrometer: FLMS00149
Trigger mode: 0
Integration Time (sec): 2.000000E-2
Scans to average: 10
Electric dark correction enabled: true
Nonlinearity correction enabled: false
Boxcar width: 0
XAxis mode: Wavelengths
Number of Pixels in Spectrum: 2048
>>>>>Begin Spectral Data<<<<<
341.393	-23.22
341.776	-23.22
342.16	-23.22
342.543	-47.85
342.927	-57.34
343.31	-72.48
343.693	-77
344.077	-62.99
344.46	-58.02
344.843	-61.18
345.226	-48.08
345.61	-19.15
345.993	-4.24
346.376	-6.5
346.759	2.09
347.142	28.76
347.525	44.58
347.908	66.95
348.291	69.66
348.674	85.03
349.057	112.6
349.44	123.44
349.823	146.04
350.206	173.84
350.588	212.71
350.971	261.52
351.354	269.2
351.737	292.25
352.119	304.46
352.502	294.06
352.884	311.01
353.267	326.38
353.65	342.19
354.032	343.1
354.414	343.1
354.797	353.49
355.179	360.72
355.562	364.79
355.944	373.83
356.326	376.32
356.709	388.07
357.091	411.57
357.473	398.69
357.855	397.79
358.238	387.84
358.62	396.2
359.002	384.91
359.384	390.78
359.766	406.37
360.148	388.75
360.53	395.53
360.912	413.15
361.294	428.29
361.676	423.32
362.057	395.3
362.439	386.49
362.821	400.95
363.203	405.92
363.584	401.85
363.966	420.84
364.348	408.18
364.729	381.29
365.111	410.67
365.493	408.41
365.874	404.79
366.256	407.5
366.637	408.41
367.019	428.29
367.4	404.79
367.781	440.5
368.163	418.8
368.544	445.92
368.925	402.08
369.306	426.71
369.688	419.25
370.069	427.39
370.45	419.71
370.831	449.99
371.212	436.88
371.593	432.36
371.974	420.38
372.355	443.89
372.736	469.65
373.117	445.47
373.498	441.4
373.879	447.73
374.26	456.54
374.641	448.41
375.021	428.97
375.402	453.83
375.783	471
376.163	506.26
376.544	496.31
376.925	485.47
377.305	498.12
377.686	491.57
378.066	503.09
378.447	485.47
378.827	482.53
379.208	504.45
379.588	503.55
379.968	531.57
380.349	540.38
380.729	520.95
381.109	536.77
381.489	531.34
381.87	551.23
382.25	546.26
382.63	563.43
383.01	577.44
383.39	574.28
383.77	554.62
384.15	584
384.53	574.5
384.91	585.35
385.29	602.98
385.67	586.71
386.049	622.64
386.429	606.14
386.809	620.61
387.189	597.1
387.568	634.62
387.948	629.19
388.328	628.06
388.707	656.54
389.087	656.08
389.466	666.48
389.846	676.2
390.225	692.02
390.605	677.55
390.984	690.21
391.363	735.4
391.743	710.09
392.122	719.81
392.501	713.48
392.881	756.42
393.26	768.4
393.639	750.32
394.018	765.23
394.397	783.54
394.776	780.15
395.155	785.57
395.534	807.49
395.913	825.8
396.292	810.43
396.671	805.69
397.05	828.28
397.429	836.87
397.808	843.42
398.186	843.2
398.565	863.54
398.944	849.98
399.323	875.97
399.701	875.51
400.08	915.74
400.458	888.85
400.837	926.36
401.215	929.07
401.594	910.99
401.972	948.96
402.351	953.03
402.729	958
403.107	977.21
403.486	954.61
403.864	983.99
404.242	1019.69
404.62	991.22
404.999	1040.93
405.377	1052.46
405.755	1061.05
406.133	1066.47
406.511	1079.35
406.889	1100.59
407.267	1117.99
407.645	1125.22
408.023	1155.05
408.401	1146.02
408.779	1204.77
409.156	1186.69
409.534	1184.43
409.912	1240.7
410.29	1229.4
410.667	1277.76
411.045	1285.9
411.422	1277.54
411.8	1292.9
412.178	1308.72
412.555	1320.7
412.933	1383.52
413.31	1370.87
413.687	1374.71
414.065	1427.59
414.442	1454.26
414.819	1440.24
415.197	1469.17
415.574	1488.83
415.951	1510.3
416.328	1510.3
416.705	1546.23
417.082	1517.3
417.46	1535.38
417.837	1552.56
418.214	1588.49
418.591	1615.16
418.967	1602.05
419.344	1634.36
419.721	1661.26
420.098	1663.52
420.475	1700.58
420.852	1694.7
421.228	1730.41
421.605	1751.65
421.982	1763.85
422.358	1818.09
422.735	1796.39
423.111	1791.2
423.488	1870.74
423.864	1874.58
424.241	1880.69
424.617	1907.8
424.994	1924.53
425.37	1936.5
425.746	1953.23
426.123	1985.99
426.499	1984.86
426.875	2053.56
427.251	2022.83
427.627	2074.35
428.003	2128.36
428.379	2155.93
428.756	2176.95
429.132	2198.87
429.507	2236.83
429.883	2236.83
430.259	2293.78
430.635	2323.61
431.011	2345.76
431.387	2407
431.763	2437.28
432.138	2479.09
432.514	2503.95
432.89	2514.34
433.265	2569.71
433.641	2595.02
434.016	2613.1
434.392	2707.33
434.767	2721.34
435.143	2748.91
435.518	2757.72
435.894	2765.18
436.269	2833.2
436.644	2889.7
437.02	2937.83
437.395	2884.05
437.77	2944.61
438.145	3018.06
438.52	3029.13
438.895	3068
439.271	3063.48
439.646	3136.47
440.021	3140.99
440.395	3203.14
440.77	3156.36
441.145	3227.77
441.52	3275.22
441.895	3235.9
442.27	3277.48
442.645	3338.95
443.019	3350.25
443.394	3362
443.769	3411.27
444.143	3383.47
444.518	3470.02
444.892	3446.75
445.267	3478.38
445.641	3516.57
446.016	3557.7
446.39	3574.43
446.764	3616.23
447.139	3605.84
447.513	3649.45
447.887	3677.93
448.262	3675.21
448.636	3732.39
449.01	3794.76
449.384	3831.37
449.758	3822.1
450.132	3882.89
450.506	3929.9
450.88	3954.75
451.254	3959.73
451.628	4003.57
452.002	4072.72
452.376	4077.46
452.75	4188.42
453.123	4182.77
453.497	4247.63
453.871	4286.95
454.244	4403.33
454.618	4427.28
454.992	4427.74
455.365	4492.37
455.739	4598.35
456.112	4649.65
456.486	4680.84
456.859	4731.01
457.232	4810.1
457.606	4805.58
457.979	4918.12
458.352	4990.21
458.725	5098.23
459.099	5065.91
459.472	5147.49
459.845	5176.87
460.218	5266.81
460.591	5338.45
460.964	5351.78
461.337	5469.97
461.71	5577.08
462.083	5666.8
462.456	5657.31
462.829	5639
463.201	5828.38
463.574	5825.44
463.947	5922.84
464.32	6033.8
464.692	6145.88
465.065	6140.69
465.438	6190.18
465.81	6310.85
466.183	6408.02
466.555	6516.27
466.928	6572.77
467.3	6590.17
467.672	6709.03
468.045	6850.95
468.417	6914.45
468.789	6955.58
469.161	7006.88
469.534	7182.01
469.906	7258.17
470.278	7320.54
470.65	7406.19
471.022	7609.8
471.394	7765.95
471.766	7873.75
472.138	7882.34
472.51	8116.23
472.882	8182.44
473.253	8318.03
473.625	8411.59
473.997	8619.04
474.369	8654.97
474.74	8787.85
475.112	8983.55
475.484	9087.28
475.855	9274.16
476.227	9300.83
476.598	9614.49
476.97	9664.66
477.341	9936.07
477.713	10061.26
478.084	10133.35
478.455	10419.67
478.827	10450.4
479.198	10785.31
479.569	10738.98
479.94	11185.53
480.311	11192.53
480.682	11565.85
481.053	11776.02
481.424	11948.22
481.795	12034.77
482.166	12260.53
482.537	12404.93
482.908	12660.74
483.279	12772.83
483.65	13024.12
484.021	13260.27
484.391	13437.9
484.762	13612.13
485.133	13650.77
485.503	13869.3
485.874	14226.35
486.244	14316.52
486.615	14654.59
486.985	14830.85
487.356	15075.14
487.726	15156.04
488.097	15474.68
488.467	15625.86
488.837	15832.63
489.207	16097.94
489.578	16354.43
489.948	16519.17
490.318	16659.05
490.688	16838.71
491.058	17057.69
491.428	17202.09
491.798	17447.28
492.168	17834.84
492.538	17836.2
492.908	18051.56
493.278	18296.52
493.648	18332.91
494.017	18593.01
494.387	18807.7
494.757	18913.23
495.126	18944.87
495.496	19148.25
495.866	19386.89
496.235	19622.82
496.605	19855.13
496.974	19936.26
497.344	20138.28
497.713	20098.96
498.082	20340.31
498.452	20605.39
498.821	20680.42
499.19	20774.43
499.559	21009.45
499.928	21166.73
500.298	21225.49
500.667	21458.48
501.036	21492.37
501.405	21654.4
501.774	21805.58
502.143	22062.3
502.512	22068.18
502.88	22385.46
503.249	22374.38
503.618	22512.23
503.987	22596.98
504.356	22844.2
504.724	23063.4
505.093	23067.7
505.462	23164.42
505.83	23408.48
506.199	23617.97
506.567	23812.54
506.936	23822.03
507.304	24124.39
507.672	24364.16
508.041	24345.63
508.409	24550.37
508.777	24757.6
509.145	24970.02
509.514	25024.03
509.882	25210.69
510.25	25377.02
510.618	25607.29
510.986	25666.73
511.354	25872.14
511.722	26139.26
512.09	26404.79
512.458	26387.84
512.826	26726.36
513.193	26776.53
513.561	26934.26
513.929	27170.19
514.297	27504.64
514.664	27627.35
515.032	27740.34
515.4	27954.8
515.767	28144.18
516.135	28320.89
516.502	28184.85
516.869	28623.71
517.237	28837.49
517.604	28783.48
517.972	29176.46
518.339	29323.81
518.706	29489.68
519.073	29642.21
519.44	29987.74
519.808	30175.99
520.175	30149.32
520.542	30779.81
520.909	30892.8
521.276	30858.23
521.643	31217.31
522.009	31496.63
522.376	31714.02
522.743	31847.58
523.11	32250.73
523.477	32522.59
523.843	32703.15
524.21	33120.32
524.577	33295
524.943	33474.43
525.31	33565.73
525.676	33947.86
526.043	34213.39
526.409	34262.66
526.776	34729.31
527.142	34768.63
527.508	35037.78
527.874	35313.25
528.241	35428.28
528.607	35549.63
528.973	35970.64
529.339	36047.7
529.705	36378.31
530.071	36657.62
530.437	36795.7
530.803	36964.28
531.169	37251.73
531.535	37278.17
531.901	37360.43
532.267	37587.77
532.632	37925.84
532.998	37926.06
533.364	38260.07
533.73	38296.22
534.095	38621.41
534.461	38729.89
534.826	38830.67
535.192	39088.52
535.557	39345.46
535.923	39240.15
536.288	39486.7
536.653	39743.87
537.019	39763.76
537.384	39850.08
537.749	40123.52
538.114	40126.91
538.479	40288.26
538.845	40640.12
539.21	40500.91
539.575	40731.41
539.94	40886.89
540.305	41191.52
540.67	41179.09
541.034	41395.8
541.399	41484.39
541.764	41566.2
542.129	41789.01
542.494	41921.89
542.858	41998.27
543.223	42019.06
543.587	42468.09
543.952	42476.23
544.316	42532.27
544.681	42503.12
545.045	42787.86
545.41	42941.3
545.774	43065.59
546.138	43208.64
546.503	43406.15
546.867	43222.42
547.231	43849.52
547.595	43700.38
547.959	43807.72
548.324	43974.95
548.688	44039.35
549.052	44261.49
549.416	44284.09
549.779	44453.35
550.143	44553.46
550.507	44932.66
550.871	44966.11
551.235	45084.97
551.599	45258.75
551.962	45402.03
552.326	45510.05
552.689	45731.51
553.053	45644.28
553.417	45785.07
553.78	46239.52
554.143	46218.05
554.507	46324.04
554.87	46541.66
555.234	46853.06
555.597	46708.43
555.96	47010.35
556.323	47170.57
556.686	47141.42
557.05	47529.2
557.413	47572.14
557.776	47591.12
558.139	47964.9
558.502	48056.19
558.865	48069.53
559.228	48516.75
559.59	48468.61
559.953	48636.29
560.316	49121.25
560.679	49063.17
561.041	49309.04
561.404	49426.33
561.767	49697.28
562.129	49512.2
562.492	49992.19
562.854	49944.73
563.217	49943.6
563.579	50136.82
563.941	50425.85
564.304	50501.1
564.666	50904.03
565.028	50786.07
565.39	51036.68
565.753	51137.69
566.115	51283.68
566.477	51468.99
566.839	51451.58
567.201	51729.32
567.563	51780.62
567.925	52008.18
568.287	52040.5
568.648	52033.26
569.01	52207.72
569.372	52349.87
569.734	52265.35
570.095	52650.2
570.457	52779.23
570.819	52792.57
571.18	52815.62
571.542	52908.5
571.903	53028.04
572.265	53193.01
572.626	53249.5
572.987	53282.27
573.349	53350.07
573.71	53501.47
574.071	53508.25
574.432	53724.52
574.794	53834.35
575.155	53827.34
575.516	53751.64
575.877	53955.93
576.238	53957.73
576.599	54130.61
576.96	54134.9
577.32	54151.18
577.681	54274.11
578.042	54313.66
578.403	54283.37
578.763	54302.58
579.124	54402.69
579.485	54548.23
579.845	54586.19
580.206	54520.2
580.566	54550.71
580.927	54531.73
581.287	54738.28
581.648	54515.91
582.008	54723.14
582.368	54704.38
582.728	54683.14
583.089	54704.15
583.449	54628.68
583.809	54711.84
584.169	54803.81
584.529	54713.87
584.889	54894.88
585.249	54795.45
585.609	54687.21
585.969	54861.66
586.329	54779.41
586.688	54848.78
587.048	54879.97
587.408	54798.62
587.768	54759.52
588.127	54747.54
588.487	54727.88
588.846	54990.47
589.206	54740.99
589.565	54745.28
589.925	54853.53
590.284	54829.8
590.643	54895.79
591.003	54930.14
591.362	54972.85
591.721	54982.34
592.08	55001.32
592.44	55021.66
592.799	55050.81
593.158	54883.36
593.517	54910.25
593.876	55038.84
594.235	54957.93
594.593	55023.02
594.952	55034.32
595.311	54992.73
595.67	55024.37
596.029	55160.64
596.387	55157.7
596.746	55198.61
597.104	55068.21
597.463	55106.63
597.822	55297.13
598.18	55137.36
598.538	55084.71
598.897	55310.92
599.255	55018.5
599.613	55392.72
599.972	55206.97
600.33	55308.88
600.688	55246.74
601.046	55285.38
601.404	55418.94
601.762	55392.72
602.12	55430.92
602.478	55441.99
602.836	55427.75
603.194	55340.52
603.552	55500.52
603.91	55355.21
604.268	55563.34
604.625	55405.83
604.983	55547.3
605.341	55442.21
605.698	55682.66
606.056	55639.27
606.413	55653.96
606.771	55661.19
607.128	55754.97
607.485	55563.12
607.843	55685.82
608.2	55777.8
608.557	55888.76
608.914	55844.24
609.272	55855.09
609.629	55958.81
609.986	56019.37
610.343	55878.81
610.7	56171.91
611.057	56055.98
611.414	56095.08
611.771	56108.19
612.127	56237.67
612.484	56109.99
612.841	56231.35
613.198	56165.36
613.554	56149.31
613.911	56265.02
614.267	56244.68
614.624	56175.98
614.98	56299.59
615.337	56427.5
615.693	56313.38
616.05	56289.88
616.406	56499.59
616.762	56385.24
617.118	56354.73
617.475	56347.95
617.831	56462.98
618.187	56402.42
618.543	56472.92
618.899	56655.29
619.255	56582.75
619.611	56523.32
619.967	56616.87
620.323	56691
620.678	56575.07
621.034	56500.27
621.39	56563.99
621.746	56506.82
622.101	56786.13
622.457	56502.98
622.812	56570.55
623.168	56644.67
623.523	56640.38
623.879	56732.35
624.234	56544.78
624.589	56555.86
624.945	56659.58
625.3	56690.77
625.655	56608.29
626.01	56696.19
626.365	56691.22
626.72	56570.55
627.075	56562.64
627.43	56660.49
627.785	56554.95
628.14	56621.62
628.495	56574.16
628.85	56613.71
629.205	56441.96
629.559	56603.31
629.914	56472.92
630.269	56492.13
630.623	56446.48
630.978	56342.53
631.332	56454.17
631.687	56471.79
632.041	56371
632.396	56404.45
632.75	56346.15
633.104	56357.44
633.459	56216.43
633.813	56179.82
634.167	56186.15
634.521	56193.16
634.875	56145.25
635.229	56166.72
635.583	56006.49
635.937	55966.27
636.291	55973.27
636.645	55994.97
636.999	55900.28
637.352	55899.38
637.706	55829.32
638.06	55920.39
638.413	55783
638.767	55771.92
639.121	55848.98
639.474	55595.43
639.828	55608.09
640.181	55742.77
640.534	55678.14
640.888	55486.51
641.241	55448.09
641.594	55496
641.947	55522.66
642.301	55498.03
642.654	55409.45
643.007	55429.11
643.36	55409.22
643.713	55304.37
644.066	55460.75
644.419	55257.13
644.771	54952.28
645.124	54744.15
645.477	54662.35
645.83	54467.55
646.182	54425.07
646.535	54256.26
646.888	54329.02
647.24	54212.42
647.593	54334.22
647.945	54295.13
648.298	54103.49
648.65	54102.59
649.002	53929.49
649.355	54074.57
649.707	53921.35
650.059	54097.39
650.411	54441.79
650.763	54497.15
651.115	54836.35
651.467	54588.68
651.819	54622.35
652.171	54545.74
652.523	54473.2
652.875	54502.8
653.227	54233.66
653.578	54509.13
653.93	54487.66
654.282	54274.56
654.633	54251.51
654.985	54284.05
655.337	54274.56
655.688	54301.45
656.039	54337.16
656.391	54090.61
656.742	54150.5
657.094	54183.94
657.445	54197.05
657.796	54135.81
658.147	54110.5
658.498	54061.91
658.849	54154.56
659.2	54045.19
659.551	53970.16
659.902	54023.95
660.253	53978.52
660.604	54050.39
660.955	53847
661.306	53956.83
661.656	53910.28
662.007	53874.12
662.358	53880.67
662.708	53812.65
663.059	53841.35
663.409	53780.56
663.76	53813.56
664.11	53848.13
664.461	53830.05
664.811	53818.75
665.161	53814.91
665.511	53715.93
665.862	53672.09
666.212	53801.58
666.562	53771.98
666.912	53715.03
667.262	53538.08
667.612	53628.02
667.962	53748.93
668.312	53563.62
668.662	53633.67
669.011	53587.8
669.361	53552.09
669.711	53465.77
670.06	53352.1
670.41	53338.32
670.76	53313.68
671.109	53485.43
671.459	53357.75
671.808	53353.23
672.157	53371.08
672.507	53162.27
672.856	53115.72
673.205	53235.94
673.554	53274.81
673.904	53203.4
674.253	53324.3
674.602	53253.35
674.951	52729.07
675.3	52542.18
675.649	53091.09
675.998	53008.61
676.346	53068.72
676.695	53238.2
677.044	52927.25
677.393	52901.94
677.741	53038.44
678.09	52972.22
678.438	52880.7
678.787	52849.29
679.135	52872.79
679.484	52693.59
679.832	52813.13
680.181	52617.66
680.529	52687.26
680.877	52577.66
681.225	52532.46
681.573	52717.77
681.922	52463.99
682.27	52391.67
682.618	52388.51
682.966	52313.94
683.314	52341.73
683.661	52199.14
684.009	52098.12
684.357	51998.92
684.705	51940.84
685.053	51989.2
685.4	51858.13
685.748	51748.53
686.095	51738.81
686.443	51672.14
686.79	51562.09
687.138	51626.72
687.485	51591.02
687.832	51427.18
688.18	51494.75
688.527	51404.35
688.874	51308.76
689.221	51193.51
689.568	51093.63
689.915	50995.55
690.262	50902.9
690.609	50868.32
690.956	50728.44
691.303	50689.8
691.65	50534.09
691.997	50527.77
692.344	50341.56
692.69	50273.08
693.037	50278.28
693.383	49936.6
693.73	50141.56
694.077	49829.48
694.423	49832.19
694.769	49872.64
695.116	49617.51
695.462	49538.87
695.808	49483.95
696.155	49567.57
696.501	49191.08
696.847	49218.42
697.193	48849.17
697.539	49095.26
697.885	48762.62
698.231	48675.61
698.577	48749.51
698.923	48559.01
699.269	48495.28
699.614	48176.87
699.96	48253.48
700.306	48157.21
700.651	47968.51
700.997	47951.79
701.342	47936.42
701.688	47799.03
702.033	47694.17
702.379	47660.72
702.724	47484.91
703.069	47611.91
703.415	47019.84
703.76	47122.21
704.105	47166.5
704.45	46964.92
704.795	46707.3
705.14	46653.75
705.485	46619.62
705.83	46345.96
706.175	46468.89
706.52	46358.84
706.865	46155.68
707.209	46089.24
707.554	45958.17
707.899	46093.31
708.243	45829.81
708.588	45790.26
708.932	45537.62
709.277	45471.4
709.621	45546.88
709.966	45288.36
710.31	45360.22
710.654	45009.04
710.998	45096.27
711.342	45127.68
711.687	44955.03
712.031	44659.45
712.375	44625.78
712.719	44678.88
713.063	44636.62
713.407	44639.11
713.75	44313.47
714.094	44347.82
714.438	44099.69
714.782	44240.7
715.125	44012.68
715.469	44208.61
715.812	43885
716.156	43619.02
716.499	43589.19
716.843	43715.97
717.186	43373.15
717.53	43488.4
717.873	43656.76
718.216	43444.34
718.559	43214.74
718.902	43035.99
719.246	42966.84
719.589	42856.1
719.932	42595.32
720.275	42715.77
720.617	42777.46
720.96	42728.65
721.303	42706.05
721.646	42680.97
721.989	42307.42
722.331	42513.74
722.674	42470.13
723.016	42381.32
723.359	42246.18
723.701	42244.37
724.044	41983.36
724.386	41793.31
724.729	41918.05
725.071	41944.26
725.413	41768
725.755	41731.61
726.097	41700.43
726.439	41433.32
726.782	41383.6
727.124	41556.25
727.465	41307.44
727.807	41333.88
728.149	41151.52
728.491	41071.07
728.833	41119.65
729.175	41065.87
729.516	40745.65
729.858	40853.9
730.199	40915.82
730.541	40764.86
730.882	40635.37
731.224	40887.79
731.565	40562.38
731.906	40557.18
732.248	40536.39
732.589	40382.95
732.93	40161.71
733.271	40260.01
733.612	40336.85
733.953	40231.99
734.294	40044.2
734.635	39867.03
734.976	40036.29
735.317	39855.28
735.658	39749.75
735.999	39675.4
736.339	39610.77
736.68	39676.53
737.021	39535.29
737.361	39352.24
737.702	39496.87
738.042	39293.71
738.383	39240.38
738.723	39228.4
739.063	39168.29
739.404	39236.54
739.744	39008.97
740.084	38834.74
740.424	39100.5
740.764	38843.1
741.104	39062.98
741.444	38754.07
741.784	38693.95
742.124	38672.26
742.464	38582.54
742.804	38600.62
743.143	38400.18
743.483	38438.14
743.823	38141.43
744.162	37985.95
744.502	38343
744.841	38206.51
745.181	38044.03
745.52	38017.81
745.86	38058.04
746.199	37930.36
746.538	37864.6
746.877	37818.95
747.216	37889
747.556	37753.64
747.895	37760.87
748.234	37475.68
748.573	37466.64
748.911	37415.34
749.25	37305.29
749.589	37288.79
749.928	37253.54
750.267	37257.16
750.605	37081.12
750.944	36974.68
751.283	36872.76
751.621	36950.27
751.96	36712.54
752.298	36603.84
752.636	36683.16
752.975	36543.05
753.313	36374.92
753.651	36504.18
753.989	36297.86
754.327	36139.22
754.666	36007.92
755.004	35947.36
755.342	36166.56
755.679	35947.81
756.017	35783.52
756.355	35762.96
756.693	35616.3
757.031	35653.13
757.368	35453.14
757.706	35367.49
758.044	35282.52
758.381	35275.97
758.719	35235.97
759.056	34992.36
759.394	34935.64
759.731	34742.65
760.068	34836.2
760.405	34574.97
760.743	34365.03
761.08	34526.15
761.417	34331.13
761.754	34289.55
762.091	34082.78
762.428	33895.89
762.765	33857.92
763.102	33937.7
763.438	33755.78
763.775	33651.15
764.112	33592.62
764.449	33571.38
764.785	33335
765.122	33233.76
765.458	32970.49
765.795	33153.08
766.131	32985.4
766.467	32857.5
766.804	32765.3
767.14	32683.72
767.476	32534.57
767.812	32274.01
768.148	32245.31
768.485	32263.16
768.821	31982.72
769.157	32000.12
769.492	31916.51
769.828	31789.05
770.164	31554.93
770.5	31487.59
770.836	31356.52
771.171	31285.79
771.507	31184.1
771.842	31040.6
772.178	31147.94
772.513	30845.35
772.849	30858.68
773.184	30608.29
773.519	30616.88
773.855	30260.96
774.19	30296.66
774.525	30213.27
774.86	30179.83
775.195	30139.83
775.53	29994.3
775.865	29837.24
776.2	29617.58
776.535	29478.83
776.87	29463.69
777.205	29260.08
777.539	29200.19
777.874	29168.56
778.209	28980.09
778.543	28889.01
778.878	28705.52
779.212	28725.18
779.547	28628.91
779.881	28583.49
780.215	28378.75
780.55	28481.57
780.884	28109.83
781.218	28089.49
781.552	28151.86
781.886	27901.7
782.22	27909.61
782.554	27700.57
782.888	27580.57
783.222	27403.63
783.556	27310.3
783.889	27291.77
784.223	27065.33
784.557	27033.02
784.89	27035.96
785.224	26807.04
785.557	26852.91
785.891	26733.59
786.224	26617.89
786.558	26551.67
786.891	26318.23
787.224	26161.63
787.557	26123.89
787.891	26079.37
788.224	26090.67
788.557	25977.23
788.89	25868.08
789.223	25906.04
789.556	25678.48
789.888	25581.53
790.221	25580.17
790.554	25335.66
790.887	25277.81
791.219	25259.96
791.552	25170.69
791.884	25011.15
792.217	24903.81
792.549	24863.81
792.882	24697.94
793.214	24512.41
793.546	24701.55
793.879	24467.44
794.211	24284.16
794.543	24500.43
794.875	24357.16
795.207	24320.09
795.539	24033.32
795.871	24175.92
796.203	23910.16
796.535	23806.66
796.867	23768.02
797.198	23666.33
797.53	23677.17
797.862	23527.8
798.193	23481.02
798.525	23430.17
798.856	23400.57
799.188	23181.82
799.519	23130.3
799.85	23101.37
800.182	22979.34
800.513	23034.48
800.844	22916.52
801.175	22877.65
801.506	22831.55
801.837	22661.16
802.168	22610.54
802.499	22524.44
802.83	22473.36
803.161	22434.27
803.491	22311.79
803.822	22370.77
804.153	22273.6
804.483	22120.38
804.814	22012.81
805.145	21969.87
805.475	21961.06
805.805	21968.07
806.136	21874.06
806.466	21811.01
806.796	21703.67
807.126	21599.04
807.457	21439.49
807.787	21590.45
808.117	21364.47
808.447	21344.58
808.777	21364.92
809.107	21265.03
809.436	21267.75
809.766	21192.95
810.096	21076.79
810.426	21046.73
810.755	21040.63
811.085	20887.64
811.414	20862.56
811.744	20680.42
812.073	20668.89
812.403	20670.7
812.732	20569.69
813.061	20457.37
813.39	20316.81
813.719	20303.25
814.049	20486.75
814.378	20398.39
814.707	20262.57
815.036	20321.1
815.365	20120.21
815.693	20019.87
816.022	19939.42
816.351	19870.27
816.68	19879.76
817.008	19842.02
817.337	19649.48
817.665	19657.84
817.994	19705.3
818.322	19777.84
818.651	19573.1
818.979	19589.15
819.307	19735.13
819.636	19490.39
819.964	19424.63
820.292	19480.67
820.62	19404.74
820.948	19327.68
821.276	19471.63
821.604	19279.32
821.932	19390.73
822.259	19376.5
822.587	19358.87
822.915	19360.45
823.243	19357.06
823.57	19342.82
823.898	19349.6
824.225	19150.97
824.553	19213.79
824.88	19288.14
825.207	19327.68
825.535	19224.86
825.862	19229.16
826.189	19317.06
826.516	19328.14
826.843	19332.88
827.17	19329.27
827.497	19391.19
827.824	19323.16
828.151	19334.46
828.478	19184.18
828.805	19207.01
829.131	19197.97
829.458	19221.47
829.785	18982.16
830.111	19178.31
830.438	19299.44
830.764	19208.36
831.09	19251.98
831.417	19058.09
831.743	19266.22
832.069	19122.27
832.395	19030.97
832.722	19132.43
833.048	18962.95
833.374	18981.03
833.7	19011.76
834.026	19018.54
834.351	19064.87
834.677	18946.22
835.003	19054.7
835.329	19025.77
835.654	18989.84
835.98	18776.51
836.306	18860.13
836.631	18734.71
836.956	18936.28
837.282	18839.56
837.607	18750.07
837.932	18659.23
838.258	18702.84
838.583	18546.01
838.908	18575.84
839.233	18613.35
839.558	18520.25
839.883	18406.35
840.208	18485.67
840.533	18428.72
840.858	18464.66
841.182	18319.57
841.507	18380.82
841.832	18245.45
842.156	18215.62
842.481	18158.45
842.805	18129.52
843.13	18123.65
843.454	18023.76
843.778	18094.27
844.103	18009.75
844.427	17894.5
844.751	17953.48
845.075	17879.36
845.399	17790.1
845.723	17702.87
846.047	17738.57
846.371	17557.56
846.695	17574.74
847.019	17511.01
847.343	17422.65
847.666	17284.8
847.99	17168.87
848.313	17161.87
848.637	17059.95
848.96	17106.5
849.284	16948.31
849.607	16916.22
849.931	16816.56
850.254	16731.14
850.577	16627.42
850.9	16516.68
851.223	16526.18
851.546	16338.16
851.869	16330.7
852.192	16386.29
852.515	16273.98
852.838	16089.8
853.161	16145.85
853.483	16034.66
853.806	15974.1
854.129	15980.43
854.451	15861.11
854.774	15901.79
855.096	15844.16
855.419	15751.51
855.741	15777.49
856.063	15652.98
856.385	15673.99
856.708	15554.45
857.03	15529.37
857.352	15514
857.674	15301.35
857.996	15360.78
858.318	15320.56
858.64	15236.27
858.961	15288.02
859.283	15189.49
859.605	15169.83
859.926	15144.52
860.248	15125.08
860.57	15038.98
860.891	14972.32
861.212	14951.53
861.534	14890.96
861.855	14979.55
862.176	14878.54
862.498	14888.03
862.819	14833.11
863.14	14829.5
863.461	14714.92
863.782	14656.62
864.103	14613.68
864.424	14640.12
864.745	14756.73
865.065	14576.4
865.386	14495.04
865.707	14527.58
866.027	14561.48
866.348	14454.82
866.668	14493.69
866.989	14535.95
867.309	14342.96
867.63	14403.07
867.95	14326.91
868.27	14290.3
868.59	14303.18
868.91	14293.47
869.23	14205.11
869.55	14151.77
869.87	14232
870.19	14168.5
870.51	14098.67
870.83	14077.2
871.15	14061.83
871.469	13992.68
871.789	14050.53
872.109	14068.61
872.428	13951.33
872.748	14028.61
873.067	14089.63
873.386	14015.51
873.706	13969.41
874.025	13848.96
874.344	13809.18
874.663	13801.05
874.982	13855.29
875.301	13754.95
875.62	13820.26
875.939	13818.9
876.258	13667.72
876.577	13695.97
876.896	13643.09
877.214	13590.21
877.533	13679.92
877.852	13582.75
878.17	13634.05
878.489	13537.55
878.807	13541.85
879.125	13526.03
879.444	13530.77
879.762	13504.11
880.08	13423.66
880.398	13363.77
880.716	13398.57
881.034	13374.85
881.352	13310.21
881.67	13316.09
881.988	13306.83
882.306	13275.19
882.624	13200.84
882.941	13158.35
883.259	13192.48
883.577	13089.88
883.894	13084.46
884.212	13109.99
884.529	12947.29
884.846	12998.36
885.164	12988.19
885.481	12875.65
885.798	12919.72
886.115	12813.73
886.432	12919.94
886.75	12823
887.067	12811.25
887.383	12762.43
887.7	12758.82
888.017	12637.01
888.334	12677.92
888.651	12606.05
888.967	12653.06
889.284	12437.47
889.6	12448.99
889.917	12460.52
890.233	12441.76
890.55	12414.87
890.866	12445.6
891.182	12332.16
891.498	12344.82
891.815	12233.18
892.131	12244.03
892.447	12190.24
892.763	12110.47
893.079	12107.76
893.395	12040.42
893.71	12010.59
894.026	11967.88
894.342	12021.66
894.657	11848.78
894.973	11889.24
895.289	11881.33
895.604	11901.66
895.92	11751.39
896.235	11655.34
896.55	11741.89
896.865	11609.24
897.181	11629.81
897.496	11633.42
897.811	11512.97
898.126	11512.75
898.441	11408.57
898.756	11434.78
899.071	11371.06
899.386	11311.85
899.7	11311.62
900.015	11289.93
900.33	11139.88
900.644	11117.05
900.959	11159.31
901.273	11084.74
901.588	11006.77
901.902	10977.39
902.216	10996.6
902.531	10886.1
902.845	10900.56
903.159	10859.43
903.473	10833.9
903.787	10719.1
904.101	10743.05
904.415	10685.43
904.729	10584.64
905.042	10547.58
905.356	10531.08
905.67	10475.71
905.984	10518.88
906.297	10395.26
906.611	10334.47
906.924	10400.91
907.237	10350.29
907.551	10312.78
907.864	10238.43
908.177	10251.54
908.491	10174.7
908.804	10158.21
909.117	10089.73
909.43	10046.35
909.743	10000.7
910.056	9953.47
910.368	9961.15
910.681	9844.09
910.994	9855.84
911.307	9772.68
911.619	9713.47
911.932	9803.87
912.244	9630.76
912.557	9597.09
912.869	9576.08
913.181	9549.86
913.494	9582.86
913.806	9512.57
914.118	9430.99
914.43	9312.81
914.742	9365.01
915.054	9295.86
915.366	9274.16
915.678	9214.96
915.99	9180.38
916.302	9160.49
916.613	9070.78
916.925	9100.16
917.236	9106.03
917.548	8937.45
917.859	8993.72
918.171	8933.15
918.482	8854.96
918.794	8851.35
919.105	8872.14
919.416	8745.82
919.727	8768.19
920.038	8712.14
920.349	8628.76
920.66	8660.39
920.971	8630.79
921.282	8555.99
921.593	8523
921.903	8475.31
922.214	8430.34
922.525	8382.21
922.835	8389.67
923.146	8301.08
923.456	8320.74
923.767	8237.35
924.077	8184.02
924.387	8161.65
924.697	8158.26
925.008	8144.25
925.318	8068.77
925.628	8042.78
925.938	8035.55
926.248	7937.25
926.558	7923.46
926.867	7916.68
927.177	7823.13
927.487	7842.79
927.796	7776.12
928.106	7746.29
928.416	7710.14
928.725	7748.55
929.034	7658.16
929.344	7628.1
929.653	7636.69
929.962	7546.98
930.271	7543.36
930.581	7462.01
930.89	7448.45
931.199	7409.58
931.508	7393.76
931.817	7370.26
932.125	7351.05
932.434	7302.24
932.743	7205.06
933.051	7238.28
933.36	7159.64
933.669	7123.94
933.977	7169.36
934.286	7133.65
934.594	7157.83
934.902	7042.13
935.21	7027.89
935.519	6967.56
935.827	6958.07
936.135	6817.28
936.443	6867.45
936.751	6863.15
937.059	6838.07
937.367	6754
937.674	6767.79
937.982	6709.48
938.29	6683.72
938.597	6624.06
938.905	6601.24
939.213	6584.06
939.52	6547.91
939.827	6612.99
940.135	6488.25
940.442	6488.25
940.749	6477.85
941.056	6456.61
941.363	6430.62
941.67	6374.8
941.977	6357.86
942.284	6295.03
942.591	6261.13
942.898	6268.82
943.205	6250.06
943.511	6149.5
943.818	6148.6
944.125	6161.25
944.431	6127.8
944.738	6108.14
945.044	6066.56
945.35	6035.6
945.657	5983.4
945.963	5973.46
946.269	5922.39
946.575	5933.46
946.881	5911.77
947.187	5892.78
947.493	5839.9
947.799	5848.04
948.105	5800.36
948.41	5767.59
948.716	5796.74
949.022	5738.21
949.327	5725.33
949.633	5639.68
949.938	5678.33
950.244	5586.8
950.549	5569.18
950.854	5577.54
951.16	5581.83
951.465	5519.69
951.77	5427.94
952.075	5515.84
952.38	5460.7
952.685	5466.58
952.99	5374.6
953.294	5388.16
953.599	5368.73
953.904	5318.11
954.209	5282.63
954.513	5317.43
954.818	5251.67
955.122	5239.24
955.426	5213.25
955.731	5182.97
956.035	5148.17
956.339	5119.7
956.643	5127.83
956.948	5072.69
957.252	5104.1
957.556	5092.35
957.86	4993.82
958.163	5023.88
958.467	5025.01
958.771	4984.78
959.075	4951.11
959.378	4920.83
959.682	4947.5
959.985	4872.02
960.289	4858.91
960.592	4799.03
960.896	4784.79
961.199	4769.42
961.502	4813.94
961.805	4743.89
962.108	4697.11
962.411	4697.79
962.714	4672.7
963.017	4604.68
963.32	4594.74
963.623	4624.57
963.926	4600.39
964.228	4583.21
964.531	4566.49
964.833	4555.64
965.136	4458.24
965.438	4491.24
965.741	4404.91
966.043	4477.9
966.345	4439.94
966.648	4412.6
966.95	4414.86
967.252	4378.92
967.554	4372.37
967.856	4298.25
968.158	4287.4
968.46	4338.7
968.761	4290.57
969.063	4265.71
969.365	4246.5
969.666	4274.97
969.968	4166.73
970.269	4141.64
970.571	4199.95
970.872	4183.68
971.174	4113.17
971.475	4080.85
971.776	4084.24
972.077	4054.41
972.378	4066.62
972.679	4019.16
972.98	3990.23
973.281	4007.18
973.582	3977.13
973.883	4013.06
974.183	3944.36
974.484	3910.01
974.785	3907.52
975.085	3876.34
975.386	3888.32
975.686	3849.9
975.986	3823.68
976.287	3848.77
976.587	3829.56
976.887	3759.05
977.187	3769.45
977.487	3737.13
977.787	3751.82
978.087	3732.61
978.387	3694.42
978.687	3694.87
978.987	3645.84
979.286	3651.03
979.586	3597.7
979.885	3635.44
980.185	3579.17
980.484	3621.43
980.784	3529.46
981.083	3574.88
981.382	3564.03
981.682	3537.36
981.981	3526.74
982.28	3490.36
982.579	3420.76
982.878	3472.73
983.177	3428.67
983.475	3437.25
983.774	3368.78
984.073	3366.97
984.372	3346.41
984.67	3391.38
984.969	3333.98
985.267	3328.78
985.566	3303.02
985.864	3280.87
986.162	3287.2
986.461	3265.51
986.759	3253.3
987.057	3250.82
987.355	3204.72
987.653	3216.92
987.951	3184.15
988.249	3201.55
988.547	3136.92
988.844	3147.09
989.142	3118.17
989.44	3101.22
989.737	3095.34
990.035	3063.7
990.332	3073.42
990.63	3045.63
990.927	3065.29
991.224	3042.24
991.521	3029.13
991.819	3017.38
992.116	2990.49
992.413	2975.12
992.71	2935.12
993.006	2971.28
993.303	2946.87
993.6	2878.4
993.897	2906.42
994.193	2861.22
994.49	2860.77
994.787	2862.35
995.083	2828.91
995.379	2820.77
995.676	2793.43
995.972	2790.94
996.268	2783.03
996.565	2729.25
996.861	2748.68
997.157	2697.39
997.453	2741
997.749	2724.05
998.044	2667.78
998.34	2708.69
998.636	2676.82
998.932	2658.74
999.227	2629.59
999.523	2642.02
999.818	2618.97
1000.114	2578.29
1000.409	2574.23
1000.704	2578.29
1001	2584.4
1001.295	2529.93
1001.59	2516.83
1001.885	2531.29
1002.18	2468.92
1002.475	2505.75
1002.77	2436.38
1003.065	2472.76
1003.359	2402.03
1003.654	2426.43
1003.949	2420.78
1004.243	2409.71
1004.538	2365.42
1004.832	2381.69
1005.127	2351.41
1005.421	2329.49
1005.715	2359.77
1006.009	2308.7
1006.304	2286.1
1006.598	2275.93
1006.892	2282.93
1007.186	2270.28
1007.48	2227.12
1007.773	2236.83
1008.067	2230.51
1008.361	2196.38
1008.655	2186.21
1008.948	2190.96
1009.242	2159.55
1009.535	2169.26
1009.829	2144.86
1010.122	2140.57
1010.415	2112.09
1010.708	2099.89
1011.001	2089.49
1011.295	2089.27
1011.588	2046.1
1011.881	2035.94
1012.173	2066.67
1012.466	2026.9
1012.759	2023.05
1013.052	2006.56
1013.344	2006.33
1013.637	2018.08
1013.93	1975.6
1014.222	1973.79
1014.514	1934.02
1014.807	1945.32
1015.099	1929.5
1015.391	1913.9
1015.683	1903.51
1015.976	1898.54
1016.268	1906
1016.56	1864.87
1016.851	1840.69
1017.143	1850.18
1017.435	1820.12
1017.727	1818.09
1018.018	1789.39
1018.31	1815.38
1018.602	1780.35
1018.893	1776.05
1019.185	1751.65
1019.476	1756.39
1019.767	1730.86
1020.058	1688.15
1020.35	1715.94
1020.641	1674.14
1020.932	1670.97
1021.223	1666.45
1021.514	1652.44
1021.804	1630.97
1022.095	1657.64
1022.386	1621.03
1022.677	1608.83
1022.967	1609.28
1023.258	1582.84
1023.548	1608.38
1023.839	1574.7
1024.129	1567.92
1024.419	1528.83
1024.709	1524.76
1025	1527.02
1025.29	1530.19
1025.58	1490.19
1025.87	1513.24
1026.16	1511.43
1026.449	1487.25
1026.739	1468.27
1027.029	1473.69
1027.319	1423.3
1027.608	1428.95
1027.898	1431.88
1028.187	1407.25
1028.477	1406.8
1028.766	1375.16
1029.055	1403.41
1029.344	1384.88
1029.634	1379.23
1029.923	1353.69
1030.212	1348.95
1030.501	1336.07
1030.79	1309.4
1031.078	1306.01
1031.367	1320.93
1031.656	1304.43
1031.945	1295.16
1032.233	1288.84
1032.522	1288.84
1032.81	1251.32
1033.099	1244.09
1033.387	1263.98
1033.675	1264.43
1033.963	1244.77
1034.251	1222.4
1034.54	1214.26
1034.828	1211.78
1035.116	1192.12
1035.403	1186.24
1035.691	1183.53
1035.979	1175.62
1036.267	1176.52
1036.554	1170.42
1036.842	1186.24
1037.129	1129.07
1037.417	1126.35
1037.704	1133.81
1037.992	1095.62
1038.279	1110.54
1038.566	1096.07
1038.853	1096.07
1039.14	1096.07
