Data from White_paper_FLMS001491_053.txt Node
Date: Tue Feb 07 10:35:16 GMT 2017
User: dcchb
Spectrometer: FLMS00149
Trigger mode: 0
Integration Time (sec): 2.000000E-2
Scans to average: 10
Electric dark correction enabled: true
Nonlinearity correction enabled: false
Boxcar width: 0
XAxis mode: Wavelengths
Number of Pixels in Spectrum: 2048
>>>>>Begin Spectral Data<<<<<
341.393	-6.17
341.776	-6.17
342.16	-6.17
342.543	-59.96
342.927	-76.9
343.31	-76.45
343.693	-66.51
344.077	-60.18
344.46	-62.44
344.843	-44.82
345.226	-41.2
345.61	-28.54
345.993	-2.56
346.376	-22.22
346.759	6.48
347.142	22.53
347.525	39.93
347.908	66.14
348.291	55.52
348.674	91
349.057	123.32
349.44	130.77
349.823	120.38
350.206	168.06
350.588	223.2
350.971	243.31
351.354	262.75
351.737	247.38
352.119	267.49
352.502	310.2
352.884	316.08
353.267	298
353.65	324.21
354.032	345.01
354.414	328.51
354.797	337.77
355.179	362.41
355.562	361.95
355.944	347.04
356.326	355.4
356.709	352.24
357.091	354.95
357.473	372.35
357.855	384.55
358.238	356.76
358.62	361.28
359.002	370.09
359.384	382.07
359.766	374.16
360.148	385
360.53	363.76
360.912	376.19
361.294	359.47
361.676	374.61
362.057	352.24
362.439	375.74
362.821	366.93
363.203	376.64
363.584	352.46
363.966	363.99
364.348	345.68
364.729	344.78
365.111	380.03
365.493	356.53
365.874	366.47
366.256	370.09
366.637	367.6
367.019	360.6
367.4	357.21
367.781	351.33
368.163	364.67
368.544	364.89
368.925	355.63
369.306	360.6
369.688	351.11
370.069	359.02
370.45	363.08
370.831	365.34
371.212	378.9
371.593	380.71
371.974	359.24
372.355	356.53
372.736	372.35
373.117	375.74
373.498	372.8
373.879	384.33
374.26	356.76
374.641	373.93
375.021	370.09
375.402	354.5
375.783	368.28
376.163	407.83
376.544	403.31
376.925	388.85
377.305	390.88
377.686	380.71
378.066	385.46
378.447	402.63
378.827	400.37
379.208	397.66
379.588	405.12
379.968	429.97
380.349	423.42
380.729	413.93
381.109	408.51
381.489	401.27
381.87	410.09
382.25	416.64
382.63	411.9
383.01	450.54
383.39	420.26
383.77	432.23
384.15	440.6
384.53	436.98
384.91	458
385.29	455.96
385.67	450.99
386.049	458.9
386.429	457.32
386.809	455.28
387.189	458.22
387.568	465.23
387.948	489.41
388.328	472.69
388.707	478.33
389.087	490.76
389.466	504.32
389.846	524.89
390.225	517.43
390.605	489.63
390.984	506.58
391.363	504.32
391.743	512.23
392.122	544.32
392.501	520.37
392.881	541.61
393.26	534.38
393.639	528.05
394.018	548.84
394.397	561.95
394.776	573.7
395.155	551.78
395.534	571.21
395.913	568.5
396.292	554.04
396.671	604.89
397.05	594.04
397.429	566.02
397.808	593.13
398.186	610.76
398.565	600.37
398.944	626.35
399.323	616.86
399.701	631.55
400.08	636.97
400.458	650.31
400.837	675.17
401.215	679.01
401.594	674.94
401.972	669.52
402.351	667.26
402.729	701.61
403.107	724.66
403.486	722.62
403.864	700.93
404.242	737.99
404.62	744.09
404.999	768.27
405.377	789.06
405.755	795.39
406.133	802.39
406.511	818.66
406.889	842.62
407.267	865.9
407.645	878.1
408.023	896.85
408.401	902.05
408.779	940.24
409.156	956.74
409.534	987.7
409.912	1014.59
410.29	1036.29
410.667	1056.85
411.045	1097.98
411.422	1122.39
411.8	1136.62
412.178	1144.31
412.555	1179.11
412.933	1221.14
413.31	1209.16
413.687	1271.08
414.065	1288.48
414.442	1335.94
414.819	1377.97
415.197	1392.89
415.574	1427.24
415.951	1456.16
416.328	1483.05
416.705	1493.9
417.082	1507.69
417.46	1555.59
417.837	1602.15
418.214	1606.67
418.591	1638.98
418.967	1640.79
419.344	1683.5
419.721	1716.49
420.098	1723.73
420.475	1762.59
420.852	1792.42
421.228	1827.9
421.605	1813.22
421.982	1895.92
422.358	1883.04
422.735	1929.82
423.111	1914.91
423.488	1979.76
423.864	1992.42
424.241	2072.42
424.617	2062.25
424.994	2080.78
425.37	2090.95
425.746	2114.22
426.123	2155.35
426.499	2184.5
426.875	2228.12
427.251	2268.8
427.627	2275.35
428.003	2304.05
428.379	2378.17
428.756	2400.54
429.132	2411.39
429.507	2442.35
429.883	2506.3
430.259	2560.99
430.635	2579.07
431.011	2565.96
431.387	2671.72
431.763	2672.18
432.138	2700.88
432.514	2766.41
432.89	2818.84
433.265	2835.11
433.641	2897.71
434.016	2939.29
434.392	2979.96
434.767	3056.35
435.143	2989.46
435.518	3059.96
435.894	3118.27
436.269	3162.56
436.644	3175.67
437.02	3243.01
437.395	3271.71
437.77	3329.79
438.145	3352.38
438.52	3385.83
438.895	3435.77
439.271	3428.77
439.646	3477.58
440.021	3591.93
440.395	3579.95
440.77	3520.29
441.145	3583.11
441.52	3652.94
441.895	3688.87
442.27	3717.8
442.645	3659.95
443.019	3752.83
443.394	3730.23
443.769	3787.17
444.143	3770.9
444.518	3839.15
444.892	3836.89
445.267	3855.87
445.641	3923.89
446.016	3900.17
446.39	3925.93
446.764	3982.2
447.139	3977.23
447.513	4020.39
447.887	4055.64
448.262	4081.18
448.636	4111.01
449.01	4167.05
449.384	4173.83
449.758	4191.46
450.132	4249.99
450.506	4270.33
450.88	4262.42
451.254	4300.38
451.628	4399.36
452.002	4394.39
452.376	4448.4
452.75	4527.49
453.123	4541.05
453.497	4574.5
453.871	4664.67
454.244	4725.91
454.618	4781.05
454.992	4839.35
455.365	4817.43
455.739	4988.95
456.112	4970.19
456.486	4978.1
456.859	5063.75
457.232	5191.66
457.606	5160.25
457.979	5221.26
458.352	5374.25
458.725	5414.93
459.099	5451.31
459.472	5582.61
459.845	5628.71
460.218	5694.47
460.591	5746.67
460.964	5742.15
461.337	5864.18
461.71	5949.38
462.083	6076.61
462.456	6071.41
462.829	6058.3
463.201	6203.16
463.574	6229.37
463.947	6312.76
464.32	6485.63
464.692	6501.45
465.065	6555.69
465.438	6639.53
465.81	6765.18
466.183	6758.62
466.555	6926.53
466.928	6990.03
467.3	6983.47
467.672	7133.53
468.045	7373.07
468.417	7325.61
468.789	7414.2
469.161	7487.87
469.534	7622.33
469.906	7765.6
470.278	7855.77
470.65	7920.63
471.022	8097.57
471.394	8218.7
471.766	8284.01
472.138	8479.03
472.51	8611.45
472.882	8737.55
473.253	8789.75
473.625	8997.66
473.997	9119.69
474.369	9165.56
474.74	9304.32
475.112	9486.69
475.484	9617.3
475.855	9800.58
476.227	9868.6
476.598	10149.04
476.97	10216.38
477.341	10452.76
477.713	10585.41
478.084	10754
478.455	11026.31
478.827	11023.59
479.198	11381.33
479.569	11398.27
479.94	11737.7
480.311	11830.8
480.682	12043.68
481.053	12247.74
481.424	12481.41
481.795	12631.01
482.166	12827.61
482.537	13019.7
482.908	13282.74
483.279	13433.93
483.65	13568.84
484.021	13934.7
484.391	14090.18
484.762	14174.92
485.133	14263.74
485.503	14462.83
485.874	14845.64
486.244	14963.6
486.615	15208.34
486.985	15397.04
487.356	15669.8
487.726	15724.04
488.097	16184.59
488.467	16090.35
488.837	16472.49
489.207	16706.83
489.578	16794.52
489.948	17054.4
490.318	17258.91
490.688	17447.38
491.058	17638.11
491.428	17862.96
491.798	17967.59
492.168	18332.1
492.538	18483.29
492.908	18644.18
493.278	18878.3
493.648	18961.69
494.017	19120.1
494.387	19376.6
494.757	19355.35
495.126	19632.18
495.496	19606.65
495.866	19843.25
496.235	20043.7
496.605	20278.27
496.974	20397.81
497.344	20600.52
497.713	20667.18
498.082	20762.77
498.452	21103.1
498.821	21125.25
499.19	21161.86
499.559	21433.94
499.928	21572.02
500.298	21650.89
500.667	21876.87
501.036	21858.11
501.405	22080.7
501.774	22093.36
502.143	22433.46
502.512	22371.32
502.88	22723.17
503.249	22663.51
503.618	22851.98
503.987	22989.61
504.356	23084.97
504.724	23358.19
505.093	23364.06
505.462	23595.92
505.83	23696.93
506.199	23892.63
506.567	24180.76
506.936	24142.57
507.304	24456.91
507.672	24512.96
508.041	24681.77
508.409	24802.67
508.777	24878.6
509.145	25128.99
509.514	25257.8
509.882	25353.16
510.25	25397
510.618	25693.04
510.986	25831.11
511.354	26085.8
511.722	26286.7
512.09	26406.47
512.458	26464.77
512.826	26710.41
513.193	26875.61
513.561	26962.38
513.929	27238.54
514.297	27351.07
514.664	27589.49
515.032	27665.42
515.4	27942.7
515.767	28013.43
516.135	28235.8
516.502	28175.69
516.869	28557.6
517.237	28609.8
517.604	28669.68
517.972	29022.67
518.339	29134.3
518.706	29266.73
519.073	29351.02
519.44	29640.96
519.808	29937.67
520.175	30038.69
520.542	30386.93
520.909	30462.41
521.276	30506.92
521.643	30920.92
522.009	31127.25
522.376	31227.81
522.743	31482.04
523.11	31764.52
523.477	31949.15
523.843	32261
524.21	32524.95
524.577	32727.2
524.943	32853.53
525.31	33009.68
525.676	33299.62
526.043	33453.29
526.409	33654.64
526.776	33910.22
527.142	34099.37
527.508	34192.7
527.874	34557.21
528.241	34723.54
528.607	34825.23
528.973	35180.25
529.339	35171.66
529.705	35571.88
530.071	35758.76
530.437	35965.76
530.803	36094.8
531.169	36331.86
531.535	36308.81
531.901	36591.96
532.267	36622.24
532.632	36905.17
532.998	37099.29
533.364	37327.31
533.73	37320.98
534.095	37715.32
534.461	37779.95
534.826	37928.2
535.192	38159.83
535.557	38346.94
535.923	38408.41
536.288	38345.36
536.653	38657.44
537.019	38633.04
537.384	38933.59
537.749	39078.9
538.114	39263.76
538.479	39274.15
538.845	39403.87
539.21	39306.69
539.575	39689.06
539.94	39866.68
540.305	40090.63
540.67	39901.71
541.034	40152.09
541.399	40448.81
541.764	40529.26
542.129	40705.07
542.494	40849.93
542.858	40876.14
543.223	41174.44
543.587	41229.13
543.952	41129.7
544.316	41338.05
544.681	41422.8
545.045	41754.09
545.41	41826.17
545.774	41900.3
546.138	42045.83
546.503	42171.93
546.867	42250.34
547.231	42596.55
547.595	42589.32
547.959	42752.93
548.324	42799.71
548.688	42997.22
549.052	43087.61
549.416	43249.41
549.779	43258.9
550.143	43465.45
550.507	43619.12
550.871	43871.77
551.235	43820.25
551.599	44191.08
551.962	44243.96
552.326	44327.13
552.689	44481.02
553.053	44421.81
553.417	44465.43
553.78	45071.74
554.143	44910.84
554.507	44923.72
554.87	45270.15
555.234	45553.99
555.597	45436.93
555.96	45698.84
556.323	45795.34
556.686	45890.25
557.05	46211.14
557.413	46198.71
557.776	46281.88
558.139	46600.06
558.502	46632.15
558.865	46745.59
559.228	47070.1
559.59	47066.26
559.953	47224.9
560.316	47665.12
560.679	47548.96
561.041	47665.57
561.404	47917.99
561.767	48201.83
562.129	48065.33
562.492	48514.13
562.854	48527.69
563.217	48566.56
563.579	48609.72
563.941	48934.69
564.304	49097.62
564.666	49305.98
565.028	49289.03
565.39	49443.6
565.753	49784.38
566.115	49746.42
566.477	49945.96
566.839	50060.31
567.201	50267.31
567.563	50415.78
567.925	50524.7
568.287	50566.74
568.648	50618.03
569.01	50867.52
569.372	50976.22
569.734	51035.88
570.095	51312.03
570.457	51472.7
570.819	51397.67
571.18	51568.97
571.542	51702.52
571.903	51727.38
572.265	51869.53
572.626	51922.18
572.987	52024.1
573.349	52127.82
573.71	52241.72
574.071	52403.3
574.432	52516.51
574.794	52704.08
575.155	52653.01
575.516	52536.85
575.877	52754.25
576.238	52810.29
576.599	53056.61
576.96	53077.86
577.32	53160.79
577.681	53208.02
578.042	53342.71
578.403	53242.37
578.763	53362.14
579.124	53438.98
579.485	53534.79
579.845	53626.09
580.206	53564.85
580.566	53613.21
580.927	53623.38
581.287	53815.46
581.648	53665.18
582.008	53873.54
582.368	53839.64
582.728	53903.37
583.089	53827.67
583.449	53875.35
583.809	53885.74
584.169	54016.81
584.529	53975.23
584.889	54211.61
585.249	54021.56
585.609	53924.61
585.969	54132.52
586.329	54015.23
586.688	54143.82
587.048	54257.26
587.408	54193.98
587.768	54124.38
588.127	54102.01
588.487	54148.56
588.846	54271.27
589.206	54133.2
589.565	54150.14
589.925	54351.95
590.284	54214.1
590.643	54245.51
591.003	54332.06
591.362	54485.5
591.721	54433.98
592.08	54419.29
592.44	54455.22
592.799	54576.35
593.158	54431.04
593.517	54478.72
593.876	54547.87
594.235	54513.07
594.593	54588.1
594.952	54598.49
595.311	54534.99
595.67	54572.28
596.029	54774.08
596.387	54833.29
596.746	54874.19
597.104	54681.2
597.463	54685.05
597.822	54849.11
598.18	54819.96
598.538	54713.74
598.897	54918.94
599.255	54650.24
599.613	55123.23
599.972	54864.7
600.33	55071.25
600.688	54895.89
601.046	55032.38
601.404	55017.92
601.762	54988.99
602.12	55201.64
602.478	55149.89
602.836	55193.73
603.194	55083.68
603.552	55171.13
603.91	55038.48
604.268	55143.56
604.625	55059.5
604.983	55309.66
605.341	55109.21
605.698	55232.83
606.056	55286.84
606.413	55236.44
606.771	55339.04
607.128	55381.98
607.485	55287.74
607.843	55356.44
608.2	55494.06
608.557	55502.42
608.914	55400.73
609.272	55553.04
609.629	55575.64
609.986	55665.81
610.343	55555.76
610.7	55706.26
611.057	55728.41
611.414	55650.22
611.771	55714.62
612.127	55842.98
612.484	55742.42
612.841	55856.31
613.198	55805.24
613.554	55803.66
613.911	55922.07
614.267	55854.28
614.624	55920.94
614.98	55923.88
615.337	56084.78
615.693	55952.36
616.05	55951.68
616.406	56094.05
616.762	56008.63
617.118	56023.77
617.475	56010.43
617.831	56139.92
618.187	56144.67
618.543	56108.51
618.899	56308.96
619.255	56239.13
619.611	56187.83
619.967	56287.71
620.323	56308.73
620.678	56294.49
621.034	56100.15
621.39	56183.76
621.746	56234.83
622.101	56460.37
622.457	56207.72
622.812	56305.57
623.168	56423.98
623.523	56304.89
623.879	56406.58
624.234	56236.19
624.589	56346.47
624.945	56352.8
625.3	56378.33
625.655	56395.73
626.01	56418.78
626.365	56448.84
626.72	56406.81
627.075	56409.07
627.43	56309.86
627.785	56245.91
628.14	56320.93
628.495	56345.79
628.85	56284.33
629.205	56273.7
629.559	56381.5
629.914	56305.57
630.269	56261.73
630.623	56232.12
630.978	56300.82
631.332	56329.52
631.687	56370.88
632.041	56239.35
632.396	56252.69
632.75	56227.83
633.104	56263.76
633.459	56127.49
633.813	56147.83
634.167	56089.98
634.521	56143.99
634.875	56175.63
635.229	56132.24
635.583	55956.65
635.937	56051.56
636.291	56016.54
636.645	56043.43
636.999	55906.71
637.352	56009.98
637.706	55883.88
638.06	56057.66
638.413	55967.72
638.767	55842.98
639.121	55906.03
639.474	55819.7
639.828	55859.48
640.181	55840.04
640.534	55861.96
640.888	55801.17
641.241	55671.91
641.594	55806.15
641.947	55889.08
642.301	55744.45
642.654	55822.19
643.007	55716.88
643.36	55697.45
643.713	55613.38
644.066	55785.81
644.419	55548.07
644.771	55497.23
645.124	55103.57
645.477	55162.09
645.83	55000.29
646.182	54867.64
646.535	54809.79
646.888	54847.75
647.24	54722.11
647.593	54859.5
647.945	54871.93
648.298	54685.5
648.65	54718.72
649.002	54622
649.355	54745.61
649.707	54692.73
650.059	54814.76
650.411	55209.78
650.763	55136.78
651.115	55447.29
651.467	55343.33
651.819	55335.42
652.171	55225.6
652.523	55269.21
652.875	55301.98
653.227	55149.89
653.578	55362.54
653.93	55243.9
654.282	55133.85
654.633	55121.64
654.985	55207.29
655.337	55178.37
655.688	55170
656.039	55196.9
656.391	54978.82
656.742	55054.08
657.094	55058.14
657.445	55114.86
657.796	55114.41
658.147	55057.24
658.498	55039.39
658.849	55143.34
659.2	54978.37
659.551	54980.63
659.902	55057.92
660.253	54931.59
660.604	55000.29
660.955	54960.29
661.306	54944.47
661.656	54862.22
662.007	54924.13
662.358	54948.77
662.708	54924.36
663.059	54894.31
663.409	54870.58
663.76	54920.75
664.11	54884.36
664.461	54961.2
664.811	54848.43
665.161	54901.31
665.511	54723.91
665.862	54713.29
666.212	54927.98
666.562	54861.09
666.912	54766.85
667.262	54689.79
667.612	54712.84
667.962	54831.93
668.312	54701.32
668.662	54816.79
669.011	54695.89
669.361	54667.87
669.711	54704.71
670.06	54618.15
670.41	54602.34
670.76	54562.34
671.109	54587.65
671.459	54601.66
671.808	54500.87
672.157	54554.88
672.507	54328.67
672.856	54417.03
673.205	54454.32
673.554	54457.03
673.904	54357.6
674.253	54609.57
674.602	54439.63
674.951	53981.11
675.3	53775.46
675.649	54276.69
675.998	54205.96
676.346	54242.34
676.695	54370.25
677.044	54233.31
677.393	54173.19
677.741	54215.23
678.09	54088.68
678.438	53983.82
678.787	54125.51
679.135	54046.87
679.484	53826.99
679.832	53976.36
680.181	53851.85
680.529	53755.8
680.877	53656.82
681.225	53763.71
681.573	53858.85
681.922	53599.42
682.27	53542.02
682.618	53558.97
682.966	53441.24
683.314	53514.91
683.661	53424.97
684.009	53263.84
684.357	53260.22
684.705	53144.75
685.053	53220.9
685.4	53140
685.748	53053.22
686.095	52907.24
686.443	52919.22
686.79	52802.61
687.138	52849.39
687.485	52752.67
687.832	52617.75
688.18	52653.01
688.527	52508.61
688.874	52509.96
689.221	52399.68
689.568	52334.15
689.915	52229.52
690.262	52215.51
690.609	52109.07
690.956	51996.98
691.303	52027.94
691.65	51794.27
691.997	51863.42
692.344	51576.65
692.69	51575.75
693.037	51533.72
693.383	51264.57
693.73	51428.41
694.077	51226.61
694.423	51238.36
694.769	51103.9
695.116	51002.43
695.462	50925.82
695.808	50868.65
696.155	50818.71
696.501	50654.87
696.847	50681.08
697.193	50416.91
697.539	50628.65
697.885	50355.22
698.231	50190.47
698.577	50143.7
698.923	50093.75
699.269	49904.15
699.614	49778.51
699.96	49757.72
700.306	49658.28
700.651	49496.03
700.997	49422.81
701.342	49316.82
701.688	49352.3
702.033	49187.56
702.379	49207
702.724	49111.63
703.069	49010.62
703.415	48616.05
703.76	48781.02
704.105	48721.81
704.45	48622.15
704.795	48367.25
705.14	48341.94
705.485	48334.7
705.83	48236.63
706.175	48182.39
706.52	48146.91
706.865	48005.45
707.209	47897.65
707.554	47718.9
707.899	47812.68
708.243	47703.76
708.588	47489.98
708.932	47409.3
709.277	47372.92
709.621	47363.2
709.966	47016.77
710.31	47049.54
710.654	46826.27
710.998	46828.53
711.342	46852.48
711.687	46695.42
712.031	46605.71
712.375	46548.76
712.719	46450.23
713.063	46397.58
713.407	46579.27
713.75	46333.4
714.094	46186.74
714.438	46140.64
714.782	46146.29
715.125	45885.05
715.469	46029.45
715.812	45657.71
716.156	45516.02
716.499	45518.28
716.843	45662.23
717.186	45413.88
717.53	45567.54
717.873	45491.61
718.216	45485.97
718.559	45328.91
718.902	45044.39
719.246	45143.15
719.589	44998.29
719.932	44785.42
720.275	44779.77
720.617	44721.47
720.96	44580.45
721.303	44691.18
721.646	44604.41
721.989	44400.12
722.331	44505.65
722.674	44321.93
723.016	44445.99
723.359	44245.32
723.701	44245.55
724.044	44000.81
724.386	43694.37
724.729	44066.79
725.071	43864.31
725.413	43757.87
725.755	43765.11
726.097	43638.33
726.439	43349.3
726.782	43620.48
727.124	43721.27
727.465	43276.31
727.807	43420.48
728.149	43302.29
728.491	43125.58
728.833	43420.48
729.175	43004.67
729.516	43057.1
729.858	43047.84
730.199	42962.19
730.541	42888.29
730.882	42829.31
731.224	42931.91
731.565	42695.53
731.906	42645.81
732.248	42690.78
732.589	42555.87
732.93	42375.31
733.271	42373.05
733.612	42533.73
733.953	42481.75
734.294	42230.01
734.635	42206.73
734.976	42205.83
735.317	41999.28
735.658	41978.26
735.999	41959.05
736.339	41963.8
736.68	41955.89
737.021	41910.69
737.361	41683.35
737.702	41942.1
738.042	41702.79
738.383	41597.03
738.723	41566.52
739.063	41562.23
739.404	41599.06
739.744	41566.75
740.084	41406.07
740.424	41528.78
740.764	41207.66
741.104	41388.9
741.444	41174.44
741.784	40935.8
742.124	41151.84
742.464	41103.48
742.804	40987.33
743.143	40873.88
743.483	40943.26
743.823	40644.74
744.162	40721.12
744.502	40731.74
744.841	40538.98
745.181	40675.47
745.52	40461.01
745.86	40578.52
746.199	40435.25
746.538	40423.5
746.877	40410.62
747.216	40433.22
747.556	40287.23
747.895	40239.32
748.234	40134.92
748.573	39949.84
748.911	40057.41
749.25	40079.78
749.589	39763.86
749.928	39819.22
750.267	39835.49
750.605	39750.07
750.944	39536.52
751.283	39416.07
751.621	39693.57
751.96	39411.1
752.298	39325.22
752.636	39292.68
752.975	39191.89
753.313	39030.77
753.651	39206.13
753.989	38857.89
754.327	38821.06
754.666	38693.15
755.004	38733.37
755.342	38783.32
755.679	38492.25
756.017	38522.31
756.355	38532.25
756.693	38372.48
757.031	38382.2
757.368	38057.91
757.706	38117.35
758.044	38002.55
758.381	37964.58
758.719	37756
759.056	37827.86
759.394	37657.7
759.731	37432.84
760.068	37430.13
760.405	37255.22
760.743	37243.24
761.08	37233.3
761.417	37120.08
761.754	36898.62
762.091	36893.65
762.428	36631.28
762.765	36511.96
763.102	36618.18
763.438	36382.02
763.775	36351.06
764.112	36294.34
764.449	36293.89
764.785	36120.56
765.122	35944.75
765.458	35695.94
765.795	35688.03
766.131	35830.4
766.467	35564.64
766.804	35451.43
767.14	35224.54
767.476	35228.61
767.812	35021.83
768.148	35095.96
768.485	34909.75
768.821	34621.62
769.157	34592.01
769.492	34661.16
769.828	34534.61
770.164	34233.61
770.5	34172.59
770.836	34275.19
771.171	33913.84
771.507	33895.08
771.842	33613.73
772.178	33702.32
772.513	33503.68
772.849	33413.51
773.184	33184.82
773.519	33313.63
773.855	33155.67
774.19	32984.82
774.525	32913.87
774.86	32779.18
775.195	32866.41
775.53	32720.42
775.865	32374.67
776.2	32174.45
776.535	31987.11
776.87	31971.29
777.205	31841.8
777.539	31684.75
777.874	31887.23
778.209	31557.74
778.543	31523.62
778.878	31253.57
779.212	31278.2
779.547	31130.64
779.881	31221.48
780.215	30805.67
780.55	31013.13
780.884	30875.95
781.218	30741.27
781.552	30698.78
781.886	30597.54
782.22	30345.57
782.554	30241.62
782.888	29968.63
783.222	29845.7
783.556	29776.55
783.889	29809.32
784.223	29475.31
784.557	29378.37
784.89	29401.42
785.224	29359.84
785.557	29128.2
785.891	29102.89
786.224	28952.61
786.558	28983.57
786.891	28790.13
787.224	28694.09
787.557	28523.47
787.891	28491.61
788.224	28502.23
788.557	28436.24
788.89	28320.99
789.223	28310.82
789.556	28078.74
789.888	27995.13
790.221	27866.77
790.554	27677.17
790.887	27670.39
791.219	27615.02
791.552	27504.29
791.884	27233.34
792.217	27294.58
792.549	27261.59
792.882	26990.41
793.214	26912.67
793.546	26990.63
793.879	26824.31
794.211	26642.62
794.543	26779.56
794.875	26648.49
795.207	26678.1
795.539	26542.51
795.871	26463.19
796.203	26139.36
796.535	26066.14
796.867	26035.18
797.198	26034.27
797.53	25952.69
797.862	25740.27
798.193	25845.13
798.525	25560.61
798.856	25607.39
799.188	25440.84
799.519	25360.84
799.85	25112.72
800.182	25204.69
800.513	25123.56
800.844	24997.24
801.175	25135.09
801.506	24935.32
801.837	24913.4
802.168	24847.41
802.499	24775.78
802.83	24667.76
803.161	24580.3
803.491	24545.5
803.822	24561.32
804.153	24366.52
804.483	24127.2
804.814	24087.66
805.145	24214.43
805.475	24115.45
805.805	24034.55
806.136	23904.61
806.466	23974.89
806.796	23845.86
807.126	23738.97
807.457	23663.49
807.787	23681.79
808.117	23572.19
808.447	23454
808.777	23461.91
809.107	23325.42
809.436	23291.07
809.766	23253.33
810.096	23211.52
810.426	23040.91
810.755	23150.06
811.085	23134.69
811.414	22913.45
811.744	22746.9
812.073	22816.28
812.403	22641.14
812.732	22519.34
813.061	22570.18
813.39	22522.28
813.719	22376.97
814.049	22518.21
814.378	22332.9
814.707	22227.37
815.036	22244.09
815.365	22163.64
815.693	21873.7
816.022	22023.76
816.351	21878.9
816.68	21858.79
817.008	21963.65
817.337	21679.59
817.665	21702.86
817.994	21785.57
818.322	21635.29
818.651	21588.74
818.979	21543.54
819.307	21616.54
819.636	21530.66
819.964	21326.37
820.292	21475.97
820.62	21400.72
820.948	21355.98
821.276	21360.95
821.604	21363.66
821.932	21350.55
822.259	21283.89
822.587	21321.85
822.915	21292.02
823.243	21336.77
823.57	21211.35
823.898	21252.93
824.225	21101.52
824.553	21130.9
824.88	21300.39
825.207	21331.57
825.535	21201.41
825.862	21293.38
826.189	21094.97
826.516	21237.34
826.843	21295.64
827.17	21231.91
827.497	21299.03
827.824	21229.65
828.151	21225.13
828.478	21165.02
828.805	21170.22
829.131	21146.27
829.458	21199.82
829.785	20952.15
830.111	21238.24
830.438	21224.91
830.764	21102.65
831.09	21174.06
831.417	20948.08
831.743	21158.47
832.069	21101.52
832.395	20947.4
832.722	21063.1
833.048	20962.54
833.374	20943.56
833.7	20897.01
834.026	20904.46
834.351	20917.57
834.677	20937.23
835.003	20867.4
835.329	20937.91
835.654	20833.28
835.98	20818.37
836.306	20816.56
836.631	20737.24
836.956	20751.47
837.282	20699.5
837.607	20663.79
837.932	20546.51
838.258	20595.32
838.583	20619.5
838.908	20450.47
839.233	20445.04
839.558	20451.82
839.883	20296.57
840.208	20337.93
840.533	20299.96
840.858	20366.85
841.182	20239.85
841.507	20191.04
841.832	20231.49
842.156	20188.55
842.481	20105.84
842.805	20131.6
843.13	19963.7
843.454	19961.44
843.778	19906.3
844.103	19858.16
844.427	19791.27
844.751	19824.94
845.075	19619.3
845.399	19662.69
845.723	19619.07
846.047	19661.33
846.371	19377.95
846.695	19343.83
847.019	19200.33
847.343	19176.15
847.666	19037.39
847.99	18954.46
848.313	19021.58
848.637	18853.9
848.96	18811.64
849.284	18770.06
849.607	18600.57
849.931	18590.4
850.254	18465.88
850.577	18377.75
850.9	18318.54
851.223	18247.13
851.546	18159.9
851.869	17975.28
852.192	18139.57
852.515	17958.78
852.838	17881.04
853.161	17868.61
853.483	17781.38
853.806	17653.48
854.129	17641.27
854.451	17623.42
854.774	17540.49
855.096	17476.31
855.419	17386.36
855.741	17380.94
856.063	17228.18
856.385	17213.04
856.708	17168.74
857.03	17065.24
857.352	17136.88
857.674	17024.34
857.996	16931.91
858.318	16866.6
858.64	16933.95
858.961	16878.58
859.283	16846.27
859.605	16707.51
859.926	16757.91
860.248	16680.62
860.57	16573.05
860.891	16672.94
861.212	16505.94
861.534	16479.5
861.855	16466.62
862.176	16403.34
862.498	16426.16
862.819	16420.06
863.14	16344.13
863.461	16278.82
863.782	16178.04
864.103	16144.59
864.424	16139.62
864.745	16258.03
865.065	16095.55
865.386	16099.62
865.707	16011.94
866.027	15977.59
866.348	16010.13
866.668	16048.55
866.989	15954.54
867.309	15849
867.63	15929.45
867.95	15905.27
868.27	15861.66
868.59	15778.27
868.91	15758.16
869.23	15752.06
869.55	15735.79
869.87	15752.06
870.19	15756.13
870.51	15688.33
870.83	15738.27
871.15	15525.85
871.469	15465.51
871.789	15488.56
872.109	15540.31
872.428	15501.44
872.748	15479.75
873.067	15453.31
873.386	15503.48
873.706	15503.02
874.025	15344.38
874.344	15382.58
874.663	15305.29
874.982	15272.07
875.301	15352.97
875.62	15228.91
875.939	15189.13
876.258	15159.3
876.577	15173.09
876.896	15087.89
877.214	15001.79
877.533	15070.95
877.852	15204.05
878.17	15060.78
878.489	15032.08
878.807	14989.37
879.125	14878.41
879.444	14997.5
879.762	14861.91
880.08	14943.27
880.398	14868.69
880.716	14820.33
881.034	14804.29
881.352	14695.14
881.67	14672.99
881.988	14693.55
882.306	14616.49
882.624	14589.15
882.941	14531.98
883.259	14456.05
883.577	14575.82
883.894	14437.74
884.212	14432.54
884.529	14477.97
884.846	14389.38
885.164	14435.26
885.481	14226.22
885.798	14281.81
886.115	14255.37
886.432	14194.36
886.75	14169.73
887.067	14183.96
887.383	14233.91
887.7	14065.32
888.017	14046.57
888.334	13999.34
888.651	14012.89
888.967	13905.78
889.284	13878.21
889.6	13834.14
889.917	13725.22
890.233	13710.53
890.55	13662.85
890.866	13684.09
891.182	13577.65
891.498	13599.57
891.815	13456.07
892.131	13459.69
892.447	13480.48
892.763	13401.38
893.079	13421.27
893.395	13302.63
893.71	13261.73
894.026	13302.86
894.342	13186.02
894.657	13189.41
894.973	13060.15
895.289	13112.58
895.604	13088.17
895.92	13031
896.235	12963.43
896.55	12913.94
896.865	12880.04
897.181	12865.35
897.496	12877.1
897.811	12719.37
898.126	12678.24
898.441	12652.48
898.756	12608.41
899.071	12622.65
899.386	12618.35
899.7	12408.87
900.015	12395.76
900.33	12308.31
900.644	12353.73
900.959	12317.57
901.273	12247.52
901.588	12194.64
901.902	12059.95
902.216	12118.48
902.531	12016.11
902.845	12063.34
903.159	11882.33
903.473	11917.36
903.787	11847.08
904.101	11780.18
904.415	11790.35
904.729	11671.49
905.042	11675.33
905.356	11614.77
905.67	11661.54
905.984	11576.8
906.297	11472.62
906.611	11530.47
906.924	11413.64
907.237	11423.13
907.551	11337.71
907.864	11320.08
908.177	11308.11
908.491	11311.5
908.804	11133.42
909.117	11103.82
909.43	11107.21
909.743	10962.8
910.056	11003.93
910.368	10903.15
910.681	10875.12
910.994	10825.18
911.307	10805.29
911.619	10690.27
911.932	10750.61
912.244	10716.48
912.557	10592.87
912.869	10564.4
913.181	10481.01
913.494	10527.34
913.806	10487.56
914.118	10396.04
914.43	10329.15
914.742	10331.18
915.054	10310.17
915.366	10230.39
915.678	10188.81
915.99	10099.78
916.302	10092.09
916.613	10010.51
916.925	10018.87
917.236	9984.3
917.548	9918.99
917.859	9882.61
918.171	9803.97
918.482	9711.99
918.794	9722.84
919.105	9711.31
919.416	9632.67
919.727	9573.69
920.038	9604.87
920.349	9531.66
920.66	9446.69
920.971	9519.91
921.282	9456.4
921.593	9339.57
921.903	9343.19
922.214	9284.66
922.525	9209.86
922.835	9158.11
923.146	9163.76
923.456	9153.59
923.767	9081.05
924.077	9023.87
924.387	8968.28
924.697	9027.49
925.008	8901.62
925.318	8899.81
925.628	8950.65
925.938	8841.05
926.248	8742.3
926.558	8708.63
926.867	8739.13
927.177	8630.66
927.487	8603.77
927.796	8534.62
928.106	8550.21
928.416	8521.97
928.725	8505.24
929.034	8438.8
929.344	8417.11
929.653	8362.2
929.962	8287.62
930.271	8282.2
930.581	8222.09
930.89	8196.78
931.199	8201.97
931.508	8121.3
931.817	8206.72
932.125	8039.49
932.434	8065.03
932.743	7943.45
933.051	7952.26
933.36	7888.54
933.669	7864.13
933.977	7852.15
934.286	7827.29
934.594	7785.04
934.902	7826.84
935.21	7764.02
935.519	7669.11
935.827	7703.68
936.135	7646.96
936.443	7606.96
936.751	7545.95
937.059	7547.3
937.367	7452.61
937.674	7465.72
937.982	7434.31
938.29	7396.57
938.597	7374.88
938.905	7296.01
939.213	7258.95
939.52	7180.31
939.827	7209.91
940.135	7125.62
940.442	7123.36
940.749	7089.01
941.056	7210.14
941.363	7018.28
941.67	7044.49
941.977	7032.29
942.284	6906.87
942.591	6953.42
942.898	6889.47
943.205	6885.17
943.511	6774.21
943.818	6812.86
944.125	6703.03
944.431	6726.98
944.738	6715.01
945.044	6709.13
945.35	6644.05
945.657	6635.91
945.963	6556.14
946.269	6558.85
946.575	6535.35
946.881	6461.91
947.187	6457.84
947.493	6437.27
947.799	6441.12
948.105	6393.89
948.41	6362.25
948.716	6318.86
949.022	6245.19
949.327	6246.09
949.633	6185.76
949.938	6248.58
950.244	6199.54
950.549	6116.83
950.854	6115.25
951.16	6084.29
951.465	6012.43
951.77	6015.59
952.075	6015.59
952.38	6004.52
952.685	5952.77
952.99	5927.46
953.294	5960.9
953.599	5861.92
953.904	5884.07
954.209	5813.79
954.513	5799.32
954.818	5798.2
955.122	5718.42
955.426	5713.68
955.731	5694.47
956.035	5673.68
956.339	5650.85
956.643	5602.49
956.948	5606.79
957.252	5562.27
957.556	5524.53
957.86	5477.53
958.163	5537.64
958.467	5442.5
958.771	5426.91
959.075	5414.93
959.378	5342.39
959.682	5365.89
959.985	5346.23
960.289	5299.45
960.592	5317.98
960.896	5254.03
961.199	5217.42
961.502	5247.02
961.805	5175.61
962.108	5134.71
962.411	5109.85
962.714	5154.37
963.017	5100.13
963.32	5095.84
963.623	5022.85
963.926	5063.07
964.228	5010.42
964.531	4983.98
964.833	5021.27
965.136	4933.58
965.438	4932.46
965.741	4894.26
966.043	4863.08
966.345	4834.38
966.648	4833.93
966.95	4833.02
967.252	4765.23
967.554	4779.24
967.856	4760.03
968.158	4714.16
968.46	4703.53
968.761	4667.6
969.063	4675.96
969.365	4588.06
969.666	4643.88
969.968	4604.78
970.269	4581.73
970.571	4572.69
970.872	4529.3
971.174	4501.28
971.475	4496.99
971.776	4511.68
972.077	4512.58
972.378	4425.8
972.679	4398.68
972.98	4416.76
973.281	4371.79
973.582	4349.65
973.883	4389.64
974.183	4326.82
974.484	4276.88
974.785	4294.73
975.085	4292.7
975.386	4195.98
975.686	4191.01
975.986	4178.8
976.287	4199.14
976.587	4129.99
976.887	4156.88
977.187	4161.63
977.487	4107.62
977.787	4091.8
978.087	4082.08
978.387	4080.05
978.687	4032.59
978.987	3982.2
979.286	3954.85
979.586	3977
979.885	3942.42
980.185	3983.1
980.484	3905.59
980.784	3894.52
981.083	3883.44
981.382	3810.22
981.682	3842.54
981.981	3843.22
982.28	3842.54
982.579	3792.6
982.878	3770
983.177	3713.5
983.475	3739.04
983.774	3713.5
984.073	3712.83
984.372	3690.91
984.67	3660.62
984.969	3627.18
985.267	3649.32
985.566	3637.12
985.864	3591.93
986.162	3599.61
986.461	3568.88
986.759	3538.37
987.057	3487.97
987.355	3497.46
987.653	3488.2
987.951	3529.1
988.249	3473.51
988.547	3433.29
988.844	3455.21
989.142	3444.36
989.44	3397.58
989.737	3387.41
990.035	3332.27
990.332	3365.04
990.63	3327.75
990.927	3311.48
991.224	3310.8
991.521	3324.59
991.819	3280.97
992.116	3221.31
992.413	3232.16
992.71	3218.6
993.006	3214.53
993.303	3203.46
993.6	3180.64
993.897	3214.53
994.193	3172.5
994.49	3120.07
994.787	3106.97
995.083	3069.23
995.379	3074.65
995.676	3050.24
995.972	3014.31
996.268	3046.85
996.565	2982.68
996.861	3010.25
997.157	2989.91
997.453	2965.05
997.749	2948.33
998.044	2943.35
998.34	2897.93
998.636	2862
998.932	2880.76
999.227	2877.82
999.523	2896.35
999.818	2826.52
1000.114	2827.65
1000.409	2824.49
1000.704	2803.02
1001	2774.32
1001.295	2738.16
1001.59	2756.92
1001.885	2736.58
1002.18	2704.94
1002.475	2707.65
1002.77	2713.98
1003.065	2685.06
1003.359	2653.64
1003.654	2626.08
1003.949	2608.9
1004.243	2589.92
1004.538	2582.23
1004.832	2579.75
1005.127	2589.01
1005.421	2551.73
1005.715	2498.39
1006.009	2508.11
1006.304	2476.93
1006.598	2494.55
1006.892	2466.98
1007.186	2476.47
1007.48	2471.95
1007.773	2418.17
1008.067	2395.57
1008.361	2414.33
1008.655	2388.12
1008.948	2330.04
1009.242	2381.11
1009.535	2344.05
1009.829	2307.21
1010.122	2293.2
1010.415	2302.69
1010.708	2291.17
1011.001	2290.72
1011.295	2289.13
1011.588	2228.35
1011.881	2234.9
1012.173	2228.35
1012.466	2217.5
1012.759	2190.15
1013.052	2186.09
1013.344	2173.21
1013.637	2167.33
1013.93	2146.09
1014.222	2137.95
1014.514	2122.13
1014.807	2100.67
1015.099	2091.17
1015.391	2077.84
1015.683	2043.27
1015.976	2038.29
1016.268	2019.31
1016.56	2061.8
1016.851	2014.34
1017.143	2016.6
1017.435	1976.37
1017.727	1979.76
1018.018	1946.32
1018.31	1977.73
1018.602	1934.34
1018.893	1902.48
1019.185	1881.69
1019.476	1913.55
1019.767	1883.5
1020.058	1875.59
1020.35	1842.14
1020.641	1833.33
1020.932	1819.32
1021.223	1813.67
1021.514	1788.81
1021.804	1772.76
1022.095	1751.52
1022.386	1765.98
1022.677	1758.53
1022.967	1732.09
1023.258	1723.5
1023.548	1687.34
1023.839	1706.33
1024.129	1706.1
1024.419	1668.13
1024.709	1677.4
1025	1654.58
1025.29	1636.27
1025.58	1622.94
1025.87	1617.29
1026.16	1607.8
1026.449	1582.71
1026.739	1566.67
1027.029	1563.05
1027.319	1569.61
1027.608	1512.43
1027.898	1514.01
1028.187	1540.45
1028.477	1538.42
1028.766	1529.38
1029.055	1496.39
1029.344	1486.22
1029.634	1470.4
1029.923	1456.16
1030.212	1472.21
1030.501	1449.38
1030.79	1417.75
1031.078	1405.32
1031.367	1403.51
1031.656	1423.17
1031.945	1388.37
1032.233	1395.6
1032.522	1370.06
1032.81	1359.67
1033.099	1368.71
1033.387	1367.35
1033.675	1317.63
1033.963	1342.04
1034.251	1304.3
1034.54	1306.11
1034.828	1284.42
1035.116	1296.39
1035.403	1277.64
1035.691	1269.5
1035.979	1282.16
1036.267	1254.81
1036.554	1270.63
1036.842	1274.02
1037.129	1256.62
1037.417	1217.3
1037.704	1201.71
1037.992	1205.55
1038.279	1181.37
1038.566	1189.05
1038.853	1189.05
1039.14	1189.05
