Data from White_paper_FLMS001491_076.txt Node
Date: Tue Feb 07 10:35:32 GMT 2017
User: dcchb
Spectrometer: FLMS00149
Trigger mode: 0
Integration Time (sec): 2.000000E-2
Scans to average: 10
Electric dark correction enabled: true
Nonlinearity correction enabled: false
Boxcar width: 0
XAxis mode: Wavelengths
Number of Pixels in Spectrum: 2048
>>>>>Begin Spectral Data<<<<<
341.393	-9.56
341.776	-9.56
342.16	-9.56
342.543	-81.65
342.927	-61.76
343.31	-87.98
343.693	-64.93
344.077	-55.44
344.46	-73.97
344.843	-52.27
345.226	-31.26
345.61	-17.7
345.993	-2.78
346.376	2.19
346.759	13.26
347.142	20.04
347.525	39.02
347.908	46.26
348.291	81.28
348.674	91
349.057	93.26
349.44	108.63
349.823	138.91
350.206	162.41
350.588	208.96
350.971	245.35
351.354	260.71
351.737	246.02
352.119	295.29
352.502	267.27
352.884	304.78
353.267	296.19
353.65	317.66
354.032	295.06
354.414	328.06
354.797	330.99
355.179	333.03
355.562	341.62
355.944	340.71
356.326	354.95
356.709	363.31
357.091	346.81
357.473	358.11
357.855	366.02
358.238	372.57
358.62	342.29
359.002	379.81
359.384	373.7
359.766	376.42
360.148	365.34
360.53	381.84
360.912	361.95
361.294	350.88
361.676	352.24
362.057	352.46
362.439	366.93
362.821	371.45
363.203	370.99
363.584	327.83
363.966	359.02
364.348	389.98
364.729	368.73
365.111	356.76
365.493	347.04
365.874	373.48
366.256	367.15
366.637	360.82
367.019	354.04
367.4	334.84
367.781	363.31
368.163	376.42
368.544	357.66
368.925	357.21
369.306	360.82
369.688	359.02
370.069	379.58
370.45	366.7
370.831	375.06
371.212	356.53
371.593	368.06
371.974	360.6
372.355	362.86
372.736	363.54
373.117	350.2
373.498	359.02
373.879	362.18
374.26	381.39
374.641	353.59
375.021	374.61
375.402	373.03
375.783	388.62
376.163	397.21
376.544	404.89
376.925	394.95
377.305	380.03
377.686	373.25
378.066	380.71
378.447	396.3
378.827	405.12
379.208	407.15
379.588	399.69
379.968	407.38
380.349	397.89
380.729	391.56
381.109	396.98
381.489	417.77
381.87	445.57
382.25	433.14
382.63	420.48
383.01	430.88
383.39	425.68
383.77	418
384.15	447.38
384.53	443.53
384.91	455.06
385.29	442.63
385.67	429.07
386.049	436.3
386.429	446.92
386.809	462.06
387.189	449.18
387.568	453.25
387.948	460.03
388.328	481.95
388.707	473.14
389.087	462.97
389.466	500.48
389.846	477.43
390.225	480.82
390.605	492.8
390.984	486.92
391.363	503.42
391.743	490.31
392.122	534.6
392.501	511.1
392.881	527.83
393.26	544.77
393.639	521.95
394.018	519.01
394.397	552.23
394.776	565.34
395.155	543.87
395.534	574.38
395.913	550.65
396.292	580.25
396.671	586.13
397.05	567.82
397.429	603.3
397.808	591.78
398.186	606.02
398.565	632.68
398.944	625.68
399.323	642.4
399.701	624.32
400.08	650.31
400.458	639.91
400.837	650.99
401.215	674.94
401.594	668.39
401.972	702.51
402.351	684.21
402.729	704.09
403.107	700.25
403.486	721.04
403.864	744.09
404.242	752.9
404.62	725.33
404.999	738.22
405.377	778.44
405.755	790.64
406.133	827.93
406.511	834.71
406.889	838.1
407.267	826.8
407.645	864.99
408.023	887.14
408.401	888.04
408.779	946.8
409.156	949.73
409.534	975.72
409.912	998.55
410.29	1011.65
410.667	1067.02
411.045	1080.35
411.422	1085.32
411.8	1116.28
412.178	1154.25
412.555	1181.82
412.933	1230.63
413.31	1255.26
413.687	1288.94
414.065	1271.76
414.442	1310.18
414.819	1377.52
415.197	1399.89
415.574	1405.09
415.951	1435.15
416.328	1472.89
416.705	1515.82
417.082	1497.52
417.46	1507.69
417.837	1570.74
418.214	1608.47
418.591	1609.6
418.967	1642.6
419.344	1674.69
419.721	1687.34
420.098	1718.53
420.475	1743.61
420.852	1767.11
421.228	1808.47
421.605	1810.5
421.982	1873.1
422.358	1869.94
422.735	1896.38
423.111	1926.43
423.488	1954.68
423.864	1977.96
424.241	1982.25
424.617	2007.11
424.994	2073.77
425.37	2078.74
425.746	2103.15
426.123	2165.3
426.499	2144.05
426.875	2191.06
427.251	2228.35
427.627	2279.64
428.003	2333.2
428.379	2295.24
428.756	2347.89
429.132	2406.65
429.507	2424.95
429.883	2486.42
430.259	2539.52
430.635	2530.26
431.011	2565.06
431.387	2635.57
431.763	2640.31
432.138	2699.52
432.514	2725.73
432.89	2730.48
433.265	2848.89
433.641	2862.23
434.016	2886.18
434.392	2965.28
434.767	3005.05
435.143	3000.08
435.518	3019.96
435.894	3070.81
436.269	3093.18
436.644	3181.99
437.02	3183.8
437.395	3214.31
437.77	3292.27
438.145	3318.26
438.52	3326.62
438.895	3362.78
439.271	3393.96
439.646	3461.08
440.021	3502.21
440.395	3554.64
440.77	3474.64
441.145	3529.33
441.52	3618.37
441.895	3620.85
442.27	3658.14
442.645	3690.68
443.019	3705.37
443.394	3735.65
443.769	3758.7
444.143	3772.49
444.518	3812.94
444.892	3835.31
445.267	3860.39
445.641	3879.83
446.016	3922.31
446.39	3923.44
446.764	3968.19
447.139	3921.41
447.513	3998.92
447.887	4027.39
448.262	4087.05
448.636	4044.57
449.01	4092.25
449.384	4147.39
449.758	4179.93
450.132	4236.2
450.506	4249.99
450.88	4278.01
451.254	4273.04
451.628	4327.5
452.002	4377.22
452.376	4431
452.75	4383.77
453.123	4506.48
453.497	4558.91
453.871	4598.9
454.244	4688.17
454.618	4695.85
454.992	4779.92
455.365	4807.26
455.739	4850.65
456.112	4946.47
456.486	4956.18
456.859	5016.52
457.232	5112.56
457.606	5081.38
457.979	5184.43
458.352	5297.87
458.725	5389.84
459.099	5372.22
459.472	5485.43
459.845	5500.35
460.218	5637.75
460.591	5666.22
460.964	5671.64
461.337	5817.86
461.71	5939.43
462.083	5956.16
462.456	6009.49
462.829	6032.09
463.201	6143.04
463.574	6132.65
463.947	6251.52
464.32	6395.24
464.692	6426.88
465.065	6433.88
465.438	6530.83
465.81	6705.97
466.183	6707.55
466.555	6835.23
466.928	6932.63
467.3	6940.31
467.672	7046.75
468.045	7287.87
468.417	7281.55
468.789	7330.13
469.161	7417.81
469.534	7544.59
469.906	7725.38
470.278	7750.23
470.65	7802.44
471.022	7960.17
471.394	8114.07
471.766	8251.92
472.138	8345.02
472.51	8467.28
472.882	8613.71
473.253	8668.18
473.625	8796.31
473.997	9015.29
474.369	9108.84
474.74	9159.01
475.112	9388.61
475.484	9474.71
475.855	9675.83
476.227	9691.65
476.598	10021.13
476.97	10076.73
477.341	10389.26
477.713	10402.14
478.084	10499.54
478.455	10881
478.827	10920.77
479.198	11201.44
479.569	11301.55
479.94	11520.08
480.311	11677.36
480.682	11895.21
481.053	12142.89
481.424	12384.01
481.795	12439.15
482.166	12656.32
482.537	12841.4
482.908	13132.24
483.279	13147.38
483.65	13473.02
484.021	13700.81
484.391	13822.84
484.762	13957.3
485.133	14130.86
485.503	14380.57
485.874	14599.55
486.244	14729.94
486.615	15030.72
486.985	15159.76
487.356	15495.79
487.726	15639.74
488.097	15911.15
488.467	16001.99
488.837	16333.06
489.207	16479.72
489.578	16678.81
489.948	16783.22
490.318	17045.13
490.688	17189.31
491.058	17389.3
491.428	17629.75
491.798	17726.92
492.168	18113.13
492.538	18218.21
492.908	18335.72
493.278	18647.57
493.648	18672.21
494.017	18889.15
494.387	19033.1
494.757	19207.11
495.126	19472.86
495.496	19482.35
495.866	19607.1
496.235	19873.31
496.605	19953.08
496.974	20057.03
497.344	20254.54
497.713	20460.41
498.082	20548.77
498.452	20703.34
498.821	20786.73
499.19	20941.53
499.559	21201.18
499.928	21259.03
500.298	21466.94
500.667	21656.99
501.036	21568.4
501.405	21813.14
501.774	21864.21
502.143	22134.94
502.512	22164.54
502.88	22476.63
503.249	22445.44
503.618	22625.1
503.987	22725.43
504.356	22820.8
504.724	22975.14
505.093	23061.02
505.462	23269.83
505.83	23409.03
506.199	23623.49
506.567	23956.14
506.936	23745.52
507.304	24271.16
507.672	24213.98
508.041	24385.5
508.409	24571.94
508.777	24682.22
509.145	24944.36
509.514	24834.3
509.882	25174.86
510.25	25218.7
510.618	25337.12
510.986	25530.78
511.354	25878.34
511.722	26021.17
512.09	26076.53
512.458	26167.38
512.826	26440.36
513.193	26488.27
513.561	26664.09
513.929	26873.57
514.297	27107.47
514.664	27220.91
515.032	27452.77
515.4	27557.85
515.767	27608.24
516.135	27911.74
516.502	27743.38
516.869	28293.65
517.237	28213.88
517.604	28260.43
517.972	28730.25
518.339	28804.82
518.706	28829
519.073	29143.12
519.44	29253.85
519.808	29641.18
520.175	29520.96
520.542	30063.77
520.909	30088.18
521.276	30092.92
521.643	30362.75
522.009	30698.33
522.376	30950.75
522.743	31089.96
523.11	31289.05
523.477	31645.65
523.843	31846.1
524.21	32127.45
524.577	32408.57
524.943	32503.93
525.31	32646.3
525.676	32908.22
526.043	33032.06
526.409	33241.54
526.776	33617.35
527.142	33633.4
527.508	33840.4
527.874	34109.99
528.241	34288.07
528.607	34446.71
528.973	34630.21
529.339	34723.54
529.705	35274.48
530.071	35352.45
530.437	35606.45
530.803	35634.02
531.169	35875.82
531.535	36028.36
531.901	36050.28
532.267	36291.63
532.632	36523.49
532.998	36586.54
533.364	36869.69
533.73	37066.53
534.095	37308.78
534.461	37257.48
534.826	37598.71
535.192	37694.76
535.557	37973.85
535.923	37835.09
536.288	38132.26
536.653	38380.84
537.019	38335.42
537.384	38553.49
537.749	38677.78
538.114	38803.2
538.479	38862.64
538.845	39139.24
539.21	38935.18
539.575	39223.76
539.94	39303.53
540.305	39518.21
540.67	39507.14
541.034	39817.19
541.399	39916.39
541.764	40084.75
542.129	40227.8
542.494	40224.63
542.858	40538.52
543.223	40593.89
543.587	40796.82
543.952	40795.92
544.316	40982.13
544.681	41003.15
545.045	41293.53
545.41	41458.5
545.774	41435
546.138	41571.04
546.503	41689.45
546.867	41838.15
547.231	42127.86
547.595	42188.42
547.959	42311.59
548.324	42424.35
548.688	42468.19
549.052	42622.54
549.416	42691.01
549.779	42843.77
550.143	42973.26
550.507	43241.5
550.871	43245.12
551.235	43335.06
551.599	43630.65
551.962	43870.87
552.326	43820.02
552.689	44096.4
553.053	43864.31
553.417	44100.69
553.78	44532.54
554.143	44342.94
554.507	44653.9
554.87	44835.59
555.234	45209.81
555.597	44955.36
555.96	45175.69
556.323	45304.27
556.686	45314.67
557.05	45692.06
557.413	45736.35
557.776	45856.12
558.139	46204.59
558.502	46130.47
558.865	46387.64
559.228	46600.74
559.59	46737.91
559.953	46759.83
560.316	47142.87
560.679	47231.23
561.041	47448.63
561.404	47544.22
561.767	47740.82
562.129	47692.46
562.492	48085.22
562.854	48127.93
563.217	48237.08
563.579	48430.52
563.941	48453.34
564.304	48717.52
564.666	48867.57
565.028	48975.82
565.39	49064.63
565.753	49304.62
566.115	49376.48
566.477	49777.38
566.839	49763.37
567.201	50006.3
567.563	49970.37
567.925	50238.16
568.287	50181.66
568.648	50254.43
569.01	50518.6
569.372	50772.61
569.734	50649.9
570.095	50914.3
570.457	51052.82
570.819	51162.43
571.18	51130.11
571.542	51332.14
571.903	51416.2
572.265	51508.86
572.626	51724.9
572.987	51768.29
573.349	51866.36
573.71	51942.74
574.071	52071.78
574.432	52158.33
574.794	52415.95
575.155	52272.91
575.516	52275.39
575.877	52372.34
576.238	52476.52
576.599	52689.17
576.96	52748.37
577.32	52676.06
577.681	52872.89
578.042	52959.89
578.403	52943.4
578.763	53029.27
579.124	52978.42
579.485	53180.23
579.845	53332.76
580.206	53196.95
580.566	53263.84
580.927	53309.94
581.287	53509.26
581.648	53365.53
582.008	53588.12
582.368	53509.26
582.728	53580.22
583.089	53525.98
583.449	53578.86
583.809	53585.41
584.169	53728.69
584.529	53602.14
584.889	53837.84
585.249	53635.58
585.609	53646.43
585.969	53893.43
586.329	53749.48
586.688	53809.36
587.048	53808.01
587.408	53774.11
587.768	53803.26
588.127	53781.57
588.487	53784.05
588.846	54035.12
589.206	53836.03
589.565	53929.13
589.925	54053.65
590.284	53964.39
590.643	54024.5
591.003	54145.4
591.362	54155.57
591.721	54078.06
592.08	54129.58
592.44	54148.56
592.799	54191.05
593.158	54113.08
593.517	54153.76
593.876	54230.14
594.235	54247.32
594.593	54225.4
594.952	54262.68
595.311	54262.01
595.67	54277.82
596.029	54437.37
596.387	54458.38
596.746	54529.8
597.104	54361.89
597.463	54358.95
597.822	54469.68
598.18	54476.01
598.538	54321.44
598.897	54540.64
599.255	54329.12
599.613	54816.57
599.972	54533.86
600.33	54591.04
600.688	54569.57
601.046	54706.74
601.404	54745.16
601.762	54680.98
602.12	54787.42
602.478	54776.34
602.836	54798.71
603.194	54668.32
603.552	54800.07
603.91	54675.1
604.268	54861.76
604.625	54775.44
604.983	54899.95
605.341	54740.41
605.698	54911.25
606.056	54971.59
606.413	54982.66
606.771	54984.47
607.128	55054.53
607.485	54930.46
607.843	54996.68
608.2	55122.55
608.557	55217.01
608.914	55108.54
609.272	55173.85
609.629	55250
609.986	55355.31
610.343	55299.94
610.7	55413.16
611.057	55316.44
611.414	55398.7
611.771	55347.63
612.127	55469.43
612.484	55475.53
612.841	55537.9
613.198	55423.56
613.554	55485.48
613.911	55635.53
614.267	55506.04
614.624	55526.38
614.98	55695.64
615.337	55724.57
615.693	55684.57
616.05	55608.41
616.406	55780.84
616.762	55654.06
617.118	55648.18
617.475	55691.35
617.831	55800.27
618.187	55809.76
618.543	55863.09
618.899	55971.57
619.255	55827.16
619.611	55839.59
619.967	55922.07
620.323	56010.89
620.678	55878.46
621.034	55856.99
621.39	55831.46
621.746	55828.29
622.101	56206.36
622.457	55923.43
622.812	55921.4
623.168	56003.88
623.523	56079.58
623.879	56020.38
624.234	55936.99
624.589	56092.92
624.945	56040.72
625.3	56104.44
625.655	56026.48
626.01	56065.8
626.365	56113.93
626.72	56036.2
627.075	55984.9
627.43	56040.26
627.785	55973.15
628.14	56079.36
628.495	56065.12
628.85	56014.95
629.205	55992.36
629.559	56154.61
629.914	55976.99
630.269	56012.47
630.623	56023.99
630.978	55928.18
631.332	56025.57
631.687	56143.76
632.041	55983.77
632.396	56023.32
632.75	55924.56
633.104	55890.89
633.459	55860.38
633.813	55833.49
634.167	55858.12
634.521	55767.95
634.875	55887.5
635.229	55810.21
635.583	55780.61
635.937	55742.87
636.291	55696.32
636.645	55731.35
636.999	55708.3
637.352	55774.96
637.706	55511.01
638.06	55663.55
638.413	55657
638.767	55630.33
639.121	55575.19
639.474	55464.01
639.828	55542.2
640.181	55484.8
640.534	55551.24
640.888	55491.35
641.241	55369.32
641.594	55445.25
641.947	55487.74
642.301	55366.61
642.654	55491.8
643.007	55403.9
643.36	55421.07
643.713	55414.29
644.066	55459.49
644.419	55233.51
644.771	55056.11
645.124	54857.92
645.477	54792.61
645.83	54566.4
646.182	54614.76
646.535	54457.03
646.888	54497.93
647.24	54307.43
647.593	54583.13
647.945	54482.34
648.298	54308.78
648.65	54289.12
649.002	54220.88
649.355	54333.42
649.707	54310.59
650.059	54478.27
650.411	54751.26
650.763	54860.86
651.115	55061.08
651.467	54924.13
651.819	54951.03
652.171	54935.66
652.523	54831.48
652.875	54876.45
653.227	54701.77
653.578	55043.45
653.93	54834.42
654.282	54812.5
654.633	54732.5
654.985	54700.19
655.337	54761.65
655.688	54767.75
656.039	54846.62
656.391	54596.46
656.742	54626.74
657.094	54663.8
657.445	54764.59
657.796	54662.9
658.147	54659.28
658.498	54643.01
658.849	54673.75
659.2	54610.02
659.551	54578.83
659.902	54609.11
660.253	54551.94
660.604	54655.89
660.955	54525.05
661.306	54569.57
661.656	54532.05
662.007	54626.52
662.358	54525.73
662.708	54463.36
663.059	54558.04
663.409	54297.94
663.76	54552.85
664.11	54493.86
664.461	54556.01
664.811	54523.69
665.161	54456.58
665.511	54311.95
665.862	54416.35
666.212	54488.67
666.562	54470.59
666.912	54424.04
667.262	54377.03
667.612	54272.17
667.962	54317.6
668.312	54262.01
668.662	54414.54
669.011	54431.72
669.361	54236.02
669.711	54235.79
670.06	54179.97
670.41	54142.01
670.76	54158.96
671.109	54268.56
671.459	54141.1
671.808	54047.1
672.157	54142.46
672.507	53946.08
672.856	53946.99
673.205	53985.18
673.554	54043.71
673.904	53944.95
674.253	54062.46
674.602	54019.53
674.951	53589.71
675.3	53354.23
675.649	53907.21
675.998	53833.54
676.346	53889.36
676.695	53931.62
677.044	53632.87
677.393	53863.82
677.741	53778.18
678.09	53654.34
678.438	53592.87
678.787	53656.6
679.135	53626.77
679.484	53404.17
679.832	53465.87
680.181	53314.69
680.529	53499.09
680.877	53285.53
681.225	53248.02
681.573	53441.69
681.922	53231.3
682.27	53153.33
682.618	53097.97
682.966	53083.51
683.314	53088.7
683.661	52999.21
684.009	52838.54
684.357	52868.37
684.705	52724.19
685.053	52792.67
685.4	52694.59
685.748	52579.79
686.095	52547.25
686.443	52339.12
686.79	52351.32
687.138	52403.07
687.485	52325.11
687.832	52286.46
688.18	52241.49
688.527	52090.54
688.874	51992.69
689.221	51860.94
689.568	51855.52
689.915	51742.3
690.262	51785.23
690.609	51696.42
690.956	51533.26
691.303	51520.83
691.65	51365.13
691.997	51359.93
692.344	51137.57
692.69	51070.22
693.037	51130.34
693.383	50996.55
693.73	50837.69
694.077	50758.82
694.423	50789.1
694.769	50633.85
695.116	50529.9
695.462	50496.23
695.808	50419.85
696.155	50409.23
696.501	50080.65
696.847	50163.36
697.193	49954.55
697.539	49978.5
697.885	49743.71
698.231	49588.91
698.577	49679.98
698.923	49540.1
699.269	49411.29
699.614	49230.27
699.96	49290.16
700.306	49075.25
700.651	49038.41
700.997	48903.28
701.342	48885.88
701.688	48875.25
702.033	48712.09
702.379	48661.47
702.724	48464.64
703.069	48566.11
703.415	48100.81
703.76	48200.47
704.105	48286.12
704.45	47910.53
704.795	47844.32
705.14	47720.48
705.485	47722.06
705.83	47570.43
706.175	47615.85
706.52	47568.85
706.865	47353.94
707.209	47329.98
707.554	47197.56
707.899	47365.01
708.243	47049.54
708.588	46908.3
708.932	46632.6
709.277	46706.27
709.621	46686.84
709.966	46367.07
710.31	46491.36
710.654	46179.28
710.998	46428.54
711.342	46200.3
711.687	46159.62
712.031	46112.39
712.375	45984.03
712.719	45929.57
713.063	45829.46
713.407	45944.71
713.75	45746.07
714.094	45643.7
714.438	45499.07
714.782	45528.22
715.125	45382.69
715.469	45379.98
715.812	45153.09
716.156	45109.93
716.499	45069.03
716.843	45052.3
717.186	44704.06
717.53	44948.35
717.873	44969.14
718.216	44723.05
718.559	44681.92
718.902	44398.08
719.246	44502.71
719.589	44352.21
719.932	44138.88
720.275	44343.4
720.617	44067.7
720.96	44081.26
721.303	44182.04
721.646	44088.94
721.989	43721.04
722.331	43925.78
722.674	43835.16
723.016	43714.94
723.359	43687.14
723.701	43693.7
724.044	43374.83
724.386	43246.02
724.729	43470.65
725.071	43421.84
725.413	43246.93
725.755	43162.86
726.097	43041.06
726.439	42882.87
726.782	42983.21
727.124	43111.11
727.465	42803.32
727.807	42781.18
728.149	42674.97
728.491	42570.56
728.833	42676.1
729.175	42541.41
729.516	42498.02
729.858	42229.55
730.199	42346.39
730.541	42350.45
730.882	42126.51
731.224	42291.92
731.565	41955.44
731.906	42094.42
732.248	42069.33
732.589	41960.18
732.93	41837.7
733.271	41810.13
733.612	41796.8
733.953	41705.05
734.294	41611.49
734.635	41488.33
734.976	41606.29
735.317	41372.17
735.658	41371.72
735.999	41375.34
736.339	41184.38
736.68	41378.73
737.021	41239.07
737.361	41067.1
737.702	41184.38
738.042	40923.6
738.383	41033.2
738.723	41113.88
739.063	40858.29
739.404	40920.21
739.744	40770.38
740.084	40648.35
740.424	40558.64
740.764	40590.05
741.104	40829.14
741.444	40467.57
741.784	40372.65
742.124	40332.43
742.464	40383.5
742.804	40394.35
743.143	40114.35
743.483	40183.51
743.823	40009.72
744.162	39932.89
744.502	40023.28
744.841	39889.5
745.181	40045.2
745.52	39817.41
745.86	39983.28
746.199	39794.82
746.538	39775.61
746.877	39703.97
747.216	39688.6
747.556	39584.43
747.895	39541.71
748.234	39262.85
748.573	39432.34
748.911	39214.72
749.25	39168.84
749.589	39113.7
749.928	39124.55
750.267	39211.78
750.605	39001.39
750.944	38922.3
751.283	38800.94
751.621	38925.46
751.96	38555.3
752.298	38620.16
752.636	38613.15
752.975	38310.33
753.313	38436.88
753.651	38458.81
753.989	38299.94
754.327	38165.03
754.666	37972.04
755.004	38038.03
755.342	38109.44
755.679	38020.4
756.017	37841.19
756.355	37880.06
756.693	37706.73
757.031	37620.86
757.368	37504.48
757.706	37455.89
758.044	37287.08
758.381	37326.86
758.719	37155.79
759.056	37297.71
759.394	37159.4
759.731	36926.19
760.068	36838.96
760.405	36590.38
760.743	36436.49
761.08	36619.98
761.417	36226.1
761.754	36414.34
762.091	36198.07
762.428	35979.55
762.765	35989.72
763.102	35915.14
763.438	35773.45
763.775	35558.77
764.112	35610.52
764.449	35660.01
764.785	35464.08
765.122	35228.16
765.458	35171.43
765.795	35215.05
766.131	35058.22
766.467	34908.39
766.804	34732.12
767.14	34636.53
767.476	34481.51
767.812	34489.64
768.148	34374.17
768.485	34241.74
768.821	34142.53
769.157	34116.32
769.492	33991.8
769.828	33768.98
770.164	33502.33
770.5	33505.72
770.836	33570.8
771.171	33323.35
771.507	33333.52
771.842	33077.25
772.178	33018.72
772.513	32995.9
772.849	32848.56
773.184	32674.1
773.519	32591.39
773.855	32622.57
774.19	32525.18
774.525	32240.66
774.86	32283.83
775.195	32108.46
775.53	32027.56
775.865	31949.37
776.2	31718.19
776.535	31443.62
776.87	31388.71
777.205	31299.45
777.539	31296.28
777.874	31169.73
778.209	31026.91
778.543	30962.05
778.878	30775.84
779.212	30677.31
779.547	30578.33
779.881	30641.61
780.215	30444.1
780.55	30437.1
780.884	30285.01
781.218	30150.32
781.552	30054.73
781.886	29901.74
782.22	29750.56
782.554	29760.28
782.888	29492.04
783.222	29326.84
783.556	29260.18
783.889	29238.71
784.223	29072.61
784.557	28807.76
784.89	29102.22
785.224	28724.15
785.557	28647.09
785.891	28498.16
786.224	28432.63
786.558	28385.17
786.891	28197.38
787.224	28174.33
787.557	28098.85
787.891	28039.87
788.224	27948.35
788.557	27871.51
788.89	27798.29
789.223	27782.93
789.556	27554.91
789.888	27418.87
790.221	27293.22
790.554	27085.77
790.887	27293.22
791.219	27119.22
791.552	27015.26
791.884	26922.84
792.217	26747.93
792.549	26661.6
792.882	26515.84
793.214	26532.11
793.546	26375.96
793.879	26271.78
794.211	26198.11
794.543	26252.35
794.875	26160.15
795.207	26191.33
795.539	25963.31
795.871	25914.05
796.203	25719.03
796.535	25600.84
796.867	25544.57
797.198	25465.02
797.53	25461.41
797.862	25260.06
798.193	25228.87
798.525	25262.77
798.856	25144.35
799.188	24971.48
799.519	24788.43
799.85	24668.21
800.182	24824.59
800.513	24768.54
800.844	24575.33
801.175	24538.27
801.506	24619.62
801.837	24397.93
802.168	24404.49
802.499	24217.37
802.83	24120.88
803.161	24098.73
803.491	24095.34
803.822	24081.78
804.153	23954.1
804.483	23716.14
804.814	23651.28
805.145	23696.03
805.475	23611.96
805.805	23523.83
806.136	23526.77
806.466	23413.55
806.796	23335.81
807.126	23170.39
807.457	23254.69
807.787	23246.1
808.117	23155.93
808.447	22928.59
808.777	23144.63
809.107	22954.81
809.436	22814.47
809.766	22803.17
810.096	22758.43
810.426	22738.31
810.755	22676.17
811.085	22603.63
811.414	22463.75
811.744	22244.99
812.073	22235.28
812.403	22372.9
812.732	22210.42
813.061	22177.2
813.39	22037.32
813.719	21980.59
814.049	22174.49
814.378	21981.72
814.707	21841.16
815.036	21924.78
815.365	21789.86
815.693	21647.27
816.022	21631
816.351	21500.61
816.68	21465.58
817.008	21537.89
817.337	21325.02
817.665	21365.24
817.994	21328.86
818.322	21271.23
818.651	21216.55
818.979	21178.81
819.307	21187.85
819.636	21099.26
819.964	20862.66
820.292	21038.47
820.62	20938.59
820.948	20944.01
821.276	21026.04
821.604	20880.06
821.932	20917.35
822.259	20965.71
822.587	20870.79
822.915	20775.65
823.243	20970.9
823.57	20878.7
823.898	20923
824.225	20630.12
824.553	20822.88
824.88	20834.86
825.207	20676
825.535	20877.8
825.862	20780.17
826.189	20715.54
826.516	20819.27
826.843	20901.98
827.17	20834.18
827.497	20882.54
827.824	20759.61
828.151	20843.9
828.478	20718.48
828.805	20852.26
829.131	20780.63
829.458	20732.04
829.785	20730.23
830.111	20784.02
830.438	20837.8
830.764	20733.4
831.09	20827.18
831.417	20563.68
831.743	20674.19
832.069	20671.7
832.395	20690.01
832.722	20729.33
833.048	20555.1
833.374	20539.95
833.7	20529.56
834.026	20532.27
834.351	20612.27
834.677	20469.67
835.003	20614.75
835.329	20601.42
835.654	20472.84
835.98	20433.06
836.306	20276.68
836.631	20302.9
836.956	20286.63
837.282	20370.92
837.607	20220.64
837.932	20196.23
838.258	20281.43
838.583	20171.6
838.908	20068.78
839.233	20096.35
839.558	20031.49
839.883	19982.91
840.208	19934.09
840.533	19947.2
840.858	19888.45
841.182	19902.68
841.507	19904.72
841.832	19701.56
842.156	19663.14
842.481	19770.93
842.805	19702.24
843.13	19665.18
843.454	19597.15
843.778	19441
844.103	19468.12
844.427	19473.77
844.751	19379.08
845.075	19480.32
845.399	19276.48
845.723	19255.92
846.047	19227.67
846.371	19025.42
846.695	19005.31
847.019	18998.07
847.343	18807.34
847.666	18674.69
847.99	18647.8
848.313	18615.94
848.637	18489.16
848.96	18394.02
849.284	18467.47
849.607	18286.23
849.931	18220.02
850.254	18005.78
850.577	18083.97
850.9	17858.22
851.223	17848.73
851.546	17767.37
851.869	17693.7
852.192	17705.9
852.515	17556.08
852.838	17490.99
853.161	17499.81
853.483	17414.61
853.806	17368.51
854.129	17348.4
854.451	17230.21
854.774	17186.37
855.096	17196.54
855.419	17085.58
855.741	17176.43
856.063	16931.46
856.385	16954.96
856.708	16858.92
857.03	16781.18
857.352	16823.89
857.674	16758.81
857.996	16665.25
858.318	16638.14
858.64	16695.99
858.961	16581.87
859.283	16523.56
859.605	16415.32
859.926	16489.89
860.248	16409.22
860.57	16345.94
860.891	16284.47
861.212	16227.07
861.534	16192.27
861.855	16110.01
862.176	16178.71
862.498	16089.68
862.819	16147.53
863.14	16024.37
863.461	16006.97
863.782	15992.28
864.103	15955.22
864.424	15978.49
864.745	15947.53
865.065	15855.33
865.386	15750.7
865.707	15794.09
866.027	15794.77
866.348	15767.2
866.668	15733.53
866.989	15657.82
867.309	15466.42
867.63	15596.36
867.95	15599.97
868.27	15447.43
868.59	15474.55
868.91	15451.95
869.23	15414.44
869.55	15379.64
869.87	15519.75
870.19	15449.92
870.51	15425.74
870.83	15408.34
871.15	15303.71
871.469	15307.32
871.789	15288.34
872.109	15169.02
872.428	15181.68
872.748	15242.47
873.067	15133.32
873.386	15248.34
873.706	15164.95
874.025	15060.55
874.344	15050.38
874.663	15079.31
874.982	15060.1
875.301	15003.6
875.62	15040.89
875.939	14955.47
876.258	14910.95
876.577	14892.87
876.896	14757.28
877.214	14800.44
877.533	14828.24
877.852	14792.76
878.17	14748.02
878.489	14733.33
878.807	14684.74
879.125	14705.76
879.444	14636.15
879.762	14618.3
880.08	14681.8
880.398	14568.13
880.716	14577.63
881.034	14466.67
881.352	14442.71
881.67	14439.78
881.988	14473
882.306	14315.94
882.624	14399.32
882.941	14302.38
883.259	14288.59
883.577	14273
883.894	14246.33
884.212	14111.65
884.529	14231.65
884.846	14099.45
885.164	14115.49
885.481	14013.35
885.798	14073.46
886.115	13929.05
886.432	13911.2
886.75	13929.28
887.067	13872.33
887.383	13840.02
887.7	13797.31
888.017	13693.35
888.334	13793.47
888.651	13736.74
888.967	13689.74
889.284	13604.09
889.6	13591.89
889.917	13467.15
890.233	13504.66
890.55	13497.43
890.866	13480.03
891.182	13353.7
891.498	13281.39
891.815	13301.05
892.131	13251.56
892.447	13216.08
892.763	13176.53
893.079	13191.45
893.395	13140.6
893.71	13064.22
894.026	13088.4
894.342	12967.27
894.657	12845.47
894.973	12887.5
895.289	12836.43
895.604	12824.68
895.92	12735.19
896.235	12784.9
896.55	12777.45
896.865	12741.29
897.181	12611.35
897.496	12655.19
897.811	12519.83
898.126	12520.5
898.441	12421.07
898.756	12390.79
899.071	12350.57
899.386	12362.99
899.7	12260.4
900.015	12294.52
900.33	12148.99
900.644	12090.91
900.959	12143.56
901.273	12027.64
901.588	11948.77
901.902	11869.9
902.216	11855.44
902.531	11884.59
902.845	11897.7
903.159	11816.79
903.473	11683.24
903.787	11686.85
904.101	11637.36
904.415	11654.76
904.729	11538.38
905.042	11530.25
905.356	11465.16
905.67	11431.04
905.984	11455.22
906.297	11321.67
906.611	11246.19
906.924	11274.89
907.237	11174.32
907.551	11190.82
907.864	11102.69
908.177	11057.27
908.491	11017.04
908.804	11012.97
909.117	10885.74
909.43	10810.72
909.743	10788.35
910.056	10800.55
910.368	10742.7
910.681	10757.61
910.994	10646.66
911.307	10603.72
911.619	10490.05
911.932	10517.39
912.244	10418.64
912.557	10493.21
912.869	10335.7
913.181	10262.26
913.494	10338.41
913.806	10216.84
914.118	10186.55
914.43	10155.14
914.742	10155.82
915.054	10090.29
915.366	10019.1
915.678	10037.63
915.99	9941.81
916.302	9917.41
916.613	9837.18
916.925	9835.6
917.236	9881.25
917.548	9760.35
917.859	9794.93
918.171	9649.85
918.482	9634.25
918.794	9592.22
919.105	9526.46
919.416	9516.29
919.727	9466.12
920.038	9444.43
920.349	9388.16
920.66	9321.04
920.971	9292.34
921.282	9252.12
921.593	9231.1
921.903	9156.98
922.214	9118.11
922.525	9107.03
922.835	9060.48
923.146	9033.14
923.456	9025.23
923.767	8921.5
924.077	8916.53
924.387	8902.52
924.697	8807.16
925.008	8804.9
925.318	8781.85
925.628	8808.29
925.938	8679.25
926.248	8596.99
926.558	8545.02
926.867	8552.92
927.177	8522.19
927.487	8488.52
927.796	8401.06
928.106	8402.19
928.416	8364.23
928.725	8392.03
929.034	8324.23
929.344	8317.9
929.653	8250.11
929.962	8150
930.271	8141.86
930.581	8142.99
930.89	7989.55
931.199	7990.23
931.508	7975.99
931.817	8024.8
932.125	7950.23
932.434	7926.05
932.743	7816.45
933.051	7810.57
933.36	7776.9
933.669	7752.95
933.977	7715.88
934.286	7684.93
934.594	7663.68
934.902	7622.78
935.21	7641.99
935.519	7600.41
935.827	7593.85
936.135	7508.43
936.443	7468.43
936.751	7395.89
937.059	7383.24
937.367	7403.8
937.674	7345.5
937.982	7275.67
938.29	7246.29
938.597	7315.67
938.905	7168.1
939.213	7155.9
939.52	7105.96
939.827	7089.69
940.135	7077.03
940.442	7048.78
940.749	7038.84
941.056	6973.76
941.363	6925.4
941.67	6921.1
941.977	6866.42
942.284	6795
942.591	6808.11
942.898	6739.19
943.205	6753.42
943.511	6734.44
943.818	6720.43
944.125	6663.93
944.431	6617.16
944.738	6586.65
945.044	6550.27
945.35	6546.42
945.657	6537.38
945.963	6513.43
946.269	6420.78
946.575	6393.89
946.881	6392.08
947.187	6330.16
947.493	6321.57
947.799	6295.81
948.105	6270.27
948.41	6205.42
948.716	6231.18
949.022	6183.72
949.327	6207
949.633	6120.9
949.938	6098.07
950.244	6134.68
950.549	6072.99
950.854	6032.99
951.16	5997.96
951.465	5947.12
951.77	5963.61
952.075	5900.79
952.38	5934.46
952.685	5901.24
952.99	5824.18
953.294	5783.73
953.599	5781.02
953.904	5783.73
954.209	5735.6
954.513	5705.77
954.818	5702.83
955.122	5643.85
955.426	5595.04
955.731	5594.81
956.035	5555.04
956.339	5549.39
956.643	5533.8
956.948	5483.4
957.252	5502.84
957.556	5448.15
957.86	5400.01
958.163	5400.01
958.467	5389.17
958.771	5372.22
959.075	5356.85
959.378	5324.31
959.682	5278.43
959.985	5263.97
960.289	5243.86
960.592	5208.83
960.896	5202.05
961.199	5163.64
961.502	5175.61
961.805	5103.3
962.108	5086.12
962.411	5067.59
962.714	5062.4
963.017	5019.68
963.32	5020.14
963.623	5008.16
963.926	4963.19
964.228	4978.33
964.531	4937.65
964.833	4865.79
965.136	4861.27
965.438	4843.64
965.741	4812.91
966.043	4830.54
966.345	4792.12
966.648	4766.36
966.95	4735.85
967.252	4720.48
967.554	4696.98
967.856	4703.99
968.158	4641.16
968.46	4628.06
968.761	4654.27
969.063	4551
969.365	4604.1
969.666	4554.16
969.968	4528.85
970.269	4464.67
970.571	4446.14
970.872	4474.39
971.174	4409.08
971.475	4417.44
971.776	4401.85
972.077	4414.5
972.378	4370.21
972.679	4345.8
972.98	4298.8
973.281	4309.19
973.582	4289.99
973.883	4238.01
974.183	4249.31
974.484	4256.99
974.785	4223.55
975.085	4196.43
975.386	4161.85
975.686	4153.49
975.986	4130.67
976.287	4120.5
976.587	4056.55
976.887	4074.85
977.187	4020.84
977.487	4081.63
977.787	4021.29
978.087	3999.82
978.387	3980.84
978.687	3956.21
978.987	3941.97
979.286	3911.01
979.586	3909.66
979.885	3851.35
980.185	3876.44
980.484	3846.61
980.784	3884.12
981.083	3793.95
981.382	3797.12
981.682	3805.25
981.981	3739.04
982.28	3732.94
982.579	3728.64
982.878	3691.58
983.177	3725.93
983.475	3699.72
983.774	3632.83
984.073	3585.37
984.372	3610.68
984.67	3601.19
984.969	3588.76
985.267	3592.83
985.566	3518.25
985.864	3530.23
986.162	3548.08
986.461	3516.22
986.759	3471.48
987.057	3448.88
987.355	3458.37
987.653	3394.64
987.951	3433.51
988.249	3408.2
988.547	3426.73
988.844	3362.78
989.142	3359.39
989.44	3349.67
989.737	3341.76
990.035	3279.62
990.332	3286.4
990.63	3298.15
990.927	3261.54
991.224	3252.05
991.521	3254.99
991.819	3237.81
992.116	3212.5
992.413	3156.91
992.71	3148.55
993.006	3178.6
993.303	3137.7
993.6	3102.67
993.897	3095.67
994.193	3107.42
994.49	3087.08
994.787	3050.47
995.083	3051.83
995.379	3022.22
995.676	3020.19
995.972	3019.51
996.268	2984.71
996.565	2963.47
996.861	2941.09
997.157	2939.97
997.453	2911.27
997.749	2885.5
998.044	2887.54
998.34	2898.38
998.636	2900.19
998.932	2842.57
999.227	2832.4
999.523	2846.18
999.818	2770.48
1000.114	2778.61
1000.409	2763.7
1000.704	2749.46
1001	2741.55
1001.295	2683.93
1001.59	2698.39
1001.885	2704.49
1002.18	2693.87
1002.475	2669.69
1002.77	2654.1
1003.065	2621.78
1003.359	2647.09
1003.654	2593.08
1003.949	2552.18
1004.243	2549.24
1004.538	2565.51
1004.832	2521.45
1005.127	2545.85
1005.421	2514.21
1005.715	2495.46
1006.009	2475.34
1006.304	2457.27
1006.598	2469.24
1006.892	2434.22
1007.186	2405.74
1007.48	2435.8
1007.773	2381.79
1008.067	2382.92
1008.361	2339.53
1008.655	2354.44
1008.948	2335.69
1009.242	2356.03
1009.535	2332.98
1009.829	2305.63
1010.122	2307.44
1010.415	2277.16
1010.708	2243.94
1011.001	2225.63
1011.295	2222.92
1011.588	2210.04
1011.881	2196.93
1012.173	2189.25
1012.466	2175.47
1012.759	2135.24
1013.052	2135.24
1013.344	2128.01
1013.637	2115.35
1013.93	2146.09
1014.222	2071.06
1014.514	2106.54
1014.807	2043.04
1015.099	2070.84
1015.391	2048.24
1015.683	2029.25
1015.976	2003.04
1016.268	2008.01
1016.56	2014.79
1016.851	1954.68
1017.143	1941.57
1017.435	1943.61
1017.727	1917.85
1018.018	1922.36
1018.31	1931.18
1018.602	1908.58
1018.893	1890.95
1019.185	1879.2
1019.476	1851.63
1019.767	1829.71
1020.058	1849.6
1020.35	1795.81
1020.641	1805.76
1020.932	1791.52
1021.223	1787.23
1021.514	1768.02
1021.804	1750.62
1022.095	1769.37
1022.386	1724.4
1022.677	1737.96
1022.967	1714.01
1023.258	1693.67
1023.548	1689.15
1023.839	1707
1024.129	1654.58
1024.419	1663.16
1024.709	1652.32
1025	1615.71
1025.29	1602.15
1025.58	1623.62
1025.87	1608.25
1026.16	1565.99
1026.449	1573.22
1026.739	1577.74
1027.029	1545.43
1027.319	1537.52
1027.608	1538.19
1027.898	1536.61
1028.187	1516.73
1028.477	1520.79
1028.766	1503.17
1029.055	1474.92
1029.344	1490.06
1029.634	1427.91
1029.923	1435.15
1030.212	1445.32
1030.501	1429.04
1030.79	1406.45
1031.078	1418.42
1031.367	1398.54
1031.656	1396.73
1031.945	1396.05
1032.233	1373.45
1032.522	1376.84
1032.81	1325.54
1033.099	1349.05
1033.387	1344.53
1033.675	1335.26
1033.963	1308.37
1034.251	1305.66
1034.54	1314.92
1034.828	1284.42
1035.116	1294.58
1035.403	1242.38
1035.691	1253
1035.979	1244.64
1036.267	1228.6
1036.554	1255.26
1036.842	1222.04
1037.129	1206.68
1037.417	1223.85
1037.704	1202.61
1037.992	1165.55
1038.279	1176.85
1038.566	1184.08
1038.853	1184.08
1039.14	1184.08
