Data from White_reflection_standard_FLMS001491_052.txt Node
Date: Tue Feb 07 10:32:05 GMT 2017
User: dcchb
Spectrometer: FLMS00149
Trigger mode: 0
Integration Time (sec): 2.000000E-2
Scans to average: 10
Electric dark correction enabled: true
Nonlinearity correction enabled: false
Boxcar width: 0
XAxis mode: Wavelengths
Number of Pixels in Spectrum: 2048
>>>>>Begin Spectral Data<<<<<
341.393	-13.29
341.776	-13.29
342.16	-13.29
342.543	-57.81
342.927	-60.75
343.31	-76.79
343.693	-76.11
344.077	-56.45
344.46	-55.1
344.843	-57.58
345.226	-31.37
345.61	-17.81
345.993	-24.14
346.376	-10.13
346.759	14.05
347.142	35.97
347.525	37.56
347.908	56.99
348.291	69.19
348.674	78.23
349.057	113.49
349.44	128.63
349.823	136.99
350.206	153.26
350.588	224.44
350.971	237.78
351.354	261.05
351.737	268.74
352.119	296.98
352.502	302.41
352.884	321.16
353.267	323.42
353.65	356.64
354.032	348.51
354.414	350.54
354.797	368.62
355.179	370.2
355.562	370.88
355.944	392.35
356.326	396.64
356.709	379.69
357.091	391.22
357.473	393.03
357.855	399.58
358.238	397.55
358.62	402.97
359.002	413.36
359.384	388.51
359.766	396.87
360.148	425.12
360.53	409.3
360.912	429.86
361.294	416.98
361.676	428.05
362.057	402.52
362.439	399.13
362.821	403.42
363.203	425.79
363.584	414.72
363.966	409.75
364.348	434.38
364.729	435.29
365.111	417.66
365.493	408.62
365.874	406.13
366.256	415.17
366.637	412.01
367.019	405.68
367.4	446.13
367.781	398.45
368.163	431.22
368.544	427.38
368.925	416.98
369.306	437.77
369.688	448.62
370.069	428.05
370.45	423.08
370.831	444.78
371.212	428.05
371.593	453.36
371.974	438.9
372.355	431.44
372.736	458.56
373.117	429.41
373.498	471.44
373.879	487.49
374.26	435.74
374.641	437.54
375.021	434.83
375.402	455.85
375.783	479.13
376.163	496.07
376.544	496.3
376.925	495.85
377.305	499.24
377.686	495.4
378.066	500.14
378.447	505.34
378.827	503.98
379.208	528.84
379.588	522.29
379.968	517.77
380.349	543.98
380.729	520.25
381.109	540.14
381.489	545.79
381.87	547.82
382.25	555.73
382.63	567.49
383.01	554.38
383.39	564.1
383.77	592.57
384.15	561.16
384.53	598.44
384.91	583.53
385.29	573.36
385.67	593.7
386.049	607.71
386.429	624.21
386.809	650.87
387.189	626.24
387.568	649.97
387.948	643.19
388.328	649.97
388.707	645
389.087	632.34
389.466	666.69
389.846	678.22
390.225	681.83
390.605	698.33
390.984	687.26
391.363	701.04
391.743	706.01
392.122	701.49
392.501	727.03
392.881	752.79
393.26	758.67
393.639	755.95
394.018	733.58
394.397	762.06
394.776	762.51
395.155	785.11
395.534	805.22
395.913	797.08
396.292	830.08
396.671	820.81
397.05	812.45
397.429	826.91
397.808	835.95
398.186	861.04
398.565	853.35
398.944	872.56
399.323	878.44
399.701	867.36
400.08	900.13
400.458	917.53
400.837	892.22
401.215	933.35
401.594	952.33
401.972	960.24
402.351	953.24
402.729	963.63
403.107	986.68
403.486	981.03
403.864	1004.76
404.242	996.63
404.62	1012.9
404.999	1013.35
405.377	1015.38
405.755	1062.84
406.133	1068.04
406.511	1068.94
406.889	1085.21
407.267	1106.23
407.645	1138.54
408.023	1147.36
408.401	1172.21
408.779	1184.19
409.156	1174.47
409.534	1200.46
409.912	1232.33
410.29	1227.13
410.667	1237.3
411.045	1260.35
411.422	1287.69
411.8	1290.86
412.178	1334.92
412.555	1339.89
412.933	1340.57
413.31	1374.7
413.687	1400.68
414.065	1429.16
414.442	1444.75
414.819	1445.43
415.197	1470.74
415.574	1503.28
415.951	1521.58
416.328	1538.08
416.705	1517.06
417.082	1529.27
417.46	1567.68
417.837	1586.89
418.214	1587.8
418.591	1604.07
418.967	1619.89
419.344	1648.59
419.721	1663.5
420.098	1659.21
420.475	1680.68
420.852	1677.29
421.228	1729.94
421.605	1749.37
421.982	1748.24
422.358	1776.49
422.735	1827.11
423.111	1823.5
423.488	1843.84
423.864	1855.81
424.241	1875.7
424.617	1924.29
424.994	1894.23
425.37	1969.03
425.746	1974.23
426.123	1975.13
426.499	1988.24
426.875	2042.02
427.251	2085.19
427.627	2107.11
428.003	2160.89
428.379	2162.92
428.756	2169.25
429.132	2192.08
429.507	2258.97
429.883	2256.93
430.259	2318.4
430.635	2321.11
431.011	2333.31
431.387	2423.93
431.763	2462.58
432.138	2417.61
432.514	2476.81
432.89	2498.73
433.265	2560.2
433.641	2599.75
434.016	2617.83
434.392	2651.5
434.767	2733.53
435.143	2694.43
435.518	2769.24
435.894	2785.28
436.269	2829.12
436.644	2891.49
437.02	2895.33
437.395	2889.68
437.77	2936.46
438.145	2987.76
438.52	3027.31
438.895	3063.92
439.271	3088.1
439.646	3177.81
440.021	3179.39
440.395	3174.65
440.77	3164.93
441.145	3196.12
441.52	3299.39
441.895	3263.46
442.27	3298.03
442.645	3268.88
443.019	3353.85
443.394	3383
443.769	3431.36
444.143	3412.38
444.518	3460.06
444.892	3441.31
445.267	3498.71
445.641	3540.06
446.016	3540.29
446.39	3590.46
446.764	3571.47
447.139	3639.95
447.513	3678.36
447.887	3685.6
448.262	3675.43
448.636	3689.89
449.01	3789.32
449.384	3800.39
449.758	3812.15
450.132	3905.7
450.506	3930.33
450.88	3970.56
451.254	3951.8
451.628	3979.82
452.002	4054.17
452.376	4134.62
452.75	4153.61
453.123	4189.54
453.497	4282.64
453.871	4285.35
454.244	4385.69
454.618	4416.88
454.992	4467.27
455.365	4481.28
455.739	4629.53
456.112	4684.66
456.486	4662.97
456.859	4694.61
457.232	4809.86
457.606	4800.82
457.979	4904.32
458.352	4944.09
458.725	5010.98
459.099	5075.62
459.472	5159.91
459.845	5163.75
460.218	5293.24
460.591	5319.68
460.964	5379.79
461.337	5457.07
461.71	5626.56
462.083	5664.98
462.456	5644.41
462.829	5684.64
463.201	5794.69
463.574	5812.32
463.947	5902.71
464.32	6076.94
464.692	6107.68
465.065	6175.47
465.438	6230.61
465.81	6344.51
466.183	6409.59
466.555	6554.22
466.928	6532.98
467.3	6574.56
467.672	6699.08
468.045	6839.86
468.417	6892.06
468.789	6979.75
469.161	7093.87
469.534	7160.98
469.906	7330.7
470.278	7402.11
470.65	7405.05
471.022	7640.97
471.394	7788.99
471.766	7851.14
472.138	7914.86
472.51	8081.64
472.882	8223.1
473.253	8364.12
473.625	8498.12
473.997	8600.72
474.369	8675.75
474.74	8784.22
475.112	8919.81
475.484	9116.41
475.855	9256.3
476.227	9326.58
476.598	9567.25
476.97	9677.3
477.341	9872.55
477.713	10021.25
478.084	10136.27
478.455	10386.44
478.827	10457.39
479.198	10833.2
479.569	10810.38
479.94	11113.65
480.311	11291.72
480.682	11467.76
481.053	11736
481.424	11967.86
481.795	12054.41
482.166	12228.42
482.537	12417.79
482.908	12715.87
483.279	12857.78
483.65	12986.59
484.021	13328.51
484.391	13447.6
484.762	13549.52
485.133	13688.27
485.503	13926.68
485.874	14188.6
486.244	14339.55
486.615	14545.42
486.985	14802.59
487.356	15029.93
487.726	15256.82
488.097	15451.16
488.467	15424.72
488.837	15940.87
489.207	16182.89
489.578	16299.95
489.948	16440.97
490.318	16654.97
490.688	16738.59
491.058	17125.92
491.428	17281.4
491.798	17519.13
492.168	17748.73
492.538	17796.86
492.908	18122.96
493.278	18353.23
493.648	18350.52
494.017	18626.67
494.387	18795.25
494.757	19009.94
495.126	19079.77
495.496	19206.32
495.866	19330.38
496.235	19572.64
496.605	19792.06
496.974	19835.45
497.344	20132.62
497.713	20141.89
498.082	20285.16
498.452	20601.99
498.821	20687.86
499.19	20788.65
499.559	21050.56
499.928	21246.26
500.298	21323.55
500.667	21439.93
501.036	21477.67
501.405	21695.74
501.774	21759.24
502.143	22018.45
502.512	22151.1
502.88	22410.07
503.249	22365.1
503.618	22460.02
503.987	22690.29
504.356	22762.38
504.724	22972.32
505.093	23035.82
505.462	23270.16
505.83	23344.29
506.199	23524.17
506.567	23907.21
506.936	23793.54
507.304	24185.85
507.672	24285.05
508.041	24407.08
508.409	24657.47
508.777	24812.5
509.145	25023.34
509.514	25062.43
509.882	25253.16
510.25	25355.31
510.618	25631.01
510.986	25656.54
511.354	26011.34
511.722	26131.33
512.09	26389.18
512.458	26406.35
512.826	26633.92
513.193	26949.39
513.561	26969.28
513.929	27195.49
514.297	27443.39
514.664	27599.77
515.032	27649.26
515.4	28053.32
515.767	28066.88
516.135	28350.03
516.502	28073.43
516.869	28704.15
517.237	28802.9
517.604	28910.69
517.972	29275.88
518.339	29437.91
518.706	29571.47
519.073	29610.11
519.44	29939.14
519.808	30286.48
520.175	30290.09
520.542	30578
520.909	30829.29
521.276	30881.04
521.643	31179.79
522.009	31394.02
522.376	31899.09
522.743	31931.18
523.11	32319.87
523.477	32484.61
523.843	32756.7
524.21	33119.17
524.577	33375.44
524.943	33315.55
525.31	33589.89
525.676	33893.39
526.043	34191.91
526.409	34322.98
526.776	34766.36
527.142	34885
527.508	35139.23
527.874	35274.37
528.241	35554.81
528.607	35643.85
528.973	35973.56
529.339	35899.66
529.705	36460.1
530.071	36669.81
530.437	36777.83
530.803	37099.63
531.169	37389.79
531.535	37212.17
531.901	37379.85
532.267	37728.77
532.632	37708.2
532.998	37988.2
533.364	38153.16
533.73	38433.16
534.095	38564.23
534.461	38687.61
534.826	39080.6
535.192	39008.73
535.557	39347.48
535.923	39289.63
536.288	39597.42
536.653	39712.44
537.019	39648.04
537.384	39978.88
537.749	40072.44
538.114	40283.73
538.479	40285.31
538.845	40583.61
539.21	40452.09
539.575	40747.22
539.94	40885.52
540.305	41114.67
540.67	40885.75
541.034	41245.29
541.399	41476.69
541.764	41577.03
542.129	41800.53
542.494	41856.57
542.858	42057.24
543.223	42114.64
543.587	42371.58
543.952	42318.48
544.316	42561.18
544.681	42560.73
545.045	42734.06
545.41	42969.08
545.774	43093.6
546.138	43083.2
546.503	43299.47
546.867	43314.38
547.231	43710.53
547.595	43732.9
547.959	43874.37
548.324	43877.98
548.688	44006.57
549.052	44280.69
549.416	44344.41
549.779	44567.01
550.143	44538.53
550.507	44981.91
550.871	44961.57
551.235	44860.11
551.599	45344.84
551.962	45428.68
552.326	45629.8
552.689	45829.8
553.053	45610.14
553.417	45869.12
553.78	46267.07
554.143	46116.34
554.507	46453.28
554.87	46500.51
555.234	46825.7
555.597	46679.72
555.96	46945.93
556.323	46946.6
556.686	47250.33
557.05	47480.15
557.413	47664.55
557.776	47608.06
558.139	47955.39
558.502	48000.14
558.865	48107.48
559.228	48448.49
559.59	48479.9
559.953	48645.54
560.316	48993.78
560.679	49040.33
561.041	49255.24
561.404	49484.39
561.767	49678.28
562.129	49619.75
562.492	49977.94
562.854	49879.86
563.217	49919.63
563.579	50155.79
563.941	50343.58
564.304	50480.97
564.666	50740.4
565.028	50806.62
565.39	50939.27
565.753	51114.18
566.115	51309.88
566.477	51482.08
566.839	51410.44
567.201	51729.53
567.563	51765.01
567.925	51918.68
568.287	51906.93
568.648	52024.21
569.01	52237.99
569.372	52390.08
569.734	52397.31
570.095	52576.29
570.457	52708.49
570.819	52813.79
571.18	52875.04
571.542	52974.92
571.903	53095.82
572.265	53117.06
572.626	53259.21
572.987	53329.26
573.349	53419.43
573.71	53517.05
574.071	53558.86
574.432	53624.17
574.794	53862.58
575.155	53796.59
575.516	53734.45
575.877	53934.44
576.238	54017.61
576.599	54051.05
576.96	54081.33
577.32	54089.69
577.681	54326.3
578.042	54312.74
578.403	54266.19
578.763	54332.17
579.124	54434.09
579.485	54491.72
579.845	54587.31
580.206	54506.18
580.566	54529.46
580.927	54577.14
581.287	54680.41
581.648	54498.95
582.008	54715.67
582.368	54683.58
582.728	54674.31
583.089	54682.67
583.449	54769.9
583.809	54753.63
584.169	54792.5
584.529	54769.22
584.889	54951.14
585.249	54716.8
585.609	54695.33
585.969	54817.81
586.329	54709.56
586.688	54849.9
587.048	54837.02
587.408	54750.92
587.768	54757.47
588.127	54786.4
588.487	54734.87
588.846	54930.58
589.206	54737.13
589.565	54767.42
589.925	54962.21
590.284	54788.88
590.643	54856.68
591.003	54957.92
591.362	54900.52
591.721	54866.4
592.08	54942.55
592.44	55018.26
592.799	55049.67
593.158	54963.12
593.517	55003.34
593.876	55058.26
594.235	55014.42
594.593	55006.28
594.952	55054.41
595.311	54950.01
595.67	55023.23
596.029	55196.56
596.387	55151.59
596.746	55225.48
597.104	55143.68
597.463	55084.47
597.822	55262.09
598.18	55120.4
598.538	55113.62
598.897	55255.09
599.255	55037.01
599.613	55436.32
599.972	55232.71
600.33	55386.16
600.688	55241.98
601.046	55419.15
601.404	55441.97
601.762	55347.97
602.12	55491.01
602.478	55496.89
602.836	55579.6
603.194	55332.82
603.552	55496.89
603.91	55413.27
604.268	55537.34
604.625	55473.39
604.983	55597.9
605.341	55536.21
605.698	55607.39
606.056	55681.74
606.413	55651.01
606.771	55724.68
607.128	55788.41
607.485	55646.26
607.843	55676.32
608.2	55836.31
608.557	55907.5
608.914	55731.91
609.272	55957.44
609.629	55908.63
609.986	56059.81
610.343	55932.13
610.7	56045.12
611.057	56067.95
611.414	55991.56
611.771	56037.21
612.127	56221.39
612.484	56141.17
612.841	56257.09
613.198	56157.66
613.554	56134.16
613.911	56269.3
614.267	56366.24
614.624	56268.39
614.98	56344.1
615.337	56446.02
615.693	56247.83
616.05	56335.51
616.406	56509.97
616.762	56368.5
617.118	56381.16
617.475	56383.64
617.831	56488.5
618.187	56449.41
618.543	56478.33
618.899	56622.51
619.255	56531.44
619.611	56542.28
619.967	56573.92
620.323	56702.96
620.678	56621.83
621.034	56457.09
621.39	56509.74
621.746	56445.79
622.101	56758.32
622.457	56538.44
622.812	56650.3
623.168	56663.86
623.523	56689.17
623.879	56731.43
624.234	56522.85
624.589	56623.86
624.945	56638.33
625.3	56641.26
625.655	56662.96
626.01	56640.14
626.365	56636.29
626.72	56596.07
627.075	56615.05
627.43	56542.74
627.785	56510.19
628.14	56629.51
628.495	56623.41
628.85	56599.23
629.205	56502.51
629.559	56694.14
629.914	56441.04
630.269	56452.34
630.623	56353.81
630.978	56379.35
631.332	56464.55
631.687	56485.34
632.041	56345.45
632.396	56435.62
632.75	56287.6
633.104	56344.55
633.459	56215.97
633.813	56229.3
634.167	56172.8
634.521	56233.82
634.875	56220.49
635.229	56122.18
635.583	56015.07
635.937	56018.68
636.291	55955.63
636.645	55975.29
636.999	55939.59
637.352	55909.08
637.706	55782.76
638.06	56006.48
638.413	55806.26
638.767	55721.97
639.121	55771.91
639.474	55617.34
639.828	55624.57
640.181	55638.13
640.534	55569.2
640.888	55504.35
641.241	55415.76
641.594	55553.16
641.947	55565.81
642.301	55448.98
642.654	55448.08
643.007	55421.64
643.36	55402.2
643.713	55297.12
644.066	55393.39
644.419	55164.92
644.771	54955.21
645.124	54686.74
645.477	54670.92
645.83	54583.24
646.182	54441.1
646.535	54260.31
646.888	54334.66
647.24	54170.6
647.593	54354.32
647.945	54279.52
648.298	54155.91
648.65	53993.88
649.002	53999.75
649.355	54059.64
649.707	54028.23
650.059	54171.27
650.411	54427.09
650.763	54538.5
651.115	54766.51
651.467	54672.28
651.819	54604.26
652.171	54564.26
652.523	54550.92
652.875	54521.09
653.227	54379.86
653.578	54553.86
653.93	54361.1
654.282	54314.55
654.633	54287.65
654.985	54310.03
655.337	54248.79
655.688	54304.83
656.039	54313.19
656.391	54089.02
656.742	54146.19
657.094	54226.64
657.445	54154.78
657.796	54111.61
658.147	54035.01
658.498	54086.08
658.849	54056.7
659.2	54023.48
659.551	53973.76
659.902	54009.47
660.253	53978.28
660.604	53984.39
660.955	53844.28
661.306	54043.82
661.656	53922.47
662.007	53958.85
662.358	53835.69
662.708	53877.27
663.059	53806.09
663.409	53691.51
663.76	53961.34
664.11	53844.5
664.461	53775.13
664.811	53835.46
665.161	53770.38
665.511	53736.48
665.862	53747.56
666.212	53815.8
666.562	53736.48
666.912	53711.62
667.262	53652.42
667.612	53606.32
667.962	53653.55
668.312	53548.01
668.662	53715.24
669.011	53573.55
669.361	53535.13
669.711	53425.08
670.06	53464.4
670.41	53412.2
670.76	53330.84
671.109	53462.82
671.459	53381.01
671.808	53305.08
672.157	53418.07
672.507	53238.42
672.856	53237.74
673.205	53275.93
673.554	53246.1
673.904	53135.82
674.253	53345.31
674.602	53237.96
674.951	52817.18
675.3	52515.05
675.649	53133.56
675.998	53008.59
676.346	53032.55
676.695	53207
677.044	52968.59
677.393	52957.07
677.741	53037.29
678.09	52898.31
678.438	52768.82
678.787	52938.76
679.135	52878.43
679.484	52656.96
679.832	52830.97
680.181	52574.48
680.529	52643.4
680.877	52579.9
681.225	52562.05
681.573	52708.26
681.922	52494.48
682.27	52362.28
682.618	52345.56
682.966	52264.66
683.314	52315.73
683.661	52174.94
684.009	52107.82
684.357	52074.15
684.705	51930.88
685.053	51936.53
685.4	51926.81
685.748	51771.79
686.095	51745.12
686.443	51653.15
686.79	51572.7
687.138	51715.29
687.485	51520.5
687.832	51534.51
688.18	51562.3
688.527	51416.09
688.874	51244.8
689.221	51188.75
689.568	51082.32
689.915	50960.28
690.262	50898.59
690.609	50830.8
690.956	50810.23
691.303	50701.08
691.65	50521.43
691.997	50515.78
692.344	50287.31
692.69	50339.28
693.037	50201.43
693.383	49975
693.73	50156.46
694.077	49829.69
694.423	49851.84
694.769	49781.11
695.116	49709.02
695.462	49578.4
695.808	49416.14
696.155	49543.82
696.501	49166.43
696.847	49299.99
697.193	48902.71
697.539	49173.44
697.885	48771.87
698.231	48705.65
698.577	48618.65
698.923	48682.83
699.269	48427.24
699.614	48282.61
699.96	48137.99
700.306	48134.14
700.651	47963.08
700.997	47945.22
701.342	47878.11
701.688	47824.32
702.033	47770.54
702.379	47705.91
702.724	47550.2
703.069	47597.21
703.415	47031.57
703.76	47170.78
704.105	47111.57
704.45	46971.69
704.795	46829.09
705.14	46619.38
705.485	46637.46
705.83	46449.67
706.175	46419.61
706.52	46373.29
706.865	46180.3
707.209	46022.34
707.554	46000.64
707.899	46112.28
708.243	45890.14
708.588	45919.74
708.932	45529.24
709.277	45424.16
709.621	45543.25
709.966	45289.92
710.31	45370.6
710.654	44943.95
710.998	45026.88
711.342	44978.75
711.687	44920.9
712.031	44774.91
712.375	44569.49
712.719	44683.84
713.063	44518.19
713.407	44713.44
713.75	44301.48
714.094	44293.12
714.438	44185.32
714.782	44226.9
715.125	43999.34
715.469	44208.15
715.812	43866.46
716.156	43744.2
716.499	43737.42
716.843	43535.85
717.186	43521.84
717.53	43550.54
717.873	43715.5
718.216	43462.63
718.559	43304.44
718.902	43075.29
719.246	43173.82
719.589	42922.76
719.932	42865.36
720.275	42849.99
720.617	42790.1
720.96	42576.1
721.303	42714.17
721.646	42608.87
721.989	42342.43
722.331	42620.62
722.674	42448.87
723.016	42331.58
723.359	42310.79
723.701	42239.38
724.044	42031.93
724.386	41839.85
724.729	41897.92
725.071	41880.52
725.413	41758.04
725.755	41850.02
726.097	41494.54
726.439	41443.47
726.782	41324.83
727.124	41720.08
727.465	41347.2
727.807	41201.67
728.149	41213.42
728.491	41208.22
728.833	41103.59
729.175	40960.1
729.516	41016.14
729.858	40836.71
730.199	40856.6
730.541	40780.67
730.882	40692.76
731.224	40848.69
731.565	40544.29
731.906	40542.48
732.248	40501.12
732.589	40414.57
732.93	40252.32
733.271	40245.09
733.612	40278.08
733.953	40111.3
734.294	40124.86
734.635	39987.92
734.976	40031.76
735.317	39890.52
735.658	39790.86
735.999	39737.3
736.339	39579.79
736.68	39690.75
737.021	39563.97
737.361	39464.32
737.702	39517.87
738.042	39412.11
738.383	39235.62
738.723	39341.83
739.063	39217.32
739.404	39131.22
739.744	39145.45
740.084	38890.09
740.424	39046.93
740.764	38798.12
741.104	38906.82
741.444	38630.21
741.784	38676.77
742.124	38700.27
742.464	38684
742.804	38529.2
743.143	38374.85
743.483	38451.91
743.823	38249.88
744.162	38248.98
744.502	38343.44
744.841	37997.69
745.181	38212.37
745.52	37959.95
745.86	38042.21
746.199	37989.55
746.538	37943.23
746.877	37968.99
747.216	37822.32
747.556	37638.15
747.895	37683.57
748.234	37466.18
748.573	37419.85
748.911	37345.73
749.25	37501.88
749.589	37231.83
749.928	37031.61
750.267	37241.1
750.605	37178.05
750.944	37088.78
751.283	36850.82
751.621	36944.16
751.96	36858.51
752.298	36747.32
752.636	36671.39
752.975	36519.76
753.313	36344.4
753.651	36490.16
753.989	36306.21
754.327	36165.65
754.666	36029.15
755.004	36043.16
755.342	36146.44
755.679	35949.61
756.017	35724.98
756.355	35815.15
756.693	35634.59
757.031	35652.66
757.368	35333.58
757.706	35461.93
758.044	35176.74
758.381	35228.49
758.719	35145.78
759.056	35110.98
759.394	34904.44
759.731	34652.01
760.068	34586.7
760.405	34565.01
760.743	34430.32
761.08	34524.56
761.417	34434.84
761.754	34190.33
762.091	34122.31
762.428	34086.15
762.765	33895.2
763.102	34064.01
763.438	33838.02
763.775	33676.67
764.112	33489.56
764.449	33524.81
764.785	33318.94
765.122	33149.23
765.458	33066.52
765.795	32972.28
766.131	32973.19
766.467	32866.07
766.804	32757.83
767.14	32641.44
767.476	32589.69
767.812	32284.62
768.148	32264.05
768.485	32079.65
768.821	31894.12
769.157	31964.17
769.492	31913.1
769.828	31790.84
770.164	31538.42
770.5	31476.95
770.836	31447.58
771.171	31227.7
771.507	31200.8
771.842	31025.89
772.178	30915.84
772.513	30949.51
772.849	30883.52
773.184	30636.3
773.519	30610.31
773.855	30465.68
774.19	30288.51
774.525	30280.6
774.86	30224.78
775.195	30137.78
775.53	29951.12
775.865	29820.73
776.2	29641.07
776.535	29342.55
776.87	29527.85
777.205	29225.49
777.539	29168.31
777.874	29274.07
778.209	29033.86
778.543	29023.46
778.878	28784.6
779.212	28750.7
779.547	28484.49
779.881	28616.01
780.215	28344.83
780.55	28473.42
780.884	28253.31
781.218	28321.11
781.552	28191.39
781.886	28071.62
782.22	27755.02
782.554	27610.62
782.888	27383.05
783.222	27458.98
783.556	27312.54
783.889	27261.7
784.223	27031.87
784.557	27138.76
784.89	27093.12
785.224	26832.33
785.557	26663.07
785.891	26694.48
786.224	26627.36
786.558	26578.78
786.891	26383.53
787.224	26164.1
787.557	26175.85
787.891	26122.29
788.224	25999.36
788.557	26093.37
788.89	25896.99
789.223	25925.01
789.556	25599.37
789.888	25585.58
790.221	25479.6
790.554	25297.68
790.887	25387.4
791.219	25116.22
791.552	25201.41
791.884	24979.72
792.217	24907.18
792.549	24836.45
792.882	24721.2
793.214	24647.76
793.546	24635.33
793.879	24473.98
794.211	24384.26
794.543	24512.17
794.875	24252.96
795.207	24324.15
795.539	24222.68
795.871	24234.43
796.203	23986.3
796.535	23792.41
796.867	23696.37
797.198	23743.37
797.53	23672.64
797.862	23596.26
798.193	23609.37
798.525	23389.48
798.856	23396.26
799.188	23126.89
799.519	23077.85
799.85	22973.9
800.182	23022.04
800.513	22998.08
800.844	22859.33
801.175	22856.16
801.506	22861.14
801.837	22694.59
802.168	22638.77
802.499	22592.67
802.83	22429.74
803.161	22372.56
803.491	22293.69
803.822	22251.89
804.153	22276.97
804.483	22106.13
804.814	22000.59
805.145	22037.43
805.475	22013.47
805.805	21804.21
806.136	21861.61
806.466	21726.48
806.796	21788.85
807.126	21604.45
807.457	21545.46
807.787	21546.14
808.117	21439.93
808.447	21375.07
808.777	21337.11
809.107	21298.47
809.436	21175.3
809.766	21203.78
810.096	21083.56
810.426	21042.88
810.755	21003.33
811.085	20954.97
811.414	20881.75
811.744	20792.94
812.073	20672.72
812.403	20659.61
812.732	20605.38
813.061	20623.68
813.39	20384.37
813.719	20363.12
814.049	20447.64
814.378	20358.6
814.707	20303.24
815.036	20280.87
815.365	20193.64
815.693	19972.17
816.022	19938.5
816.351	19941.89
816.68	19788.22
817.008	19903.93
817.337	19771.73
817.665	19717.26
817.994	19793.42
818.322	19601.33
818.651	19682.69
818.979	19516.82
819.307	19687.21
819.636	19604.95
819.964	19429.81
820.292	19510.94
820.62	19460.55
820.948	19271.17
821.276	19453.09
821.604	19470.94
821.932	19407.44
822.259	19458.29
822.587	19363.38
822.915	19322.02
823.243	19384.84
823.57	19314.56
823.898	19294.68
824.225	19314.34
824.553	19239.31
824.88	19341.23
825.207	19308.01
825.535	19320.44
825.862	19306.65
826.189	19271.17
826.516	19225.98
826.843	19354.34
827.17	19292.64
827.497	19320.44
827.824	19305.75
828.151	19260.33
828.478	19226.88
828.805	19339.87
829.131	19236.15
829.458	19233.43
829.785	19164.51
830.111	19258.07
830.438	19257.39
830.764	19282.93
831.09	19290.83
831.417	19135.13
831.743	19143.04
832.069	19209.25
832.395	19084.51
832.722	19057.62
833.048	19079.31
833.374	19023.72
833.7	18933.1
834.026	18952.76
834.351	19073.89
834.677	18963.39
835.003	19019.66
835.329	19000.67
835.654	18929.04
835.98	18850.17
836.306	18851.07
836.631	18772.88
836.956	18866.21
837.282	18723.17
837.607	18677.74
837.932	18713.9
838.258	18712.77
838.583	18701.92
838.908	18557.75
839.233	18576.73
839.558	18564.75
839.883	18372.21
840.208	18418.09
840.533	18451.99
840.858	18381.93
841.182	18397.52
841.507	18235.27
841.832	18266
842.156	18334.7
842.481	18183.75
842.805	18151.2
843.13	18067.59
843.454	18060.36
843.778	18032.56
844.103	18039.79
844.427	17946.92
844.751	17934.03
845.075	17886.8
845.399	17760.71
845.723	17782.17
846.047	17766.35
846.371	17509.86
846.695	17507.83
847.019	17412.01
847.343	17434.39
847.666	17292.7
847.99	17291.79
848.313	17197.78
848.637	17081.18
848.96	17024.68
849.284	16972.48
849.607	16929.09
849.931	16832.82
850.254	16753.73
850.577	16662.43
850.9	16544.69
851.223	16548.31
851.546	16416.56
851.869	16337.47
852.192	16385.15
852.515	16286.85
852.838	16179.28
853.161	16308.77
853.483	16116.91
853.806	16039.17
854.129	16017.47
854.451	15869.23
854.774	15859.74
855.096	15781.55
855.419	15799.4
855.741	15817.71
856.063	15672.17
856.385	15602.34
856.708	15567.09
857.03	15584.27
857.352	15539.75
857.674	15419.07
857.996	15351.5
858.318	15298.17
858.64	15264.05
858.961	15265.18
859.283	15125.75
859.605	15091.85
859.926	15139.31
860.248	15043.94
860.57	15025.86
860.891	14991.06
861.212	14959.2
861.534	15032.19
861.855	14837.84
862.176	14950.84
862.498	14867.9
862.819	14888.46
863.14	14744.29
863.461	14793.55
863.782	14773.89
864.103	14772.99
864.424	14690.28
864.745	14630.62
865.065	14623.16
865.386	14572.77
865.707	14593.33
866.027	14499.32
866.348	14567.34
866.668	14474.01
866.989	14485.99
867.309	14319.44
867.63	14394.92
867.95	14343.85
868.27	14338.2
868.59	14289.61
868.91	14235.83
869.23	14227.92
869.55	14189.05
869.87	14246.22
870.19	14201.02
870.51	14093.23
870.83	14180.01
871.15	14048.49
871.469	14075.15
871.789	14138.65
872.109	14089.62
872.428	13956.06
872.748	14106.79
873.067	13971.88
873.386	14025.66
873.706	13979.11
874.025	13978.43
874.344	13829.74
874.663	13866.12
874.982	13785.89
875.301	13794.48
875.62	13775.73
875.939	13687.14
876.258	13802.39
876.577	13672.9
876.896	13730.53
877.214	13614.15
877.533	13624.77
877.852	13583.41
878.17	13585.22
878.489	13519.01
878.807	13567.14
879.125	13484.21
879.444	13534.6
879.762	13499.8
880.08	13505.68
880.398	13390.2
880.716	13435.17
881.034	13366.92
881.352	13355.62
881.67	13429.97
881.988	13321.5
882.306	13196.31
882.624	13266.36
882.941	13169.87
883.259	13086.25
883.577	13111.11
883.894	13082.86
884.212	13072.69
884.529	13053.26
884.846	13020.26
885.164	13069.3
885.481	12949.08
885.798	12947.72
886.115	12805.58
886.432	12839.93
886.75	12813.04
887.067	12784.34
887.383	12808.29
887.7	12811.68
888.017	12629.99
888.334	12687.17
888.651	12610.33
888.967	12570.11
889.284	12561.97
889.6	12530.56
889.917	12433.61
890.233	12452.6
890.55	12429.55
890.866	12424.57
891.182	12360.62
891.498	12379.6
891.815	12202.21
892.131	12204.92
892.447	12184.58
892.763	12133.06
893.079	12135.32
893.395	12096.9
893.71	12040.63
894.026	12046.96
894.342	12045.6
894.657	11960.63
894.973	11928.32
895.289	11886.96
895.604	11907.98
895.92	11739.85
896.235	11756.34
896.55	11666.18
896.865	11697.59
897.181	11616.23
897.496	11620.53
897.811	11573.3
898.126	11528.33
898.441	11445.17
898.756	11394.32
899.071	11377.82
899.386	11348.9
899.7	11331.95
900.015	11213.53
900.33	11190.48
900.644	11224.61
900.959	11189.8
901.273	11139.18
901.588	10997.04
901.902	10975.12
902.216	10905.29
902.531	10939.87
902.845	10959.98
903.159	10793.66
903.473	10774.22
903.787	10735.13
904.101	10701
904.415	10714.11
904.729	10661.68
905.042	10590.95
905.356	10592.08
905.67	10563.61
905.984	10522.03
906.297	10496.26
906.611	10335.82
906.924	10470.28
907.237	10380.33
907.551	10353.22
907.864	10300.79
908.177	10237.51
908.491	10186.89
908.804	10016.73
909.117	10084.3
909.43	10016.05
909.743	9988.03
910.056	10003.62
910.368	9931.53
910.681	9815.38
910.994	9865.32
911.307	9761.82
911.619	9675.27
911.932	9709.62
912.244	9684.53
912.557	9602.28
912.869	9586.68
913.181	9555.72
913.494	9515.95
913.806	9463.75
914.118	9445.67
914.43	9369.74
914.742	9380.36
915.054	9263.3
915.366	9308.5
915.678	9251.78
915.99	9206.81
916.302	9111.44
916.613	9076.87
916.925	9075.06
917.236	9060.37
917.548	8983.99
917.859	8961.84
918.171	8915.51
918.482	8899.02
918.794	8889.75
919.105	8885.46
919.416	8795.29
919.727	8781.51
920.038	8682.53
920.349	8669.42
920.66	8649.08
920.971	8574.73
921.282	8529.54
921.593	8504.23
921.903	8503.77
922.214	8414.28
922.525	8388.97
922.835	8393.27
923.146	8298.36
923.456	8282.54
923.767	8269.66
924.077	8182.2
924.387	8169.77
924.697	8118.7
925.008	8174.29
925.318	8118.47
925.628	8084.35
925.938	8046.84
926.248	7911.7
926.558	7972.71
926.867	7886.61
927.177	7897.69
927.487	7820.18
927.796	7759.39
928.106	7804.58
928.416	7755.32
928.725	7704.92
929.034	7652.95
929.344	7671.93
929.653	7619.28
929.962	7521.2
930.271	7576.79
930.581	7483.69
930.89	7494.31
931.199	7432.62
931.508	7419.28
931.817	7372.96
932.125	7370.7
932.434	7350.13
932.743	7247.54
933.051	7189.46
933.36	7230.81
933.669	7166.41
933.977	7170.7
934.286	7104.94
934.594	7020.42
934.902	7035.56
935.21	6972.06
935.519	7005.96
935.827	7015
936.135	6923.25
936.443	6859.07
936.751	6826.08
937.059	6789.92
937.367	6811.84
937.674	6779.98
937.982	6734.1
938.29	6728.9
938.597	6718.51
938.905	6584.95
939.213	6568.68
939.52	6578.4
939.827	6565.07
940.135	6524.39
940.442	6507.89
940.749	6478.97
941.056	6497.5
941.363	6399.2
941.67	6355.36
941.977	6276.26
942.284	6320.1
942.591	6358.75
942.898	6257.28
943.205	6228.35
943.511	6243.72
943.818	6155.13
944.125	6134.57
944.431	6071.52
944.738	6057.74
945.044	6131.41
945.35	6064.29
945.657	6019.55
945.963	5961.02
946.269	5979.77
946.575	5910.17
946.881	5883.5
947.187	5907.01
947.493	5815.03
947.799	5820.45
948.105	5848.93
948.41	5781.13
948.716	5748.59
949.022	5710.85
949.327	5689.84
949.633	5699.55
949.938	5685.09
950.244	5622.49
950.549	5597.41
950.854	5566
951.16	5556.73
951.465	5534.36
951.77	5493.46
952.075	5491.2
952.38	5496.85
952.685	5457.75
952.99	5372.33
953.294	5392.67
953.599	5331.43
953.904	5335.27
954.209	5327.81
954.513	5280.36
954.818	5309.73
955.122	5250.75
955.426	5217.31
955.731	5224.31
956.035	5130.98
956.339	5142.05
956.643	5105.67
956.948	5109.74
957.252	5024.77
957.556	5100.02
957.86	5015.96
958.163	5040.36
958.467	5015.96
958.771	4989.06
959.075	4929.86
959.378	4936.64
959.682	4882.85
959.985	4860.48
960.289	4852.8
960.592	4819.12
960.896	4786.81
961.199	4786.58
961.502	4770.99
961.805	4729.41
962.108	4720.82
962.411	4721.05
962.714	4667.26
963.017	4641.73
963.32	4664.78
963.623	4641.5
963.926	4596.53
964.228	4608.73
964.531	4555.85
964.833	4538.23
965.136	4481.96
965.438	4483.54
965.741	4458.68
966.043	4491.22
966.345	4434.95
966.648	4394.5
966.95	4423.88
967.252	4370.32
967.554	4347.27
967.856	4379.59
968.158	4318.12
968.46	4295.3
968.761	4283.32
969.063	4267.05
969.365	4200.61
969.666	4204.45
969.968	4208.75
970.269	4161.06
970.571	4157
970.872	4149.31
971.174	4102.99
971.475	4090.1
971.776	4063.66
972.077	4108.63
972.378	4092.36
972.679	3990.9
972.98	4004.46
973.281	3971.69
973.582	3992.93
973.883	3954.51
974.183	3938.02
974.484	3939.6
974.785	3900.96
975.085	3885.82
975.386	3930.56
975.686	3837.46
975.986	3812.82
976.287	3823.22
976.587	3785.93
976.887	3805.14
977.187	3749.77
977.487	3723.79
977.787	3747.29
978.087	3689.66
978.387	3695.31
978.687	3680.4
978.987	3677.46
979.286	3647.63
979.586	3641.98
979.885	3602.89
980.185	3606.28
980.484	3581.42
980.784	3556.11
981.083	3549.55
981.382	3510.46
981.682	3518.59
981.981	3497.58
982.28	3479.27
982.579	3463
982.878	3476.11
983.177	3465.94
983.475	3434.75
983.774	3421.42
984.073	3409.22
984.372	3331.25
984.67	3361.99
984.969	3374.64
985.267	3348.88
985.566	3284.25
985.864	3303.46
986.162	3281.09
986.461	3286.51
986.759	3271.82
987.057	3240.41
987.355	3254.19
987.653	3253.29
987.951	3183.01
988.249	3190.24
988.547	3191.6
988.844	3173.52
989.142	3106.18
989.44	3091.94
989.737	3097.81
990.035	3107.31
990.332	3083.13
990.63	3073.86
990.927	2981.43
991.224	3024.6
991.521	3047.65
991.819	3007.19
992.116	3008.55
992.413	2927.87
992.71	2993.64
993.006	2952.51
993.303	2913.64
993.6	2904.6
993.897	2900.76
994.193	2871.15
994.49	2875.67
994.787	2861.89
995.083	2861.44
995.379	2816.92
995.676	2824.15
995.972	2796.8
996.268	2794.55
996.565	2779.18
996.861	2785.51
997.157	2755.9
997.453	2716.81
997.749	2726.75
998.044	2682.23
998.34	2679.97
998.636	2676.13
998.932	2657.37
999.227	2620.76
999.523	2625.28
999.818	2601.56
1000.114	2604.49
1000.409	2602.46
1000.704	2557.04
1001	2571.5
1001.295	2542.12
1001.59	2536.02
1001.885	2499.64
1002.18	2496.7
1002.475	2486.08
1002.77	2467.32
1003.065	2451.05
1003.359	2420.54
1003.654	2446.08
1003.949	2423.71
1004.243	2419.19
1004.538	2369.02
1004.832	2388.23
1005.127	2368.57
1005.421	2364.95
1005.715	2357.72
1006.009	2305.52
1006.304	2327.66
1006.598	2269.14
1006.892	2292.86
1007.186	2276.59
1007.48	2262.36
1007.773	2234.56
1008.067	2235.46
1008.361	2206.31
1008.655	2185.75
1008.948	2188.01
1009.242	2171.28
1009.535	2144.84
1009.829	2148.01
1010.122	2116.82
1010.415	2114.34
1010.708	2111.4
1011.001	2079.54
1011.295	2109.82
1011.588	2089.7
1011.881	2074.34
1012.173	2043.38
1012.466	2041.57
1012.759	2020.78
1013.052	2023.27
1013.344	2021.46
1013.637	1977.17
1013.93	1986.66
1014.222	1966.77
1014.514	1935.13
1014.807	1941.46
1015.099	1931.52
1015.391	1926.09
1015.683	1900.11
1015.976	1879.77
1016.268	1872.99
1016.56	1858.98
1016.851	1847.23
1017.143	1852.42
1017.435	1848.58
1017.727	1832.99
1018.018	1788.24
1018.31	1791.63
1018.602	1793.22
1018.893	1792.99
1019.185	1766.78
1019.476	1743.27
1019.767	1741.01
1020.058	1728.36
1020.35	1723.61
1020.641	1689.26
1020.932	1708.25
1021.223	1693.78
1021.514	1672.09
1021.804	1651.75
1022.095	1657.85
1022.386	1646.1
1022.677	1594.58
1022.967	1624.18
1023.258	1604.75
1023.548	1588.25
1023.839	1572.2
1024.129	1573.33
1024.419	1555.03
1024.709	1556.84
1025	1558.65
1025.29	1545.31
1025.58	1536.5
1025.87	1497.4
1026.16	1484.98
1026.449	1497.18
1026.739	1503.73
1027.029	1445.88
1027.319	1449.04
1027.608	1437.52
1027.898	1450.63
1028.187	1404.07
1028.477	1415.6
1028.766	1435.48
1029.055	1366.79
1029.344	1380.8
1029.634	1369.05
1029.923	1361.59
1030.212	1352.55
1030.501	1353.23
1030.79	1325.21
1031.078	1315.04
1031.367	1325.21
1031.656	1317.52
1031.945	1297.86
1032.233	1275.94
1032.522	1277.75
1032.81	1263.06
1033.099	1260.35
1033.387	1266.9
1033.675	1251.99
1033.963	1247.47
1034.251	1194.59
1034.54	1221.71
1034.828	1239.33
1035.116	1198.2
1035.403	1195.49
1035.691	1177.19
1035.979	1189.84
1036.267	1195.49
1036.554	1174.7
1036.842	1141.93
1037.129	1141.71
1037.417	1139.67
1037.704	1167.24
1037.992	1104.42
1038.279	1094.93
1038.566	1084.53
1038.853	1084.53
1039.14	1084.53
