Data from white_poster_card_FLMS001491_00054.txt Node
Date: Wed Feb 08 11:51:42 GMT 2017
User: dcchb
Spectrometer: FLMS00149
Trigger mode: 0
Integration Time (sec): 2.000000E-2
Scans to average: 10
Electric dark correction enabled: true
Nonlinearity correction enabled: false
Boxcar width: 0
XAxis mode: Wavelengths
Number of Pixels in Spectrum: 2048
>>>>>Begin Spectral Data<<<<<
341.393	-16.27
341.776	-16.27
342.16	-16.27
342.543	-67.34
342.927	-84.52
343.31	-65.31
343.693	-76.38
344.077	-85.2
344.46	-60.79
344.843	-43.84
345.226	-54.46
345.61	-14.46
345.993	-2.49
346.376	-11.75
346.759	9.49
347.142	30.73
347.525	42.71
347.908	62.15
348.291	66.21
348.674	100.79
349.057	102.6
349.44	122.03
349.823	133.56
350.206	163.61
350.588	203.16
350.971	183.5
351.354	254.23
351.737	237.06
352.119	263.5
352.502	262.82
352.884	270.28
353.267	279.31
353.65	310.05
354.032	284.96
354.414	323.83
354.797	319.31
355.179	320.44
355.562	304.4
355.944	316.15
356.326	325.64
356.709	342.36
357.091	340.56
357.473	331.97
357.855	347.79
358.238	351.86
358.62	352.53
359.002	332.42
359.384	313.89
359.766	349.14
360.148	343.49
360.53	326.32
360.912	334
361.294	346.43
361.676	351.18
362.057	330.16
362.439	300.33
362.821	337.39
363.203	331.52
363.584	331.52
363.966	331.74
364.348	306.88
364.729	319.77
365.111	307.79
365.493	327.22
365.874	318.64
366.256	328.13
366.637	309.14
367.019	336.94
367.4	316.83
367.781	333.1
368.163	325.19
368.544	303.95
368.925	318.86
369.306	320.67
369.688	303.95
370.069	319.54
370.45	325.64
370.831	325.42
371.212	311.63
371.593	311.86
371.974	307.79
372.355	303.95
372.736	322.48
373.117	323.61
373.498	311.4
373.879	334.45
374.26	322.03
374.641	320.9
375.021	321.8
375.402	321.57
375.783	324.06
376.163	318.64
376.544	321.8
376.925	342.82
377.305	335.13
377.686	336.71
378.066	341.69
378.447	324.29
378.827	331.74
379.208	332.87
379.588	325.19
379.968	341.46
380.349	333.1
380.729	341.69
381.109	344.17
381.489	334
381.87	334.23
382.25	357.28
382.63	356.37
383.01	365.19
383.39	353.44
383.77	351.18
384.15	358.86
384.53	338.97
384.91	364.06
385.29	367.67
385.67	360.44
386.049	382.36
386.429	341.46
386.809	373.32
387.189	363.83
387.568	367.22
387.948	365.19
388.328	374.45
388.707	371.29
389.087	359.09
389.466	369.71
389.846	391.4
390.225	384.4
390.605	390.05
390.984	370.39
391.363	402.48
391.743	405.19
392.122	393.89
392.501	403.15
392.881	399.54
393.26	416.03
393.639	412.42
394.018	394.79
394.397	406.54
394.776	424.85
395.155	407.45
395.534	429.37
395.913	403.61
396.292	420.33
396.671	415.58
397.05	438.86
397.429	432.76
397.808	411.97
398.186	450.38
398.565	425.3
398.944	453.32
399.323	430.05
399.701	427.11
400.08	445.86
400.458	453.32
400.837	445.86
401.215	460.78
401.594	455.13
401.972	461.68
402.351	474.34
402.729	451.97
403.107	463.49
403.486	494.45
403.864	468.91
404.242	476.82
404.62	483.83
404.999	491.96
405.377	496.26
405.755	502.81
406.133	505.75
406.511	505.07
406.889	496.03
407.267	531.74
407.645	489.03
408.023	526.09
408.401	526.77
408.779	541.23
409.156	558.86
409.534	568.12
409.912	583.49
410.29	564.05
410.667	612.41
411.045	611.51
411.422	633.2
411.8	623.94
412.178	650.6
412.555	667.33
412.933	670.94
413.31	655.35
413.687	687.89
414.065	715.91
414.442	730.15
414.819	751.39
415.197	749.81
415.574	745.07
415.951	783.03
416.328	796.14
416.705	819.41
417.082	807.89
417.46	839.98
417.837	845.4
418.214	835.01
418.591	877.04
418.967	885.4
419.344	900.77
419.721	891.73
420.098	924.5
420.475	923.14
420.852	941.67
421.228	958.62
421.605	1002.23
421.982	980.99
422.358	994.55
422.735	1023.48
423.111	1011.27
423.488	1059.86
423.864	1044.04
424.241	1076.13
424.617	1091.72
424.994	1081.33
425.37	1103.7
425.746	1137.6
426.123	1134.21
426.499	1154.32
426.875	1157.48
427.251	1174.43
427.627	1208.78
428.003	1194.77
428.379	1250.81
428.756	1257.14
429.132	1258.95
429.507	1300.98
429.883	1327.87
430.259	1332.39
430.635	1340.3
431.011	1378.04
431.387	1381.21
431.763	1443.8
432.138	1440.64
432.514	1451.04
432.89	1462.79
433.265	1502.56
433.641	1505.05
434.016	1548.21
434.392	1563.8
434.767	1586.85
435.143	1593.63
435.518	1603.12
435.894	1632.27
436.269	1639.05
436.644	1665.04
437.02	1684.02
437.395	1683.12
437.77	1734.64
438.145	1743.91
438.52	1759.28
438.895	1778.48
439.271	1817.81
439.646	1825.94
440.021	1867.97
440.395	1828.43
440.77	1832.95
441.145	1811.48
441.52	1872.95
441.895	1895.77
442.27	1910.91
442.645	1925.6
443.019	1953.39
443.394	1940.97
443.769	1956.56
444.143	1959.95
444.518	2004.69
444.892	1979.61
445.267	1997.01
445.641	2012.83
446.016	2033.84
446.39	2050.79
446.764	2019.61
447.139	2059.61
447.513	2059.38
447.887	2067.52
448.262	2097.12
448.636	2072.04
449.01	2138.93
449.384	2173.95
449.758	2151.58
450.132	2170.34
450.506	2192.03
450.88	2232.94
451.254	2231.13
451.628	2215.31
452.002	2281.75
452.376	2300.73
452.75	2330.79
453.123	2322.2
453.497	2352.03
453.871	2356.1
454.244	2413.5
454.618	2446.49
454.992	2460.05
455.365	2446.49
455.739	2534.62
456.112	2540.5
456.486	2599.71
456.859	2580.72
457.232	2618.69
457.606	2623.66
457.979	2680.16
458.352	2733.71
458.725	2743.43
459.099	2766.93
459.472	2815.52
459.845	2848.06
460.218	2896.2
460.591	2937.78
460.964	2947.04
461.337	2988.62
461.71	3028.39
462.083	3054.83
462.456	3038.56
462.829	3054.83
463.201	3109.97
463.574	3146.13
463.947	3189.52
464.32	3248.73
464.692	3263.19
465.065	3289.41
465.438	3316.07
465.81	3363.08
466.183	3401.49
466.555	3459.57
466.928	3526.69
467.3	3525.78
467.672	3589.51
468.045	3658.89
468.417	3633.8
468.789	3664.76
469.161	3719.22
469.534	3795.38
469.906	3909.28
470.278	3933.23
470.65	3930.07
471.022	3996.96
471.394	4073.11
471.766	4113.34
472.138	4182.49
472.51	4246.67
472.882	4310.4
473.253	4363.28
473.625	4409.38
473.997	4492.09
474.369	4516.94
474.74	4583.16
475.112	4657.5
475.484	4731.63
475.855	4790.16
476.227	4842.58
476.598	4969.36
476.97	4998.51
477.341	5107.89
477.713	5208.68
478.084	5180.43
478.455	5319.41
478.827	5406.86
479.198	5514.43
479.569	5558.5
479.94	5677.82
480.311	5808.43
480.682	5883.24
481.053	6000.29
481.424	6063.12
481.795	6178.37
482.166	6210.91
482.537	6326.16
482.908	6454.75
483.279	6504.69
483.65	6673.72
484.021	6737.45
484.391	6813.61
484.762	6885.69
485.133	6924.11
485.503	7074.16
485.874	7213.14
486.244	7201.84
486.615	7392.8
486.985	7461.72
487.356	7643.64
487.726	7709.18
488.097	7815.16
488.467	7860.36
488.837	8028.04
489.207	8154.59
489.578	8166.79
489.948	8279.56
490.318	8472.09
490.688	8536.72
491.058	8603.84
491.428	8696.72
491.798	8802.03
492.168	8945.08
492.538	9073.89
492.908	9149.59
493.278	9232.75
493.648	9248.8
494.017	9429.58
494.387	9464.38
494.757	9602.91
495.126	9750.25
495.496	9710.71
495.866	9762.46
496.235	9886.29
496.605	10003.13
496.974	10064.14
497.344	10149.34
497.713	10236.12
498.082	10305.49
498.452	10375.55
498.821	10463.23
499.19	10498.48
499.559	10629.78
499.928	10710.68
500.298	10803.33
500.667	10914.29
501.036	10858.02
501.405	11062.99
501.774	10950.22
502.143	11097.34
502.512	11177.79
502.88	11295.75
503.249	11236.09
503.618	11448.29
503.987	11392.24
504.356	11505.23
504.724	11625.01
505.093	11670.88
505.462	11734.83
505.83	11891.89
506.199	11979.35
506.567	12127.82
506.936	12053.24
507.304	12194.93
507.672	12241.71
508.041	12311.31
508.409	12411.65
508.777	12540.91
509.145	12676.28
509.514	12693.68
509.882	12799.89
510.25	12819.32
510.618	12941.58
510.986	13024.06
511.354	13234.91
511.722	13244.17
512.09	13425.41
512.458	13410.49
512.826	13500.21
513.193	13572.75
513.561	13630.83
513.929	13787.43
514.297	13933.87
514.664	13991.27
515.032	14026.3
515.4	14178.61
515.767	14270.36
516.135	14423.58
516.502	14336.12
516.869	14611.14
517.237	14631.71
517.604	14673.51
517.972	14886.84
518.339	14892.49
518.706	14942.66
519.073	15135.42
519.44	15235.53
519.808	15298.35
520.175	15317.56
520.542	15637.33
520.909	15706.93
521.276	15699.47
521.643	15870.54
522.009	16020.14
522.376	16156.86
522.743	16153.47
523.11	16457.19
523.477	16595.95
523.843	16625.78
524.21	16807.24
524.577	16977.41
524.943	16990.74
525.31	17187.12
525.676	17371.97
526.043	17381.69
526.409	17438.19
526.776	17710.49
527.142	17750.04
527.508	17818.74
527.874	18059.64
528.241	18159.07
528.607	18239.07
528.973	18383.25
529.339	18419.85
529.705	18607.42
530.071	18725.84
530.437	18850.13
530.803	18974.42
531.169	19083.79
531.535	19104.36
531.901	19233.84
532.267	19294.18
532.632	19307.06
532.998	19483.56
533.364	19615.08
533.73	19744.57
534.095	19863.88
534.461	19899.82
534.826	20008.06
535.192	20138.23
535.557	20319.92
535.923	20323.31
536.288	20386.36
536.653	20452.34
537.019	20422.06
537.384	20544.54
537.749	20688.27
538.114	20742.05
538.479	20733.47
538.845	20883.97
539.21	20839.68
539.575	21132.33
539.94	21119.9
540.305	21176.62
540.67	21281.02
541.034	21376.84
541.399	21507.23
541.764	21517.17
542.129	21588.81
542.494	21641.46
542.858	21782.03
543.223	21904.06
543.587	21972.53
543.952	21909.25
544.316	22105.18
544.681	22046.88
545.045	22146.99
545.41	22193.31
545.774	22261.11
546.138	22392.18
546.503	22472.18
546.867	22485.74
547.231	22665.17
547.595	22754.88
547.959	22779.97
548.324	22872.84
548.688	22919.17
549.052	23050.02
549.416	23138.15
549.779	23169.33
550.143	23135.21
550.507	23461.53
550.871	23486.39
551.235	23405.26
551.599	23703.56
551.962	23685.48
552.326	23730.9
552.689	23917.34
553.053	23867.4
553.417	23983.1
553.78	24242.53
554.143	24142.42
554.507	24301.73
554.87	24341.51
555.234	24577.88
555.597	24478.23
555.96	24553.48
556.323	24798.22
556.686	24893.13
557.05	24950.98
557.413	25054.26
557.776	25200.92
558.139	25209.05
558.502	25261.48
558.865	25427.35
559.228	25587.8
559.59	25690.85
559.953	25882.94
560.316	26074.12
560.679	26092.87
561.041	26117.05
561.404	26284.96
561.767	26559.08
562.129	26479.53
562.492	26749.58
562.854	26752.29
563.217	26821.67
563.579	27006.52
563.941	27113.41
564.304	27223.01
564.666	27432.5
565.028	27394.31
565.39	27559.73
565.753	27717.24
566.115	27768.76
566.477	27954.29
566.839	27923.79
567.201	28085.14
567.563	28039.94
567.925	28294.4
568.287	28308.86
568.648	28436.99
569.01	28653.26
569.372	28796.3
569.734	28694.61
570.095	28943.87
570.457	29071.33
570.819	29125.34
571.18	29114.71
571.542	29315.61
571.903	29166.69
572.265	29575.72
572.626	29402.84
572.987	29601.26
573.349	29610.52
573.71	29855.94
574.071	29920.8
574.432	29874.02
574.794	30178.64
575.155	30105.88
575.516	29963.73
575.877	30191.75
576.238	30423.61
576.599	30380.44
576.96	30405.08
577.32	30431.97
577.681	30702.02
578.042	30669.48
578.403	30789.47
578.763	30737.72
579.124	30815.91
579.485	31010.48
579.845	30954.89
580.206	31012.52
580.566	31059.52
580.927	31009.58
581.287	31224.94
581.648	31031.73
582.008	31134.55
582.368	31046.87
582.728	31237.6
583.089	31140.65
583.449	31230.59
583.809	31259.29
584.169	31279.63
584.529	31206.86
584.889	31512.84
585.249	31142.01
585.609	31240.08
585.969	31281.89
586.329	31363.24
586.688	31389.01
587.048	31270.59
587.408	31309.01
587.768	31165.06
588.127	31255.22
588.487	31226.98
588.846	31570.24
589.206	31274.66
589.565	31370.25
589.925	31429.46
590.284	31353.75
590.643	31447.53
591.003	31553.75
591.362	31501.77
591.721	31532.28
592.08	31452.96
592.44	31579.51
592.799	31723.91
593.158	31556.01
593.517	31649.56
593.876	31546.74
594.235	31537.48
594.593	31661.31
594.952	31667.87
595.311	31590.13
595.67	31639.17
596.029	31888.88
596.387	31755.32
596.746	31781.09
597.104	31564.82
597.463	31643.01
597.822	31758.94
598.18	31666.96
598.538	31776.79
598.897	31947.18
599.255	31605.27
599.613	32050
599.972	31817.92
600.33	32032.6
600.688	31869.9
601.046	31978.82
601.404	32031.25
601.762	32090.91
602.12	32344.01
602.478	32141.08
602.836	32200.74
603.194	32127.74
603.552	32168.19
603.91	31996.9
604.268	32242.09
604.625	32168.19
604.983	32249.55
605.341	32045.94
605.698	32234.63
606.056	32348.98
606.413	32309.21
606.771	32421.07
607.128	32413.39
607.485	32210
607.843	32334.52
608.2	32667.39
608.557	32652.02
608.914	32465.59
609.272	32665.81
609.629	32762.98
609.986	32762.53
610.343	32707.39
610.7	32878.68
611.057	32807.05
611.414	32791.91
611.771	32883.2
612.127	33082.97
612.484	32971.79
612.841	33038.68
613.198	32920.72
613.554	32973.6
613.911	33195.06
614.267	33103.08
614.624	33135.17
614.98	33296.53
615.337	33258.56
615.693	33301.05
616.05	33233.48
616.406	33406.58
616.762	33360.48
617.118	33345.79
617.475	33387.82
617.831	33417.43
618.187	33540.36
618.543	33572.9
618.899	33688.38
619.255	33557.99
619.611	33491.55
619.967	33668.04
620.323	33742.39
620.678	33550.3
621.034	33452.68
621.39	33613.13
621.746	33435.05
622.101	33817.64
622.457	33515.28
622.812	33582.17
623.168	33808.38
623.523	33744.2
623.879	33742.16
624.234	33614.71
624.589	33766.12
624.945	33761.15
625.3	33785.1
625.655	33684.99
626.01	33736.74
626.365	33675.27
626.72	33663.07
627.075	33560.7
627.43	33612.68
627.785	33654.71
628.14	33510.98
628.495	33614.03
628.85	33604.31
629.205	33438.67
629.559	33689.51
629.914	33441.15
630.269	33416.75
630.623	33523.41
630.978	33328.16
631.332	33367.94
631.687	33486.13
632.041	33341.27
632.396	33334.04
632.75	33162.07
633.104	33467.59
633.459	33089.07
633.813	33099.24
634.167	33195.51
634.521	33156.87
634.875	33036.65
635.229	33093.59
635.583	33089.98
635.937	32838.01
636.291	32990.32
636.645	32862.64
636.999	32851.57
637.352	32881.4
637.706	32815.41
638.06	32906.48
638.413	32724.79
638.767	32658.58
639.121	32785.13
639.474	32398.92
639.828	32541.52
640.181	32488.19
640.534	32535.64
640.888	32510.11
641.241	32188.98
641.594	32308.75
641.947	32446.6
642.301	32282.09
642.654	32320.28
643.007	32213.62
643.36	32241.86
643.713	32122.32
644.066	32268.3
644.419	32095.88
644.771	31995.54
645.124	31567.98
645.477	31390.14
645.83	31180.88
646.182	31226.07
646.535	31070.37
646.888	31072.86
647.24	30956.93
647.593	31091.16
647.945	31118.73
648.298	30877.61
648.65	30769.59
649.002	30750.83
649.355	30855.69
649.707	30731.17
650.059	30931.16
650.411	31225.17
650.763	31329.12
651.115	31554.42
651.467	31461.77
651.819	31462.68
652.171	31523.24
652.523	31254.09
652.875	31215.22
653.227	31208.9
653.578	31180.88
653.93	31389.23
654.282	31098.62
654.633	31017.94
654.985	31142.91
655.337	31015.68
655.688	30940.88
656.039	31128.45
656.391	30758.74
656.742	30944.72
657.094	30912.86
657.445	31055.45
657.796	30969.58
658.147	30842.35
658.498	30915.35
658.849	30885.52
659.2	30842.35
659.551	30807.1
659.902	31026.53
660.253	30803.48
660.604	30792.64
660.955	30584.73
661.306	30826.76
661.656	30540.67
662.007	30548.35
662.358	30638.97
662.708	30622.02
663.059	30619.99
663.409	30292.76
663.76	30579.99
664.11	30628.57
664.461	30521.91
664.811	30514.45
665.161	30439.65
665.511	30597.16
665.862	30418.18
666.212	30612.98
666.562	30571.4
666.912	30397.39
667.262	30350.61
667.612	30284.85
667.962	30592.19
668.312	30405.08
668.662	30551.74
669.011	30388.13
669.361	30485.3
669.711	30374.57
670.06	30276.04
670.41	30229.26
670.76	30173.44
671.109	30338.64
671.459	30315.14
671.808	30233.33
672.157	30227.45
672.507	29959.89
672.856	30035.82
673.205	29971.42
673.554	30043.96
673.904	29824.53
674.253	30179.09
674.602	30078.76
674.951	29636.06
675.3	29357.87
675.649	29869.05
675.998	29796.96
676.346	29809.61
676.695	29917.63
677.044	29705.66
677.393	29783.17
677.741	29756.05
678.09	29740.46
678.438	29658.88
678.787	29660.92
679.135	29765.09
679.484	29547.02
679.832	29565.78
680.181	29431.99
680.529	29602.84
680.877	29436.74
681.225	29391.32
681.573	29681.71
681.922	29415.05
682.27	29251.21
682.618	29234.94
682.966	29178.89
683.314	29186.58
683.661	29210.08
684.009	29020.03
684.357	28940.93
684.705	28942.52
685.053	29008.73
685.4	28926.92
685.748	28778.9
686.095	28778
686.443	28649.87
686.79	28745.23
687.138	28642.18
687.485	28613.26
687.832	28437.22
688.18	28594.28
688.527	28374.62
688.874	28368.07
689.221	28338.92
689.568	28326.03
689.915	28147.96
690.262	28116.1
690.609	27985.03
690.956	27997.91
691.303	27871.36
691.65	27789.33
691.997	27783.9
692.344	27650.8
692.69	27474.53
693.037	27557.24
693.383	27304.59
693.73	27451.71
694.077	27322.22
694.423	27225.72
694.769	27213.52
695.116	27206.06
695.462	27086.52
695.808	26942.12
696.155	27166.74
696.501	26807.88
696.847	26898.28
697.193	26510.26
697.539	26736.47
697.885	26476.59
698.231	26503.94
698.577	26511.85
698.923	26377.84
699.269	26291.74
699.614	26237.73
699.96	26136.26
700.306	26167.22
700.651	25982.37
700.997	25977.62
701.342	25848.59
701.688	25793.22
702.033	25666.9
702.379	25677.52
702.724	25618.31
703.069	25729.94
703.415	25448.14
703.76	25397.3
704.105	25426
704.45	25302.39
704.795	25172.9
705.14	25110.3
705.485	25056.06
705.83	24882.06
706.175	24949.4
706.52	24983.98
706.865	24833.02
707.209	24707.82
707.554	24653.14
707.899	24619.24
708.243	24585.12
708.588	24523.65
708.932	24391.68
709.277	24322.3
709.621	24459.7
709.966	24153.72
710.31	24251.11
710.654	24038.46
710.998	24101.74
711.342	24070.78
711.687	23999.59
712.031	24033.49
712.375	23878.92
712.719	23983.78
713.063	23840.28
713.407	23880.73
713.75	23789.2
714.094	23792.59
714.438	23612.71
714.782	23694.52
715.125	23488.65
715.469	23598.02
715.812	23558.93
716.156	23260.18
716.499	23420.18
716.843	23449.1
717.186	23242.55
717.53	23271.93
717.873	23354.19
718.216	23276.68
718.559	23010.47
718.902	23056.12
719.246	22982.45
719.589	22981.54
719.932	22812.28
720.275	22873.52
720.617	22776.12
720.96	22788.1
721.303	22729.12
721.646	22666.3
721.989	22550.82
722.331	22709.69
722.674	22593.08
723.016	22526.64
723.359	22446.42
723.701	22529.8
724.044	22430.82
724.386	22290.94
724.729	22354.21
725.071	22318.06
725.413	22228.57
725.755	22164.16
726.097	22119.42
726.439	22065.18
726.782	22002.59
727.124	22195.12
727.465	21999.65
727.807	21986.31
728.149	21943.6
728.491	21865.87
728.833	21887.11
729.175	21831.29
729.516	21766.66
729.858	21787.9
730.199	21659.54
730.541	21667.45
730.882	21574.35
731.224	21608.47
731.565	21572.77
731.906	21509.04
732.248	21549.94
732.589	21464.97
732.93	21404.63
733.271	21251.64
733.612	21353.79
733.953	21406.22
734.294	21286.45
734.635	21181.14
734.976	21223.85
735.317	21083.29
735.658	21087.13
735.999	21187.24
736.339	21202.83
736.68	21133.68
737.021	21000.8
737.361	20958.32
737.702	20940.92
738.042	20904.99
738.383	20842.62
738.723	20801.26
739.063	20769.4
739.404	20881.03
739.744	20787.02
740.084	20674.03
740.424	20691.89
740.764	20592
741.104	20848.27
741.444	20567.37
741.784	20530.08
742.124	20629.06
742.464	20590.42
742.804	20463.87
743.143	20523.75
743.483	20446.47
743.823	20384.77
744.162	20310.88
744.502	20291.22
744.841	20191.11
745.181	20259.13
745.52	20182.97
745.86	20274.72
746.199	20138.23
746.538	20111.11
746.877	20086.7
747.216	20194.5
747.556	20027.95
747.895	20058.46
748.234	19954.05
748.573	19864.11
748.911	19942.75
749.25	19942.98
749.589	19823.21
749.928	19871.12
750.267	19815.3
750.605	19733.72
750.944	19748.86
751.283	19623.89
751.621	19612.59
751.96	19501.63
752.298	19562.2
752.636	19488.98
752.975	19494.4
753.313	19408.76
753.651	19376.89
753.989	19251.92
754.327	19179.61
754.666	19167.63
755.004	19214.86
755.342	19131.02
755.679	19105.94
756.017	19005.38
756.355	19072.94
756.693	18896
757.031	18957.47
757.368	18865.27
757.706	18757.25
758.044	18720.86
758.381	18770.81
758.719	18679.06
759.056	18617.82
759.394	18627.31
759.731	18468.89
760.068	18477.93
760.405	18417.59
760.743	18327.88
761.08	18304.15
761.417	18223.93
761.754	18160.88
762.091	18248.56
762.428	18071.84
762.765	17951.84
763.102	18126.76
763.438	17983.93
763.775	17883.6
764.112	17849.7
764.449	17902.81
764.785	17688.35
765.122	17689.93
765.458	17599.31
765.795	17581.01
766.131	17536.26
766.467	17422.37
766.804	17287.46
767.14	17238.42
767.476	17193.45
767.812	17216.72
768.148	17179.21
768.485	17058.31
768.821	16948.03
769.157	17012.21
769.492	17024.64
769.828	16970.18
770.164	16762.72
770.5	16714.36
770.836	16760.01
771.171	16602.5
771.507	16617.87
771.842	16463.97
772.178	16504.88
772.513	16426.91
772.849	16378.1
773.184	16184.21
773.519	16216.97
773.855	16201.83
774.19	16092.46
774.525	16063.31
774.86	15980.37
775.195	15884.55
775.53	15912.8
775.865	15825.57
776.2	15769.75
776.535	15668.06
776.87	15681.62
777.205	15539.93
777.539	15554.39
777.874	15553.26
778.209	15350.1
778.543	15370.22
778.878	15327.28
779.212	15287.73
779.547	15173.39
779.881	15237.79
780.215	15092.94
780.55	15177.23
780.884	15013.16
781.218	15019.72
781.552	14978.59
781.886	14876.9
782.22	14795.09
782.554	14677.13
782.888	14594.87
783.222	14550.35
783.556	14481.43
783.889	14495.21
784.223	14342.45
784.557	14356.01
784.89	14427.87
785.224	14269
785.557	14251.83
785.891	14158.5
786.224	14134.32
786.558	14098.61
786.891	13994.89
787.224	13986.98
787.557	13903.36
787.891	13812.29
788.224	13874.44
788.557	13868.56
788.89	13793.31
789.223	13694.33
789.556	13706.76
789.888	13509.25
790.221	13526.88
790.554	13435.35
790.887	13446.43
791.219	13388.35
791.552	13310.38
791.884	13321.01
792.217	13212.31
792.549	13238.3
792.882	13118.07
793.214	13077.17
793.546	13152.2
793.879	12983.61
794.211	12900.45
794.543	13007.57
794.875	12915.37
795.207	12999.88
795.539	12891.41
795.871	12873.79
796.203	12729.61
796.535	12727.12
796.867	12673.11
797.198	12615.94
797.53	12601.93
797.862	12547.69
798.193	12556.05
798.525	12433.35
798.856	12463.18
799.188	12281.03
799.519	12301.82
799.85	12190.19
800.182	12189.06
800.513	12279.45
800.844	12060.02
801.175	12165.33
801.506	12203.07
801.837	12090.98
802.168	12039.91
802.499	11929.63
802.83	12002.85
803.161	11945.9
803.491	11868.61
803.822	11868.84
804.153	11859.12
804.483	11741.84
804.814	11631.78
805.145	11710.2
805.475	11706.13
805.805	11601.5
806.136	11623.65
806.466	11559.24
806.796	11627.26
807.126	11498
807.457	11429.98
807.787	11398.34
808.117	11469.53
808.447	11428.63
808.777	11385.01
809.107	11290.78
809.436	11289.42
809.766	11340.27
810.096	11154.51
810.426	11224.11
810.755	11208.74
811.085	11163.32
811.414	11131.91
811.744	11081.52
812.073	11106.83
812.403	11042.65
812.732	10950.22
813.061	10910.9
813.39	10927.4
813.719	10860.28
814.049	10900.96
814.378	10977.34
814.707	10838.59
815.036	10789.55
815.365	10742.32
815.693	10673.17
816.022	10736.21
816.351	10663.45
816.68	10683.11
817.008	10673.17
817.337	10604.69
817.665	10552.72
817.994	10575.09
818.322	10539.16
818.651	10408.31
818.979	10440.63
819.307	10482.89
819.636	10428.88
819.964	10386.39
820.292	10416.68
820.62	10370.35
820.948	10355.89
821.276	10347.75
821.604	10336.23
821.932	10315.66
822.259	10361.54
822.587	10317.02
822.915	10332.38
823.243	10381.65
823.57	10336.68
823.898	10283.12
824.225	10323.12
824.553	10334.19
824.88	10295.55
825.207	10328.32
825.535	10231.14
825.862	10296
826.189	10259.39
826.516	10344.81
826.843	10333.51
827.17	10317.92
827.497	10349.33
827.824	10320.41
828.151	10310.46
828.478	10328.54
828.805	10302.78
829.131	10271.82
829.458	10276.57
829.785	10205.16
830.111	10267.75
830.438	10217.81
830.764	10260.75
831.09	10251.93
831.417	10213.74
831.743	10227.3
832.069	10203.35
832.395	10190.24
832.722	10181.43
833.048	10181.43
833.374	10224.59
833.7	10132.84
834.026	10169.22
834.351	10075.89
834.677	10139.39
835.003	10166.06
835.329	10101.2
835.654	10132.16
835.98	10099.62
836.306	10074.99
836.631	9997.03
836.956	10034.54
837.282	10070.7
837.607	10013.3
837.932	10038.15
838.258	9965.84
838.583	10045.84
838.908	9961.32
839.233	9930.36
839.558	9893.98
839.883	9832.74
840.208	9817.82
840.533	9903.47
840.858	9843.58
841.182	9842
841.507	9808.1
841.832	9763.13
842.156	9841.55
842.481	9733.08
842.805	9719.07
843.13	9662.57
843.454	9693.76
843.778	9686.98
844.103	9626.87
844.427	9606.3
844.751	9604.27
845.075	9554.55
845.399	9529.24
845.723	9535.57
846.047	9531.05
846.371	9491.05
846.695	9409.92
847.019	9340.09
847.343	9263.94
847.666	9262.13
847.99	9247.21
848.313	9218.51
848.637	9179.42
848.96	9207.89
849.284	9101.68
849.607	9065.98
849.931	9054
850.254	9016.26
850.577	8939.43
850.9	8846.32
851.223	8900.1
851.546	8832.54
851.869	8765.87
852.192	8818.75
852.515	8736.27
852.838	8644.29
853.161	8686.33
853.483	8577.18
853.806	8682.26
854.129	8594.8
854.451	8523.84
854.774	8460.79
855.096	8508.48
855.419	8502.15
855.741	8514.58
856.063	8408.37
856.385	8410.85
856.708	8399.78
857.03	8371.08
857.352	8403.39
857.674	8308.93
857.996	8321.36
858.318	8273.23
858.64	8255.83
858.961	8188.71
859.283	8193.68
859.605	8167.47
859.926	8167.02
860.248	8091.09
860.57	8139.9
860.891	8101.03
861.212	8092.22
861.534	8055.38
861.855	8015.16
862.176	7995.72
862.498	8035.49
862.819	8017.87
863.14	7965.21
863.461	7958.66
863.782	7898.1
864.103	7916.85
864.424	7912.33
864.745	7933.8
865.065	7821.72
865.386	7897.65
865.707	7867.59
866.027	7836.4
866.348	7767.93
866.668	7793.92
866.989	7810.87
867.309	7753.92
867.63	7793.24
867.95	7745.33
868.27	7704.88
868.59	7751.66
868.91	7718.22
869.23	7720.7
869.55	7649.06
869.87	7645.9
870.19	7620.36
870.51	7684.32
870.83	7601.61
871.15	7583.08
871.469	7595.51
871.789	7536.07
872.109	7574.72
872.428	7557.99
872.748	7572.46
873.067	7578.78
873.386	7528.84
873.706	7530.2
874.025	7498.33
874.344	7512.57
874.663	7518.67
874.982	7470.99
875.301	7479.8
875.62	7383.31
875.939	7387.83
876.258	7419.01
876.577	7388.28
876.896	7327.72
877.214	7328.62
877.533	7354.83
877.852	7331.33
878.17	7336.08
878.489	7347.83
878.807	7358
879.125	7319.36
879.444	7276.64
879.762	7292.24
880.08	7241.84
880.398	7314.38
880.716	7228.96
881.034	7234.16
881.352	7213.37
881.67	7112.81
881.988	7189.64
882.306	7160.72
882.624	7135.41
882.941	7063.32
883.259	7069.87
883.577	7070.55
883.894	7063.77
884.212	7041.17
884.529	7044.79
884.846	7004.56
885.164	7047.27
885.481	7046.37
885.798	6983.32
886.115	6968.4
886.432	6917.56
886.75	6923.89
887.067	6965.47
887.383	6901.29
887.7	6927.73
888.017	6874.4
888.334	6843.89
888.651	6864.45
888.967	6791.46
889.284	6797.34
889.6	6792.59
889.917	6751.23
890.233	6747.85
890.55	6709.2
890.866	6742.42
891.182	6720.5
891.498	6650.67
891.815	6623.55
892.131	6640.96
892.447	6613.84
892.763	6577.45
893.079	6527.51
893.395	6515.99
893.71	6538.36
894.026	6580.84
894.342	6530.9
894.657	6495.42
894.973	6402.77
895.289	6445.93
895.604	6377.23
895.92	6383.33
896.235	6323.9
896.55	6367.29
896.865	6337.91
897.181	6347.18
897.496	6320.96
897.811	6228.31
898.126	6218.37
898.441	6193.51
898.756	6212.27
899.071	6190.12
899.386	6154.19
899.7	6130.91
900.015	6093.4
900.33	6036.23
900.644	6057.92
900.959	6028.77
901.273	6033.74
901.588	6009.33
901.902	5958.71
902.216	5916.68
902.531	5936.79
902.845	5937.47
903.159	5909.45
903.473	5846.17
903.787	5873.97
904.101	5822.45
904.415	5845.5
904.729	5796.68
905.042	5771.15
905.356	5778.83
905.67	5765.5
905.984	5742
906.297	5702.45
906.611	5628.33
906.924	5711.49
907.237	5653.64
907.551	5569.8
907.864	5548.33
908.177	5536.35
908.491	5553.98
908.804	5524.37
909.117	5490.03
909.43	5497.93
909.743	5411.84
910.056	5466.52
910.368	5378.62
910.681	5367.77
910.994	5369.12
911.307	5315.34
911.619	5309.24
911.932	5288.67
912.244	5277.38
912.557	5272.18
912.869	5231.27
913.181	5277.15
913.494	5222.24
913.806	5206.87
914.118	5123.48
914.43	5137.72
914.742	5121.22
915.054	5110.15
915.366	5103.59
915.678	5043.03
915.99	4984.05
916.302	5041.68
916.613	5006.87
916.925	4973.88
917.236	4919.19
917.548	4937.5
917.859	4926.65
918.171	4919.19
918.482	4864.28
918.794	4845.07
919.105	4863.15
919.416	4814.79
919.727	4812.08
920.038	4793.77
920.349	4742.25
920.66	4714.45
920.971	4735.24
921.282	4691.85
921.593	4678.52
921.903	4626.55
922.214	4624.29
922.525	4602.82
922.835	4609.14
923.146	4564.4
923.456	4575.25
923.767	4604.4
924.077	4547.23
924.387	4536.6
924.697	4504.06
925.008	4496.6
925.318	4465.87
925.628	4476.04
925.938	4439.66
926.248	4374.35
926.558	4397.62
926.867	4379.32
927.177	4395.59
927.487	4340.68
927.796	4301.13
928.106	4308.36
928.416	4266.33
928.725	4303.84
929.034	4240.11
929.344	4256.84
929.653	4201.25
929.962	4210.28
930.271	4175.26
930.581	4156.05
930.89	4142.26
931.199	4144.75
931.508	4138.2
931.817	4086.22
932.125	4068.82
932.434	4101.59
932.743	4073.11
933.051	4005.54
933.36	4011.42
933.669	4001.02
933.977	3892.33
934.286	3972.32
934.594	3992.66
934.902	3933.91
935.21	3891.2
935.519	3893.68
935.827	3850.75
936.135	3850.29
936.443	3811.88
936.751	3829.05
937.059	3806.68
937.367	3836.74
937.674	3790.86
937.982	3788.6
938.29	3732.11
938.597	3753.12
938.905	3735.04
939.213	3708.38
939.52	3682.16
939.827	3657.76
940.135	3671.54
940.442	3606.01
940.749	3653.92
941.056	3658.89
941.363	3588.38
941.67	3602.62
941.977	3568.49
942.284	3588.61
942.591	3562.84
942.898	3535.5
943.205	3561.49
943.511	3525.33
943.818	3498.44
944.125	3487.37
944.431	3479.46
944.738	3478.33
945.044	3487.59
945.35	3427.03
945.657	3404.43
945.963	3385.45
946.269	3386.58
946.575	3403.3
946.881	3361.95
947.187	3374.6
947.493	3293.25
947.799	3312.91
948.105	3293.47
948.41	3267.48
948.716	3260.48
949.022	3236.3
949.327	3247.37
949.633	3216.19
949.938	3234.27
950.244	3158.34
950.549	3203.53
950.854	3152.91
951.16	3138.67
951.465	3162.63
951.77	3152.23
952.075	3089.18
952.38	3118.79
952.685	3081.95
952.99	3057.77
953.294	3069.52
953.599	3045.34
953.904	3061.39
954.209	2998.57
954.513	3027.04
954.818	3037.89
955.122	2992.46
955.426	2959.92
955.731	2993.14
956.035	2987.72
956.339	2969.41
956.643	2933.93
956.948	2891.22
957.252	2896.65
957.556	2904.33
957.86	2884.67
958.163	2875.63
958.467	2881.05
958.771	2834.05
959.075	2799.47
959.378	2859.81
959.682	2843.54
959.985	2828.4
960.289	2783.66
960.592	2753.37
960.896	2778.68
961.199	2791.11
961.502	2744.33
961.805	2698.46
962.108	2731
962.411	2703.21
962.714	2692.58
963.017	2695.97
963.32	2697.78
963.623	2670.89
963.926	2658.01
964.228	2631.12
964.531	2638.8
964.833	2635.64
965.136	2606.71
965.438	2601.97
965.741	2575.98
966.043	2548.18
966.345	2573.49
966.648	2605.58
966.95	2588.18
967.252	2531.68
967.554	2532.36
967.856	2531.23
968.158	2503.44
968.46	2484.23
968.761	2497.56
969.063	2453.72
969.365	2468.64
969.666	2434.51
969.968	2453.72
970.269	2419.82
970.571	2431.12
970.872	2454.85
971.174	2395.87
971.475	2388.86
971.776	2384.12
972.077	2378.02
972.378	2338.92
972.679	2372.59
972.98	2350.67
973.281	2326.04
973.582	2348.64
973.883	2323.78
974.183	2327.17
974.484	2314.06
974.785	2263.67
975.085	2310.22
975.386	2287.62
975.686	2239.49
975.986	2276.78
976.287	2275.42
976.587	2253.95
976.887	2195.65
977.187	2188.64
977.487	2191.81
977.787	2183.9
978.087	2187.29
978.387	2191.81
978.687	2184.58
978.987	2150.23
979.286	2129.89
979.586	2174.18
979.885	2133.96
980.185	2114.29
980.484	2130.79
980.784	2134.86
981.083	2085.59
981.382	2083.56
981.682	2127.18
981.981	2056.67
982.28	2082.43
982.579	2017.57
982.878	2073.17
983.177	2066.84
983.475	2063.9
983.774	2009.44
984.073	2035.88
984.372	2008.08
984.67	2006.73
984.969	2012.6
985.267	1976.22
985.566	1945.71
985.864	1961.08
986.162	1933.06
986.461	1934.41
986.759	1950.91
987.057	1922.21
987.355	1946.62
987.653	1933.28
987.951	1894.87
988.249	1877.92
988.547	1896
988.844	1876.79
989.142	1914.75
989.44	1870.01
989.737	1845.15
990.035	1846.96
990.332	1828.2
990.63	1851.48
990.927	1842.89
991.224	1822.32
991.521	1807.18
991.819	1825.71
992.116	1784.36
992.413	1768.54
992.71	1757.47
993.006	1757.69
993.303	1742.1
993.6	1740.52
993.897	1759.05
994.193	1749.11
994.49	1762.44
994.787	1757.24
995.083	1696
995.379	1713.85
995.676	1708.2
995.972	1700.97
996.268	1679.05
996.565	1689.45
996.861	1665.27
997.157	1656.91
997.453	1656.91
997.749	1651.48
998.044	1636.12
998.34	1602.22
998.636	1612.61
998.932	1630.01
999.227	1605.83
999.523	1625.27
999.818	1588.43
1000.114	1564.03
1000.409	1579.17
1000.704	1563.12
1001	1565.38
1001.295	1550.24
1001.59	1553.63
1001.885	1526.06
1002.18	1511.15
1002.475	1528.1
1002.77	1533.52
1003.065	1515.21
1003.359	1498.27
1003.654	1528.55
1003.949	1515.89
1004.243	1472.73
1004.538	1475.22
1004.832	1481.99
1005.127	1414.2
1005.421	1420.75
1005.715	1430.02
1006.009	1454.43
1006.304	1435.89
1006.598	1428.44
1006.892	1422.79
1007.186	1395.67
1007.48	1424.6
1007.773	1395.67
1008.067	1375.33
1008.361	1374.43
1008.655	1364.26
1008.948	1368.33
1009.242	1348.89
1009.535	1353.64
1009.829	1343.69
1010.122	1302.56
1010.415	1332.17
1010.708	1309.12
1011.001	1313.86
1011.295	1275.9
1011.588	1317.25
1011.881	1282.9
1012.173	1304.82
1012.466	1274.09
1012.759	1259.85
1013.052	1257.59
1013.344	1253.3
1013.637	1226.18
1013.93	1248.1
1014.222	1237.93
1014.514	1228.89
1014.807	1204.49
1015.099	1229.12
1015.391	1222.79
1015.683	1220.53
1015.976	1211.49
1016.268	1178.5
1016.56	1201.1
1016.851	1201.1
1017.143	1169.01
1017.435	1171.49
1017.727	1146.86
1018.018	1162
1018.31	1139.63
1018.602	1127.65
1018.893	1151.83
1019.185	1109.58
1019.476	1114.77
1019.767	1111.84
1020.058	1140.53
1020.35	1095.11
1020.641	1115.45
1020.932	1106.86
1021.223	1115.22
1021.514	1086.75
1021.804	1066.86
1022.095	1070.93
1022.386	1066.64
1022.677	1035.9
1022.967	1041.33
1023.258	1054.44
1023.548	1034.1
1023.839	1021.22
1024.129	1022.8
1024.419	1025.28
1024.709	987.32
1025	980.09
1025.29	983.25
1025.58	979.18
1025.87	976.92
1026.16	979.64
1026.449	984.61
1026.739	966.08
1027.029	970.37
1027.319	957.94
1027.608	958.84
1027.898	978.73
1028.187	933.99
1028.477	940.99
1028.766	942.57
1029.055	928.56
1029.344	921.78
1029.634	911.61
1029.923	895.8
1030.212	896.93
1030.501	903.03
1030.79	885.63
1031.078	896.25
1031.367	877.49
1031.656	881.33
1031.945	863.71
1032.233	862.35
1032.522	857.83
1032.81	859.19
1033.099	838.85
1033.387	834.55
1033.675	851.95
1033.963	837.94
1034.251	836.36
1034.54	831.16
1034.828	846.76
1035.116	829.36
1035.403	832.07
1035.691	809.24
1035.979	792.07
1036.267	798.85
1036.554	804.5
1036.842	784.16
1037.129	772.18
1037.417	774.89
1037.704	790.71
1037.992	789.81
1038.279	771.05
1038.566	775.35
1038.853	775.35
1039.14	775.35
