Data from whiteboard_FLMS001491_00023.txt Node
Date: Wed Feb 08 11:25:49 GMT 2017
User: dcchb
Spectrometer: FLMS00149
Trigger mode: 0
Integration Time (sec): 2.000000E-2
Scans to average: 10
Electric dark correction enabled: true
Nonlinearity correction enabled: false
Boxcar width: 0
XAxis mode: Wavelengths
Number of Pixels in Spectrum: 2048
>>>>>Begin Spectral Data<<<<<
341.393	-8.53
341.776	-8.53
342.16	-8.53
342.543	-61.86
342.927	-43.33
343.31	-86.95
343.693	-56.67
344.077	-51.92
344.46	-61.41
344.843	-48.08
345.226	-30.9
345.61	-26.16
345.993	-25.93
346.376	-6.95
346.759	20.17
347.142	15.42
347.525	37.34
347.908	45.03
348.291	74.4
348.674	94.07
349.057	108.53
349.44	141.3
349.823	133.16
350.206	170.67
350.588	240.28
350.971	235.08
351.354	274.17
351.737	262.42
352.119	285.92
352.502	302.42
352.884	319.37
353.267	311.46
353.65	328.86
354.032	341.74
354.414	355.3
354.797	365.24
355.179	364.57
355.562	347.39
355.944	367.96
356.326	372.02
356.709	386.26
357.091	384
357.473	385.36
357.855	383.78
358.238	393.94
358.62	384
359.002	404.57
359.384	386.71
359.766	398.24
360.148	369.76
360.53	373.61
360.912	382.19
361.294	393.27
361.676	377.22
362.057	377.67
362.439	369.54
362.821	389.2
363.203	392.14
363.584	372.7
363.966	375.87
364.348	390.1
364.729	375.87
365.111	382.42
365.493	388.07
365.874	389.42
366.256	377.22
366.637	391.01
367.019	384.23
367.4	375.19
367.781	375.19
368.163	372.7
368.544	387.39
368.925	405.92
369.306	399.82
369.688	387.39
370.069	381.97
370.45	381.97
370.831	390.78
371.212	391.68
371.593	380.61
371.974	403.21
372.355	388.97
372.736	387.16
373.117	399.14
373.498	379.48
373.879	381.74
374.26	400.5
374.641	384
375.021	407.96
375.402	410.22
375.783	401.63
376.163	420.38
376.544	437.79
376.925	421.29
377.305	415.86
377.686	433.94
378.066	422.64
378.447	430.78
378.827	424.23
379.208	437.33
379.588	439.14
379.968	433.04
380.349	457.22
380.729	458.8
381.109	449.08
381.489	449.76
381.87	437.56
382.25	447.95
382.63	449.76
383.01	472.81
383.39	475.52
383.77	473.04
384.15	469.2
384.53	484.79
384.91	491.79
385.29	501.96
385.67	478.69
386.049	513.72
386.429	499.93
386.809	500.83
387.189	503.77
387.568	516.43
387.948	506.48
388.328	534.05
388.707	522.08
389.087	526.82
389.466	544
389.846	546.26
390.225	562.3
390.605	565.69
390.984	572.24
391.363	580.38
391.743	560.49
392.122	579.7
392.501	606.14
392.881	607.72
393.26	630.77
393.639	634.39
394.018	619.93
394.397	630.32
394.776	647.95
395.155	639.59
395.534	644.11
395.913	657.89
396.292	679.59
396.671	696.08
397.05	692.24
397.429	679.36
397.808	683.88
398.186	709.87
398.565	746.93
398.944	710.09
399.323	745.12
399.701	759.81
400.08	758.23
400.458	765.91
400.837	806.81
401.215	794.84
401.594	818.11
401.972	798
402.351	843.42
402.729	846.14
403.107	836.19
403.486	881.62
403.864	901.95
404.242	888.62
404.62	915.96
404.999	932.01
405.377	922.07
405.755	967.04
406.133	974.04
406.511	1005.68
406.889	1001.39
407.267	1031.44
407.645	1049.97
408.023	1066.02
408.401	1080.48
408.779	1091.1
409.156	1123.64
409.534	1129.52
409.912	1148.27
410.29	1186.69
410.667	1189.86
411.045	1211.32
411.422	1233.7
411.8	1255.84
412.178	1263.07
412.555	1313.92
412.933	1332.45
413.31	1377.42
413.687	1390.3
414.065	1403.86
414.442	1431.88
414.819	1407.48
415.197	1451.32
415.574	1516.4
415.951	1496.51
416.328	1545.78
416.705	1536.97
417.082	1560.24
417.46	1583.07
417.837	1620.58
418.214	1609.28
418.591	1623.74
418.967	1642.73
419.344	1668.04
419.721	1688.15
420.098	1708.49
420.475	1743.97
420.852	1749.84
421.228	1771.99
421.605	1835.94
421.982	1821.48
422.358	1847.69
422.735	1849.73
423.111	1877.52
423.488	1943.06
423.864	1932.66
424.241	1967.91
424.617	1995.48
424.994	1994.35
425.37	2011.76
425.746	2040
426.123	2088.59
426.499	2066.22
426.875	2107.12
427.251	2161.81
427.627	2231.86
428.003	2232.09
428.379	2282.71
428.756	2288.81
429.132	2324.74
429.507	2361.8
429.883	2397.96
430.259	2393.89
430.635	2437.73
431.011	2485.64
431.387	2522.93
431.763	2557.28
432.138	2578.75
432.514	2592.98
432.89	2656.26
433.265	2699.42
433.641	2750.72
434.016	2744.17
434.392	2846.31
434.767	2877.49
435.143	2883.37
435.518	2889.92
435.894	2972.41
436.269	2977.38
436.644	3020.32
437.02	3030.94
437.395	3071.61
437.77	3135.79
438.145	3193.42
438.52	3190.93
438.895	3275.9
439.271	3256.92
439.646	3337.6
440.021	3342.57
440.395	3350.02
440.77	3343.7
441.145	3428.67
441.52	3472.51
441.895	3482.45
442.27	3529.23
442.645	3497.37
443.019	3590.24
443.394	3591.37
443.769	3652.16
444.143	3578.27
444.518	3665.04
444.892	3653.52
445.267	3738.49
445.641	3756.57
446.016	3777.36
446.39	3850.58
446.764	3839.96
447.139	3851.71
447.513	3915.21
447.887	3944.13
448.262	3991.59
448.636	3979.61
449.01	4033.17
449.384	4102.32
449.758	4123.79
450.132	4164.92
450.506	4199.95
450.88	4219.15
451.254	4236.1
451.628	4302.54
452.002	4358.13
452.376	4403.33
452.75	4444.23
453.123	4471.35
453.497	4549.77
453.871	4596.32
454.244	4663.89
454.618	4683.78
454.992	4782.53
455.365	4782.53
455.739	4909.76
456.112	4989.08
456.486	4961.06
456.859	5058.23
457.232	5185
457.606	5125.35
457.979	5261.39
458.352	5340.71
458.725	5402.4
459.099	5513.58
459.472	5578.89
459.845	5662.28
460.218	5705.44
460.591	5765.78
460.964	5803.52
461.337	5899.34
461.71	6008.94
462.083	6144.75
462.456	6145.43
462.829	6127.58
463.201	6270.63
463.574	6318.31
463.947	6367.8
464.32	6516.5
464.692	6564.86
465.065	6630.16
465.438	6742.7
465.81	6838.07
466.183	6885.98
466.555	7050.94
466.928	7076.48
467.3	7133.88
467.672	7216.59
468.045	7426.3
468.417	7437.83
468.789	7473.08
469.161	7600.99
469.534	7736.8
469.906	7869.23
470.278	7989
470.65	8013.18
471.022	8204.36
471.394	8409.1
471.766	8452.49
472.138	8549.21
472.51	8694.97
472.882	8908.97
473.253	9005.24
473.625	9218.12
473.997	9402.52
474.369	9454.27
474.74	9564.1
475.112	9718.45
475.484	9869.4
475.855	10034.82
476.227	10166.12
476.598	10468.71
476.97	10575.82
477.341	10780.56
477.713	10881.8
478.084	11021.46
478.455	11291.74
478.827	11363.15
479.198	11708.9
479.569	11750.03
479.94	12142.11
480.311	12240.19
480.682	12493.51
481.053	12736.9
481.424	12992.71
481.795	13064.35
482.166	13289.2
482.537	13399.7
482.908	13818.22
483.279	13820.71
483.65	14206.01
484.021	14384.99
484.391	14600.58
484.762	14746.79
485.133	14911.3
485.503	15138.87
485.874	15450.95
486.244	15663.37
486.615	15927.32
486.985	16123.02
487.356	16423.13
487.726	16574.08
488.097	16978.82
488.467	17027.18
488.837	17365.02
489.207	17591.46
489.578	17830.1
489.948	18034.84
490.318	18267.6
490.688	18341.04
491.058	18662.16
491.428	18860.13
491.798	19135.37
492.168	19429.6
492.538	19536.49
492.908	19823.94
493.278	19992.53
493.648	20048.34
494.017	20380.54
494.387	20564.49
494.757	20691.26
495.126	20838.38
495.496	20933.29
495.866	21056.23
496.235	21421.19
496.605	21563.56
496.974	21621.18
497.344	21844.68
497.713	22044.9
498.082	22193.37
498.452	22422.97
498.821	22514.49
499.19	22592
499.559	22833.35
499.928	23031.54
500.298	23245.1
500.667	23507.91
501.036	23426.11
501.405	23753.33
501.774	23743.84
502.143	23881.24
502.512	24048.46
502.88	24364.84
503.249	24496.59
503.618	24680.09
503.987	24754.89
504.356	24916.24
504.724	25117.36
505.093	25284.36
505.462	25429.9
505.83	25606.16
506.199	25876.89
506.567	26243.21
506.936	26138.58
507.304	26595.97
507.672	26625.8
508.041	26727.04
508.409	26971.1
508.777	27166.12
509.145	27322.73
509.514	27422.39
509.882	27641.36
510.25	27668.03
510.618	27907.57
510.986	27980.79
511.354	28442.47
511.722	28538.29
512.09	28764.5
512.458	28641.79
512.826	28988.9
513.193	29144.83
513.561	29260.08
513.929	29494.65
514.297	29722.21
514.664	29969.66
515.032	30095.99
515.4	30379.37
515.767	30573.49
516.135	30619.82
516.502	30605.81
516.869	31151.1
517.237	31386.35
517.604	31356.29
517.972	31703.86
518.339	31918.77
518.706	32035.15
519.073	32314.69
519.44	32490.28
519.808	32952.18
520.175	32946.08
520.542	33400.31
520.909	33628.1
521.276	33576.8
521.643	33955.32
522.009	34356.22
522.376	34456.78
522.743	34623.33
523.11	35175.85
523.477	35354.61
523.843	35730.19
524.21	35963.86
524.577	36264.41
524.943	36480
525.31	36586.67
525.676	36954.34
526.043	37219.42
526.409	37356.81
526.776	37707.99
527.142	37855.11
527.508	38077.02
527.874	38430.68
528.241	38550
528.607	38654.63
528.973	38945.7
529.339	39054.62
529.705	39400.6
530.071	39677.21
530.437	39851.21
530.803	40030.19
531.169	40260.47
531.535	40183.18
531.901	40336.62
532.267	40624.3
532.632	40917.85
532.998	41027.68
533.364	41243.72
533.73	41380.89
534.095	41735.46
534.461	41853.87
534.826	42111.27
535.192	42099.06
535.557	42497.24
535.923	42540.41
536.288	42781.08
536.653	42962.99
537.019	42901.3
537.384	43221.74
537.749	43352.81
538.114	43595.52
538.479	43544.45
538.845	43969.07
539.21	43813.82
539.575	44254.03
539.94	44148.05
540.305	44506
540.67	44486.8
541.034	44607.7
541.399	44904.41
541.764	45011.53
542.129	45251.75
542.494	45233.67
542.858	45536.49
543.223	45485.19
543.587	45599.08
543.952	45694.45
544.316	45810.38
544.681	45764.5
545.045	45930.83
545.41	46259.18
545.774	46246.75
546.138	46426.41
546.503	46591.37
546.867	46693.74
547.231	46927.18
547.595	46899.61
547.959	47152.71
548.324	47150.68
548.688	47413.05
549.052	47393.16
549.416	47499.15
549.779	47667.5
550.143	47620.05
550.507	47964.22
550.871	48090.77
551.235	48227.26
551.599	48398.11
551.962	48450.53
552.326	48549.97
552.689	48893.69
553.053	48661.38
553.417	48935.27
553.78	49352.43
554.143	49284.86
554.507	49458.19
554.87	49593.78
555.234	49910.16
555.597	49700.44
555.96	49953.32
556.323	50110.6
556.686	50149.7
557.05	50384.27
557.413	50541.55
557.776	50592.62
558.139	50857.02
558.502	50949.23
558.865	50873.07
559.228	51297.46
559.59	51299.95
559.953	51306.73
560.316	51624.91
560.679	51620.17
561.041	51820.84
561.404	52019.71
561.767	52168.63
562.129	52043.66
562.492	52400.94
562.854	52391
563.217	52498.79
563.579	52649.07
563.941	52753.25
564.304	52946.23
564.666	53092.45
565.028	53203.86
565.39	53264.87
565.753	53454.92
566.115	53540.34
566.477	53624.41
566.839	53786.89
567.201	53983.95
567.563	53970.61
567.925	54135.81
568.287	54206.77
568.648	54284.05
569.01	54508.23
569.372	54619.41
569.734	54553.88
570.095	54742.12
570.457	54872.96
570.819	54890.82
571.18	54975.33
571.542	55124.48
571.903	55167.65
572.265	55293.52
572.626	55430.01
572.987	55376.68
573.349	55500.07
573.71	55646.5
574.071	55702.32
574.432	55756.1
574.794	55926.5
575.155	55950.9
575.516	55887.85
575.877	56032.93
576.238	56045.14
576.599	56081.52
576.96	56205.13
577.32	56237.67
577.681	56329.87
578.042	56345.02
578.403	56348.86
578.763	56381.62
579.124	56465.92
579.485	56523.99
579.845	56555.63
580.206	56599.25
580.566	56533.71
580.927	56610.77
581.287	56658
581.648	56532.81
582.008	56756.76
582.368	56650.54
582.728	56765.8
583.089	56705.46
583.449	56720.15
583.809	56755.4
584.169	56837.21
584.529	56666.36
584.889	56906.13
585.249	56739.81
585.609	56757.21
585.969	56841.27
586.329	56797.66
586.688	56829.07
587.048	56873.36
587.408	56843.53
587.768	56822.52
588.127	56766.02
588.487	56769.41
588.846	56946.36
589.206	56759.69
589.565	56803.99
589.925	56952.23
590.284	56805.12
590.643	56951.1
591.003	56973.25
591.362	57070.19
591.721	56978.9
592.08	57014.38
592.44	57086.92
592.799	57090.31
593.158	57064.54
593.517	57083.3
593.876	57137.31
594.235	57059.8
594.593	57098.67
594.952	57150.19
595.311	57118.33
595.67	57140.93
596.029	57287.82
596.387	57266.8
596.746	57375.27
597.104	57254.6
597.463	57224.54
597.822	57401.94
598.18	57222.73
598.538	57215.95
598.897	57346.12
599.255	57112.91
599.613	57515.15
599.972	57335.95
600.33	57447.13
600.688	57291.88
601.046	57377.08
601.404	57462.95
601.762	57408.26
602.12	57522.84
602.478	57444.42
602.836	57428.38
603.194	57375.5
603.552	57356.06
603.91	57289.62
604.268	57380.47
604.625	57358.32
604.983	57417.08
605.341	57338.89
605.698	57469.28
606.056	57466.34
606.413	57432.67
606.771	57557.64
607.128	57563.74
607.485	57513.57
607.843	57515.15
608.2	57653
608.557	57740.01
608.914	57580.92
609.272	57760.8
609.629	57792.66
609.986	57883.51
610.343	57741.82
610.7	57966.67
611.057	57982.71
611.414	57837.41
611.771	57937.06
612.127	58072.65
612.484	58099.77
612.841	58153.1
613.198	58067.68
613.554	58064.74
613.911	58198.3
614.267	58207.11
614.624	58129.83
614.98	58217.06
615.337	58339.31
615.693	58257.96
616.05	58247.79
616.406	58451.4
616.762	58346.32
617.118	58356.71
617.475	58356.26
617.831	58471.06
618.187	58493.43
618.543	58522.36
618.899	58665.86
619.255	58512.19
619.611	58546.09
619.967	58639.42
620.323	58663.6
620.678	58624.05
621.034	58485.75
621.39	58533.43
621.746	58531.85
622.101	58704.73
622.457	58547.22
622.812	58631.96
623.168	58675.35
623.523	58626.99
623.879	58690.49
624.234	58535.01
624.589	58574.11
624.945	58580.66
625.3	58631.96
625.655	58528.69
626.01	58542.02
626.365	58575.92
626.72	58518.74
627.075	58504.96
627.43	58435.81
627.785	58406.88
628.14	58413.89
628.495	58382.48
628.85	58369.6
629.205	58265.64
629.559	58361.91
629.914	58227.9
630.269	58260.9
630.623	58139.77
630.978	58138.64
631.332	58217.06
631.687	58221.58
632.041	58108.13
632.396	58179.32
632.75	58096.16
633.104	58090.05
633.459	58020.45
633.813	57980.68
634.167	57951.08
634.521	57989.49
634.875	57991.75
635.229	57911.3
635.583	57850.96
635.937	57872.21
636.291	57956.05
636.645	57900.68
636.999	57789.72
637.352	57915.6
637.706	57695.94
638.06	57812.55
638.413	57757.86
638.767	57758.31
639.121	57755.37
639.474	57605.32
639.828	57686
640.181	57700.46
640.534	57684.64
640.888	57632.44
641.241	57482.61
641.594	57576.17
641.947	57655.26
642.301	57559
642.654	57630.86
643.007	57620.69
643.36	57548.6
643.713	57508.83
644.066	57633.34
644.419	57426.34
644.771	57321.71
645.124	56998.56
645.477	57021.38
645.83	56781.16
646.182	56640.83
646.535	56642.63
646.888	56665.91
647.24	56458.46
647.593	56622.3
647.945	56566.48
648.298	56360.83
648.65	56299.37
649.002	56276.54
649.355	56388.63
649.707	56376.65
650.059	56436.99
650.411	56742.52
650.763	56776.64
651.115	57027.26
651.467	56887.15
651.819	56802.18
652.171	56725.12
652.523	56701.84
652.875	56693.03
653.227	56586.59
653.578	56775.06
653.93	56653.26
654.282	56540.49
654.633	56443.32
654.985	56451.68
655.337	56441.06
655.688	56460.04
656.039	56535.52
656.391	56218.92
656.742	56347.73
657.094	56265.92
657.445	56420.27
657.796	56320.84
658.147	56258.01
658.498	56264.34
658.849	56263.44
659.2	56174.85
659.551	56127.17
659.902	56152.48
660.253	56126.49
660.604	56149.31
660.955	56014.63
661.306	56078.58
661.656	56065.02
662.007	56007.62
662.358	56084.01
662.708	55986.38
663.059	56019.37
663.409	55775.31
663.76	56021.86
664.11	56013.72
664.461	56002.43
664.811	55950.45
665.161	56015.53
665.511	55917.91
665.862	55979.38
666.212	56050.56
666.562	55995.87
666.912	56021.63
667.262	55969.43
667.612	56004.23
667.962	56034.74
668.312	55920.39
668.662	56139.15
669.011	55924.91
669.361	55922.43
669.711	55863.67
670.06	55839.49
670.41	55857.12
670.76	55773.96
671.109	55893.73
671.459	55806.27
671.808	55780.96
672.157	55804.46
672.507	55557.47
672.856	55672.72
673.205	55665.03
673.554	55758.59
673.904	55693.73
674.253	55766.5
674.602	55588.43
674.951	55148.21
675.3	55075.44
675.649	55480.63
675.998	55498.48
676.346	55398.15
676.695	55528.09
677.044	55344.36
677.393	55395.89
677.741	55433.63
678.09	55389.56
678.438	55161.77
678.787	55288.55
679.135	55267.98
679.484	55080.42
679.832	55122.9
680.181	54966.97
680.529	55014.43
680.877	54940.76
681.225	54851.95
681.573	54973.3
681.922	54779.86
682.27	54708.45
682.618	54712.29
682.966	54631.39
683.314	54606.3
683.661	54589.81
684.009	54439.3
684.357	54414.9
684.705	54329.48
685.053	54355.24
685.4	54232.75
685.748	54167.22
686.095	54149.59
686.443	54027.11
686.79	53931.29
687.138	54038.86
687.485	53939.2
687.832	53879.77
688.18	53856.72
688.527	53712.54
688.874	53650.4
689.221	53563.85
689.568	53597.29
689.915	53386
690.262	53492.66
690.609	53317.75
690.956	53219.45
691.303	53147.59
691.65	53081.6
691.997	52905.11
692.344	52872.34
692.69	52845.67
693.037	52821.72
693.383	52522.07
693.73	52743.98
694.077	52591.22
694.423	52540.6
694.769	52456.53
695.116	52365.46
695.462	52269.87
695.808	52251.34
696.155	52238
696.501	51979.93
696.847	51981.06
697.193	51849.99
697.539	51818.36
697.885	51603.9
698.231	51616.1
698.577	51632.37
698.923	51563.67
699.269	51463.34
699.614	51324.58
699.96	51130.46
700.306	51303.57
700.651	51053.4
700.997	51047.75
701.342	50950.58
701.688	50895.44
702.033	50851.6
702.379	50705.16
702.724	50584.26
703.069	50654.09
703.415	50276.25
703.76	50363.03
704.105	50307.66
704.45	50172.75
704.795	49982.7
705.14	49811.85
705.485	49800.1
705.83	49668.13
706.175	49684.4
706.52	49622.71
706.865	49498.87
707.209	49532.31
707.554	49253.22
707.899	49462.03
708.243	48970.07
708.588	49044.64
708.932	48636.07
709.277	48672
709.621	48764.88
709.966	48498.67
710.31	48483.08
710.654	48199.02
710.998	48316.98
711.342	48208.28
711.687	48084.44
712.031	47982.52
712.375	47743.21
712.719	47858.23
713.063	47670.89
713.407	47782.75
713.75	47568.07
714.094	47620.27
714.438	47316.55
714.782	47307.97
715.125	47137.57
715.469	47345.93
715.812	46923.57
716.156	46782.33
716.499	46804.02
716.843	46776.45
717.186	46526.74
717.53	46680.41
717.873	46796.57
718.216	46488.78
718.559	46227.09
718.902	46110.03
719.246	46113.42
719.589	45959.07
719.932	45796.82
720.275	45826.42
720.617	45667.78
720.96	45642.92
721.303	45570.84
721.646	45640.89
721.989	45287.23
722.331	45425.98
722.674	45474.57
723.016	45273.44
723.359	45247
723.701	45247.68
724.044	45059.66
724.386	44956.39
724.729	45092.43
725.071	44841.14
725.413	44782.38
725.755	44810.18
726.097	44474.37
726.439	44387.14
726.782	44455.16
727.124	44655.15
727.465	44416.97
727.807	44268.72
728.149	44231.89
728.491	44317.76
728.833	44270.76
729.175	44022.63
729.516	43892.69
729.858	44009.07
730.199	44070.76
730.541	43873.93
730.882	43826.7
731.224	43900.82
731.565	43561.4
731.906	43680.72
732.248	43699.02
732.589	43511
732.93	43455.19
733.271	43466.71
733.612	43472.13
733.953	43531.79
734.294	43210.45
734.635	43279.37
734.976	43413.6
735.317	43045.03
735.658	42983.11
735.999	43021.07
736.339	42783.79
736.68	43003.22
737.021	42687.07
737.361	42641.2
737.702	42798.25
738.042	42668.99
738.383	42467.41
738.723	42540.41
739.063	42402.33
739.404	42532.27
739.744	42199.85
740.084	42192.17
740.424	42218.61
740.764	41996.24
741.104	42123.24
741.444	42146.52
741.784	41800.54
742.124	41808.9
742.464	41663.82
742.804	41729.13
743.143	41565.74
743.483	41472.19
743.823	41362.58
744.162	41205.53
744.502	41297.05
744.841	40933.44
745.181	41201.46
745.52	41037.62
745.86	41015.25
746.199	40896.38
746.538	40831.07
746.877	40869.26
747.216	40626.56
747.556	40640.34
747.895	40529.61
748.234	40246.46
748.573	40265.89
748.911	40221.6
749.25	40251.65
749.589	39954.49
749.928	40156.74
750.267	40125.1
750.605	39857.99
750.944	39794.72
751.283	39543.88
751.621	39697.54
751.96	39491.22
752.298	39347.5
752.636	39339.14
752.975	39139.37
753.313	39029.09
753.651	38982.99
753.989	38951.8
754.327	38907.96
754.666	38714.97
755.004	38719.49
755.342	38642.88
755.679	38550
756.017	38505.48
756.355	38566.95
756.693	38439.5
757.031	38394.98
757.368	38180.97
757.706	38107.08
758.044	38043.12
758.381	37959.74
758.719	37927.65
759.056	37841.32
759.394	37704.15
759.731	37443.82
760.068	37275.46
760.405	37395.01
760.743	37147.33
761.08	37233.43
761.417	37138.97
761.754	36996.6
762.091	36894.45
762.428	36704.18
762.765	36548.02
763.102	36666.21
763.438	36532.2
763.775	36340.34
764.112	36337.41
764.449	36393.9
764.785	36127.92
765.122	35931.09
765.458	35815.39
765.795	35765.67
766.131	35690.87
766.467	35630.08
766.804	35343.99
767.14	35226.02
767.476	35404.78
767.812	35115.52
768.148	35248.85
768.485	34913.94
768.821	34802.98
769.157	34876.65
769.492	34700.16
769.828	34730.44
770.164	34389.89
770.5	34366.16
770.836	34235.31
771.171	34029.22
771.507	34025.15
771.842	33751.03
772.178	33787.19
772.513	33716.23
772.849	33561.66
773.184	33424.49
773.519	33434.88
773.855	33173.42
774.19	33125.51
774.525	32971.17
774.86	33044.39
775.195	32892.98
775.53	32613.66
775.865	32537.05
776.2	32229.49
776.535	31950.18
776.87	32147.46
777.205	31998.54
777.539	31843.74
777.874	31835.6
778.209	31571.43
778.543	31558.55
778.878	31368.05
779.212	31373.92
779.547	31067.49
779.881	31179.58
780.215	30922.63
780.55	30904.33
780.884	30541.4
781.218	30617.1
781.552	30589.31
781.886	30352.25
782.22	30037.46
782.554	30005.37
782.888	29776.9
783.222	29649.67
783.556	29536.91
783.889	29487.19
784.223	29236.35
784.557	29153.64
784.89	29235.67
785.224	29020.31
785.557	28965.17
785.891	28834.55
786.224	28802.69
786.558	28693.99
786.891	28371.06
787.224	28238.86
787.557	28155.93
787.891	28167
788.224	28105.98
788.557	28099.66
788.89	27990.73
789.223	27835.03
789.556	27691.31
789.888	27560.46
790.221	27535.15
790.554	27290.64
790.887	27322.05
791.219	27153.69
791.552	27101.94
791.884	27004.54
792.217	26869.18
792.549	26713.03
792.882	26646.14
793.214	26541.96
793.546	26494.05
793.879	26319.36
794.211	26217.45
794.543	26194.85
794.875	26052.48
795.207	26154.62
795.539	26047.28
795.871	26038.47
796.203	25819.94
796.535	25592.38
796.867	25657.91
797.198	25455.66
797.53	25628.54
797.862	25335.66
798.193	25448.2
798.525	25352.61
798.856	25385.38
799.188	25068.55
799.519	24946.07
799.85	24917.59
800.182	24825.62
800.513	24894.32
800.844	24562.35
801.175	24823.81
801.506	24652.06
801.837	24542.24
802.168	24546.08
802.499	24492.07
802.83	24439.41
803.161	24313.54
803.491	24331.85
803.822	24327.78
804.153	24302.69
804.483	24125.52
804.814	23819.54
805.145	23957.84
805.475	23933.66
805.805	23817.51
806.136	23875.13
806.466	23848.47
806.796	23770.5
807.126	23659.1
807.457	23391.76
807.787	23524.64
808.117	23420.01
808.447	23390.63
808.777	23373.91
809.107	23393.57
809.436	23142.27
809.766	23199.45
810.096	23069.51
810.426	22970.53
810.755	23190.63
811.085	22927.36
811.414	22899.34
811.744	22824.09
812.073	22671.78
812.403	22611.44
812.732	22567.37
813.061	22486.02
813.39	22322.63
813.719	22282.63
814.049	22422.97
814.378	22374.16
814.707	22373.48
815.036	22315.85
815.365	22080.83
815.693	22074.73
816.022	21998.35
816.351	21855.53
816.68	21798.13
817.008	21866.6
817.337	21782.53
817.665	21719.26
817.994	21685.59
818.322	21628.64
818.651	21446.5
818.979	21382.55
819.307	21455.09
819.636	21335.54
819.964	21222.55
820.292	21233.4
820.62	21235.66
820.948	21162.89
821.276	21303.68
821.604	21171.93
821.932	21209.89
822.259	21135.32
822.587	21117.24
822.915	20947.3
823.243	21025.27
823.57	21094.42
823.898	20987.98
824.225	20979.17
824.553	20913.18
824.88	20867.98
825.207	20965.61
825.535	20890.58
825.862	21027.07
826.189	20911.82
826.516	20956.79
826.843	20971.93
827.17	20881.32
827.497	20905.95
827.824	20816.23
828.151	20785.05
828.478	20738.27
828.805	20876.8
829.131	20602.9
829.458	20624.82
829.785	20630.02
830.111	20687.87
830.438	20642.45
830.764	20563.81
831.09	20734.43
831.417	20556.8
831.743	20649.91
832.069	20659.17
832.395	20442
832.722	20514.32
833.048	20455.56
833.374	20504.38
833.7	20340.54
834.026	20437.49
834.351	20431.84
834.677	20472.06
835.003	20466.19
835.329	20514.77
835.654	20439.75
835.98	20307.32
836.306	20349.35
836.631	20261.22
836.956	20226.87
837.282	20210.15
837.607	20176.25
837.932	20064.39
838.258	20147.78
838.583	20119.53
838.908	20014.22
839.233	20083.82
839.558	20009.47
839.883	19879.76
840.208	19950.04
840.533	19842.7
840.858	19829.37
841.182	19882.47
841.507	19879.99
841.832	19792.53
842.156	19758.86
842.481	19705.53
842.805	19752.08
843.13	19735.81
843.454	19655.13
843.778	19534.46
844.103	19576.94
844.427	19535.36
844.751	19485.65
845.075	19425.31
845.399	19443.16
845.723	19263.96
846.047	19353.22
846.371	19193.45
846.695	19358.42
847.019	19112.1
847.343	19091.98
847.666	18937.86
847.99	18856.74
848.313	18888.37
848.637	18764.99
848.96	18816.96
849.284	18675.95
849.607	18512.56
849.931	18493.36
850.254	18361.61
850.577	18262.85
850.9	18247.49
851.223	18141.27
851.546	18067.83
851.869	18062.86
852.192	18129.98
852.515	17898.34
852.838	17833.94
853.161	17929.75
853.483	17760.27
853.806	17659.25
854.129	17714.62
854.451	17646.37
854.774	17498.58
855.096	17423.33
855.419	17386.04
855.741	17297
856.063	17295.87
856.385	17214.52
856.708	17144.24
857.03	17155.76
857.352	17105.82
857.674	16959.84
857.996	16953.28
858.318	16748.77
858.64	16880.29
858.961	16777.69
859.283	16787.86
859.605	16628.32
859.926	16692.27
860.248	16631.48
860.57	16466.74
860.891	16473.97
861.212	16466.97
861.534	16370.25
861.855	16336.58
862.176	16266.07
862.498	16342.23
862.819	16329.57
863.14	16174.09
863.461	16263.81
863.782	16126.64
864.103	16069.24
864.424	16064.94
864.745	16084.61
865.065	16015.91
865.386	15945.4
865.707	15900.2
866.027	15843.03
866.348	15856.14
866.668	15905.4
866.989	15836.93
867.309	15667.89
867.63	15661.34
867.95	15608.69
868.27	15573.43
868.59	15638.29
868.91	15599.65
869.23	15563.72
869.55	15437.39
869.87	15471.97
870.19	15373.89
870.51	15424.96
870.83	15367.79
871.15	15246.21
871.469	15270.16
871.789	15279.65
872.109	15252.08
872.428	15099.55
872.748	15154.01
873.067	15116.27
873.386	15195.36
873.706	15054.8
874.025	15018.64
874.344	14985.65
874.663	15033.79
874.982	14956.5
875.301	14974.58
875.62	14921.7
875.939	14881.02
876.258	14813.45
876.577	14853.23
876.896	14805.32
877.214	14811.87
877.533	14782.27
877.852	14704.08
878.17	14640.8
878.489	14668.37
878.807	14680.35
879.125	14544.76
879.444	14606.9
879.762	14560.58
880.08	14546.34
880.398	14427.7
880.716	14464.08
881.034	14340.92
881.352	14440.81
881.67	14414.82
881.988	14410.75
882.306	14182.96
882.624	14311.54
882.941	14259.57
883.259	14179.34
883.577	14140.48
883.894	14082.17
884.212	14114.26
884.529	14119.46
884.846	14096.86
885.164	13985
885.481	14129.4
885.798	14063.64
886.115	13951.1
886.432	14022.29
886.75	13918.79
887.067	13954.27
887.383	13915.85
887.7	13933.93
888.017	13866.13
888.334	13872.23
888.651	13868.62
888.967	13767.6
889.284	13704.33
889.6	13627.49
889.917	13642.86
890.233	13695.97
890.55	13591.79
890.866	13585.91
891.182	13604.67
891.498	13497.78
891.815	13566.48
892.131	13401.74
892.447	13376.88
892.763	13361.29
893.079	13327.62
893.395	13280.61
893.71	13329.2
894.026	13169.88
894.342	13155.19
894.657	13125.81
894.973	13115.19
895.289	13052.14
895.604	13111.35
895.92	12925.82
896.235	12950
896.55	12953.61
896.865	12862.09
897.181	12846.95
897.496	12931.24
897.811	12850.34
898.126	12754.98
898.441	12709.78
898.756	12715.2
899.071	12626.17
899.386	12677.01
899.7	12549.33
900.015	12470.69
900.33	12437.24
900.644	12437.24
900.959	12481.54
901.273	12365.61
901.588	12289.9
901.902	12238.83
902.216	12253.75
902.531	12236.12
902.845	12195.44
903.159	12125.39
903.473	12049.46
903.787	11988.44
904.101	11985.28
904.415	11965.62
904.729	11881.78
905.042	11830.03
905.356	11745.74
905.67	11706.87
905.984	11785.51
906.297	11703.93
906.611	11596.59
906.924	11567.66
907.237	11479.3
907.551	11449.7
907.864	11373.32
908.177	11452.64
908.491	11409.02
908.804	11343.49
909.117	11215.35
909.43	11277.05
909.743	11132.87
910.056	11179.42
910.368	11015.81
910.681	10971.07
910.994	10978.3
911.307	10957.28
911.619	10862.6
911.932	10853.33
912.244	10726.33
912.557	10688.14
912.869	10682.94
913.181	10709.15
913.494	10641.58
913.806	10623.05
914.118	10562.49
914.43	10441.82
914.742	10442.72
915.054	10391.2
915.366	10315.27
915.678	10274.59
915.99	10257.87
916.302	10175.61
916.613	10092.45
916.925	10103.97
917.236	9999.34
917.548	10032.34
917.859	9937.42
918.171	9902.39
918.482	9787.82
918.794	9755.05
919.105	9798.22
919.416	9690.65
919.727	9654.94
920.038	9599.35
920.349	9524.78
920.66	9507.38
920.971	9441.39
921.282	9373.37
921.593	9323.2
921.903	9217.89
922.214	9209.31
922.525	9208.85
922.835	9121.62
923.146	9072.81
923.456	9079.14
923.767	9011.57
924.077	9009.09
924.387	8897.9
924.697	8898.13
925.008	8876.43
925.318	8822.88
925.628	8853.38
925.938	8745.82
926.248	8642.09
926.558	8638.7
926.867	8577.01
927.177	8518.25
927.487	8528.87
927.796	8425.82
928.106	8456.33
928.416	8388.76
928.725	8396.45
929.034	8284.58
929.344	8308.54
929.653	8293.17
929.962	8219.05
930.271	8165.27
930.581	8152.38
930.89	8092.5
931.199	8031.03
931.508	7989.9
931.817	8048.43
932.125	7939.28
932.434	7852.96
932.743	7816.35
933.051	7846.63
933.36	7806.4
933.669	7661.1
933.977	7684.37
934.286	7695.22
934.594	7674.2
934.902	7617.03
935.21	7603.92
935.519	7512.18
935.827	7563.25
936.135	7487.09
936.443	7397.6
936.751	7379.75
937.059	7383.37
937.367	7304.95
937.674	7347.66
937.982	7358.51
938.29	7208.23
938.597	7267.89
938.905	7161
939.213	7164.61
939.52	7112.86
939.827	7120.77
940.135	7060.21
940.442	7042.81
940.749	7066.09
941.056	7014.56
941.363	6971.62
941.67	6997.39
941.977	6888.01
942.284	6890.95
942.591	6863.15
942.898	6802.36
943.205	6832.65
943.511	6797.62
943.818	6788.8
944.125	6704.06
944.431	6679.65
944.738	6682.37
945.044	6709.03
945.35	6655.02
945.657	6641.69
945.963	6575.02
946.269	6580.22
946.575	6615.93
946.881	6509.26
947.187	6530.96
947.493	6403.96
947.799	6488.02
948.105	6461.58
948.41	6432.88
948.716	6385.88
949.022	6347.69
949.327	6311.75
949.633	6277.63
949.938	6323.05
950.244	6333
950.549	6248.48
950.854	6203.51
951.16	6220.46
951.465	6207.12
951.77	6236.73
952.075	6120.35
952.38	6091.2
952.685	6103.62
952.99	6041.25
953.294	6055.04
953.599	6009.16
953.904	5951.54
954.209	5947.92
954.513	5967.81
954.818	5917.87
955.122	5906.34
955.426	5864.76
955.731	5883.29
956.035	5849.85
956.339	5829.73
956.643	5807.59
956.948	5774.37
957.252	5749.28
957.556	5778.21
957.86	5684.43
958.163	5745.67
958.467	5696.86
958.771	5666.57
959.075	5676.07
959.378	5571.21
959.682	5572.34
959.985	5508.16
960.289	5512.68
960.592	5450.53
960.896	5458.9
961.199	5419.8
961.502	5470.87
961.805	5396.52
962.108	5388.84
962.411	5378.22
962.714	5333.7
963.017	5319.92
963.32	5323.53
963.623	5276.75
963.926	5267.26
964.228	5172.8
964.531	5193.59
964.833	5224.33
965.136	5123.99
965.438	5140.49
965.741	5053.93
966.043	5097.78
966.345	4999.02
966.648	5015.74
966.95	5006.7
967.252	4984.56
967.554	4991.11
967.856	4905.92
968.158	4866.37
968.46	4870.44
968.761	4845.35
969.063	4870.44
969.365	4805.81
969.666	4728.29
969.968	4720.38
970.269	4755.64
970.571	4657.34
970.872	4668.18
971.174	4644.91
971.475	4654.4
971.776	4564.91
972.077	4626.15
972.378	4545.02
972.679	4529.2
972.98	4523.78
973.281	4482.42
973.582	4445.82
973.883	4449.66
974.183	4426.38
974.484	4438.81
974.785	4335.08
975.085	4371.92
975.386	4352.94
975.686	4312.71
975.986	4296.89
976.287	4298.25
976.587	4216.44
976.887	4195.65
977.187	4243.11
977.487	4196.78
977.787	4134.19
978.087	4158.37
978.387	4115.88
978.687	4090.57
978.987	4108.42
979.286	4069.55
979.586	4052.61
979.885	4008.31
980.185	3966.73
980.484	3983.68
980.784	3898.26
981.083	3969.44
981.382	3888.54
981.682	3864.59
981.981	3865.72
982.28	3847.86
982.579	3789.79
982.878	3815.55
983.177	3793.86
983.475	3783.46
983.774	3744.14
984.073	3728.09
984.372	3683.12
984.67	3672.5
984.969	3687.64
985.267	3673.86
985.566	3633.63
985.864	3585.72
986.162	3596.35
986.461	3549.57
986.759	3545.05
987.057	3493.07
987.355	3519.29
987.653	3478.84
987.951	3471.83
988.249	3437.48
988.547	3427.54
988.844	3409.23
989.142	3427.54
989.44	3394.77
989.737	3380.98
990.035	3357.71
990.332	3331.95
990.63	3351.15
990.927	3305.73
991.224	3325.39
991.521	3263.47
991.819	3284.72
992.116	3268.22
992.413	3250.82
992.71	3193.87
993.006	3203.14
993.303	3177.83
993.6	3144.15
993.897	3163.82
994.193	3146.87
994.49	3097.38
994.787	3136.7
995.083	3094.44
995.379	3084.95
995.676	3058.06
995.972	3075
996.268	3043.82
996.565	2995.46
996.861	3016.47
997.157	2986.19
997.453	2981.22
997.749	2989.58
998.044	2936.48
998.34	2958.4
998.636	2932.63
998.932	2888.12
999.227	2883.14
999.523	2870.49
999.818	2883.37
1000.114	2839.76
1000.409	2821.68
1000.704	2804.28
1001	2805.18
1001.295	2783.26
1001.59	2823.03
1001.885	2742.81
1002.18	2717.27
1002.475	2769.25
1002.77	2748.46
1003.065	2687.22
1003.359	2702.58
1003.654	2691.74
1003.949	2667.33
1004.243	2640.67
1004.538	2650.38
1004.832	2618.07
1005.127	2622.36
1005.421	2632.3
1005.715	2575.58
1006.009	2593.66
1006.304	2585.07
1006.598	2557.73
1006.892	2559.54
1007.186	2533.78
1007.48	2530.84
1007.773	2512.08
1008.067	2500.1
1008.361	2453.78
1008.655	2463.72
1008.948	2453.33
1009.242	2444.06
1009.535	2440.9
1009.829	2410.61
1010.122	2386.21
1010.415	2378.3
1010.708	2357.96
1011.001	2373.55
1011.295	2335.81
1011.588	2317.06
1011.881	2332.65
1012.173	2305.08
1012.466	2311.63
1012.759	2292.2
1013.052	2269.6
1013.344	2289.49
1013.637	2238.87
1013.93	2245.2
1014.222	2219.21
1014.514	2186.44
1014.807	2186.89
1015.099	2155.48
1015.391	2150.73
1015.683	2173.33
1015.976	2153.45
1016.268	2126.33
1016.56	2124.75
1016.851	2108.7
1017.143	2080.23
1017.435	2080.91
1017.727	2038.87
1018.018	2055.37
1018.31	2068.48
1018.602	2005.43
1018.893	2016.27
1019.185	2001.59
1019.476	1980.34
1019.767	1932.66
1020.058	1960.23
1020.35	1961.59
1020.641	1935.15
1020.932	1934.02
1021.223	1907.35
1021.514	1910.06
1021.804	1862.15
1022.095	1831.42
1022.386	1820.35
1022.677	1826.9
1022.967	1819.44
1023.258	1795.72
1023.548	1794.36
1023.839	1788.94
1024.129	1790.52
1024.419	1745.55
1024.709	1754.36
1025	1723.4
1025.29	1743.06
1025.58	1686.79
1025.87	1682.95
1026.16	1704.87
1026.449	1655.38
1026.739	1659
1027.029	1664.42
1027.319	1624.42
1027.608	1629.39
1027.898	1609.28
1028.187	1593.69
1028.477	1603.18
1028.766	1569.51
1029.055	1570.18
1029.344	1593.91
1029.634	1560.02
1029.923	1512.33
1030.212	1523.41
1030.501	1525.67
1030.79	1505.1
1031.078	1503.07
1031.367	1478.21
1031.656	1484.54
1031.945	1457.42
1032.233	1461.04
1032.522	1427.14
1032.81	1415.39
1033.099	1376.74
1033.387	1422.17
1033.675	1424.43
1033.963	1395.05
1034.251	1366.35
1034.54	1378.1
1034.828	1344.65
1035.116	1356.86
1035.403	1333.81
1035.691	1320.93
1035.979	1307.59
1036.267	1313.92
1036.554	1329.74
1036.842	1288.16
1037.129	1280.47
1037.417	1269.18
1037.704	1256.97
1037.992	1263.53
1038.279	1242.96
1038.566	1217.65
1038.853	1217.65
1039.14	1217.65
