Data from white_poster_card_FLMS001491_00085.txt Node
Date: Wed Feb 08 11:52:07 GMT 2017
User: dcchb
Spectrometer: FLMS00149
Trigger mode: 0
Integration Time (sec): 2.000000E-2
Scans to average: 10
Electric dark correction enabled: true
Nonlinearity correction enabled: false
Boxcar width: 0
XAxis mode: Wavelengths
Number of Pixels in Spectrum: 2048
>>>>>Begin Spectral Data<<<<<
341.393	-8.53
341.776	-8.53
342.16	-8.53
342.543	-49.43
342.927	-56.67
343.31	-74.74
343.693	-60.51
344.077	-63.44
344.46	-66.61
344.843	-62.54
345.226	-43.11
345.61	-24.58
345.993	-15.76
346.376	-29.77
346.759	10.68
347.142	44.58
347.525	45.48
347.908	59.72
348.291	83.67
348.674	84.57
349.057	112.37
349.44	125.48
349.823	127.51
350.206	171.13
350.588	191.01
350.971	216.55
351.354	231.01
351.737	223.78
352.119	254.51
352.502	248.86
352.884	258.81
353.267	270.78
353.65	287.73
354.032	312.59
354.414	322.76
354.797	299.26
355.179	348.3
355.562	328.64
355.944	332.7
356.326	324.57
356.709	325.02
357.091	351.69
357.473	361.18
357.855	334.06
358.238	341.97
358.62	344.23
359.002	347.39
359.384	351.91
359.766	332.7
360.148	346.71
360.53	350.1
360.912	337.22
361.294	323.21
361.676	321.18
362.057	327.05
362.439	328.86
362.821	307.62
363.203	331.35
363.584	330.67
363.966	338.35
364.348	327.51
364.729	331.8
365.111	307.17
365.493	314.85
365.874	322.99
366.256	315.75
366.637	305.59
367.019	318.69
367.4	320.95
367.781	321.63
368.163	300.61
368.544	316.88
368.925	303.55
369.306	334.28
369.688	300.39
370.069	340.61
370.45	325.47
370.831	329.99
371.212	322.08
371.593	326.83
371.974	330.67
372.355	310.33
372.736	317.34
373.117	316.43
373.498	333.83
373.879	327.05
374.26	321.4
374.641	325.7
375.021	319.14
375.402	312.36
375.783	339.48
376.163	325.02
376.544	317.11
376.925	319.37
377.305	346.94
377.686	313.27
378.066	333.61
378.447	345.13
378.827	345.81
379.208	335.87
379.588	335.64
379.968	327.96
380.349	343.1
380.729	326.6
381.109	352.82
381.489	343.1
381.87	357.34
382.25	350.33
382.63	333.83
383.01	338.8
383.39	355.3
383.77	333.38
384.15	355.3
384.53	338.8
384.91	366.6
385.29	358.92
385.67	334.96
386.049	391.46
386.429	370.22
386.809	361.4
387.189	385.81
387.568	381.29
387.948	366.37
388.328	373.38
388.707	369.54
389.087	380.39
389.466	380.84
389.846	376.77
390.225	379.93
390.605	380.61
390.984	369.76
391.363	368.63
391.743	394.85
392.122	393.49
392.501	387.84
392.881	428.97
393.26	420.38
393.639	416.99
394.018	428.07
394.397	405.7
394.776	415.64
395.155	433.04
395.534	413.6
395.913	402.31
396.292	422.42
396.671	424.9
397.05	425.58
397.429	438.69
397.808	445.69
398.186	441.85
398.565	439.59
398.944	428.52
399.323	438.01
399.701	450.44
400.08	464.68
400.458	438.46
400.837	452.02
401.215	448.86
401.594	459.71
401.972	446.15
402.351	454.06
402.729	449.76
403.107	454.96
403.486	484.79
403.864	468.74
404.242	464.68
404.62	492.25
404.999	484.34
405.377	485.92
405.755	518.23
406.133	484.34
406.511	518.69
406.889	509.65
407.267	509.65
407.645	535.64
408.023	534.51
408.401	559.36
408.779	564.79
409.156	553.26
409.534	549.87
409.912	567.5
410.29	589.19
410.667	597.55
411.045	616.31
411.422	625.58
411.8	636.65
412.178	642.07
412.555	631.45
412.933	652.69
413.31	695.18
413.687	667.84
414.065	691.56
414.442	734.73
414.819	705.12
415.197	730.66
415.574	735.18
415.951	760.26
416.328	783.54
416.705	791.67
417.082	814.05
417.46	812.24
417.837	835.06
418.214	835.51
418.591	853.82
418.967	860.15
419.344	876.64
419.721	890.43
420.098	921.61
420.475	921.84
420.852	923.2
421.228	912.57
421.605	973.59
421.982	995.74
422.358	988.28
422.735	1014.72
423.111	1010.2
423.488	1053.14
423.864	1047.94
424.241	1067.83
424.617	1088.16
424.994	1073.7
425.37	1088.16
425.746	1098.78
426.123	1139.24
426.499	1110.99
426.875	1159.57
427.251	1181.49
427.627	1182.17
428.003	1202.96
428.379	1190.31
428.756	1235.5
429.132	1275.5
429.507	1308.72
429.883	1297.2
430.259	1345.11
430.635	1357.76
431.011	1355.28
431.387	1364.77
431.763	1425.56
432.138	1416.52
432.514	1413.35
432.89	1425.1
433.265	1468.72
433.641	1508.04
434.016	1503.75
434.392	1547.36
434.767	1540.81
435.143	1574.25
435.518	1577.87
435.894	1568.83
436.269	1610.18
436.644	1638.43
437.02	1666.68
437.395	1653.35
437.77	1695.15
438.145	1724.76
438.52	1723.18
438.895	1760.91
439.271	1771.31
439.646	1804.3
440.021	1820.8
440.395	1796.17
440.77	1780.35
441.145	1840.23
441.52	1837.75
441.895	1869.84
442.27	1868.71
442.645	1865.54
443.019	1891.98
443.394	1928.82
443.769	1906.45
444.143	1921.59
444.518	1957.97
444.892	1946.9
445.267	1961.59
445.641	1985.99
446.016	1977.41
446.39	1996.84
446.764	2032.55
447.139	2034.81
447.513	2047.23
447.887	2068.7
448.262	2046.56
448.636	2055.37
449.01	2113.67
449.384	2116.39
449.758	2162.94
450.132	2134.46
450.506	2172.88
450.88	2206.1
451.254	2200.9
451.628	2240.22
452.002	2254.01
452.376	2265.76
452.75	2289.26
453.123	2302.82
453.497	2332.65
453.871	2368.13
454.244	2415.81
454.618	2395.7
454.992	2426.43
455.365	2453.1
455.739	2508.92
456.112	2506.88
456.486	2552.08
456.859	2547.56
457.232	2599.76
457.606	2623.72
457.979	2610.84
458.352	2711.62
458.725	2698.06
459.099	2733.09
459.472	2771.74
459.845	2784.84
460.218	2847.67
460.591	2841.56
460.964	2868.68
461.337	2940.32
461.71	2962.01
462.083	2979.87
462.456	3063.7
462.829	3043.59
463.201	3047.89
463.574	3089.24
463.947	3125.85
464.32	3175.34
464.692	3180.31
465.065	3244.72
465.438	3310.25
465.81	3332.85
466.183	3371.95
466.555	3409.23
466.928	3463.02
467.3	3425.96
467.672	3504.82
468.045	3563.58
468.417	3561.09
468.789	3647.87
469.161	3670.47
469.534	3755.21
469.906	3794.76
470.278	3809.9
470.65	3892.61
471.022	3969.67
471.394	3971.93
471.766	4016.22
472.138	4135.77
472.51	4174.18
472.882	4182.09
473.253	4236.1
473.625	4307.74
473.997	4437
474.369	4434.29
474.74	4460.73
475.112	4516.32
475.484	4615.98
475.855	4704.11
476.227	4705.92
476.598	4859.82
476.97	4906.14
477.341	4954.95
477.713	5099.58
478.084	5104.78
478.455	5259.13
478.827	5269.3
479.198	5442.4
479.569	5451.21
479.94	5550.19
480.311	5603.52
480.682	5769.4
481.053	5859.11
481.424	5952.67
481.795	6039.67
482.166	6159.22
482.537	6199.22
482.908	6318.53
483.279	6378.65
483.65	6488.25
484.021	6591.97
484.391	6637.62
484.762	6732.53
485.133	6834.45
485.503	6923.04
485.874	7031.28
486.244	7146.08
486.615	7239.87
486.985	7333.2
487.356	7459.97
487.726	7426.98
488.097	7674.88
488.467	7653.64
488.837	7859.51
489.207	7945.16
489.578	8081.65
489.948	8170.92
490.318	8260.4
490.688	8296.79
491.058	8389.67
491.428	8501.08
491.798	8588.76
492.168	8797.34
492.538	8866.49
492.908	8927.28
493.278	9038.01
493.648	9053.38
494.017	9186.48
494.387	9232.36
494.757	9372.24
495.126	9459.02
495.496	9568.62
495.866	9593.7
496.235	9703.98
496.605	9791.44
496.974	9804.77
497.344	9865.33
497.713	10005.44
498.082	10099.9
498.452	10183.29
498.821	10284.76
499.19	10240.47
499.559	10383.06
499.928	10418.09
500.298	10551.42
500.667	10623.51
501.036	10615.14
501.405	10731.98
501.774	10751.41
502.143	10862.6
502.512	10944.18
502.88	11034.79
503.249	11062.14
503.618	11160.67
503.987	11200.89
504.356	11281.34
504.724	11388.91
505.093	11426.42
505.462	11475.69
505.83	11566.76
506.199	11666.42
506.567	11793.19
506.936	11790.71
507.304	11985.96
507.672	11972.85
508.041	12128.78
508.409	12138.72
508.777	12261.65
509.145	12319.51
509.514	12399.73
509.882	12413.06
510.25	12625.26
510.618	12621.65
510.986	12757.91
511.354	12855.31
511.722	12946.38
512.09	13085.81
512.458	13112.71
512.826	13189.09
513.193	13331.91
513.561	13350.44
513.929	13519.25
514.297	13585.91
514.664	13685.57
515.032	13789.98
515.4	13872.46
515.767	13895.28
516.135	14049.63
516.502	14006.24
516.869	14215.95
517.237	14306.35
517.604	14322.84
517.972	14515.16
518.339	14526.23
518.706	14641.25
519.073	14717.18
519.44	14807.58
519.808	14976.84
520.175	15086.21
520.542	15216.38
520.909	15278.98
521.276	15357.84
521.643	15547.44
522.009	15645.75
522.376	15734.11
522.743	15912.86
523.11	15949.24
523.477	16182.91
523.843	16348.78
524.21	16408.21
524.577	16473.52
524.943	16567.76
525.31	16705.83
525.676	16891.36
526.043	17093.17
526.409	17031.47
526.776	17292.71
527.142	17348.07
527.508	17454.96
527.874	17720.72
528.241	17730.21
528.607	17775.86
528.973	17935.86
529.339	17948.29
529.705	18185.79
530.071	18279.35
530.437	18414.94
530.803	18501.26
531.169	18637.76
531.535	18694.93
531.901	18712.33
532.267	18898.54
532.632	19015.83
532.998	18954.13
533.364	19178.31
533.73	19212.66
534.095	19408.36
534.461	19484.74
534.826	19494.91
535.192	19636.83
535.557	19755.7
535.923	19798.63
536.288	19893.32
536.653	19924.73
537.019	19994.78
537.384	20120.21
537.749	20230.71
538.114	20187.32
538.479	20235.46
538.845	20432.29
539.21	20344.61
539.575	20431.16
539.94	20643.36
540.305	20773.07
540.67	20688.1
541.034	20769.91
541.399	20883.35
541.764	20972.61
542.129	21041.09
542.494	21131.48
542.858	21189.56
543.223	21169.22
543.587	21401.98
543.952	21388.65
544.316	21481.98
544.681	21611.01
545.045	21613.27
545.41	21671.58
545.774	21714.51
546.138	21823.89
546.503	21983.89
546.867	21940.95
547.231	22031.34
547.595	22110.89
547.959	22174.16
548.324	22405.12
548.688	22331.22
549.052	22492.35
549.416	22546.13
549.779	22563.98
550.143	22687.6
550.507	22645.11
550.871	22915.39
551.235	22874.48
551.599	23053.91
551.962	23144.76
552.326	23143.18
552.689	23388.82
553.053	23184.76
553.417	23395.15
553.78	23612.77
554.143	23609.61
554.507	23773.22
554.87	23803.5
555.234	23992.42
555.597	23874.46
555.96	24035.81
556.323	24082.81
556.686	24202.36
557.05	24426.76
557.413	24521.22
557.776	24553.76
558.139	24882.34
558.502	24786.98
558.865	24751.5
559.228	24963.47
559.59	25038.04
559.953	25117.59
560.316	25409.56
560.679	25353.74
561.041	25569.55
561.404	25730
561.767	25883.67
562.129	25892.03
562.492	26109.65
562.854	26083.21
563.217	26112.59
563.579	26250.89
563.941	26533.37
564.304	26546.03
564.666	26731.11
565.028	26833.93
565.39	26829.41
565.753	27041.15
566.115	27112.34
566.477	27288.15
566.839	27343.97
567.201	27454.7
567.563	27538.32
567.925	27685.43
568.287	27738.31
568.648	27720.01
569.01	27926.33
569.372	28131.52
569.734	28056.27
570.095	28324.28
570.457	28453.32
570.819	28486.54
571.18	28510.27
571.542	28693.09
571.903	28763.82
572.265	28698.28
572.626	28807.43
572.987	28818.96
573.349	29122.23
573.71	29004.27
574.071	29147.99
574.432	29198.61
574.794	29437.7
575.155	29297.37
575.516	29342.11
575.877	29652.16
576.238	29630.46
576.599	29699.84
576.96	29583.23
577.32	29728.77
577.681	30023.9
578.042	30026.84
578.403	30090.34
578.763	30111.13
579.124	30055.76
579.485	30237.45
579.845	30159.72
580.206	30212.37
580.566	30281.07
580.927	30340.73
581.287	30493.49
581.648	30249.66
582.008	30445.58
582.368	30436.09
582.728	30453.27
583.089	30404.23
583.449	30426.38
583.809	30524.9
584.169	30516.99
584.529	30461.18
584.889	30729.64
585.249	30398.35
585.609	30350.22
585.969	30551.57
586.329	30471.8
586.688	30623.66
587.048	30569.87
587.408	30530.78
587.768	30609.42
588.127	30592.7
588.487	30568.74
588.846	30697.1
589.206	30467.28
589.565	30502.31
589.925	30680.15
590.284	30675.18
590.643	30600.38
591.003	30770.77
591.362	30835.86
591.721	30660.95
592.08	30697.1
592.44	30824.33
592.799	30755.18
593.158	30685.8
593.517	30767.16
593.876	30799.92
594.235	30756.76
594.593	30735.29
594.952	30823.2
595.311	30832.69
595.67	30852.58
596.029	30992.69
596.387	31064.78
596.746	31031.33
597.104	30886.93
597.463	30970.32
597.822	31097.09
598.18	30890.32
598.538	30803.99
598.897	31099.35
599.255	30779.36
599.613	31219.8
599.972	30997.43
600.33	31169.41
600.688	31140.93
601.046	31215.73
601.404	31264.32
601.762	31194.94
602.12	31385.67
602.478	31359.23
602.836	31438.78
603.194	31273.58
603.552	31319.46
603.91	31199.91
604.268	31348.84
604.625	31375.05
604.983	31520.81
605.341	31409.17
605.698	31556.29
606.056	31488.95
606.413	31530.75
606.771	31681.71
607.128	31740.69
607.485	31575.05
607.843	31626.8
608.2	31816.4
608.557	31887.58
608.914	31807.81
609.272	32016.16
609.629	31844.64
609.986	32027.01
610.343	31752.22
610.7	32004.64
611.057	32051.87
611.414	32047.35
611.771	32160.57
612.127	32126.67
612.484	32115.6
612.841	32296.83
613.198	32187.23
613.554	32220.45
613.911	32328.7
614.267	32278.76
614.624	32377.51
614.98	32224.52
615.337	32490.28
615.693	32292.09
616.05	32469.26
616.406	32622.93
616.762	32491.86
617.118	32599.2
617.475	32405.31
617.831	32600.1
618.187	32635.36
618.543	32569.82
618.899	32721.68
619.255	32653.44
619.611	32662.02
619.967	32687.56
620.323	32909.7
620.678	32566.88
621.034	32568.47
621.39	32673.77
621.746	32640.55
622.101	33032.41
622.457	32798.29
622.812	32721.46
623.168	32755.13
623.523	32776.82
623.879	33045.97
624.234	32669.03
624.589	32940.43
624.945	32863.37
625.3	32962.35
625.655	32758.97
626.01	32842.36
626.365	32818.85
626.72	32685.07
627.075	32746.54
627.43	32726.65
627.785	32585.87
628.14	32693.66
628.495	32840.77
628.85	32802.36
629.205	32609.14
629.559	32777.27
629.914	32697.95
630.269	32702.02
630.623	32548.58
630.978	32470.16
631.332	32612.53
631.687	32582.48
632.041	32460.22
632.396	32542.7
632.75	32374.57
633.104	32405.76
633.459	32196.27
633.813	32321.92
634.167	32320.56
634.521	32364.86
634.875	32270.62
635.229	32238.08
635.583	32095.48
635.937	32130.96
636.291	32015.49
636.645	32130.51
636.999	31933.91
637.352	32134.35
637.706	31809.16
638.06	32001.93
638.413	31846.22
638.767	31912.66
639.121	31758.54
639.474	31714.25
639.828	31689.84
640.181	31664.76
640.534	31712.89
640.888	31589.28
641.241	31431.09
641.594	31512
641.947	31543.18
642.301	31392.45
642.654	31506.57
643.007	31446.01
643.36	31363.98
643.713	31380.7
644.066	31432
644.419	31161.27
644.771	30978
645.124	30747.95
645.477	30672.02
645.83	30379.37
646.182	30228.87
646.535	30229.54
646.888	30317
647.24	30093.05
647.593	30196.1
647.945	30233.39
648.298	30023.9
648.65	29946.84
649.002	29893.28
649.355	29978.48
649.707	29858.03
650.059	30035.88
650.411	30380.5
650.763	30442.42
651.115	30724.9
651.467	30467.5
651.819	30586.6
652.171	30464.34
652.523	30404
652.875	30359.48
653.227	30328.75
653.578	30551.12
653.93	30466.15
654.282	30202.43
654.633	30149.55
654.985	30213.05
655.337	30389.99
655.688	30201.52
656.039	30308.64
656.391	29985.71
656.742	30072.94
657.094	30045.82
657.445	30094.63
657.796	30094.63
658.147	30067.51
658.498	30010.34
658.849	30028.19
659.2	29991.58
659.551	29952.04
659.902	30069.77
660.253	29935.99
660.604	29986.16
660.955	29780.74
661.306	29900.74
661.656	29770.35
662.007	29889.89
662.358	29867.75
662.708	29760.4
663.059	29762.21
663.409	29541.65
663.76	29638.15
664.11	29766.51
664.461	29776.9
664.811	29685.6
665.161	29736
665.511	29579.62
665.862	29707.98
666.212	29725.38
666.562	29756.34
666.912	29576.45
667.262	29605.38
667.612	29637.47
667.962	29599.5
668.312	29408.55
668.662	29616.45
669.011	29546.17
669.361	29442.45
669.711	29522.44
670.06	29416.46
670.41	29267.76
670.76	29254.43
671.109	29525.61
671.459	29354.31
671.808	29256.69
672.157	29393.18
672.507	29169.23
672.856	29292.39
673.205	29244.94
673.554	29311.38
673.904	29201.1
674.253	29315.67
674.602	29109.57
674.951	28783.03
675.3	28600.66
675.649	29046.75
675.998	29018.5
676.346	29130.14
676.695	29247.42
677.044	28930.14
677.393	28943.25
677.741	29018.28
678.09	28796.14
678.438	28852.86
678.787	28893.76
679.135	28903.25
679.484	28805.4
679.832	28966.3
680.181	28695.8
680.529	28851.5
680.877	28598.4
681.225	28618.51
681.573	28782.35
681.922	28470.27
682.27	28454
682.618	28531.96
682.966	28317.28
683.314	28505.75
683.661	28380.1
684.009	28203.16
684.357	28203.83
684.705	28127.68
685.053	28232.08
685.4	28142.37
685.748	27961.81
686.095	28007.68
686.443	27725.88
686.79	27816.95
687.138	27887.46
687.485	27705.09
687.832	27694.92
688.18	27739.67
688.527	27469.39
688.874	27596.84
689.221	27552.55
689.568	27386.91
689.915	27459
690.262	27352.78
690.609	27259
690.956	27238.21
691.303	27126.35
691.65	26972
691.997	26994.83
692.344	26781.27
692.69	26837.54
693.037	26855.62
693.383	26533.37
693.73	26705.34
694.077	26503.77
694.423	26549.87
694.769	26498.57
695.116	26321.85
695.462	26296.54
695.808	26301.06
696.155	26197.79
696.501	26065.59
696.847	25975.19
697.193	25855.65
697.539	25951.24
697.885	25772.71
698.231	25728.87
698.577	25780.62
698.923	25610
699.269	25581.98
699.614	25449.33
699.96	25445.72
700.306	25356.23
700.651	25227.19
700.997	25236.46
701.342	25128.44
701.688	25044.82
702.033	24976.12
702.379	24982.45
702.724	24751.95
703.069	24959.4
703.415	24609.35
703.76	24673.76
704.105	24606.64
704.45	24576.81
704.795	24471.96
705.14	24416.36
705.485	24348.57
705.83	24267.89
706.175	24367.33
706.52	24174.56
706.865	24081.91
707.209	24065.64
707.554	23983.61
707.899	24084.85
708.243	23876.94
708.588	23883.04
708.932	23634.01
709.277	23852.99
709.621	23714.91
709.966	23659.32
710.31	23509.27
710.654	23287.81
710.998	23421.36
711.342	23379.1
711.687	23336.84
712.031	23182.5
712.375	23138.43
712.719	23109.28
713.063	23113.8
713.407	23255.94
713.75	23053.01
714.094	22918.1
714.438	22828.38
714.782	22854.14
715.125	22837.87
715.469	22722.17
715.812	22646.69
716.156	22610.08
716.499	22517.43
716.843	22590.87
717.186	22417.32
717.53	22580.93
717.873	22515.17
718.216	22470.65
718.559	22311.79
718.902	22247.83
719.246	22273.82
719.589	22258
719.932	22192.02
720.275	22134.16
720.617	22136.65
720.96	22148.85
721.303	21985.47
721.646	22084.67
721.989	21944.56
722.331	21902.98
722.674	21943.89
723.016	21973.04
723.359	21930.1
723.701	21863.21
724.044	21702.76
724.386	21538.02
724.729	21669.09
725.071	21775.76
725.413	21684.46
725.755	21545.48
726.097	21552.48
726.439	21303.9
726.782	21324.69
727.124	21444.69
727.465	21298.03
727.807	21371.02
728.149	21232.04
728.491	21131.25
728.833	21157.69
729.175	21185.71
729.516	21136.45
729.858	21020.97
730.199	21158.37
730.541	21021.2
730.882	20970.13
731.224	21067.98
731.565	20858.49
731.906	20888.55
732.248	20893.07
732.589	20833.86
732.93	20758.61
733.271	20698.27
733.612	20769.45
733.953	20764.03
734.294	20649.01
734.635	20609.23
734.976	20784.82
735.317	20475.45
735.658	20545.96
735.999	20592.74
736.339	20359.97
736.68	20522.91
737.021	20470.93
737.361	20365.17
737.702	20465.51
738.042	20385.28
738.383	20336.7
738.723	20322.01
739.063	20191.84
739.404	20271.16
739.744	20195.46
740.084	20029.81
740.424	20059.19
740.764	20041.79
741.104	20123.82
741.444	20019.64
741.784	19873.66
742.124	19935.35
742.464	19933.32
742.804	19852.42
743.143	19789.14
743.483	19835.69
743.823	19797.95
744.162	19645.87
744.502	19745.07
744.841	19712.08
745.181	19684.74
745.52	19586.89
745.86	19596.15
746.199	19546.66
746.538	19510.28
746.877	19500.79
747.216	19432.99
747.556	19478.87
747.895	19489.04
748.234	19341.69
748.573	19290.17
748.911	19273.67
749.25	19367.46
749.589	19218.31
749.928	19092.21
750.267	19210.62
750.605	19117.29
750.944	18995.94
751.283	18952.33
751.621	18985.09
751.96	18897.64
752.298	18962.95
752.636	18818.32
752.975	18743.29
753.313	18775.16
753.651	18726.34
753.989	18616.52
754.327	18630.75
754.666	18551.89
755.004	18579.91
755.342	18597.31
755.679	18523.19
756.017	18374.26
756.355	18424.88
756.693	18430.08
757.031	18310.76
757.368	18297.43
757.706	18294.94
758.044	18216.53
758.381	18128.17
758.719	18093.59
759.056	18070.09
759.394	18127.04
759.731	17953.48
760.068	17904.9
760.405	17746.48
760.743	17731.57
761.08	17842.3
761.417	17761.4
761.754	17670.1
762.091	17633.27
762.428	17569.99
762.765	17458.81
763.102	17520.95
763.438	17463.33
763.775	17290.9
764.112	17245.03
764.449	17251.13
764.785	17170.9
765.122	17032.15
765.458	17013.39
765.795	16997.58
766.131	17079.83
766.467	17004.13
766.804	16824.92
767.14	16740.63
767.476	16796.9
767.812	16649.34
768.148	16676
768.485	16599.39
768.821	16487.08
769.157	16460.41
769.492	16401.43
769.828	16449.34
770.164	16261.78
770.5	16204.83
770.836	16224.04
771.171	16127.09
771.507	16096.36
771.842	16109.46
772.178	15988.79
772.513	15910.37
772.849	15891.39
773.184	15805.29
773.519	15814.33
773.855	15659.76
774.19	15622.02
774.525	15574.79
774.86	15582.92
775.195	15618.63
775.53	15332.76
775.865	15355.36
776.2	15333.21
776.535	15113.11
776.87	15126.21
777.205	15045.99
777.539	15038.76
777.874	15109.49
778.209	14838.54
778.543	14834.24
778.878	14798.99
779.212	14813.23
779.547	14712.66
779.881	14787.92
780.215	14633.8
780.55	14613.23
780.884	14560.13
781.218	14534.82
781.552	14489.62
781.886	14422.05
782.22	14338.44
782.554	14293.92
782.888	14170.08
783.222	14094.15
783.556	13986.13
783.889	14029.29
784.223	13940.71
784.557	13897.54
784.89	13912.91
785.224	13795.17
785.557	13764.89
785.891	13680.6
786.224	13643.77
786.558	13662.3
786.891	13575.97
787.224	13554.05
787.557	13473.37
787.891	13478.35
788.224	13369.87
788.557	13412.81
788.89	13338.46
789.223	13324.45
789.556	13218.24
789.888	13266.83
790.221	13161.29
790.554	13088.98
790.887	13022.76
791.219	12967.4
791.552	12914.97
791.884	12850.57
792.217	12896.44
792.549	12789.55
792.882	12726.5
793.214	12704.13
793.546	12734.86
793.879	12681.98
794.211	12585.04
794.543	12610.35
794.875	12510.24
795.207	12545.49
795.539	12500.52
795.871	12459.62
796.203	12332.39
796.535	12314.31
796.867	12298.94
797.198	12203.13
797.53	12225.05
797.862	12166.29
798.193	12177.59
798.525	12107.53
798.856	12087.65
799.188	11891.04
799.519	11980.53
799.85	11833.42
800.182	11858.73
800.513	11915.22
800.844	11704.38
801.175	11813.53
801.506	11825.28
801.837	11663.03
802.168	11664.16
802.499	11649.47
802.83	11565.18
803.161	11529.92
803.491	11559.53
803.822	11465.74
804.153	11511.17
804.483	11393.43
804.814	11342.13
805.145	11302.81
805.475	11367.89
805.805	11256.03
806.136	11278.18
806.466	11294
806.796	11262.81
807.126	11151.4
807.457	11129.26
807.787	11143.27
808.117	11099.88
808.447	11044.96
808.777	11066.66
809.107	10972.42
809.436	10954.34
809.766	10960.45
810.096	10923.61
810.426	10863.27
810.755	10872.31
811.085	10842.48
811.414	10768.13
811.744	10750.51
812.073	10714.8
812.403	10727.23
812.732	10616.73
813.061	10622.6
813.39	10501.48
813.719	10543.96
814.049	10614.69
814.378	10549.38
814.707	10486.11
815.036	10442.27
815.365	10439.78
815.693	10330.18
816.022	10274.59
816.351	10263.06
816.68	10246.57
817.008	10337.19
817.337	10192.1
817.665	10148.94
817.994	10223.29
818.322	10167.92
818.651	10153.91
818.979	10133.12
819.307	10090.19
819.636	10114.14
819.964	10042.05
820.292	10084.09
820.62	10007.93
820.948	10050.64
821.276	10026.01
821.604	10023.97
821.932	9984.2
822.259	10053.13
822.587	9986.23
822.915	9988.27
823.243	10048.38
823.57	10005.9
823.898	10005.44
824.225	9994.82
824.553	9989.17
824.88	9940.36
825.207	9954.37
825.535	9917.08
825.862	9967.93
826.189	9914.37
826.516	9993.69
826.843	9990.08
827.17	9950.08
827.497	9968.61
827.824	9959.79
828.151	9968.38
828.478	9915.73
828.805	9988.49
829.131	9961.6
829.458	9890.19
829.785	9892.68
830.111	9971.55
830.438	9983.07
830.764	9936.97
831.09	9949.85
831.417	9875.05
831.743	9915.5
832.069	9900.59
832.395	9847.03
832.722	9895.84
833.048	9870.76
833.374	9881.38
833.7	9820.36
834.026	9756.41
834.351	9825.56
834.677	9790.08
835.003	9786.69
835.329	9807.71
835.654	9735.62
835.98	9751.66
836.306	9771.78
836.631	9655.4
836.956	9682.29
837.282	9760.48
837.607	9707.37
837.932	9689.52
838.258	9683.64
838.583	9647.03
838.908	9612.01
839.233	9580.6
839.558	9629.86
839.883	9574.04
840.208	9556.64
840.533	9504.21
840.858	9580.6
841.182	9524.55
841.507	9529.75
841.832	9457.21
842.156	9467.15
842.481	9475.51
842.805	9475.97
843.13	9447.49
843.454	9376.99
843.778	9394.61
844.103	9332.69
844.427	9346.48
844.751	9312.58
845.075	9276.42
845.399	9252.47
845.723	9154.17
846.047	9170.44
846.371	9103.77
846.695	9127.27
847.019	9082.53
847.343	8980.84
847.666	8920.73
847.99	8879.82
848.313	8906.26
848.637	8807.06
848.96	8882.76
849.284	8838.47
849.607	8725.93
849.931	8786.27
850.254	8697.23
850.577	8626.5
850.9	8591.69
851.223	8570.45
851.546	8529.1
851.869	8418.37
852.192	8533.62
852.515	8457.01
852.838	8470.34
853.161	8390.8
853.483	8401.42
853.806	8320.29
854.129	8332.94
854.451	8259.5
854.774	8254.08
855.096	8247.98
855.419	8265.38
855.741	8118.26
856.063	8156.23
856.385	8113.52
856.708	8056.79
857.03	8075.32
857.352	8034.2
857.674	7983.8
857.996	8012.5
858.318	7961.43
858.64	7940.64
858.961	7945.16
859.283	7916.68
859.605	7930.7
859.926	7950.36
860.248	7914.65
860.57	7825.61
860.891	7840.98
861.212	7814.77
861.534	7712.17
861.855	7772.51
862.176	7775.9
862.498	7742
862.819	7731.38
863.14	7704.49
863.461	7716.24
863.782	7618.16
864.103	7664.26
864.424	7651.38
864.745	7589.01
865.065	7578.39
865.386	7535.9
865.707	7622.45
866.027	7556.24
866.348	7505.17
866.668	7562.12
866.989	7480.54
867.309	7499.07
867.63	7471.05
867.95	7514.21
868.27	7462.69
868.59	7455
868.91	7471.05
869.23	7447.32
869.55	7346.08
869.87	7410.71
870.19	7405.74
870.51	7388.56
870.83	7388.79
871.15	7376.36
871.469	7330.03
871.789	7396.47
872.109	7349.69
872.428	7319.19
872.748	7303.59
873.067	7301.33
873.386	7291.39
873.706	7306.98
874.025	7229.24
874.344	7222.47
874.663	7200.32
874.982	7221.56
875.301	7163.71
875.62	7162.35
875.939	7163.26
876.258	7182.92
876.577	7124.61
876.896	7096.37
877.214	7077.16
877.533	7142.24
877.852	7088.68
878.17	7113.32
878.489	7082.36
878.807	7023.83
879.125	7045.07
879.444	7122.36
879.762	7014.11
880.08	7073.09
880.398	6951.74
880.716	6939.99
881.034	6996.03
881.352	6962.59
881.67	6941.12
881.988	6942.02
882.306	6915.81
882.624	6945.18
882.941	6824.51
883.259	6840.55
883.577	6839.65
883.894	6786.09
884.212	6778.41
884.529	6769.82
884.846	6791.52
885.164	6807.34
885.481	6742.93
885.798	6761.01
886.115	6688.47
886.432	6666.55
886.75	6699.54
887.067	6678.52
887.383	6629.94
887.7	6663.16
888.017	6614.57
888.334	6627.9
888.651	6585.19
888.967	6561.69
889.284	6542.26
889.6	6487.8
889.917	6438.98
890.233	6516.95
890.55	6472.2
890.866	6443.5
891.182	6436.95
891.498	6441.92
891.815	6367.57
892.131	6429.04
892.447	6367.8
892.763	6357.86
893.079	6326.44
893.395	6314.24
893.71	6315.14
894.026	6252.77
894.342	6270.85
894.657	6215.49
894.973	6229.05
895.289	6230.85
895.604	6166.22
895.92	6173.68
896.235	6149.05
896.55	6146.34
896.865	6135.94
897.181	6044.42
897.496	6060.01
897.811	6073.34
898.126	6039.45
898.441	5994.25
898.756	5989.73
899.071	5944.76
899.386	5986.57
899.7	5885.55
900.015	5884.42
900.33	5886.91
900.644	5826.8
900.959	5864.54
901.273	5820.69
901.588	5779.79
901.902	5773.92
902.216	5768.49
902.531	5714.03
902.845	5688.04
903.159	5707.25
903.473	5676.97
903.787	5629.29
904.101	5664.54
904.415	5618.67
904.729	5572.79
905.042	5592
905.356	5531.66
905.67	5558.55
905.984	5534.83
906.297	5501.61
906.611	5507.26
906.924	5516.75
907.237	5453.92
907.551	5444.21
907.864	5382.74
908.177	5389.75
908.491	5352.91
908.804	5336.41
909.117	5298
909.43	5319.24
909.743	5282.86
910.056	5262.74
910.368	5212.8
910.681	5215.51
910.994	5196.76
911.307	5164.89
911.619	5071.79
911.932	5193.14
912.244	5109.98
912.557	5134.38
912.869	5067.04
913.181	5020.94
913.494	5053.93
913.806	4999.47
914.118	4979.81
914.43	4937.33
914.742	4970.32
915.054	4948.4
915.366	4937.1
915.678	4877.67
915.99	4897.78
916.302	4858.69
916.613	4849.19
916.925	4794.28
917.236	4810.78
917.548	4771.23
917.859	4803.77
918.171	4732.81
918.482	4694.4
918.794	4715.19
919.105	4685.13
919.416	4616.43
919.727	4664.57
920.038	4667.73
920.349	4607.62
920.66	4609.2
920.971	4599.94
921.282	4560.61
921.593	4542.76
921.903	4499.37
922.214	4459.15
922.525	4480.62
922.835	4497.34
923.146	4427.96
923.456	4399.71
923.767	4465.7
924.077	4402.88
924.387	4403.1
924.697	4358.13
925.008	4340.73
925.318	4392.03
925.628	4340.96
925.938	4324.91
926.248	4246.72
926.558	4272.26
926.867	4240.85
927.177	4242.2
927.487	4219.15
927.796	4194.52
928.106	4163.79
928.416	4154.3
928.725	4136.44
929.034	4110.23
929.344	4121.08
929.653	4077.69
929.962	4029.56
930.271	4065.71
930.581	4051.7
930.89	4001.76
931.199	3988.2
931.508	3990.23
931.817	3998.6
932.125	3984.13
932.434	3970.8
932.743	3920.18
933.051	3937.58
933.36	3885.38
933.669	3862.78
933.977	3843.35
934.286	3839.5
934.594	3837.24
934.902	3815.1
935.21	3815.1
935.519	3798.83
935.827	3763.57
936.135	3731.03
936.443	3759.28
936.751	3728.77
937.059	3709.34
937.367	3692.61
937.674	3666.85
937.982	3686.29
938.29	3634.54
938.597	3656.23
938.905	3595.67
939.213	3582.56
939.52	3594.99
939.827	3600.64
940.135	3587.08
940.442	3570.36
940.749	3539.85
941.056	3532.62
941.363	3509.12
941.67	3506.4
941.977	3462.79
942.284	3423.92
942.591	3449.23
942.898	3413.07
943.205	3411.49
943.511	3382.34
943.818	3406.75
944.125	3384.37
944.431	3340.76
944.738	3355.67
945.044	3373.53
945.35	3299.86
945.657	3265.96
945.963	3291.04
946.269	3313.87
946.575	3285.62
946.881	3177.15
947.187	3202.23
947.493	3202.23
947.799	3199.07
948.105	3192.29
948.41	3169.01
948.716	3137.15
949.022	3158.84
949.327	3147.09
949.633	3120.2
949.938	3127.66
950.244	3119.75
950.549	3077.72
950.854	3042.01
951.16	3068.22
951.465	3049.69
951.77	3016.7
952.075	3026.42
952.38	3008.79
952.685	2998.85
952.99	2966.53
953.294	2953.65
953.599	2956.14
953.904	2948.91
954.209	2952.3
954.513	2897.16
954.818	2903.71
955.122	2899.42
955.426	2883.37
955.731	2860.77
956.035	2846.99
956.339	2866.42
956.643	2858.06
956.948	2801.34
957.252	2822.81
957.556	2809.47
957.86	2809.25
958.163	2803.82
958.467	2802.47
958.771	2777.84
959.075	2718.18
959.378	2736.26
959.682	2731.74
959.985	2707.1
960.289	2710.49
960.592	2677.27
960.896	2642.47
961.199	2637.28
961.502	2700.32
961.805	2652.87
962.108	2642.25
962.411	2610.38
962.714	2618.52
963.017	2566.77
963.32	2614.45
963.623	2536.26
963.926	2592.53
964.228	2576.71
964.531	2565.41
964.833	2548.46
965.136	2499.43
965.438	2490.84
965.741	2517.96
966.043	2479.99
966.345	2458.52
966.648	2471.4
966.95	2454.91
967.252	2468.69
967.554	2446.77
967.856	2427.79
968.158	2406.55
968.46	2433.66
968.761	2422.37
969.063	2410.61
969.365	2376.27
969.666	2380.33
969.968	2359.54
970.269	2317.06
970.571	2339.66
970.872	2342.14
971.174	2342.14
971.475	2304.63
971.776	2295.82
972.077	2295.82
972.378	2277.51
972.679	2290.84
972.98	2293.78
973.281	2271.41
973.582	2256.27
973.883	2249.04
974.183	2222.82
974.484	2242.94
974.785	2219.66
975.085	2199.09
975.386	2205.87
975.686	2195.93
975.986	2206.78
976.287	2188.25
976.587	2187.34
976.887	2144.86
977.187	2159.32
977.487	2133.33
977.787	2130.62
978.087	2161.81
978.387	2123.39
978.687	2112.09
978.987	2058.99
979.286	2070.74
979.586	2071.41
979.885	2077.74
980.185	2036.16
980.484	2042.71
980.784	2021.25
981.083	2018.08
981.382	2040.91
981.682	2007.24
981.981	1988.03
982.28	1986.9
982.579	1981.7
982.878	1977.63
983.177	1945.09
983.475	1995.26
983.774	1963.17
984.073	1930.4
984.372	1951.64
984.67	1927.69
984.969	1944.19
985.267	1907.12
985.566	1911.42
985.864	1931.31
986.162	1876.39
986.461	1886.11
986.759	1881.59
987.057	1842.72
987.355	1885.88
987.653	1829.39
987.951	1851.53
988.249	1842.49
988.547	1831.42
988.844	1847.24
989.142	1832.32
989.44	1804.08
989.737	1770.86
990.035	1780.57
990.332	1780.12
990.63	1761.82
990.927	1784.42
991.224	1735.15
991.521	1775.83
991.819	1737.41
992.116	1764.3
992.413	1741.93
992.71	1740.8
993.006	1698.32
993.303	1709.62
993.6	1716.62
993.897	1699.45
994.193	1698.09
994.49	1693.57
994.787	1665.32
995.083	1677.75
995.379	1650.63
995.676	1645.21
995.972	1626.23
996.268	1647.24
996.565	1619.45
996.861	1609.28
997.157	1600.69
997.453	1580.13
997.749	1571.09
998.044	1574.93
998.34	1577.19
998.636	1560.69
998.932	1539.23
999.227	1546.68
999.523	1539.23
999.818	1581.48
1000.114	1520.02
1000.409	1509.17
1000.704	1518.21
1001	1500.36
1001.295	1484.76
1001.59	1506.23
1001.885	1494.93
1002.18	1495.61
1002.475	1476.4
1002.77	1490.19
1003.065	1456.52
1003.359	1440.47
1003.654	1420.36
1003.949	1418.55
1004.243	1462.16
1004.538	1455.16
1004.832	1408.83
1005.127	1419
1005.421	1390.53
1005.715	1425.1
1006.009	1395.73
1006.304	1410.64
1006.598	1409.96
1006.892	1381.26
1007.186	1358.44
1007.48	1361.83
1007.773	1375.16
1008.067	1343.3
1008.361	1328.61
1008.655	1325.45
1008.948	1343.07
1009.242	1332.45
1009.535	1300.81
1009.829	1293.13
1010.122	1301.72
1010.415	1294.26
1010.708	1286.12
1011.001	1274.37
1011.295	1270.08
1011.588	1256.52
1011.881	1258.1
1012.173	1249.06
1012.466	1260.14
1012.759	1232.57
1013.052	1234.83
1013.344	1222.85
1013.637	1209.06
1013.93	1181.04
1014.222	1170.65
1014.514	1188.27
1014.807	1167.03
1015.099	1190.31
1015.391	1183.3
1015.683	1179.23
1015.976	1173.81
1016.268	1160.7
1016.56	1152.79
1016.851	1154.38
1017.143	1144.89
1017.435	1125.45
1017.727	1107.37
1018.018	1105.56
1018.31	1106.24
1018.602	1116.41
1018.893	1125.68
1019.185	1107.82
1019.476	1096.98
1019.767	1106.47
1020.058	1085
1020.35	1094.49
1020.641	1066.24
1020.932	1081.84
1021.223	1052.91
1021.514	1061.72
1021.804	1037.09
1022.095	1035.28
1022.386	1049.07
1022.677	1013.59
1022.967	1016.98
1023.258	1018.11
1023.548	1001.84
1023.839	1022.4
1024.129	983.31
1024.419	980.14
1024.709	979.92
1025	969.75
1025.29	964.55
1025.58	957.77
1025.87	957.55
1026.16	956.87
1026.449	972.23
1026.739	936.98
1027.029	945.34
1027.319	936.3
1027.608	928.17
1027.898	928.62
1028.187	920.03
1028.477	918.68
1028.766	899.69
1029.055	892.01
1029.344	893.59
1029.634	885.91
1029.923	896.08
1030.212	888.85
1030.501	873.03
1030.79	865.8
1031.078	866.25
1031.367	868.96
1031.656	856.98
1031.945	848.17
1032.233	844.1
1032.522	826.48
1032.81	848.62
1033.099	830.32
1033.387	821.73
1033.675	835.74
1033.963	809.53
1034.251	789.87
1034.54	812.46
1034.828	807.94
1035.116	808.4
1035.403	784.89
1035.691	785.57
1035.979	786.93
1036.267	797.55
1036.554	785.12
1036.842	758.45
1037.129	767.72
1037.417	775.4
1037.704	769.53
1037.992	761.17
1038.279	746.03
1038.566	750.09
1038.853	750.09
1039.14	750.09
