Data from white_poster_card_FLMS001491_00013.txt Node
Date: Wed Feb 08 11:51:08 GMT 2017
User: dcchb
Spectrometer: FLMS00149
Trigger mode: 0
Integration Time (sec): 2.000000E-2
Scans to average: 10
Electric dark correction enabled: true
Nonlinearity correction enabled: false
Boxcar width: 0
XAxis mode: Wavelengths
Number of Pixels in Spectrum: 2048
>>>>>Begin Spectral Data<<<<<
341.393	-31.75
341.776	-31.75
342.16	-31.75
342.543	-66.78
342.927	-69.49
343.31	-82.82
343.693	-63.16
344.077	-60
344.46	-66.1
344.843	-51.41
345.226	-56.61
345.61	-44.86
345.993	-9.83
346.376	-4.41
346.759	27.91
347.142	13.67
347.525	34.24
347.908	84.4
348.291	86.44
348.674	96.83
349.057	95.7
349.44	112.65
349.823	134.57
350.206	158.53
350.588	222.93
350.971	233.78
351.354	231.52
351.737	247.79
352.119	262.48
352.502	274.23
352.884	260.22
353.267	299.54
353.65	291.63
354.032	298.64
354.414	305.42
354.797	298.86
355.179	329.37
355.562	318.07
355.944	332.76
356.326	332.08
356.709	328.47
357.091	359.43
357.473	343.38
357.855	351.06
358.238	333.21
358.62	339.31
359.002	348.35
359.384	367.11
359.766	347.67
360.148	331.63
360.53	353.1
360.912	352.65
361.294	344.51
361.676	323.95
362.057	337.28
362.439	323.49
362.821	323.49
363.203	326.66
363.584	332.08
363.966	307.22
364.348	300.44
364.729	337.51
365.111	302.25
365.493	324.4
365.874	280.56
366.256	306.32
366.637	310.39
367.019	311.74
367.4	311.29
367.781	290.95
368.163	298.41
368.544	322.14
368.925	311.29
369.306	323.04
369.688	320.1
370.069	316.04
370.45	320.33
370.831	315.58
371.212	322.14
371.593	298.41
371.974	308.13
372.355	321.23
372.736	310.39
373.117	314
373.498	332.99
373.879	302.25
374.26	297.73
374.641	312.2
375.021	317.62
375.402	330.73
375.783	320.33
376.163	322.14
376.544	354.45
376.925	337.05
377.305	336.15
377.686	339.09
378.066	325.53
378.447	320.56
378.827	323.04
379.208	342.93
379.588	338.64
379.968	328.69
380.349	335.92
380.729	331.18
381.109	341.8
381.489	346.54
381.87	347.45
382.25	333.44
382.63	337.96
383.01	359.2
383.39	353.78
383.77	346.54
384.15	335.7
384.53	343.83
384.91	330.5
385.29	358.3
385.67	365.98
386.049	371.4
386.429	368.01
386.809	356.26
387.189	356.71
387.568	362.14
387.948	351.97
388.328	363.95
388.707	381.57
389.087	390.16
389.466	388.13
389.846	360.33
390.225	401.68
390.605	385.64
390.984	378.63
391.363	383.15
391.743	390.39
392.122	384.06
392.501	396.71
392.881	402.59
393.26	413.66
393.639	391.74
394.018	392.65
394.397	412.31
394.776	420.44
395.155	413.21
395.534	423.6
395.913	421.57
396.292	399.65
396.671	387.67
397.05	413.89
397.429	400.1
397.808	420.89
398.186	418.86
398.565	393.32
398.944	433.1
399.323	419.54
399.701	436.03
400.08	424.06
400.458	451.4
400.837	433.32
401.215	470.84
401.594	446.65
401.972	463.15
402.351	459.08
402.729	452.76
403.107	489.59
403.486	466.99
403.864	464.51
404.242	456.6
404.62	476.26
404.999	490.04
405.377	499.31
405.755	471.29
406.133	496.37
406.511	488.01
406.889	501.12
407.267	516.94
407.645	512.19
408.023	529.36
408.401	515.13
408.779	541.57
409.156	550.83
409.534	557.39
409.912	557.39
410.29	572.53
410.667	585.63
411.045	598.52
411.422	600.78
411.8	620.66
412.178	648.91
412.555	615.01
412.933	667.21
413.31	653.66
413.687	674.45
414.065	686.87
414.442	679.19
414.819	716.7
415.197	740.66
415.574	722.81
415.951	760.77
416.328	753.54
416.705	778.62
417.082	754.67
417.46	824.05
417.837	828.57
418.214	824.72
418.591	849.58
418.967	866.08
419.344	878.06
419.721	904.95
420.098	887.32
420.475	918.05
420.852	917.6
421.228	930.48
421.605	942.91
421.982	984.95
422.358	977.26
422.735	979.52
423.111	991.73
423.488	1031.72
423.864	1041.89
424.241	1048.67
424.617	1061.33
424.994	1076.69
425.37	1073.08
425.746	1095.45
426.123	1136.81
426.499	1098.16
426.875	1136.35
427.251	1139.74
427.627	1157.37
428.003	1224.04
428.379	1191.27
428.756	1234.88
429.132	1239.18
429.507	1258.84
429.883	1277.14
430.259	1299.29
430.635	1319.85
431.011	1323.69
431.387	1356.69
431.763	1360.53
432.138	1363.92
432.514	1377.93
432.89	1443.69
433.265	1460.64
433.641	1478.27
434.016	1478.04
434.392	1513.52
434.767	1520.07
435.143	1537.7
435.518	1577.02
435.894	1565.95
436.269	1594.87
436.644	1612.5
437.02	1646.17
437.395	1634.42
437.77	1647.08
438.145	1663.8
438.52	1699.28
438.895	1705.15
439.271	1739.95
439.646	1772.5
440.021	1761.65
440.395	1756.68
440.77	1779.73
441.145	1800.52
441.52	1852.49
441.895	1838.48
442.27	1867.41
442.645	1838.93
443.019	1869.89
443.394	1873.28
443.769	1883
444.143	1904.7
444.518	1911.93
444.892	1920.06
445.267	1946.73
445.641	1977.91
446.016	1983.34
446.39	1949.21
446.764	1985.6
447.139	1991.93
447.513	2028.99
447.887	2022.43
448.262	2005.71
448.636	2046.39
449.01	2050.45
449.384	2101.07
449.758	2089.78
450.132	2136.33
450.506	2120.06
450.88	2150.79
451.254	2168.19
451.628	2177.91
452.002	2230.11
452.376	2234.86
452.75	2245.93
453.123	2275.53
453.497	2330.67
453.871	2280.96
454.244	2374.97
454.618	2373.38
454.992	2390.33
455.365	2381.29
455.739	2474.62
456.112	2453.83
456.486	2503.55
456.859	2476.43
457.232	2569.76
457.606	2578.35
457.979	2590.1
458.352	2638.01
458.725	2670.1
459.099	2685.47
459.472	2744.45
459.845	2751.45
460.218	2774.28
460.591	2798.68
460.964	2814.5
461.337	2884.56
461.71	2915.06
462.083	2987.15
462.456	2977.89
462.829	2964.55
463.201	3033.93
463.574	3050.2
463.947	3096.75
464.32	3209.07
464.692	3162.52
465.065	3192.12
465.438	3261.95
465.81	3269.18
466.183	3312.12
466.555	3403.64
466.928	3405
467.3	3397.76
467.672	3443.64
468.045	3564.99
468.417	3583.3
468.789	3623.29
469.161	3599.11
469.534	3690.64
469.906	3730.64
470.278	3766.12
470.65	3796.62
471.022	3898.77
471.394	3962.95
471.766	3987.58
472.138	4009.5
472.51	4084.98
472.882	4152.32
473.253	4257.4
473.625	4280
473.997	4352.77
474.369	4386.44
474.74	4435.7
475.112	4512.99
475.484	4598.86
475.855	4627.34
476.227	4680.89
476.598	4770.16
476.97	4813.55
477.341	4945.07
477.713	5035.91
478.084	5068
478.455	5176.47
478.827	5195.46
479.198	5373.31
479.569	5422.34
479.94	5510.48
480.311	5555.45
480.682	5729
481.053	5800.19
481.424	5918.6
481.795	5984.59
482.166	5999.5
482.537	6081.31
482.908	6249.89
483.279	6287.86
483.65	6411.02
484.021	6523.56
484.391	6620.05
484.762	6701.63
485.133	6768.52
485.503	6820.27
485.874	6965.58
486.244	6949.31
486.615	7161.28
486.985	7255.29
487.356	7399.24
487.726	7426.58
488.097	7590.2
488.467	7560.37
488.837	7804.65
489.207	7863.18
489.578	7998.55
489.948	8056.85
490.318	8208.03
490.688	8200.35
491.058	8273.57
491.428	8432.66
491.798	8563.5
492.168	8663.39
492.538	8662.26
492.908	8853.89
493.278	8977.73
493.648	9009.82
494.017	9115.13
494.387	9229.93
494.757	9327.78
495.126	9365.06
495.496	9417.72
495.866	9417.04
496.235	9646.64
496.605	9673.98
496.974	9698.39
497.344	9862.68
497.713	9843.47
498.082	10040.75
498.452	10070.58
498.821	10096.12
499.19	10246.17
499.559	10285.27
499.928	10337.02
500.298	10423.79
500.667	10509.89
501.036	10455.43
501.405	10648.42
501.774	10719.15
502.143	10831.24
502.512	10829.43
502.88	10970.67
503.249	10918.47
503.618	11047.05
503.987	11216.09
504.356	11219.93
504.724	11255.64
505.093	11324.11
505.462	11374.5
505.83	11498.34
506.199	11515.74
506.567	11681.39
506.936	11674.16
507.304	11869.18
507.672	11984.2
508.041	12027.59
508.409	12104.88
508.777	12129.74
509.145	12224.2
509.514	12194.82
509.882	12450.18
510.25	12489.28
510.618	12577.86
510.986	12540.8
511.354	12692.89
511.722	12817.4
512.09	12919.32
512.458	12915.71
512.826	13117.51
513.193	13212.65
513.561	13289.48
513.929	13397.5
514.297	13453.09
514.664	13521.34
515.032	13609.92
515.4	13796.13
515.767	13905.96
516.135	13888.34
516.502	13860.54
516.869	14201.55
517.237	14168.55
517.604	14184.37
517.972	14383.24
518.339	14422.33
518.706	14511.82
519.073	14681.76
519.44	14818.71
519.808	14925.14
520.175	14850.8
520.542	15176.44
520.909	15199.04
521.276	15230.67
521.643	15455.75
522.009	15484
522.376	15612.58
522.743	15748.63
523.11	15889.19
523.477	16055.96
523.843	16089.41
524.21	16357.42
524.577	16386.57
524.943	16544.54
525.31	16571.65
525.676	16741.82
526.043	16857.75
526.409	16975.49
526.776	17135.93
527.142	17154.46
527.508	17320.11
527.874	17407.56
528.241	17593.55
528.607	17664.73
528.973	17848.91
529.339	17907.44
529.705	18012.07
530.071	18258.16
530.437	18274.21
530.803	18410.25
531.169	18551.04
531.535	18536.8
531.901	18529.57
532.267	18702.22
532.632	18837.58
532.998	18908.77
533.364	18935.89
533.73	19166.84
534.095	19246.39
534.461	19326.61
534.826	19435.76
535.192	19412.03
535.557	19642.99
535.923	19624.23
536.288	19735.64
536.653	19818.35
537.019	19783.1
537.384	19991.9
537.749	20008.63
538.114	20119.81
538.479	20083.65
538.845	20187.83
539.21	20242.52
539.575	20340.14
539.94	20421.5
540.305	20602.06
540.67	20592.57
541.034	20640.7
541.399	20745.56
541.764	20772
542.129	20868.49
542.494	20994.36
542.858	21124.3
543.223	21063.51
543.587	21221.93
543.952	21267.12
544.316	21250.85
544.681	21285.2
545.045	21476.16
545.41	21564.97
545.774	21738.52
546.138	21550.51
546.503	21721.8
546.867	21745.08
547.231	21892.42
547.595	22094
547.959	22043.15
548.324	22095.8
548.688	22090.38
549.052	22317.49
549.416	22207.44
549.779	22380.77
550.143	22489.69
550.507	22587.09
550.871	22684.26
551.235	22740.31
551.599	22821.21
551.962	22945.72
552.326	23027.3
552.689	23165.83
553.053	23101.43
553.417	23112.95
553.78	23422.55
554.143	23361.76
554.507	23461.87
554.87	23552.04
555.234	23780.28
555.597	23729.21
555.96	23787.51
556.323	23982.08
556.686	24016.88
557.05	24196.31
557.413	24159.7
557.776	24272.47
558.139	24462.97
558.502	24586.81
558.865	24695.96
559.228	24808.5
559.59	24924.43
559.953	24865
560.316	25170.3
560.679	25208.94
561.041	25366.68
561.404	25547.01
561.767	25654.35
562.129	25579.33
562.492	25843.28
562.854	25796.5
563.217	25908.36
563.579	26065.87
563.941	26091.86
564.304	26345.63
564.666	26466.76
565.028	26595.12
565.39	26697.94
565.753	26737.04
566.115	26826.75
566.477	26986.75
566.839	27114.2
567.201	27320.07
567.563	27221.32
567.925	27497.47
568.287	27556.9
568.648	27624.7
569.01	27829.66
569.372	27933.39
569.734	27795.99
570.095	28036.89
570.457	28147.62
570.819	28146.27
571.18	28234.17
571.542	28271.46
571.903	28549.87
572.265	28505.58
572.626	28641.85
572.987	28626.7
573.349	28796.19
573.71	29043.64
574.071	28958.9
574.432	29115.96
574.794	29372.45
575.155	29273.02
575.516	29157.54
575.877	29245.67
576.238	29329.29
576.599	29540.13
576.96	29497.42
577.32	29600.92
577.681	29642.95
578.042	29685.66
578.403	29684.08
578.763	29659.22
579.124	29699.67
579.485	29854.47
579.845	29943.51
580.206	29908.93
580.566	29871.87
580.927	29975.6
581.287	30132.43
581.648	29985.09
582.008	30194.8
582.368	29997.97
582.728	30122.26
583.089	30118.42
583.449	30248.13
583.809	30240.67
584.169	30250.62
584.529	30219.88
584.889	30397.28
585.249	30157.29
585.609	30185.99
585.969	30437.73
586.329	30245.87
586.688	30273.89
587.048	30423.04
587.408	30285.19
587.768	30326.77
588.127	30182.14
588.487	30221.24
588.846	30455.58
589.206	30259.2
589.565	30250.17
589.925	30512.08
590.284	30307.56
590.643	30456.71
591.003	30487.67
591.362	30620.78
591.721	30512.98
592.08	30448.58
592.44	30649.7
592.799	30576.94
593.158	30475.7
593.517	30366.09
593.876	30508.69
594.235	30441.12
594.593	30529.48
594.952	30502.81
595.311	30503.94
595.67	30617.84
596.029	30724.5
596.387	30715.69
596.746	30757.04
597.104	30708.91
597.463	30570.38
597.822	30734.45
598.18	30627.78
598.538	30706.42
598.897	30862.35
599.255	30553.21
599.613	31047.43
599.972	30935.34
600.33	30963.14
600.688	30783.94
601.046	30988
601.404	31069.13
601.762	30996.13
602.12	31140.99
602.478	31050.14
602.836	31216.24
603.194	31036.36
603.552	31189.35
603.91	30999.52
604.268	31181.67
604.625	31051.73
604.983	31180.76
605.341	30976.02
605.698	31223.47
606.056	31236.81
606.413	31227.09
606.771	31384.37
607.128	31339.63
607.485	31310.93
607.843	31267.54
608.2	31440.87
608.557	31516.35
608.914	31359.74
609.272	31660.75
609.629	31653.97
609.986	31707.3
610.343	31619.85
610.7	31701.65
611.057	31720.86
611.414	31709.79
611.771	31712.73
612.127	31953.17
612.484	31833.85
612.841	32008.99
613.198	31813.74
613.554	31916.79
613.911	32061.87
614.267	32002.89
614.624	32018.48
614.98	32039.95
615.337	32157.91
615.693	32111.81
616.05	32084.02
616.406	32193.62
616.762	32163.56
617.118	32237.46
617.475	32251.02
617.831	32339.38
618.187	32294.86
618.543	32336.89
618.899	32459.15
619.255	32467.28
619.611	32325.14
619.967	32422.99
620.323	32496.89
620.678	32322.43
621.034	32328.3
621.39	32359.49
621.746	32321.3
622.101	32713.38
622.457	32417.11
622.812	32485.13
623.168	32511.12
623.523	32583.21
623.879	32635.19
624.234	32414.4
624.589	32518.13
624.945	32571.46
625.3	32483.55
625.655	32489.88
626.01	32443.33
626.365	32571.23
626.72	32532.36
627.075	32561.52
627.43	32438.81
627.785	32393.61
628.14	32492.37
628.495	32474.06
628.85	32360.39
629.205	32427.96
629.559	32515.42
629.914	32375.98
630.269	32247.4
630.623	32276.78
630.978	32274.97
631.332	32305.7
631.687	32422.09
632.041	32269.32
632.396	32359.71
632.75	32163.11
633.104	32262.09
633.459	32073.85
633.813	32159.72
634.167	32114.3
634.521	31953.85
634.875	31955.43
635.229	32055.54
635.583	31932.61
635.937	31874.76
636.291	31730.58
636.645	31691.48
636.999	31702.78
637.352	31819.39
637.706	31575.33
638.06	31734.87
638.413	31508.21
638.767	31522
639.121	31545.72
639.474	31423.47
639.828	31303.7
640.181	31426.18
640.534	31455.33
640.888	31183.7
641.241	31122.01
641.594	31248.56
641.947	31289.01
642.301	31224.15
642.654	31253.75
643.007	31126.3
643.36	31041.78
643.713	31028.45
644.066	31171.95
644.419	30885.18
644.771	30790.72
645.124	30424.62
645.477	30355.25
645.83	30195.25
646.182	30104.18
646.535	29925.88
646.888	29900.8
647.24	29815.83
647.593	30096.27
647.945	29842.04
648.298	29745.32
648.65	29654.47
649.002	29683.17
649.355	29736.28
649.707	29778.99
650.059	29845.43
650.411	30182.37
650.763	30289.26
651.115	30286.77
651.467	30363.61
651.819	30403.61
652.171	30270.05
652.523	30258.53
652.875	30105.08
653.227	30069.38
653.578	30196.38
653.93	30182.6
654.282	30042.94
654.633	29941.02
654.985	30064.18
655.337	29941.25
655.688	29945.31
656.039	30038.42
656.391	29836.62
656.742	29716.39
657.094	29842.72
657.445	29879.55
657.796	29839.1
658.147	29794.81
658.498	29817.86
658.849	29739.9
659.2	29683.63
659.551	29615.83
659.902	29882.49
660.253	29669.84
660.604	29786
660.955	29602.72
661.306	29712.78
661.656	29671.65
662.007	29516.63
662.358	29555.27
662.708	29746
663.059	29568.38
663.409	29447.93
663.76	29517.75
664.11	29460.58
664.461	29547.36
664.811	29454.48
665.161	29415.16
665.511	29471.88
665.862	29439.11
666.212	29490.41
666.562	29553.23
666.912	29387.59
667.262	29408.38
667.612	29326.8
667.962	29443.86
668.312	29228.72
668.662	29518.21
669.011	29385.33
669.361	29213.13
669.711	29228.72
670.06	29142.85
670.41	29150.53
670.76	29140.14
671.109	29135.62
671.459	29082.51
671.808	29149.63
672.157	29136.75
672.507	28918
672.856	28921.39
673.205	28943.31
673.554	29109.18
673.904	29010.42
674.253	29033.7
674.602	28922.06
674.951	28501.51
675.3	28442.08
675.649	28909.64
675.998	28854.95
676.346	28844.55
676.695	28932.23
677.044	28661.51
677.393	28665.12
677.741	28738.79
678.09	28784.89
678.438	28629.64
678.787	28566.82
679.135	28669.19
679.484	28482.75
679.832	28633.48
680.181	28500.38
680.529	28545.58
680.877	28367.05
681.225	28487.73
681.573	28574.5
681.922	28417.22
682.27	28207.51
682.618	28333.15
682.966	28253.61
683.314	28345.13
683.661	28078.7
684.009	27920.73
684.357	28004.12
684.705	27898.36
685.053	28020.85
685.4	27968.42
685.748	27714.86
686.095	27760.29
686.443	27693.85
686.79	27517.81
687.138	27599.61
687.485	27631.48
687.832	27498.15
688.18	27521.88
688.527	27419.51
688.874	27324.82
689.221	27266.51
689.568	27162.56
689.915	27080.76
690.262	27077.59
690.609	27083.92
690.956	26973.87
691.303	26898.16
691.65	26783.59
691.997	26765.96
692.344	26658.17
692.69	26593.31
693.037	26685.29
693.383	26385.63
693.73	26440.55
694.077	26293.66
694.423	26208.01
694.769	26114.68
695.116	26080.56
695.462	26016.6
695.808	26038.07
696.155	25976.61
696.501	25812.77
696.847	25861.81
697.193	25598.54
697.539	25672.43
697.885	25502.04
698.231	25375.49
698.577	25424.53
698.923	25491.19
699.269	25268.6
699.614	25169.39
699.96	25189.28
700.306	25222.27
700.651	25074.26
700.997	24984.99
701.342	24988.61
701.688	24952.68
702.033	24707.03
702.379	24897.31
702.724	24784.55
703.069	24752.46
703.415	24541.84
703.76	24622.06
704.105	24388.4
704.45	24518.56
704.795	24304.11
705.14	24195.18
705.485	24167.39
705.83	24009.43
706.175	24174.84
706.52	24075.19
706.865	23893.72
707.209	23879.71
707.554	23813.95
707.899	23776.66
708.243	23716.55
708.588	23730.34
708.932	23611.92
709.277	23643.11
709.621	23628.64
709.966	23365.15
710.31	23492.6
710.654	23201.31
710.998	23292.61
711.342	23354.08
711.687	23230.24
712.031	23073.4
712.375	23041.32
712.719	22976.68
713.063	22880.64
713.407	22984.14
713.75	22776.69
714.094	22845.39
714.438	22643.36
714.782	22684.49
715.125	22574.21
715.469	22656.92
715.812	22541.22
716.156	22359.07
716.499	22418.51
716.843	22494.89
717.186	22286.31
717.53	22419.18
717.873	22290.37
718.216	22243.6
718.559	22210.15
718.902	22081.79
719.246	22086.99
719.589	22027.78
719.932	21884.06
720.275	21988.91
720.617	21898.75
720.96	21816.04
721.303	21931.74
721.646	21823.49
721.989	21869.14
722.331	21785.98
722.674	21712.76
723.016	21718.64
723.359	21547.8
723.701	21685.19
724.044	21476.61
724.386	21417.85
724.729	21544.18
725.071	21448.59
725.413	21434.13
725.755	21415.14
726.097	21291.76
726.439	21159.78
726.782	21238.88
727.124	21309.38
727.465	21177.86
727.807	21227.8
728.149	21119.11
728.491	21032.33
728.833	21055.83
729.175	20936.96
729.516	20968.6
729.858	20912.11
730.199	20867.13
730.541	20902.84
730.882	20824.65
731.224	20893.8
731.565	20739.91
731.906	20758.89
732.248	20759.57
732.589	20651.1
732.93	20527.26
733.271	20608.84
733.612	20544.43
733.953	20567.93
734.294	20424.21
734.635	20424.66
734.976	20542.17
735.317	20362.52
735.658	20299.47
735.999	20378.56
736.339	20254.04
736.68	20299.01
737.021	20141.28
737.361	20136.31
737.702	20171.79
738.042	20075.97
738.383	19987.84
738.723	20092.01
739.063	20056.08
739.404	20033.03
739.744	19997.1
740.084	19824.68
740.424	19978.34
740.764	19882.53
741.104	19909.87
741.444	19839.37
741.784	19687.73
742.124	19869.2
742.464	19668.52
742.804	19684.57
743.143	19610.67
743.483	19647.73
743.823	19623.33
744.162	19514.4
744.502	19585.36
744.841	19522.31
745.181	19553.05
745.52	19445.93
745.86	19528.19
746.199	19397.12
746.538	19425.82
746.877	19456.1
747.216	19303.79
747.556	19324.12
747.895	19219.27
748.234	19163
748.573	19122.32
748.911	19129.55
749.25	19158.25
749.589	19024.92
749.928	18953.96
750.267	19089.55
750.605	18941.31
750.944	18929.11
751.283	18852.5
751.621	18892.05
751.96	18755.55
752.298	18755.78
752.636	18748.55
752.975	18624.71
753.313	18586.06
753.651	18689.57
753.989	18580.87
754.327	18610.25
754.666	18515.33
755.004	18529.12
755.342	18416.58
755.679	18424.04
756.017	18374.32
756.355	18297.48
756.693	18260.88
757.031	18286.19
757.368	18235.11
757.706	18181.56
758.044	18050.94
758.381	17987.66
758.719	17945.86
759.056	18018.85
759.394	17887.33
759.731	17796.03
760.068	17752.87
760.405	17663.38
760.743	17581.57
761.08	17650.27
761.417	17552.87
761.754	17509.71
762.091	17554.91
762.428	17363.72
762.765	17347.45
763.102	17368.92
763.438	17227.68
763.775	17114.24
764.112	17084.64
764.449	17273.56
764.785	17075.14
765.122	17030.63
765.458	16906.79
765.795	16888.71
766.131	16941.59
766.467	16874.47
766.804	16730.29
767.14	16641.94
767.476	16665.44
767.812	16482.84
768.148	16601.71
768.485	16436.97
768.821	16403.3
769.157	16361.94
769.492	16408.04
769.828	16292.11
770.164	16034.72
770.5	16117.2
770.836	16105.68
771.171	15965.12
771.507	15888.73
771.842	15862.29
772.178	15825.23
772.513	15810.77
772.849	15810.77
773.184	15596.54
773.519	15678.57
773.855	15560.83
774.19	15490.78
774.525	15453.49
774.86	15478.58
775.195	15388.18
775.53	15216.21
775.865	15230
776.2	15149.32
776.535	15025.71
776.87	14979.83
777.205	14930.12
777.539	14886.73
777.874	14958.36
778.209	14788.42
778.543	14799.95
778.878	14703.91
779.212	14566.96
779.547	14659.61
779.881	14574.19
780.215	14531.93
780.55	14513.86
780.884	14412.84
781.218	14398.15
781.552	14420.3
781.886	14288.32
782.22	14226.86
782.554	14122
782.888	14088.1
783.222	14053.75
783.556	13921.1
783.889	13952.29
784.223	13870.48
784.557	13853.08
784.89	13818.96
785.224	13831.16
785.557	13714.55
785.891	13746.42
786.224	13593.2
786.558	13632.07
786.891	13503.49
787.224	13443.15
787.557	13398.63
787.891	13378.29
788.224	13311.18
788.557	13463.94
788.89	13253.32
789.223	13204.74
789.556	13156.6
789.888	13158.86
790.221	13008.81
790.554	12998.87
790.887	12947.57
791.219	12920
791.552	12959.32
791.884	12800.23
792.217	12805.88
792.549	12734.92
792.882	12683.62
793.214	12643.4
793.546	12631.65
793.879	12523.17
794.211	12495.6
794.543	12457.86
794.875	12430.07
795.207	12411.76
795.539	12404.08
795.871	12381.26
796.203	12193.24
796.535	12202.73
796.867	12208.38
797.198	12176.29
797.53	12080.7
797.862	12096.74
798.193	12049.97
798.525	11976.75
798.856	12014.71
799.188	11814.27
799.519	11850.2
799.85	11783.76
800.182	11719.35
800.513	11842.51
800.844	11616.53
801.175	11750.99
801.506	11712.12
801.837	11606.59
802.168	11634.84
802.499	11548.74
802.83	11453.15
803.161	11496.53
803.491	11449.76
803.822	11496.76
804.153	11406.37
804.483	11322.75
804.814	11233.94
805.145	11217.67
805.475	11253.15
805.805	11233.49
806.136	11205.69
806.466	11171.34
806.796	11109.65
807.126	11086.15
807.457	11070.33
807.787	11050.9
808.117	10978.58
808.447	10925.25
808.777	10934.06
809.107	10895.87
809.436	10821.3
809.766	10911.92
810.096	10854.06
810.426	10714.18
810.755	10812.71
811.085	10654.75
811.414	10685.03
811.744	10643.67
812.073	10619.95
812.403	10700.85
812.732	10553.73
813.061	10512.15
813.39	10478.93
813.719	10442.1
814.049	10550.12
814.378	10493.4
814.707	10421.53
815.036	10386.51
815.365	10315.1
815.693	10284.36
816.022	10268.77
816.351	10197.13
816.68	10142.9
817.008	10219.73
817.337	10163.46
817.665	10107.64
817.994	10092.05
818.322	10105.84
818.651	10040.07
818.979	9967.99
819.307	10071.49
819.636	10029.45
819.964	9916.91
820.292	10012.96
820.62	9972.51
820.948	9896.58
821.276	10004.14
821.604	9947.2
821.932	9969.12
822.259	9873.53
822.587	9901.77
822.915	9913.52
823.243	9972.28
823.57	9875.79
823.898	9928.21
824.225	9871.04
824.553	9870.14
824.88	9839.63
825.207	9907.2
825.535	9842.11
825.862	9946.07
826.189	9919.4
826.516	9930.47
826.843	9883.24
827.17	9928.67
827.497	9852.51
827.824	9892.96
828.151	9937.25
828.478	9908.55
828.805	9956.69
829.131	9959.17
829.458	9944.48
829.785	9842.11
830.111	9845.05
830.438	9895.45
830.764	9910.81
831.09	9920.3
831.417	9820.65
831.743	9861.1
832.069	9784.04
832.395	9868.55
832.722	9860.42
833.048	9735
833.374	9808.89
833.7	9707.43
834.026	9838.27
834.351	9827.65
834.677	9791.95
835.003	9756.24
835.329	9759.18
835.654	9737.03
835.98	9688.67
836.306	9683.93
836.631	9714.66
836.956	9686.19
837.282	9730.93
837.607	9688.9
837.932	9631.27
838.258	9642.35
838.583	9650.03
838.908	9598.28
839.233	9649.58
839.558	9561.67
839.883	9479.19
840.208	9467.43
840.533	9462.69
840.858	9560.99
841.182	9465.17
841.507	9425.85
841.832	9361.45
842.156	9432.18
842.481	9373.88
842.805	9337.72
843.13	9357.16
843.454	9306.99
843.778	9305.63
844.103	9272.19
844.427	9159.87
844.751	9219.53
845.075	9188.57
845.399	9195.58
845.723	9096.15
846.047	9095.24
846.371	8983.15
846.695	9052.98
847.019	9053.89
847.343	8994.45
847.666	8977.28
847.99	8885.08
848.313	8882.37
848.637	8777.74
848.96	8859.99
849.284	8828.13
849.607	8668.59
849.931	8669.26
850.254	8694.8
850.577	8601.69
850.9	8533
851.223	8484.64
851.546	8487.12
851.869	8448.7
852.192	8464.3
852.515	8406.9
852.838	8390.63
853.161	8332.1
853.483	8365.32
853.806	8304.98
854.129	8248.94
854.451	8273.57
854.774	8200.58
855.096	8154.93
855.419	8193.57
855.741	8139.56
856.063	8149.96
856.385	8063.4
856.708	8088.94
857.03	7980.24
857.352	8094.14
857.674	8015.5
857.996	7970.98
858.318	7895.27
858.64	7902.73
858.961	7913.13
859.283	7886.69
859.605	7862.05
859.926	7847.59
860.248	7812.34
860.57	7758.78
860.891	7806.91
861.212	7737.54
861.534	7689.18
861.855	7663.41
862.176	7757.42
862.498	7717.2
862.819	7723.53
863.14	7631.32
863.461	7663.41
863.782	7592.91
864.103	7644.21
864.424	7622.29
864.745	7632
865.065	7593.59
865.386	7545.9
865.707	7519.92
866.027	7537.77
866.348	7507.49
866.668	7531.89
866.989	7488.5
867.309	7440.82
867.63	7472.91
867.95	7428.39
868.27	7376.19
868.59	7464.55
868.91	7353.59
869.23	7370.09
869.55	7373.25
869.87	7417.55
870.19	7375.51
870.51	7377.32
870.83	7384.55
871.15	7289.86
871.469	7311.79
871.789	7343.2
872.109	7309.53
872.428	7287.83
872.748	7211.9
873.067	7231.56
873.386	7254.84
873.706	7229.3
874.025	7161.28
874.344	7161.96
874.663	7227.49
874.982	7215.97
875.301	7147.72
875.62	7166.93
875.939	7128.06
876.258	7104.11
876.577	7119.7
876.896	7104.56
877.214	7049.65
877.533	7038.35
877.852	7074.96
878.17	7078.8
878.489	7061.85
878.807	7088.74
879.125	7010.55
879.444	6975.52
879.762	6989.31
880.08	7000.61
880.398	6924.45
880.716	6925.58
881.034	6931.91
881.352	6931.46
881.67	6863.44
881.988	6970.1
882.306	6900.27
882.624	6871.12
882.941	6885.36
883.259	6780.05
883.577	6855.98
883.894	6811.91
884.212	6777.79
884.529	6748.64
884.846	6766.94
885.164	6744.34
885.481	6749.99
885.798	6683.78
886.115	6626.15
886.432	6717
886.75	6605.82
887.067	6692.14
887.383	6653.27
887.7	6646.94
888.017	6632.48
888.334	6605.59
888.651	6559.94
888.967	6563.1
889.284	6542.54
889.6	6510
889.917	6438.36
890.233	6427.29
890.55	6468.64
890.866	6476.78
891.182	6452.15
891.498	6380.06
891.815	6368.76
892.131	6345.03
892.447	6346.84
892.763	6330.57
893.079	6295.99
893.395	6371.7
893.71	6246.28
894.026	6228.88
894.342	6210.8
894.657	6159.27
894.973	6238.82
895.289	6151.82
895.604	6143.23
895.92	6107.97
896.235	6098.94
896.55	6108.43
896.865	6061.65
897.181	6087.86
897.496	6079.05
897.811	5982.55
898.126	6040.41
898.441	6017.36
898.756	5959.05
899.071	5902.56
899.386	5908.66
899.7	5898.71
900.015	5887.42
900.33	5841.99
900.644	5805.16
900.959	5824.14
901.273	5807.64
901.588	5745.5
901.902	5705.05
902.216	5720.64
902.531	5709.34
902.845	5693.52
903.159	5645.39
903.473	5700.53
903.787	5652.39
904.101	5610.36
904.415	5610.13
904.729	5550.93
905.042	5571.72
905.356	5577.37
905.67	5506.18
905.984	5518.84
906.297	5481.55
906.611	5474.77
906.924	5468.44
907.237	5442.23
907.551	5380.08
907.864	5371.5
908.177	5406.75
908.491	5359.75
908.804	5340.99
909.117	5268.68
909.43	5306.87
909.743	5215.34
910.056	5252.86
910.368	5166.53
910.681	5196.59
910.994	5178.28
911.307	5131.5
911.619	5091.05
911.932	5144.38
912.244	5115.91
912.557	5087.21
912.869	5046.08
913.181	5026.2
913.494	5037.72
913.806	5009.7
914.118	4951.62
914.43	4916.59
914.742	4923.37
915.054	4897.61
915.366	4868.01
915.678	4837.05
915.99	4782.36
916.302	4839.08
916.613	4813.32
916.925	4852.64
917.236	4784.62
917.548	4769.25
917.859	4734.68
918.171	4729.03
918.482	4648.58
918.794	4690.84
919.105	4721.8
919.416	4630.95
919.727	4658.52
920.038	4613.33
920.349	4576.26
920.66	4562.25
920.971	4583.27
921.282	4494.68
921.593	4477.51
921.903	4460.11
922.214	4516.6
922.525	4424.18
922.835	4444.97
923.146	4387.12
923.456	4418.53
923.767	4413.1
924.077	4363.84
924.387	4379.21
924.697	4340.11
925.008	4342.37
925.318	4298.98
925.628	4265.54
925.938	4310.73
926.248	4217.18
926.558	4230.06
926.867	4177.86
927.177	4231.19
927.487	4185.99
927.796	4158.2
928.106	4128.82
928.416	4101.25
928.725	4147.35
929.034	4120.23
929.344	4094.24
929.653	4075.03
929.962	4019.89
930.271	3982.83
930.581	4023.06
930.89	3985.09
931.199	4004.3
931.508	3976.05
931.817	3960.23
932.125	3894.25
932.434	3920.69
932.743	3895.83
933.051	3847.92
933.36	3878.88
933.669	3827.58
933.977	3880.46
934.286	3835.49
934.594	3785.78
934.902	3773.57
935.21	3829.16
935.519	3789.17
935.827	3739
936.135	3694.03
936.443	3696.51
936.751	3698.77
937.059	3693.12
937.367	3652.67
937.674	3711.88
937.982	3649.73
938.29	3633.69
938.597	3601.6
938.905	3567.48
939.213	3578.78
939.52	3568.38
939.827	3583.3
940.135	3544.88
940.442	3510.3
940.749	3497.65
941.056	3543.3
941.363	3480.7
941.67	3430.98
941.977	3437.08
942.284	3425.56
942.591	3439.12
942.898	3406.35
943.205	3407.71
943.511	3379.69
943.818	3371.1
944.125	3358.89
944.431	3344.88
944.738	3317.31
945.044	3263.53
945.35	3347.14
945.657	3291.1
945.963	3243.87
946.269	3243.87
946.575	3242.74
946.881	3250.87
947.187	3228.05
947.493	3225.34
947.799	3180.14
948.105	3167.94
948.41	3150.31
948.716	3143.31
949.022	3113.48
949.327	3105.34
949.633	3113.03
949.938	3092.91
950.244	3123.19
950.549	3071.9
950.854	3059.69
951.16	3052.46
951.465	3038
951.77	3025.8
952.075	3012.24
952.38	3002.75
952.685	2981.28
952.99	2985.8
953.294	2956.65
953.599	2935.63
953.904	2929.08
954.209	2892.24
954.513	2862.41
954.818	2921.84
955.122	2859.92
955.426	2846.59
955.731	2847.04
956.035	2824.9
956.339	2839.13
956.643	2836.65
956.948	2805.91
957.252	2774.96
957.556	2787.84
957.86	2805.46
958.163	2796.2
958.467	2755.52
958.771	2749.65
959.075	2735.18
959.378	2714.17
959.682	2719.59
959.985	2717.1
960.289	2691.34
960.592	2667.16
960.896	2647.73
961.199	2616.77
961.502	2671
961.805	2653.15
962.108	2638.01
962.411	2641.4
962.714	2614.28
963.017	2575.86
963.32	2622.64
963.623	2562.08
963.926	2579.25
964.228	2537.67
964.531	2540.39
964.833	2534.96
965.136	2505.81
965.438	2503.1
965.741	2502.87
966.043	2497.22
966.345	2506.71
966.648	2488.86
966.95	2515.3
967.252	2426.04
967.554	2462.42
967.856	2463.1
968.158	2420.39
968.46	2362.31
968.761	2369.09
969.063	2413.61
969.365	2379.49
969.666	2409.54
969.968	2358.47
970.269	2337.68
970.571	2334.97
970.872	2332.93
971.174	2272.37
971.475	2314.4
971.776	2301.07
972.077	2290.22
972.378	2291.8
972.679	2271.92
972.98	2258.36
973.281	2266.04
973.582	2246.61
973.883	2225.59
974.183	2207.96
974.484	2247.74
974.785	2170
975.085	2207.96
975.386	2198.25
975.686	2192.82
975.986	2220.39
976.287	2165.03
976.587	2143.56
976.887	2119.83
977.187	2169.32
977.487	2119.38
977.787	2128.42
978.087	2124.8
978.387	2141.53
978.687	2095.88
978.987	2107.85
979.286	2073.73
979.586	2082.32
979.885	2073.5
980.185	2077.12
980.484	2052.04
980.784	2036.67
981.083	2024.47
981.382	2029.21
981.682	2032.83
981.981	1994.18
982.28	2011.36
982.579	1992.83
982.878	1982.43
983.177	1986.73
983.475	1960.29
983.774	1968.87
984.073	1938.59
984.372	1964.13
984.67	1926.39
984.969	1908.99
985.267	1903.57
985.566	1911.02
985.864	1917.12
986.162	1891.81
986.461	1873.74
986.759	1849.56
987.057	1862.44
987.355	1855.43
987.653	1838.71
987.951	1866.73
988.249	1842.32
988.547	1835.32
988.844	1813.4
989.142	1822.89
989.44	1805.04
989.737	1793.96
990.035	1788.77
990.332	1811.82
990.63	1760.07
990.927	1774.53
991.224	1758.48
991.521	1756
991.819	1753.51
992.116	1759.84
992.413	1729.56
992.71	1702.89
993.006	1701.31
993.303	1684.59
993.6	1701.09
993.897	1696.79
994.193	1652.72
994.49	1665.15
994.787	1665.83
995.083	1673.74
995.379	1643.69
995.676	1646.85
995.972	1627.87
996.268	1617.92
996.565	1614.99
996.861	1609.34
997.157	1609.34
997.453	1594.2
997.749	1629.67
998.044	1563.69
998.34	1579.73
998.636	1548.32
998.932	1571.6
999.227	1555.1
999.523	1563.46
999.818	1541.77
1000.114	1535.21
1000.409	1527.98
1000.704	1516.46
1001	1522.78
1001.295	1501.09
1001.59	1521.43
1001.885	1513.29
1002.18	1472.39
1002.475	1432.39
1002.77	1459.28
1003.065	1443.69
1003.359	1463.35
1003.654	1443.46
1003.949	1421.77
1004.243	1441.66
1004.538	1430.81
1004.832	1424.03
1005.127	1420.41
1005.421	1387.65
1005.715	1395.33
1006.009	1367.31
1006.304	1341.32
1006.598	1366.63
1006.892	1362.34
1007.186	1332.28
1007.48	1364.6
1007.773	1347.42
1008.067	1338.16
1008.361	1325.95
1008.655	1338.38
1008.948	1312.85
1009.242	1305.39
1009.535	1294.54
1009.829	1297.71
1010.122	1297.48
1010.415	1282.79
1010.708	1269.01
1011.001	1258.61
1011.295	1258.61
1011.588	1252.74
1011.881	1262.45
1012.173	1253.41
1012.466	1229.46
1012.759	1230.36
1013.052	1203.25
1013.344	1197.6
1013.637	1213.87
1013.93	1191.49
1014.222	1213.87
1014.514	1176.81
1014.807	1195.11
1015.099	1193.53
1015.391	1157.37
1015.683	1165.28
1015.976	1169.12
1016.268	1172.96
1016.56	1137.26
1016.851	1145.62
1017.143	1136.35
1017.435	1135.22
1017.727	1111.95
1018.018	1122.57
1018.31	1135.9
1018.602	1072.18
1018.893	1103.36
1019.185	1087.77
1019.476	1085.96
1019.767	1085.73
1020.058	1063.59
1020.35	1073.76
1020.641	1058.39
1020.932	1076.02
1021.223	1045.28
1021.514	1033.08
1021.804	1049.35
1022.095	1014.55
1022.386	1044.83
1022.677	1020.65
1022.967	993.76
1023.258	1016.36
1023.548	986.98
1023.839	1008
1024.129	983.59
1024.419	997.15
1024.709	997.15
1025	987.43
1025.29	966.42
1025.58	984.95
1025.87	969.58
1026.16	950.37
1026.449	946.98
1026.739	932.29
1027.029	929.81
1027.319	951.5
1027.608	926.42
1027.898	930.48
1028.187	899.75
1028.477	897.94
1028.766	903.37
1029.055	895.91
1029.344	894.33
1029.634	878.51
1029.923	876.47
1030.212	878.73
1030.501	866.08
1030.79	859.75
1031.078	873.99
1031.367	860.66
1031.656	858.62
1031.945	844.16
1032.233	838.51
1032.522	833.99
1032.81	850.94
1033.099	819.98
1033.387	826.76
1033.675	836.48
1033.963	811.17
1034.251	784.27
1034.54	796.48
1034.828	798.96
1035.116	770.49
1035.403	771.17
1035.691	782.69
1035.979	800.77
1036.267	785.86
1036.554	758.96
1036.842	775.69
1037.129	779.53
1037.417	759.87
1037.704	747.89
1037.992	740.43
1038.279	736.59
1038.566	723.03
1038.853	723.03
1039.14	723.03
