Data from White_paper_FLMS001491_019.txt Node
Date: Tue Feb 07 10:34:44 GMT 2017
User: dcchb
Spectrometer: FLMS00149
Trigger mode: 0
Integration Time (sec): 2.000000E-2
Scans to average: 10
Electric dark correction enabled: true
Nonlinearity correction enabled: false
Boxcar width: 0
XAxis mode: Wavelengths
Number of Pixels in Spectrum: 2048
>>>>>Begin Spectral Data<<<<<
341.393	-1.91
341.776	-1.91
342.16	-1.91
342.543	-61.34
342.927	-88.46
343.31	-68.8
343.693	-76.03
344.077	-56.82
344.46	-70.38
344.843	-49.36
345.226	-24.73
345.61	-34
345.993	-15.01
346.376	-2.13
346.759	-4.17
347.142	15.72
347.525	46.68
347.908	59.56
348.291	99.33
348.674	93.46
349.057	86.68
349.44	130.75
349.823	126.68
350.206	146.56
350.588	241.7
350.971	242.61
351.354	239.67
351.737	252.78
352.119	284.19
352.502	312.44
352.884	307.24
353.267	309.72
353.65	319.67
354.032	332.55
354.414	319.67
354.797	336.84
355.179	322.83
355.562	350.85
355.944	361.25
356.326	341.81
356.709	344.98
357.091	374.58
357.473	368.93
357.855	389.04
358.238	380
358.62	390.4
359.002	365.09
359.384	371.87
359.766	382.49
360.148	377.29
360.53	384.3
360.912	377.97
361.294	361.93
361.676	363.73
362.057	354.92
362.439	368.93
362.821	368.03
363.203	377.07
363.584	363.28
363.966	356.73
364.348	344.07
364.729	358.54
365.111	354.47
365.493	353.79
365.874	363.51
366.256	363.73
366.637	382.04
367.019	351.98
367.4	358.54
367.781	341.36
368.163	345.65
368.544	366.67
368.925	355.15
369.306	368.03
369.688	352.21
370.069	340.23
370.45	365.77
370.831	348.37
371.212	347.01
371.593	361.25
371.974	359.21
372.355	377.97
372.736	363.96
373.117	389.5
373.498	374.35
373.879	395.82
374.26	368.48
374.641	348.37
375.021	361.93
375.402	366.9
375.783	384.52
376.163	371.19
376.544	405.54
376.925	397.86
377.305	393.11
377.686	392.21
378.066	394.24
378.447	387.46
378.827	405.99
379.208	397.63
379.588	406.44
379.968	435.82
380.349	408.7
380.729	400.79
381.109	399.21
381.489	436.27
381.87	403.73
382.25	413
382.63	446.9
383.01	418.42
383.39	417.29
383.77	422.94
384.15	420.46
384.53	441.92
384.91	432.43
385.29	424.75
385.67	449.15
386.049	453.67
386.429	456.16
386.809	456.39
387.189	457.74
387.568	474.92
387.948	454.35
388.328	483.28
388.707	460.45
389.087	475.37
389.466	472.88
389.846	477.85
390.225	485.76
390.605	490.28
390.984	509.27
391.363	510.62
391.743	502.03
392.122	533.9
392.501	525.09
392.881	509.27
393.26	526.21
393.639	530.96
394.018	496.84
394.397	517.63
394.776	537.74
395.155	562.37
395.534	544.29
395.913	549.04
396.292	554.91
396.671	556.27
397.05	595.82
397.429	570.73
397.808	581.35
398.186	580.22
398.565	585.87
398.944	602.37
399.323	612.31
399.701	608.47
400.08	626.55
400.458	637.17
400.837	628.81
401.215	636.95
401.594	638.3
401.972	636.04
402.351	658.87
402.729	685.76
403.107	706.1
403.486	700.22
403.864	707
404.242	714.23
404.62	732.54
404.999	760.11
405.377	741.12
405.755	772.99
406.133	795.36
406.511	784.06
406.889	838.75
407.267	844.17
407.645	860.22
408.023	891.86
408.401	867.22
408.779	908.58
409.156	920.33
409.534	958.75
409.912	954
410.29	1002.59
410.667	1056.6
411.045	1030.16
411.422	1074.45
411.8	1119.42
412.178	1130.49
412.555	1162.13
412.933	1187.67
413.31	1207.1
413.687	1227.89
414.065	1292.07
414.442	1293.2
414.819	1304.05
415.197	1334.56
415.574	1353.76
415.951	1386.98
416.328	1419.52
416.705	1449.58
417.082	1471.27
417.46	1490.26
417.837	1550.59
418.214	1562.8
418.591	1605.96
418.967	1616.13
419.344	1623.81
419.721	1652.97
420.098	1675.11
420.475	1713.98
420.852	1749.23
421.228	1774.09
421.605	1786.07
421.982	1826.75
422.358	1807.99
422.735	1864.26
423.111	1890.02
423.488	1965.27
423.864	1957.14
424.241	1999.4
424.617	1993.75
424.994	2000.53
425.37	2049.11
425.746	2072.16
426.123	2107.42
426.499	2110.13
426.875	2141.54
427.251	2217.92
427.627	2269.45
428.003	2258.15
428.379	2306.73
428.756	2322.1
429.132	2364.81
429.507	2400.06
429.883	2467.63
430.259	2474.41
430.635	2517.12
431.011	2576.33
431.387	2586.27
431.763	2645.48
432.138	2666.95
432.514	2722.32
432.89	2706.04
433.265	2813.61
433.641	2840.28
434.016	2857.68
434.392	2916.43
434.767	2970.44
435.143	2965.25
435.518	3048.86
435.894	3038.47
436.269	3088.86
436.644	3132.47
437.02	3192.13
437.395	3157.56
437.77	3219.25
438.145	3306.71
438.52	3337.21
438.895	3330.21
439.271	3389.64
439.646	3392.81
440.021	3456.31
440.395	3527.04
440.77	3444.56
441.145	3494.72
441.52	3616.53
441.895	3579.69
442.27	3646.36
442.645	3590.32
443.019	3670.54
443.394	3678.67
443.769	3721.16
444.143	3721.39
444.518	3780.59
444.892	3717.09
445.267	3775.4
445.641	3815.17
446.016	3817.88
446.39	3885
446.764	3918.89
447.139	3909.85
447.513	3950.98
447.887	3941.27
448.262	3986.91
448.636	3996.41
449.01	4027.37
449.384	4081.38
449.758	4112.56
450.132	4168.61
450.506	4184.65
450.88	4183.52
451.254	4219.68
451.628	4281.82
452.002	4266.46
452.376	4335.61
452.75	4430.07
453.123	4435.26
453.497	4504.19
453.871	4529.5
454.244	4651.76
454.618	4650.63
454.992	4694.01
455.365	4687.69
455.739	4839.32
456.112	4855.37
456.486	4883.84
456.859	4950.28
457.232	5018.53
457.606	5059.43
457.979	5074.34
458.352	5247.22
458.725	5254
459.099	5264.17
459.472	5416.93
459.845	5465.29
460.218	5576.25
460.591	5563.6
460.964	5575.12
461.337	5729.47
461.71	5866.19
462.083	5829.58
462.456	5871.16
462.829	5894.66
463.201	6023.02
463.574	6040.42
463.947	6169.23
464.32	6304.14
464.692	6295.55
465.065	6405.61
465.438	6391.37
465.81	6535.32
466.183	6623.46
466.555	6773.28
466.928	6775.32
467.3	6789.1
467.672	6900.06
468.045	7079.49
468.417	7119.26
468.789	7171.69
469.161	7314.29
469.534	7383.44
469.906	7564
470.278	7601.74
470.65	7675.18
471.022	7904.1
471.394	7938
471.766	8116.3
472.138	8166.01
472.51	8335.73
472.882	8470.19
473.253	8558.09
473.625	8654.81
473.997	8849.39
474.369	8960.34
474.74	9054.8
475.112	9136.61
475.484	9408.47
475.855	9475.36
476.227	9554.68
476.598	9753.32
476.97	9877.38
477.341	10111.73
477.713	10243.25
478.084	10313.53
478.455	10580.64
478.827	10685.27
479.198	11021.53
479.569	11032.61
479.94	11343.56
480.311	11428.3
480.682	11640.5
481.053	11935.18
481.424	12135.63
481.795	12173.37
482.166	12390.31
482.537	12563.86
482.908	12831.43
483.279	12976.28
483.65	13153
484.021	13447.68
484.391	13551.86
484.762	13711.86
485.133	13797.5
485.503	13983.26
485.874	14342.35
486.244	14413.76
486.615	14695.11
486.985	14881.54
487.356	15171.03
487.726	15271.59
488.097	15520.4
488.467	15674.74
488.837	16001.06
489.207	16070.21
489.578	16221.17
489.948	16464.33
490.318	16705.68
490.688	16707.26
491.058	17112.9
491.428	17213.01
491.798	17476.5
492.168	17688.48
492.538	17797.85
492.908	17958.75
493.278	18220.66
493.648	18214.56
494.017	18508.12
494.387	18530.04
494.757	18749.92
495.126	19018.38
495.496	18986.07
495.866	19176.35
496.235	19429.45
496.605	19583.12
496.974	19604.13
497.344	19874.63
497.713	19972.48
498.082	20146.94
498.452	20412.7
498.821	20381.74
499.19	20413.6
499.559	20585.57
499.928	20796.42
500.298	20922.74
500.667	21147.14
501.036	21045.9
501.405	21324.09
501.774	21303.07
502.143	21543.29
502.512	21695.6
502.88	21833.9
503.249	21915.03
503.618	22161.8
503.987	22178.3
504.356	22409.71
504.724	22435.7
505.093	22544.39
505.462	22716.82
505.83	22806.99
506.199	22995.23
506.567	23304.6
506.936	23414.43
507.304	23580.98
507.672	23708.2
508.041	23710.46
508.409	23871.36
508.777	24226.61
509.145	24284.69
509.514	24340.28
509.882	24514.74
510.25	24622.98
510.618	24825.24
510.986	24912.69
511.354	25125.57
511.722	25366.47
512.09	25419.57
512.458	25559.91
512.826	25729.62
513.193	25761.71
513.561	25926.9
513.929	26199.44
514.297	26350.85
514.664	26705.64
515.032	26648.92
515.4	26964.39
515.767	27076.03
516.135	27187.21
516.502	27142.24
516.869	27508.56
517.237	27746.06
517.604	27603.7
517.972	27934.99
518.339	28151.03
518.706	28259.27
519.073	28321.87
519.44	28535.87
519.808	28797.34
520.175	28826.71
520.542	29215.18
520.909	29425.57
521.276	29481.39
521.643	29667.14
522.009	29970.64
522.376	30081.82
522.743	30333.79
523.11	30501.7
523.477	30827.57
523.843	31010.61
524.21	31270.72
524.577	31500.09
524.943	31565.85
525.31	31851.27
525.676	32067.08
526.043	32318.6
526.409	32246.51
526.776	32730.79
527.142	32797.91
527.508	33034.96
527.874	33092.36
528.241	33469.98
528.607	33646.25
528.973	33797.66
529.339	33883.3
529.705	34215.27
530.071	34441.26
530.437	34646.67
530.803	34734.58
531.169	35070.39
531.535	35094.8
531.901	35174.12
532.267	35432.19
532.632	35567.55
532.998	35652.3
533.364	35859.3
533.73	36036.92
534.095	36168.44
534.461	36381.32
534.826	36569.34
535.192	36684.59
535.557	36941.3
535.923	36990.79
536.288	37132.26
536.653	37335.42
537.019	37326.38
537.384	37501.74
537.749	37619.48
538.114	37637.1
538.479	37872.13
538.845	38084.1
539.21	37966.13
539.575	38260.59
539.94	38326.13
540.305	38499.23
540.67	38554.59
541.034	38761.14
541.399	38900.35
541.764	39091.75
542.129	39118.19
542.494	39285.42
542.858	39386.21
543.223	39446.32
543.587	39800.66
543.952	39674.34
544.316	39863.71
544.681	39960.21
545.045	40098.28
545.41	40342.8
545.774	40415.56
546.138	40497.37
546.503	40690.81
546.867	40724.93
547.231	41138.03
547.595	41092.61
547.959	41282.43
548.324	41314.97
548.688	41441.98
549.052	41583.44
549.416	41698.69
549.779	41692.36
550.143	41826.37
550.507	42060.04
550.871	42247.83
551.235	42328.51
551.599	42495.73
551.962	42656.86
552.326	42766.23
552.689	42953.12
553.053	42813.92
553.417	43025.89
553.78	43535.48
554.143	43301.14
554.507	43498.64
554.87	43622.71
555.234	44131.17
555.597	43959.2
555.96	43986.09
556.323	44197.16
556.686	44332.07
557.05	44688.67
557.413	44734.32
557.776	44730.25
558.139	44903.58
558.502	45038.26
558.865	45161.88
559.228	45538.82
559.59	45509.44
559.953	45542.43
560.316	46108.07
560.679	45988.07
561.041	46229.19
561.404	46434.84
561.767	46757.54
562.129	46572.46
562.492	46980.13
562.854	47052.45
563.217	46994.37
563.579	47170.41
563.941	47414.47
564.304	47531.08
564.666	47801.81
565.028	47768.59
565.39	47998.19
565.753	48269.14
566.115	48409.48
566.477	48373.77
566.839	48656.47
567.201	48857.37
567.563	48999.74
567.925	49149.57
568.287	49193.18
568.648	49369.22
569.01	49533.06
569.372	49775.09
569.734	49606.28
570.095	49852.15
570.457	50174.85
570.819	50134.18
571.18	50121.52
571.542	50401.06
571.903	50391.57
572.265	50616.42
572.626	50688.06
572.987	50847.83
573.349	50927.83
573.71	51054.15
574.071	51092.57
574.432	51230.87
574.794	51534.14
575.155	51378.66
575.516	51382.28
575.877	51631.76
576.238	51718.09
576.599	51757.18
576.96	51643.74
577.32	51822.72
577.681	52067.68
578.042	52043.5
578.403	52090.73
578.763	52091.41
579.124	52258.19
579.485	52324.85
579.845	52405.3
580.206	52506.77
580.566	52378.41
580.927	52436.49
581.287	52578.63
581.648	52565.98
582.008	52767.78
582.368	52709.93
582.728	52716.03
583.089	52771.17
583.449	52692.98
583.809	52719.19
584.169	52919.41
584.529	52814.78
584.889	53118.96
585.249	52824.73
585.609	52871.05
585.969	52997.38
586.329	52951.5
586.688	52995.12
587.048	53014.78
587.408	52971.84
587.768	53024.5
588.127	53120.09
588.487	53025.4
588.846	53250.25
589.206	52970.49
589.565	53053.2
589.925	53273.3
590.284	53128.45
590.643	53241.21
591.003	53224.72
591.362	53283.92
591.721	53236.24
592.08	53306.75
592.44	53384.71
592.799	53315.11
593.158	53376.12
593.517	53357.14
593.876	53426.07
594.235	53401.43
594.593	53436.69
594.952	53438.04
595.311	53357.82
595.67	53512.39
596.029	53661.54
596.387	53612.5
596.746	53802.78
597.104	53626.74
597.463	53573.18
597.822	53787.64
598.18	53627.87
598.538	53569.34
598.897	53731.37
599.255	53551.26
599.613	53996
599.972	53838.03
600.33	53825.6
600.688	53824.47
601.046	53853.85
601.404	54065.6
601.762	53865.6
602.12	54033.51
602.478	54128.42
602.836	54049.1
603.194	53988.99
603.552	54062.66
603.91	53921.2
604.268	54046.39
604.625	53970.01
604.983	54192.6
605.341	53991.93
605.698	54230.79
606.056	54221.3
606.413	54154.41
606.771	54282.32
607.128	54286.84
607.485	54215.2
607.843	54240.96
608.2	54409.54
608.557	54480.28
608.914	54343.11
609.272	54512.14
609.629	54516.66
609.986	54561.18
610.343	54479.15
610.7	54664.45
611.057	54599.6
611.414	54586.49
611.771	54712.81
612.127	54726.82
612.484	54718.24
612.841	54804.79
613.198	54723.43
613.554	54797.78
613.911	54872.13
614.267	54865.35
614.624	54789.19
614.98	54805.92
615.337	54941.73
615.693	54882.98
616.05	54874.84
616.406	55070.09
616.762	54961.39
617.118	54977.66
617.475	54925.46
617.831	55049.3
618.187	54992.13
618.543	55097.44
618.899	55204.1
619.255	55136.53
619.611	55126.81
619.967	55204.78
620.323	55347.15
620.678	55207.04
621.034	55195.74
621.39	55167.49
621.746	55106.93
622.101	55481.15
622.457	55102.41
622.812	55203.87
623.168	55364.55
623.523	55263.98
623.879	55315.51
624.234	55172.46
624.589	55240.93
624.945	55314.15
625.3	55319.35
625.655	55332.23
626.01	55322.06
626.365	55334.04
626.72	55295.62
627.075	55271.67
627.43	55254.27
627.785	55102.18
628.14	55295.4
628.495	55358.9
628.85	55307.15
629.205	55235.06
629.559	55306.92
629.914	55316.41
630.269	55319.35
630.623	55224.21
630.978	55219.92
631.332	55259.01
631.687	55309.41
632.041	55252.91
632.396	55276.41
632.75	55218.56
633.104	55256.98
633.459	55079.81
633.813	55093.59
634.167	55169.52
634.521	55060.37
634.875	55125.68
635.229	55154.16
635.583	54956.42
635.937	55017.21
636.291	54982.41
636.645	55014.05
636.999	54973.82
637.352	55049.08
637.706	54803.88
638.06	54999.58
638.413	54895.86
638.767	54836.43
639.121	54929.53
639.474	54815.18
639.828	54845.24
640.181	54832.36
640.534	54793.26
640.888	54685.24
641.241	54659.03
641.594	54783.09
641.947	54844.56
642.301	54706.94
642.654	54725.47
643.007	54762.08
643.36	54680.27
643.713	54630.1
644.066	54789.19
644.419	54577.9
644.771	54353.05
645.124	54097.46
645.477	54068.31
645.83	53917.81
646.182	53747.41
646.535	53785.83
646.888	53877.58
647.24	53682.11
647.593	53786.96
647.945	53774.08
648.298	53590.36
648.65	53651.6
649.002	53438.95
649.355	53665.83
649.707	53530.7
650.059	53784.48
650.411	54139.49
650.763	54212.71
651.115	54453.38
651.467	54274.86
651.819	54321.41
652.171	54217.23
652.523	54199.38
652.875	54196.44
653.227	54144.92
653.578	54211.13
653.93	54219.49
654.282	54169.1
654.633	54105.37
654.985	54104.24
655.337	54142.21
655.688	54104.02
656.039	54206.61
656.391	53893.17
656.742	54041.42
657.094	53941.76
657.445	54124.13
657.796	53978.14
658.147	53962.55
658.498	53942.66
658.849	54020.4
659.2	53930.69
659.551	53903.12
659.902	53923
660.253	53972.49
660.604	53964.58
660.955	53854.98
661.306	53933.17
661.656	53765.95
662.007	53786.51
662.358	53850.91
662.708	53753.74
663.059	53889.56
663.409	53633.07
663.76	53868.32
664.11	53819.28
664.461	53904.92
664.811	53867.64
665.161	53769.56
665.511	53699.05
665.862	53671.03
666.212	53763.01
666.562	53777.02
666.912	53689.34
667.262	53665.38
667.612	53615.21
667.962	53702.44
668.312	53680.52
668.662	53769.33
669.011	53625.84
669.361	53577.7
669.711	53505.84
670.06	53504.26
670.41	53448.21
670.76	53436.46
671.109	53583.8
671.459	53404.15
671.808	53412.28
672.157	53556.01
672.507	53299.29
672.856	53266.52
673.205	53331.83
673.554	53368.67
673.904	53299.74
674.253	53471.04
674.602	53291.16
674.951	52736.37
675.3	52659.99
675.649	53111.5
675.998	53042.57
676.346	53102.46
676.695	53241.44
677.044	52924.16
677.393	53102.46
677.741	53090.71
678.09	52999.19
678.438	52940.43
678.787	52905.85
679.135	52951.28
679.484	52716.26
679.832	52823.82
680.181	52626.99
680.529	52757.84
680.877	52630.61
681.225	52568.01
681.573	52727.1
681.922	52485.07
682.27	52370.05
682.618	52425.64
682.966	52267.91
683.314	52363.27
683.661	52279.2
684.009	52171.41
684.357	51998.53
684.705	51989.72
685.053	52080.11
685.4	51951.53
685.748	51847.35
686.095	51767.13
686.443	51756.05
686.79	51577.53
687.138	51589.28
687.485	51623.4
687.832	51450.75
688.18	51497.08
688.527	51199.46
688.874	51284.88
689.221	51203.3
689.568	51018.9
689.915	50974.61
690.262	51035.62
690.609	50826.14
690.956	50776.65
691.303	50799.7
691.65	50501.17
691.997	50597.67
692.344	50301.86
692.69	50267.73
693.037	50300.27
693.383	50070.67
693.73	50187.96
694.077	49986.38
694.423	49918.81
694.769	49836.33
695.116	49723.79
695.462	49626.17
695.808	49536.45
696.155	49675.21
696.501	49274.31
696.847	49352.95
697.193	49034.54
697.539	49093.3
697.885	48872.51
698.231	48715
698.577	48768.11
698.923	48754.55
699.269	48540.32
699.614	48372.19
699.96	48214.68
700.306	48292.42
700.651	48149.37
700.997	48011.75
701.342	47879.77
701.688	47749.15
702.033	47816.27
702.379	47757.06
702.724	47562.27
703.069	47595.49
703.415	47319.33
703.76	47186.01
704.105	47291.76
704.45	47093.13
704.795	46902.17
705.14	46801.83
705.485	46868.5
705.83	46699.46
706.175	46720.48
706.52	46569.75
706.865	46386.48
707.209	46288.63
707.554	46264
707.899	46299.7
708.243	46093.38
708.588	46048.18
708.932	45812.71
709.277	45621.75
709.621	45753.73
709.966	45495.65
710.31	45586.5
710.654	45182.89
710.998	45350.12
711.342	45291.82
711.687	45222.89
712.031	45020.19
712.375	44917.82
712.719	45014.99
713.063	45069.22
713.407	45033.29
713.75	44787.65
714.094	44646.64
714.438	44613.87
714.782	44626.98
715.125	44281.67
715.469	44508.79
715.812	44283.26
716.156	43954.45
716.499	44089.14
716.843	44176.82
717.186	43935.02
717.53	44058.86
717.873	43993.55
718.216	43857.51
718.559	43723.27
718.902	43396.05
719.246	43594.24
719.589	43479.21
719.932	43162.16
720.275	43387.46
720.617	43241.25
720.96	43185.21
721.303	43177.75
721.646	43191.31
721.989	42780.92
722.331	42979.56
722.674	42750.87
723.016	42906.34
723.359	42715.16
723.701	42753.35
724.044	42321.5
724.386	42199.47
724.729	42508.39
725.071	42319.01
725.413	42361.27
725.755	42270.88
726.097	42133.48
726.439	41926.26
726.782	42117.66
727.124	42276.08
727.465	41885.35
727.807	41851.91
728.149	41804
728.491	41695.75
728.833	41824.56
729.175	41586.15
729.516	41586.6
729.858	41520.17
730.199	41514.29
730.541	41354.29
730.882	41337.35
731.224	41472.26
731.565	41186.84
731.906	41216.67
732.248	41172.38
732.589	41126.5
732.93	40909.33
733.271	40888.77
733.612	40922.67
733.953	41037.47
734.294	40779.17
734.635	40784.82
734.976	40765.83
735.317	40564.03
735.658	40579.17
735.999	40562
736.339	40503.69
736.68	40601.09
737.021	40264.61
737.361	40224.38
737.702	40352.51
738.042	40251.72
738.383	40077.49
738.723	40132.41
739.063	40022.8
739.404	40269.35
739.744	39986.19
740.084	39975.8
740.424	39996.82
740.764	39702.36
741.104	39910.49
741.444	39567.22
741.784	39705.52
742.124	39677.73
742.464	39611.74
742.804	39504.63
743.143	39390.28
743.483	39564.74
743.823	39243.62
744.162	39192.99
744.502	39367.68
744.841	39060.34
745.181	39269.15
745.52	39031.19
745.86	39116.39
746.199	39034.13
746.538	38978.76
746.877	38917.3
747.216	38921.82
747.556	38752.55
747.895	38791.88
748.234	38645.44
748.573	38556.63
748.911	38692.22
749.25	38500.81
749.589	38391.43
749.928	38446.35
750.267	38510.98
750.605	38245.9
750.944	38189.41
751.283	38128.16
751.621	38243.87
751.96	37958
752.298	38037.77
752.636	37998.9
752.975	37673.03
753.313	37537.22
753.651	37774.95
753.989	37420.16
754.327	37498.58
754.666	37331.35
755.004	37370.67
755.342	37391.01
755.679	37371.12
756.017	37138.36
756.355	37174.97
756.693	37069.89
757.031	37097.23
757.368	36735.88
757.706	36778.6
758.044	36572.72
758.381	36643.46
758.719	36437.59
759.056	36506.96
759.394	36490.92
759.731	36217.93
760.068	36128.89
760.405	35982.68
760.743	36014.32
761.08	35895.91
761.417	35680.32
761.754	35492.75
762.091	35568.68
762.428	35530.72
762.765	35254.34
763.102	35347.45
763.438	35011.18
763.775	34941.13
764.112	34980.68
764.449	35005.76
764.785	34898.42
765.122	34483.06
765.458	34539.11
765.795	34571.65
766.131	34463.18
766.467	34245.33
766.804	34013.02
767.14	33999.23
767.476	33848.95
767.812	33756.75
768.148	33816.41
768.485	33713.82
768.821	33500.72
769.157	33467.27
769.492	33308.63
769.828	33273.83
770.164	33001.97
770.5	33003.78
770.836	32938.7
771.171	32670.91
771.507	32709.55
771.842	32417.81
772.178	32454.64
772.513	32352.27
772.849	32349.33
773.184	32204.03
773.519	32119.06
773.855	32007.87
774.19	31836.13
774.525	31609.47
774.86	31611.95
775.195	31585.29
775.53	31351.85
775.865	31245.41
776.2	31055.81
776.535	31013.32
776.87	30827.57
777.205	30757.28
777.539	30631.41
777.874	30712.77
778.209	30382.38
778.543	30388.71
778.878	30218.54
779.212	30195.27
779.547	30137.87
779.881	30004.08
780.215	29805.67
780.55	29937.19
780.884	29677.54
781.218	29536.75
781.552	29445.68
781.886	29444.1
782.22	29310.54
782.554	29278.91
782.888	28916.43
783.222	28778.13
783.556	28707.39
783.889	28598.7
784.223	28508.08
784.557	28383.34
784.89	28431.47
785.224	28317.12
785.557	28234.64
785.891	28107.41
786.224	28150.12
786.558	28015.21
786.891	27734.09
787.224	27633.98
787.557	27571.83
787.891	27414.55
788.224	27422.46
788.557	27421.78
788.89	27294.1
789.223	27354.21
789.556	26947.89
789.888	27018.63
790.221	26938.4
790.554	26714.9
790.887	26815.47
791.219	26534.12
791.552	26483.72
791.884	26437.4
792.217	26353.78
792.549	26148.82
792.882	26145.88
793.214	25988.6
793.546	26009.61
793.879	25830.18
794.211	25743.63
794.543	25755.38
794.875	25752.22
795.207	25659.57
795.539	25562.84
795.871	25442.62
796.203	25256.64
796.535	25191.78
796.867	25034.27
797.198	25004.89
797.53	25106.36
797.862	24856.2
798.193	24934.84
798.525	24651.91
798.856	24841.28
799.188	24536.66
799.519	24468.18
799.85	24312.71
800.182	24426.6
800.513	24275.65
800.844	24124.24
801.175	24232.03
801.506	24200.17
801.837	24058.93
802.168	23985.26
802.499	23942.55
802.83	23721.09
803.161	23700.75
803.491	23724.02
803.822	23665.49
804.153	23569.45
804.483	23408.78
804.814	23257.37
805.145	23251.04
805.475	23276.35
805.805	23091.72
806.136	23148.45
806.466	23045.85
806.796	22996.36
807.126	22789.81
807.457	22740.55
807.787	22722.69
808.117	22678.4
808.447	22607.22
808.777	22629.59
809.107	22522.25
809.436	22418.52
809.766	22409.93
810.096	22358.18
810.426	22318.41
810.755	22268.24
811.085	22120.68
811.414	22135.82
811.744	21930.17
812.073	22019.89
812.403	22009.72
812.732	21800.68
813.061	21867.35
813.39	21732.89
813.719	21626.23
814.049	21633.91
814.378	21602.04
814.707	21502.16
815.036	21356.18
815.365	21447.92
815.693	21199.12
816.022	21194.15
816.351	21145.11
816.68	21049.74
817.008	21085.22
817.337	20885.45
817.665	20813.82
817.994	21026.69
818.322	20979.24
818.651	20792.35
818.979	20718.23
819.307	20904.44
819.636	20706.93
819.964	20612.24
820.292	20666.02
820.62	20590.09
820.948	20582.18
821.276	20606.36
821.604	20572.02
821.932	20428.74
822.259	20492.92
822.587	20575.86
822.915	20380.38
823.243	20567.5
823.57	20509.87
823.898	20459.02
824.225	20335.41
824.553	20404.79
824.88	20417.22
825.207	20494.73
825.535	20325.24
825.862	20584.67
826.189	20423.77
826.516	20454.05
826.843	20456.09
827.17	20409.76
827.497	20512.36
827.824	20457.22
828.151	20510.1
828.478	20385.58
828.805	20554.61
829.131	20314.4
829.458	20393.26
829.785	20356.43
830.111	20311.91
830.438	20418.57
830.764	20419.48
831.09	20345.81
831.417	20241.18
831.743	20361.4
832.069	20376.77
832.395	20298.12
832.722	20269.88
833.048	20183.78
833.374	20208.86
833.7	20155.08
834.026	20152.14
834.351	20232.36
834.677	20207.96
835.003	20280.95
835.329	20144.68
835.654	20114.63
835.98	19977.23
836.306	20125.25
836.631	19959.38
836.956	20056.32
837.282	20035.08
837.607	19911.02
837.932	19864.69
838.258	19751.47
838.583	19897.23
838.908	19669.44
839.233	19775.65
839.558	19685.49
839.883	19651.81
840.208	19520.07
840.533	19557.35
840.858	19586.05
841.182	19579.27
841.507	19573.85
841.832	19426.96
842.156	19436
842.481	19313.52
842.805	19393.74
843.13	19252.5
843.454	19288.21
843.778	19231.94
844.103	19216.8
844.427	19083.24
844.751	19091.6
845.075	19033.3
845.399	18930.02
845.723	18911.95
846.047	18894.55
846.371	18748.33
846.695	18670.6
847.019	18550.6
847.343	18506.08
847.666	18330.27
847.99	18312.19
848.313	18372.98
848.637	18182.47
848.96	18181.8
849.284	18004.17
849.607	17977.51
849.931	17894.57
850.254	17816.16
850.577	17690.06
850.9	17534.13
851.223	17542.72
851.546	17472.89
851.869	17336.85
852.192	17482.15
852.515	17334.36
852.838	17244.65
853.161	17240.35
853.483	17146.79
853.806	17039.68
854.129	17071.77
854.451	16966.91
854.774	16872
855.096	16800.82
855.419	16747.03
855.741	16735.51
856.063	16621.84
856.385	16603.53
856.708	16542.74
857.03	16584.78
857.352	16445.8
857.674	16454.38
857.996	16391.33
858.318	16274.05
858.64	16305.91
858.961	16216.88
859.283	16222.07
859.605	16167.61
859.926	16226.14
860.248	16079.25
860.57	15996.54
860.891	15999.03
861.212	15942.76
861.534	15893.49
861.855	15883.1
862.176	15900.5
862.498	15902.76
862.819	15876.77
863.14	15813.95
863.461	15729.66
863.782	15708.87
864.103	15730.79
864.424	15611.02
864.745	15694.4
865.065	15558.14
865.386	15519.72
865.707	15417.8
866.027	15597.46
866.348	15421.64
866.668	15457.35
866.989	15386.62
867.309	15319.5
867.63	15366.28
867.95	15308.88
868.27	15187.98
868.59	15347.97
868.91	15237.01
869.23	15205.38
869.55	15147.07
869.87	15165.83
870.19	15044.03
870.51	15138.26
870.83	15138.49
871.15	15029.79
871.469	15013.74
871.789	15046.96
872.109	15017.59
872.428	14946.63
872.748	14990.47
873.067	14930.36
873.386	14965.16
873.706	15026.4
874.025	14861.88
874.344	14773.98
874.663	14809
874.982	14779.4
875.301	14716.58
875.62	14691.04
875.939	14647.88
876.258	14606.07
876.577	14577.6
876.896	14570.82
877.214	14593.19
877.533	14530.59
877.852	14507.99
878.17	14415.79
878.489	14484.49
878.807	14504.38
879.125	14417.38
879.444	14430.71
879.762	14347.32
880.08	14319.3
880.398	14203.14
880.716	14265.74
881.034	14223.26
881.352	14249.24
881.67	14179.64
881.988	14187.1
882.306	14146.2
882.624	14059.42
882.941	14053.09
883.259	14020.32
883.577	14033.2
883.894	13981
884.212	13985.97
884.529	13932.87
884.846	13879.54
885.164	13850.84
885.481	13815.81
885.798	13808.58
886.115	13759.99
886.432	13719.54
886.75	13642.93
887.067	13664.85
887.383	13616.27
887.7	13727
888.017	13528.13
888.334	13390.96
888.651	13464.86
888.967	13421.7
889.284	13310.96
889.6	13365.2
889.917	13352.77
890.233	13266.44
890.55	13179.89
890.866	13273.68
891.182	13188.48
891.498	13105.77
891.815	13106.45
892.131	13009.95
892.447	12967.02
892.763	12966.11
893.079	12988.71
893.395	12867.59
893.71	12837.08
894.026	12846.12
894.342	12721.37
894.657	12685.9
894.973	12687.03
895.289	12656.74
895.604	12584.2
895.92	12611.55
896.235	12545.33
896.55	12413.59
896.865	12434.38
897.181	12324.55
897.496	12400.71
897.811	12279.58
898.126	12276.19
898.441	12216.76
898.756	12229.41
899.071	12167.49
899.386	12187.83
899.7	11994.61
900.015	11980.38
900.33	11843.88
900.644	11894.28
900.959	11950.77
901.273	11812.02
901.588	11696.77
901.902	11729.08
902.216	11673.04
902.531	11699.71
902.845	11621.97
903.159	11527.28
903.473	11541.74
903.787	11425.82
904.101	11437.79
904.415	11407.51
904.729	11253.39
905.042	11321.86
905.356	11264.01
905.67	11219.27
905.984	11252.03
906.297	11166.39
906.611	11106.5
906.924	11084.13
907.237	11048.42
907.551	10976.11
907.864	10855.66
908.177	10882.78
908.491	10831.48
908.804	10793.29
909.117	10755.32
909.43	10687.08
909.743	10627.64
910.056	10684.37
910.368	10567.76
910.681	10535.9
910.994	10494.77
911.307	10344.26
911.619	10270.82
911.932	10352.62
912.244	10234.21
912.557	10252.29
912.869	10193.98
913.181	10181.55
913.494	10132.97
913.806	10067.43
914.118	10031.05
914.43	10006.42
914.742	9970.26
915.054	9927.78
915.366	9829.47
915.678	9836.25
915.99	9829.02
916.302	9699.08
916.613	9698.18
916.925	9677.61
917.236	9716.48
917.548	9612.08
917.859	9532.31
918.171	9475.81
918.482	9486.66
918.794	9421.12
919.105	9413.44
919.416	9330.96
919.727	9318.75
920.038	9297.74
920.349	9270.84
920.66	9168.25
920.971	9183.61
921.282	9173.22
921.593	9032.21
921.903	9032.88
922.214	8962.83
922.525	8874.24
922.835	8899.1
923.146	8860.23
923.456	8878.76
923.767	8847.8
924.077	8716.96
924.387	8662.27
924.697	8715.6
925.008	8682.16
925.318	8611.65
925.628	8591.99
925.938	8535.04
926.248	8533.01
926.558	8440.36
926.867	8385.9
927.177	8392.22
927.487	8396.29
927.796	8287.59
928.106	8291.43
928.416	8288.72
928.725	8217.54
929.034	8157.43
929.344	8150.65
929.653	8090.31
929.962	8010.76
930.271	8039.69
930.581	7973.93
930.89	7945.68
931.199	7866.59
931.508	7896.19
931.817	7847.6
932.125	7825.46
932.434	7755.18
932.743	7694.16
933.051	7697.55
933.36	7672.47
933.669	7604.45
933.977	7626.82
934.286	7504.79
934.594	7555.86
934.902	7461.63
935.21	7475.64
935.519	7451.23
935.827	7376.43
936.135	7328.07
936.443	7300.95
936.751	7275.64
937.059	7262.08
937.367	7264.79
937.674	7185.02
937.982	7143.89
938.29	7149.77
938.597	7099.6
938.905	7047.17
939.213	6987.51
939.52	6948.87
939.827	6973.05
940.135	6936.44
940.442	6912.71
940.749	6858.48
941.056	6906.16
941.363	6838.59
941.67	6797.01
941.977	6763.11
942.284	6669.56
942.591	6675.43
942.898	6676.34
943.205	6638.37
943.511	6593.4
943.818	6556.79
944.125	6517.02
944.431	6515.89
944.738	6510.46
945.044	6460.75
945.35	6394.99
945.657	6363.8
945.963	6416.68
946.269	6344.59
946.575	6332.62
946.881	6265.27
947.187	6283.8
947.493	6208.1
947.799	6134.2
948.105	6130.59
948.41	6136.46
948.716	6140.76
949.022	6112.51
949.327	6069.57
949.633	5962.91
949.938	5933.08
950.244	5966.3
950.549	5954.55
950.854	5921.55
951.16	5941.44
951.465	5865.51
951.77	5808.56
952.075	5798.17
952.38	5727.66
952.685	5780.54
952.99	5691.05
953.294	5706.19
953.599	5708.45
953.904	5655.35
954.209	5631.39
954.513	5642.46
954.818	5593.65
955.122	5552.3
955.426	5525.63
955.731	5536.7
956.035	5490.15
956.339	5453.32
956.643	5449.02
956.948	5423.04
957.252	5381.91
957.556	5374.68
957.86	5334.68
958.163	5321.12
958.467	5293.1
958.771	5296.71
959.075	5256.03
959.378	5218.07
959.682	5192.76
959.985	5203.38
960.289	5168.13
960.592	5148.92
960.896	5110.28
961.199	5087.45
961.502	5054.68
961.805	5039.09
962.108	4966.1
962.411	4987.57
962.714	4945.31
963.017	4958.19
963.32	4912.09
963.623	4920.45
963.926	4857.85
964.228	4819.21
964.531	4784.86
964.833	4793.9
965.136	4793.45
965.438	4803.62
965.741	4747.57
966.043	4746.67
966.345	4682.94
966.648	4664.64
966.95	4634.81
967.252	4654.02
967.554	4606.56
967.856	4616.28
968.158	4541.25
968.46	4562.04
968.761	4571.98
969.063	4525.43
969.365	4504.64
969.666	4457.64
969.968	4450.18
970.269	4431.2
970.571	4404.98
970.872	4399.79
971.174	4350.75
971.475	4347.81
971.776	4374.25
972.077	4310.75
972.378	4355.49
972.679	4314.36
972.98	4267.59
973.281	4262.39
973.582	4229.85
973.883	4216.97
974.183	4171.99
974.484	4147.81
974.785	4128.15
975.085	4110.53
975.386	4096.74
975.686	4063.3
975.986	4084.99
976.287	4054.71
976.587	4035.5
976.887	3995.73
977.187	4012
977.487	3981.27
977.787	3939.01
978.087	3911.21
978.387	3920.25
978.687	3875.05
978.987	3859.01
979.286	3828.5
979.586	3869.63
979.885	3795.73
980.185	3795.73
980.484	3819.24
980.784	3763.64
981.083	3732.68
981.382	3736.3
981.682	3714.38
981.981	3745.11
982.28	3672.12
982.579	3649.07
982.878	3677.77
983.177	3620.6
983.475	3642.74
983.774	3602.97
984.073	3515.51
984.372	3577.21
984.67	3529.98
984.969	3544.89
985.267	3528.4
985.566	3499.02
985.864	3478.45
986.162	3490.66
986.461	3433.71
986.759	3423.09
987.057	3362.07
987.355	3379.47
987.653	3368.85
987.951	3386.03
988.249	3369.53
988.547	3357.55
988.844	3361.85
989.142	3314.16
989.44	3290.44
989.737	3258.8
990.035	3247.05
990.332	3253.6
990.63	3226.93
990.927	3234.39
991.224	3196.2
991.521	3154.85
991.819	3202.75
992.116	3146.94
992.413	3121.4
992.71	3108.07
993.006	3133.38
993.303	3087.73
993.6	3059.71
993.897	3040.05
994.193	3072.14
994.49	3012.93
994.787	2976.32
995.083	3024.23
995.379	2990.56
995.676	2992.82
995.972	2969.31
996.268	2918.02
996.565	2904.23
996.861	2896.55
997.157	2900.16
997.453	2847.06
997.749	2873.72
998.044	2831.47
998.34	2833.5
998.636	2833.05
998.932	2821.75
999.227	2741.98
999.523	2743.56
999.818	2725.25
1000.114	2760.28
1000.409	2753.73
1000.704	2702.2
1001	2682.77
1001.295	2675.76
1001.59	2687.51
1001.885	2669.66
1002.18	2640.74
1002.475	2628.08
1002.77	2577.46
1003.065	2615.2
1003.359	2598.02
1003.654	2593.73
1003.949	2546.27
1004.243	2553.05
1004.538	2512.6
1004.832	2532.94
1005.127	2512.6
1005.421	2478.03
1005.715	2465.37
1006.009	2442.1
1006.304	2407.07
1006.598	2420.18
1006.892	2374.53
1007.186	2354.87
1007.48	2373.17
1007.773	2354.64
1008.067	2341.99
1008.361	2318.26
1008.655	2315.77
1008.948	2294.53
1009.242	2286.62
1009.535	2272.84
1009.829	2275.55
1010.122	2257.69
1010.415	2224.93
1010.708	2214.08
1011.001	2205.04
1011.295	2175.66
1011.588	2205.49
1011.881	2166.62
1012.173	2174.31
1012.466	2127.53
1012.759	2128.88
1013.052	2125.27
1013.344	2111.94
1013.637	2093.41
1013.93	2095.89
1014.222	2062.45
1014.514	2053.18
1014.807	2043.24
1015.099	2032.16
1015.391	2025.38
1015.683	2026.29
1015.976	1982.9
1016.268	1978.38
1016.56	1979.74
1016.851	1953.07
1017.143	1928.66
1017.435	1914.43
1017.727	1912.85
1018.018	1910.59
1018.31	1904.71
1018.602	1835.11
1018.893	1871.94
1019.185	1852.96
1019.476	1821.77
1019.767	1866.97
1020.058	1833.07
1020.35	1789.01
1020.641	1805.05
1020.932	1788.1
1021.223	1774.32
1021.514	1746.52
1021.804	1711.49
1022.095	1710.14
1022.386	1695
1022.677	1703.13
1022.967	1690.03
1023.258	1667.43
1023.548	1655.68
1023.839	1654.55
1024.129	1638.5
1024.419	1639.41
1024.709	1627.43
1025	1598.28
1025.29	1596.7
1025.58	1580.88
1025.87	1569.58
1026.16	1533.19
1026.449	1577.94
1026.739	1527.09
1027.029	1507.88
1027.319	1525.28
1027.608	1519.86
1027.898	1492.74
1028.187	1474.21
1028.477	1454.55
1028.766	1453.2
1029.055	1472.86
1029.344	1430.82
1029.634	1431.95
1029.923	1427.43
1030.212	1405.51
1030.501	1414.78
1030.79	1419.3
1031.078	1407.55
1031.367	1394.89
1031.656	1363.93
1031.945	1365.97
1032.233	1374.33
1032.522	1353.99
1032.81	1328.23
1033.099	1322.13
1033.387	1320.77
1033.675	1297.95
1033.963	1309.02
1034.251	1264.95
1034.54	1276.03
1034.828	1275.35
1035.116	1267.21
1035.403	1238.51
1035.691	1247.78
1035.979	1248.46
1036.267	1231.06
1036.554	1219.98
1036.842	1232.64
1037.129	1192.41
1037.417	1205.75
1037.704	1178.4
1037.992	1179.08
1038.279	1171.62
1038.566	1162.36
1038.853	1162.36
1039.14	1162.36
