Data from White_reflection_standard_FLMS001491_017.txt Node
Date: Tue Feb 07 10:31:58 GMT 2017
User: dcchb
Spectrometer: FLMS00149
Trigger mode: 0
Integration Time (sec): 2.000000E-2
Scans to average: 10
Electric dark correction enabled: true
Nonlinearity correction enabled: false
Boxcar width: 0
XAxis mode: Wavelengths
Number of Pixels in Spectrum: 2048
>>>>>Begin Spectral Data<<<<<
341.393	-14.99
341.776	-14.99
342.16	-14.99
342.543	-59.73
342.927	-69.22
343.31	-81.65
343.693	-64.25
344.077	-74.19
344.46	-78.26
344.843	-62.44
345.226	-41.2
345.61	-23.57
345.993	-12.05
346.376	9.65
346.759	11.91
347.142	23.21
347.525	35.63
347.908	66.37
348.291	78.57
348.674	94.39
349.057	117.89
349.44	106.59
349.823	147.72
350.206	194.73
350.588	246.02
350.971	265.01
351.354	267.04
351.737	281.05
352.119	294.84
352.502	290.77
352.884	313.59
353.267	326.02
353.65	316.08
354.032	338.23
354.414	366.47
354.797	380.03
355.179	377.77
355.562	382.07
355.944	368.73
356.326	381.84
356.709	386.81
357.091	390.65
357.473	396.98
357.855	420.48
358.238	398.79
358.62	410.99
359.002	422.52
359.384	414.83
359.766	404.66
360.148	413.48
360.53	378.9
360.912	403.53
361.294	402.4
361.676	415.96
362.057	390.2
362.439	424.33
362.821	396.76
363.203	410.31
363.584	402.18
363.966	408.51
364.348	401.05
364.729	423.2
365.111	424.33
365.493	422.07
365.874	420.26
366.256	414.38
366.637	420.03
367.019	406.92
367.4	419.35
367.781	430.2
368.163	416.42
368.544	415.96
368.925	398.11
369.306	421.61
369.688	440.14
370.069	438.11
370.45	428.39
370.831	419.35
371.212	436.08
371.593	430.65
371.974	464.78
372.355	435.85
372.736	459.58
373.117	463.19
373.498	439.01
373.879	452.35
374.26	454.15
374.641	419.58
375.021	446.02
375.402	470.88
375.783	485.11
376.163	516.53
376.544	509.52
376.925	475.4
377.305	507.71
377.686	498.9
378.066	480.82
378.447	493.02
378.827	495.06
379.208	518.11
379.588	524.21
379.968	519.46
380.349	530.99
380.729	547.26
381.109	519.01
381.489	535.06
381.87	553.36
382.25	538.9
382.63	550.2
383.01	562.85
383.39	552.46
383.77	571.89
384.15	587.26
384.53	580.93
384.91	583.87
385.29	605.56
385.67	609.18
386.049	623.64
386.429	588.61
386.809	636.3
387.189	615.51
387.568	617.77
387.948	641.04
388.328	641.95
388.707	657.54
389.087	683.08
389.466	660.48
389.846	658.67
390.225	660.25
390.605	711.55
390.984	688.27
391.363	707.03
391.743	694.37
392.122	722.4
392.501	741.38
392.881	737.76
393.26	766.46
393.639	759.68
394.018	759.23
394.397	777.99
394.776	783.64
395.155	788.84
395.534	809.63
395.913	786.8
396.292	799.91
396.671	822.51
397.05	843.07
397.429	844.43
397.808	832.68
398.186	842.39
398.565	850.98
398.944	878.78
399.323	850.53
399.701	878.1
400.08	871.54
400.458	893.01
400.837	944.31
401.215	933.46
401.594	922.39
401.972	953.58
402.351	967.14
402.729	977.08
403.107	989.96
403.486	974.37
403.864	1005.33
404.242	981.82
404.62	1018.21
404.999	1040.35
405.377	1011.88
405.755	1054.82
406.133	1072.9
406.511	1066.57
406.889	1095.95
407.267	1106.57
407.645	1137.75
408.023	1168.03
408.401	1165.77
408.779	1152.22
409.156	1175.94
409.534	1199.67
409.912	1211.87
410.29	1218.43
410.667	1240.12
411.045	1268.37
411.422	1302.04
411.8	1328.48
412.178	1338.65
412.555	1346.11
412.933	1384.98
413.31	1366.67
413.687	1407.8
414.065	1415.26
414.442	1403.96
414.819	1431.08
415.197	1460
415.574	1480.12
415.951	1517.63
416.328	1521.7
416.705	1528.25
417.082	1525.09
417.46	1569.61
417.837	1567.12
418.214	1573.45
418.591	1608.7
418.967	1627.91
419.344	1649.83
419.721	1649.38
420.098	1640.56
420.475	1673.11
420.852	1722.37
421.228	1740.67
421.605	1756.95
421.982	1770.73
422.358	1775.93
422.735	1824.97
423.111	1823.16
423.488	1834.23
423.864	1844.85
424.241	1881.46
424.617	1905.42
424.994	1935.7
425.37	1942.48
425.746	1959.88
426.123	2008.69
426.499	2027.22
426.875	2047.33
427.251	2036.94
427.627	2106.31
428.003	2118.07
428.379	2152.42
428.756	2148.12
429.132	2211.4
429.507	2226.76
429.883	2241.23
430.259	2305.18
430.635	2327.33
431.011	2320.32
431.387	2416.81
431.763	2446.64
432.138	2450.26
432.514	2481.9
432.89	2487.55
433.265	2584.04
433.641	2599.86
434.016	2632.18
434.392	2678.28
434.767	2720.76
435.143	2715.34
435.518	2765.51
435.894	2784.71
436.269	2868.55
436.644	2853.64
437.02	2879.85
437.395	2933.19
437.77	2969.34
438.145	2975.9
438.52	3019.96
438.895	3054.31
439.271	3056.8
439.646	3120.53
440.021	3163.91
440.395	3216.12
440.77	3177.92
441.145	3217.02
441.52	3257.47
441.895	3277.81
442.27	3320.29
442.645	3350.35
443.019	3349.9
443.394	3376.79
443.769	3371.82
444.143	3384.25
444.518	3523.23
444.892	3430.12
445.267	3480.97
445.641	3527.75
446.016	3547.18
446.39	3608.87
446.764	3602.32
447.139	3578.82
447.513	3639.38
447.887	3689.32
448.262	3696.1
448.636	3743.11
449.01	3796.21
449.384	3791.02
449.758	3852.03
450.132	3923.22
450.506	3966.38
450.88	3927.96
451.254	3932.93
451.628	4036.66
452.002	4037.34
452.376	4064.68
452.75	4171.35
453.123	4176.32
453.497	4257.22
453.871	4289.76
454.244	4381.06
454.618	4442.52
454.992	4469.19
455.365	4471.45
455.739	4596.42
456.112	4619.92
456.486	4691.78
456.859	4729.75
457.232	4816.53
457.606	4767.49
457.979	4902.17
458.352	4970.87
458.725	4999.35
459.099	5050.42
459.472	5151.43
459.845	5194.37
460.218	5219.45
460.591	5317.3
460.964	5374.03
461.337	5483.18
461.71	5580.57
462.083	5645.66
462.456	5639.33
462.829	5695.37
463.201	5799.78
463.574	5816.05
463.947	5884.97
464.32	6031.86
464.692	6103.72
465.065	6111.63
465.438	6220.56
465.81	6348.24
466.183	6359.99
466.555	6561.11
466.928	6610.15
467.3	6545.97
467.672	6661
468.045	6848.11
468.417	6886.75
468.789	6980.31
469.161	7051.5
469.534	7146.86
469.906	7311.83
470.278	7364.48
470.65	7480.41
471.022	7612.16
471.394	7750.46
471.766	7839.5
472.138	7945.48
472.51	8127.17
472.882	8226.15
473.253	8336.89
473.625	8420.95
473.997	8604.22
474.369	8629.31
474.74	8804.67
475.112	8923.99
475.484	9051.44
475.855	9255.05
476.227	9262.06
476.598	9640.13
476.97	9653.91
477.341	9944.75
477.713	10049.38
478.084	10088.25
478.455	10402.82
478.827	10490.28
479.198	10745.86
479.569	10820.21
479.94	11139.98
480.311	11200.09
480.682	11550.81
481.053	11747.87
481.424	12002.55
481.795	12057.24
482.166	12235.99
482.537	12393.95
482.908	12659.71
483.279	12776.54
483.65	12981.06
484.021	13272.8
484.391	13475.96
484.762	13577.88
485.133	13660.14
485.503	13887.02
485.874	14227.8
486.244	14371.3
486.615	14604.29
486.985	14818.07
487.356	15112.98
487.726	15218.51
488.097	15508.22
488.467	15542.8
488.837	15933.97
489.207	16114.53
489.578	16371.02
489.948	16519.27
490.318	16755.87
490.688	16876.55
491.058	17018.01
491.428	17251.23
491.798	17403.99
492.168	17811.89
492.538	17853.47
492.908	18134.59
493.278	18283.52
493.648	18302.27
494.017	18533.91
494.387	18695.48
494.757	18918.53
495.126	19083.04
495.496	19232.64
495.866	19369.59
496.235	19606.42
496.605	19736.59
496.974	19933.64
497.344	20069.46
497.713	20262.9
498.082	20386.96
498.452	20548.32
498.821	20669.22
499.19	20825.14
499.559	20959.6
499.928	21232.14
500.298	21243.21
500.667	21445.69
501.036	21499.03
501.405	21797.77
501.774	21817.89
502.143	22048.62
502.512	22144.43
502.88	22358.66
503.249	22349.85
503.618	22541.26
503.987	22630.97
504.356	22879.55
504.724	22946.9
505.093	23048.59
505.462	23289.26
505.83	23370.61
506.199	23540.78
506.567	23860.09
506.936	23786.65
507.304	24191.84
507.672	24362.9
508.041	24374.43
508.409	24646.29
508.777	24806.96
509.145	25017.58
509.514	25004.7
509.882	25173.5
510.25	25190.45
510.618	25544.34
510.986	25672.47
511.354	25899.81
511.722	26137.32
512.09	26465.22
512.458	26316.3
512.826	26726.46
513.193	26812.11
513.561	26938.43
513.929	27144.07
514.297	27344.97
514.664	27608.47
515.032	27718.97
515.4	28009.59
515.767	28074.22
516.135	28261.79
516.502	28167.78
516.869	28771.15
517.237	28882.11
517.604	28820.64
517.972	29203.91
518.339	29375.43
518.706	29392.83
519.073	29652.71
519.44	29792.59
519.808	30244.78
520.175	30296.31
520.542	30647.26
520.909	30891.77
521.276	30880.47
521.643	31241.59
522.009	31447.01
522.376	31815.82
522.743	31867.57
523.11	32143.94
523.477	32517.04
523.843	32600.65
524.21	33079.51
524.577	33223.24
524.943	33473.17
525.31	33545.26
525.676	33914.07
526.043	34183.89
526.409	34300.95
526.776	34735.97
527.142	34691.22
527.508	35109.29
527.874	35411.2
528.241	35520.13
528.607	35564.42
528.973	35956.95
529.339	36084.86
529.705	36283.95
530.071	36689.13
530.437	36676.93
530.803	37060.88
531.169	37273.3
531.535	37301.55
531.901	37484.37
532.267	37569.34
532.632	37963.22
532.998	37970
533.364	38191.47
533.73	38337
534.095	38640.72
534.461	38813.6
534.826	38856.76
535.192	39061.5
535.557	39306.01
535.923	39380.36
536.288	39458.55
536.653	39718.89
537.019	39732.67
537.384	39875.49
537.749	40160.46
538.114	40272.99
538.479	40338.98
538.845	40524.74
539.21	40566.09
539.575	40901.23
539.94	40929.7
540.305	41101.45
540.67	41075.69
541.034	41324.49
541.399	41477.26
541.764	41596.35
542.129	41904.59
542.494	41926.51
542.858	42016.23
543.223	42060.07
543.587	42456.21
543.952	42406.5
544.316	42547.96
544.681	42483.33
545.045	42765.81
545.41	42877.9
545.774	43007.39
546.138	43154.05
546.503	43286.47
546.867	43277.66
547.231	43747.03
547.595	43623.42
547.959	43974.14
548.324	43842.39
548.688	44022.5
549.052	44116.28
549.416	44312.89
549.779	44424.3
550.143	44572.32
550.507	44867.22
550.871	44902.48
551.235	44900.67
551.599	45411.84
551.962	45338.85
552.326	45493.87
552.689	45770.25
553.053	45705.62
553.417	45821.32
553.78	46348.09
554.143	46071.26
554.507	46312.16
554.87	46607.29
555.234	46841.41
555.597	46814.07
555.96	46868.08
556.323	47045.25
556.686	47163.21
557.05	47490.21
557.413	47587.15
557.776	47711.44
558.139	48039.57
558.502	48072.34
558.865	48146.69
559.228	48418.54
559.59	48556.62
559.953	48574.02
560.316	49008.81
560.679	49067.79
561.041	49286.32
561.404	49418.74
561.767	49564.73
562.129	49529.7
562.492	49891.27
562.854	49902.35
563.217	49920.2
563.579	50134.66
563.941	50504.14
564.304	50530.8
564.666	50802.66
565.028	50915.65
565.39	51030.68
565.753	51126.49
566.115	51262.31
566.477	51510.89
566.839	51398.13
567.201	51647.38
567.563	51698.91
567.925	51969.64
568.287	51966.7
568.648	52084.66
569.01	52237.43
569.372	52451.66
569.734	52367.82
570.095	52640.81
570.457	52740.24
570.819	52778.88
571.18	52847.58
571.542	53076.95
571.903	53026.78
572.265	53117.85
572.626	53186.1
572.987	53328.7
573.349	53436.49
573.71	53521.23
574.071	53577.05
574.432	53625.19
574.794	53880.77
575.155	53796.25
575.516	53730.27
575.877	53875.57
576.238	54071.28
576.599	54192.85
576.96	54183.36
577.32	54121.67
577.681	54310.37
578.042	54301.33
578.403	54281.89
578.763	54367.31
579.124	54370.48
579.485	54487.76
579.845	54553.07
580.206	54479.17
580.566	54611.37
580.927	54520.76
581.287	54683.46
581.648	54560.3
582.008	54737.93
582.368	54663.35
582.728	54783.12
583.089	54799.17
583.449	54703.58
583.809	54746.96
584.169	54805.27
584.529	54770.01
584.889	54943.34
585.249	54707.19
585.609	54720.07
585.969	54847.98
586.329	54762.78
586.688	54830.8
587.048	54823.12
587.408	54773.18
587.768	54759.39
588.127	54809.34
588.487	54758.26
588.846	54949.9
589.206	54699.73
589.565	54791.48
589.925	54917.81
590.284	54842.78
590.643	54867.87
591.003	54895.21
591.362	55042.32
591.721	54961.87
592.08	54922.78
592.44	54992.16
592.799	54917.81
593.158	54955.09
593.517	54971.14
593.876	55026.96
594.235	54974.08
594.593	54975.43
594.952	54977.24
595.311	54972.27
595.67	54995.32
596.029	55232.83
596.387	55219.04
596.746	55245.03
597.104	55099.5
597.463	55161.87
597.822	55167.97
598.18	55163.68
598.538	55097.01
598.897	55268.76
599.255	55072.38
599.613	55450.9
599.972	55179.72
600.33	55322.99
600.688	55193.05
601.046	55330.45
601.404	55451.58
601.762	55376.55
602.12	55582.87
602.478	55518.47
602.836	55530.45
603.194	55379.49
603.552	55418.36
603.91	55383.78
604.268	55519.15
604.625	55464.69
604.983	55577.9
605.341	55437.57
605.698	55615.64
606.056	55679.6
606.413	55627.85
606.771	55699.48
607.128	55728.41
607.485	55655.19
607.843	55672.82
608.2	55858.8
608.557	55850.66
608.914	55792.36
609.272	55893.6
609.629	55915.97
609.986	56059.02
610.343	55925.01
610.7	56152.58
611.057	55999.13
611.414	55995.75
611.771	56102.86
612.127	56176.31
612.484	56081.17
612.841	56167.04
613.198	56159.36
613.554	56113.48
613.911	56220.6
614.267	56230.99
614.624	56202.29
614.98	56253.14
615.337	56401.61
615.693	56295.17
616.05	56341.5
616.406	56502.85
616.762	56364.1
617.118	56329.97
617.475	56393.47
617.831	56420.37
618.187	56520.93
618.543	56534.49
618.899	56692.68
619.255	56589.18
619.611	56566.8
619.967	56671.21
620.323	56628.27
620.678	56535.17
621.034	56477.54
621.39	56499.23
621.746	56537.65
622.101	56853.12
622.457	56512.34
622.812	56551.44
623.168	56661.49
623.523	56601.83
623.879	56699
624.234	56475.96
624.589	56663.75
624.945	56603.64
625.3	56622.85
625.655	56596.86
626.01	56581.49
626.365	56625.56
626.72	56528.61
627.075	56569.52
627.43	56540.82
627.785	56459.91
628.14	56505.11
628.495	56566.8
628.85	56533.58
629.205	56505.11
629.559	56635.73
629.914	56494.04
630.269	56458.78
630.623	56384.44
630.978	56349.41
631.332	56426.24
631.687	56511.44
632.041	56357.77
632.396	56443.42
632.75	56228.73
633.104	56295.62
633.459	56170.43
633.813	56159.58
634.167	56210.2
634.521	56207.04
634.875	56180.15
635.229	56088.4
635.583	55901.96
635.937	55936.09
636.291	55945.13
636.645	55937.22
636.999	55906.48
637.352	55957.33
637.706	55685.7
638.06	55885.47
638.413	55845.92
638.767	55767.28
639.121	55816.99
639.474	55625.81
639.828	55605.25
640.181	55562.54
640.534	55684.34
640.888	55551.46
641.241	55410.22
641.594	55511.46
641.947	55582.42
642.301	55475.76
642.654	55462.88
643.007	55338.14
643.36	55379.49
643.713	55384.01
644.066	55438.7
644.419	55195.09
644.771	55021.76
645.124	54743.57
645.477	54641.66
645.83	54564.82
646.182	54417.48
646.535	54342.91
646.888	54323.92
647.24	54250.93
647.593	54361.89
647.945	54295.68
648.298	54098.85
648.65	54109.02
649.002	54035.8
649.355	54059.07
649.707	54047.77
650.059	54127.09
650.411	54484.82
650.763	54499.29
651.115	54731.37
651.467	54627.19
651.819	54658.38
652.171	54645.05
652.523	54454.09
652.875	54482.79
653.227	54386.75
653.578	54579.51
653.93	54389.01
654.282	54277.15
654.633	54234.21
654.985	54290.03
655.337	54337.26
655.688	54236.24
656.039	54356.47
656.391	54119.64
656.742	54144.27
657.094	54130.71
657.445	54219.52
657.796	54165.96
658.147	54074.21
658.498	54002.8
658.849	54061.56
659.2	54007.77
659.551	54042.12
659.902	54073.76
660.253	53989.7
660.604	53932.07
660.955	53774.33
661.306	53967.32
661.656	53809.14
662.007	53826.31
662.358	53842.36
662.708	53840.55
663.059	53803.03
663.409	53662.7
663.76	53800.77
664.11	53749.48
664.461	53794.67
664.811	53796.03
665.161	53807.1
665.511	53622.25
665.862	53648.46
666.212	53793.32
666.562	53714.9
666.912	53614.11
667.262	53638.97
667.612	53594.23
667.962	53631.74
668.312	53558.3
668.662	53674.45
669.011	53594
669.361	53507
669.711	53472.2
670.06	53418.64
670.41	53419.99
670.76	53442.14
671.109	53491.86
671.459	53429.26
671.808	53274.91
672.157	53419.77
672.507	53150.62
672.856	53276.27
673.205	53231.52
673.554	53278.53
673.904	53207.57
674.253	53257.06
674.602	53182.94
674.951	52777.3
675.3	52578.66
675.649	53097.52
675.998	53079.66
676.346	53034.47
676.695	53179.55
677.044	52874.92
677.393	52945.43
677.741	52961.02
678.09	52841.93
678.438	52917.86
678.787	52917.63
679.135	52939.1
679.484	52674.02
679.832	52840.12
680.181	52521.49
680.529	52680.35
680.877	52628.6
681.225	52490.07
681.573	52766.23
681.922	52484.43
682.27	52386.35
682.618	52436.74
682.966	52313.81
683.314	52354.03
683.661	52279.01
684.009	52100.25
684.357	52036.08
684.705	51978.9
685.053	51980.71
685.4	51884.21
685.748	51781.84
686.095	51727.16
686.443	51630.89
686.79	51559.03
687.138	51543.43
687.485	51508.18
687.832	51379.14
688.18	51441.06
688.527	51361.06
688.874	51197.68
689.221	51153.61
689.568	50968.76
689.915	50983.9
690.262	50840.4
690.609	50792.27
690.956	50834.75
691.303	50688.54
691.65	50473.18
691.997	50601.08
692.344	50268.21
692.69	50325.39
693.037	50252.85
693.383	50017.37
693.73	50063.02
694.077	49847.21
694.423	49821.67
694.769	49722.92
695.116	49588.68
695.462	49567.21
695.808	49312.98
696.155	49431.4
696.501	49206.77
696.847	49301.91
697.193	48780.34
697.539	49105.3
697.885	48769.95
698.231	48743.05
698.577	48669.61
698.923	48647.01
699.269	48460.8
699.614	48250.19
699.96	48214.03
700.306	48225.78
700.651	47867.15
700.997	47850.65
701.342	47799.8
701.688	47839.12
702.033	47688.84
702.379	47633.48
702.724	47579.02
703.069	47638.68
703.415	47012.7
703.76	47133.38
704.105	47070.78
704.45	47001.18
704.795	46785.59
705.14	46693.39
705.485	46643
705.83	46460.63
706.175	46538.59
706.52	46270.13
706.865	46201.2
707.209	46212.73
707.554	46034.65
707.899	46061.77
708.243	45746.52
708.588	45761.21
708.932	45572.52
709.277	45610.26
709.621	45590.37
709.966	45058.86
710.31	45289.13
710.654	44941.8
710.998	45073.09
711.342	45065.19
711.687	44918.97
712.031	44776.61
712.375	44609.38
712.719	44655.25
713.063	44615.71
713.407	44551.3
713.75	44303.4
714.094	44384.98
714.438	44202.83
714.782	44155.38
715.125	44000.35
715.469	44100.92
715.812	43821.6
716.156	43613.92
716.499	43776.86
716.843	43584.32
717.186	43474.27
717.53	43570.76
717.873	43590.65
718.216	43481.95
718.559	43304.55
718.902	42976.88
719.246	43005.8
719.589	42895.3
719.932	42867.5
720.275	42736.43
720.617	42653.05
720.96	42747.28
721.303	42562.43
721.646	42651.46
721.989	42323.56
722.331	42475.65
722.674	42434.75
723.016	42200.4
723.359	42104.13
723.701	42198.82
724.044	42026.17
724.386	41801.99
724.729	42081.31
725.071	41795.21
725.413	41796.12
725.755	41687.65
726.097	41617.59
726.439	41373.08
726.782	41372.85
727.124	41568.1
727.465	41430.48
727.807	41163.37
728.149	41201.33
728.491	41055.8
728.833	41128.11
729.175	40866.2
729.516	40874.79
729.858	40855.58
730.199	40924.96
730.541	40714.34
730.882	40615.13
731.224	40740.78
731.565	40480.22
731.906	40494.23
732.248	40498.07
732.589	40265.31
732.93	40197.97
733.271	40156.39
733.612	40300.11
733.953	40175.37
734.294	39997.52
734.635	39995.26
734.976	40186.67
735.317	39846.11
735.658	39719.11
735.999	39663.29
736.339	39488.83
736.68	39671.2
737.021	39546.46
737.361	39366.8
737.702	39621.26
738.042	39558.44
738.383	39183.76
738.723	39353.02
739.063	39097.88
739.404	39243.64
739.744	39176.53
740.084	38894.73
740.424	38953.93
740.764	38839.81
741.104	38999.81
741.444	38612.47
741.784	38732.92
742.124	38801.17
742.464	38668.07
742.804	38561.85
743.143	38289.77
743.483	38434.85
743.823	38088.87
744.162	38169.1
744.502	38242.99
744.841	38066.95
745.181	38251.13
745.52	38002.55
745.86	38124.8
746.199	37878.26
746.538	37773.17
746.877	37936.11
747.216	37763
747.556	37635.55
747.895	37714.42
748.234	37576.12
748.573	37417.25
748.911	37425.39
749.25	37287.54
749.589	37174.55
749.928	37228.1
750.267	37328.67
750.605	36997.83
750.944	37043.7
751.283	36892.97
751.621	36948.34
751.96	36726.2
752.298	36665.18
752.636	36609.14
752.975	36393.77
753.313	36370.72
753.651	36676.71
753.989	36244.85
754.327	36049.6
754.666	36035.82
755.004	36003.05
755.342	35966.89
755.679	35980
756.017	35820.23
756.355	35835.37
756.693	35566.45
757.031	35673.79
757.368	35463.86
757.706	35386.34
758.044	35339.34
758.381	35300.02
758.719	35114.26
759.056	35036.3
759.394	34954.49
759.731	34713.82
760.068	34750.2
760.405	34592.47
760.743	34482.64
761.08	34560.38
761.417	34340.72
761.754	34256.66
762.091	34221.18
762.428	34006.94
762.765	33868.19
763.102	34015.76
763.438	33768.08
763.775	33521.08
764.112	33600.63
764.449	33482.21
764.785	33438.37
765.122	33246.06
765.458	33049.68
765.795	32997.93
766.131	32874.32
766.467	32889.91
766.804	32714.1
767.14	32602.69
767.476	32485.63
767.812	32298.52
768.148	32450.15
768.485	32188.24
768.821	31916.6
769.157	31906.21
769.492	31852.2
769.828	31937.62
770.164	31563.39
770.5	31510.06
770.836	31534.02
771.171	31277.07
771.507	31228.03
771.842	31015.16
772.178	30980.58
772.513	30914.82
772.849	30783.53
773.184	30637.77
773.519	30616.98
773.855	30447.04
774.19	30318.91
774.525	30291.79
774.86	30262.18
775.195	30146.93
775.53	30005.92
775.865	29734.97
776.2	29683.89
776.535	29297.24
776.87	29325.26
777.205	29394.86
777.539	29242.55
777.874	29322.32
778.209	28962.56
778.543	28960.07
778.878	28831.94
779.212	28625.39
779.547	28563.92
779.881	28719.4
780.215	28493.19
780.55	28426.3
780.884	28314.89
781.218	28129.81
781.552	28185.4
781.886	27919.65
782.22	27789.26
782.554	27769.59
782.888	27511.52
783.222	27230.85
783.556	27213.23
783.889	27222.49
784.223	27146.79
784.557	26979.11
784.89	27154.24
785.224	26826.79
785.557	26783.86
785.891	26684.2
786.224	26571.66
786.558	26544.09
786.891	26213.93
787.224	26253.48
787.557	26202.63
787.891	26033.14
788.224	26049.64
788.557	25985.01
788.89	25873.83
789.223	25779.59
789.556	25639.48
789.888	25558.81
790.221	25564.23
790.554	25323.56
790.887	25255.54
791.219	25248.08
791.552	25222.99
791.884	25009.67
792.217	24933.74
792.549	24851.93
792.882	24705.95
793.214	24505.27
793.546	24651.03
793.879	24556.57
794.211	24374.43
794.543	24391.83
794.875	24180.99
795.207	24310.93
795.539	24167.2
795.871	24081.1
796.203	23906.19
796.535	23832.07
796.867	23743.49
797.198	23751.85
797.53	23721.79
797.862	23464.4
798.193	23471.63
798.525	23287.45
798.856	23457.84
799.188	23214.46
799.519	23092.66
799.85	23002.04
800.182	22991.64
800.513	23054.46
800.844	22797.07
801.175	22977.4
801.506	22817.41
801.837	22627.13
802.168	22648.15
802.499	22547.59
802.83	22433.01
803.161	22403.63
803.491	22342.39
803.822	22350.08
804.153	22188.5
804.483	22048.16
804.814	22039.8
805.145	21921.61
805.475	21902.4
805.805	21957.54
806.136	21761.17
806.466	21845.91
806.796	21739.24
807.126	21614.73
807.457	21487.05
807.787	21531.11
808.117	21375.64
808.447	21301.06
808.777	21351.23
809.107	21208.19
809.436	21227.39
809.766	21167.51
810.096	21127.06
810.426	21025.59
810.755	20941.07
811.085	20953.05
811.414	20805.94
811.744	20734.53
812.073	20648.88
812.403	20633.51
812.732	20535.43
813.061	20641.87
813.39	20435.78
813.719	20476.45
814.049	20434.87
814.378	20376.12
814.707	20320.07
815.036	20252.05
815.365	20151.04
815.693	19878.28
816.022	19944.94
816.351	19887.77
816.68	19739.75
817.008	19904.04
817.337	19787.88
817.665	19649.13
817.994	19699.98
818.322	19627.66
818.651	19636.7
818.979	19525.52
819.307	19610.94
819.636	19437.61
819.964	19427.22
820.292	19485.07
820.62	19499.98
820.948	19376.6
821.276	19423.83
821.604	19236.26
821.932	19322.13
822.259	19385.18
822.587	19403.94
822.915	19261.34
823.243	19403.26
823.57	19390.15
823.898	19301.57
824.225	19234.23
824.553	19266.99
824.88	19254.11
825.207	19330.04
825.535	19239.65
825.862	19240.55
826.189	19275.13
826.516	19369.14
826.843	19357.61
827.17	19290.27
827.497	19317.39
827.824	19329.82
828.151	19247.11
828.478	19227.9
828.805	19393.77
829.131	19196.71
829.458	19095.47
829.785	18996.72
830.111	19274
830.438	19179.31
830.764	19212.53
831.09	19206.88
831.417	18952.88
831.743	19156.04
832.069	19172.53
832.395	18976.38
832.722	19130.73
833.048	19049.6
833.374	19136.6
833.7	18991.07
834.026	18978.64
834.351	19179.54
834.677	19003.72
835.003	19011.86
835.329	19053.44
835.654	18983.61
835.98	18871.75
836.306	18873.56
836.631	18766.67
836.956	18772.77
837.282	18863.84
837.607	18761.47
837.932	18675.6
838.258	18732.09
838.583	18602.15
838.908	18540.23
839.233	18566.9
839.558	18632.89
839.883	18417.3
840.208	18360.8
840.533	18370.52
840.858	18443.51
841.182	18377.53
841.507	18364.42
841.832	18182.73
842.156	18214.59
842.481	18263.18
842.805	18174.82
843.13	18050.75
843.454	18080.13
843.778	17989.29
844.103	17982.06
844.427	17959.23
844.751	17919.91
845.075	17870.42
845.399	17829.97
845.723	17706.13
846.047	17718.33
846.371	17617.09
846.695	17558.11
847.019	17475.85
847.343	17434.27
847.666	17189.08
847.99	17141.4
848.313	17165.81
848.637	17018.24
848.96	17068.63
849.284	17058.01
849.607	16849.43
849.931	16832.03
850.254	16691.02
850.577	16585.48
850.9	16484.92
851.223	16543.9
851.546	16411.25
851.869	16360.63
852.192	16418.71
852.515	16155.66
852.838	16205.83
853.161	16138.71
853.483	16066.17
853.806	16139.17
854.129	16046.51
854.451	15903.24
854.774	15776.69
855.096	15825.28
855.419	15738.5
855.741	15769.23
856.063	15595.23
856.385	15639.29
856.708	15619.86
857.03	15431.84
857.352	15558.16
857.674	15357.49
857.996	15479.97
858.318	15306.65
858.64	15242.47
858.961	15262.13
859.283	15164.95
859.605	15167.89
859.926	15184.61
860.248	15049.03
860.57	15045.18
860.891	14998.41
861.212	14906.43
861.534	15025.52
861.855	14859.43
862.176	14900.78
862.498	14878.63
862.819	14842.93
863.14	14825.53
863.461	14862.82
863.782	14631.86
864.103	14613.33
864.424	14634.57
864.745	14660.33
865.065	14632.31
865.386	14568.13
865.707	14529.72
866.027	14499.66
866.348	14560
866.668	14473.45
866.989	14457.85
867.309	14380.57
867.63	14378.76
867.95	14397.52
868.27	14287.01
868.59	14284.75
868.91	14245.43
869.23	14278.88
869.55	14148.48
869.87	14271.64
870.19	14177.64
870.51	14171.99
870.83	14125.43
871.15	14009.5
871.469	14073.46
871.789	14105.55
872.109	14108.71
872.428	13956.4
872.748	14076.17
873.067	14012.22
873.386	14016.96
873.706	13916.85
874.025	13857.64
874.344	13790.98
874.663	13890.19
874.982	13815.61
875.301	13840.7
875.62	13758.44
875.939	13717.08
876.258	13731.77
876.577	13582.85
876.896	13679.34
877.214	13657.2
877.533	13667.14
877.852	13569.74
878.17	13642.73
878.489	13634.6
878.807	13540.14
879.125	13566.13
879.444	13552.79
879.762	13476.86
880.08	13481.61
880.398	13319.13
880.716	13416.98
881.034	13323.19
881.352	13442.97
881.67	13306.92
881.988	13265.8
882.306	13256.76
882.624	13279.58
882.941	13188.06
883.259	13154.16
883.577	13140.37
883.894	13033.26
884.212	13074.16
884.529	13035.52
884.846	13047.72
885.164	12941.74
885.481	12939.48
885.798	12983.09
886.115	12845.69
886.432	12830.1
886.75	12746.94
887.067	12776.32
887.383	12764.57
887.7	12717.79
888.017	12682.53
888.334	12713.04
888.651	12703.78
888.967	12592.37
889.284	12447.74
889.6	12453.39
889.917	12412.48
890.233	12488.41
890.55	12405.7
890.866	12350.79
891.182	12360.06
891.498	12235.31
891.815	12242.55
892.131	12203.22
892.447	12203.45
892.763	12120.06
893.079	12114.41
893.395	12054.98
893.71	12043
894.026	12014.53
894.342	11974.98
894.657	11903.8
894.973	11933.17
895.289	11894.53
895.604	11854.76
895.92	11755.1
896.235	11666.29
896.55	11697.93
896.865	11774.76
897.181	11603.92
897.496	11651.6
897.811	11493.86
898.126	11436.69
898.441	11473.75
898.756	11416.58
899.071	11384.71
899.386	11381.78
899.7	11283.47
900.015	11195.57
900.33	11096.59
900.644	11151.73
900.959	11082.8
901.273	11137.04
901.588	11011.39
901.902	10986.08
902.216	10951.73
902.531	10932.98
902.845	10874.45
903.159	10888
903.473	10720.33
903.787	10796.48
904.101	10749.7
904.415	10672.19
904.729	10588.13
905.042	10582.48
905.356	10525.3
905.67	10526.88
905.984	10450.05
906.297	10378.87
906.611	10353.56
906.924	10368.47
907.237	10379.54
907.551	10391.97
907.864	10228.36
908.177	10229.72
908.491	10155.14
908.804	10091.64
909.117	10053.22
909.43	10040.8
909.743	9936.62
910.056	10012.55
910.368	9920.12
910.681	9877.18
910.994	9807.36
911.307	9752.89
911.619	9713.8
911.932	9697.98
912.244	9655.49
912.557	9666.12
912.869	9574.59
913.181	9534.82
913.494	9568.94
913.806	9487.59
914.118	9469.06
914.43	9416.4
914.742	9388.38
915.054	9283.75
915.366	9336.86
915.678	9274.71
915.99	9204.21
916.302	9064.32
916.613	9065.68
916.925	9081.05
917.236	9048.51
917.548	8980.03
917.859	9014.61
918.171	8922.41
918.482	8946.13
918.794	8863.65
919.105	8845.8
919.416	8818.68
919.727	8752.92
920.038	8666.14
920.349	8641.28
920.66	8580.95
920.971	8643.32
921.282	8525.81
921.593	8509.99
921.903	8493.04
922.214	8394.06
922.525	8359.48
922.835	8329.43
923.146	8333.5
923.456	8265.47
923.767	8238.81
924.077	8248.53
924.387	8246.04
924.697	8112.03
925.008	8082.2
925.318	8076.78
925.628	8087.63
925.938	8054.86
926.248	7943.9
926.558	7901.42
926.867	7883.56
927.177	7864.13
927.487	7837.46
927.796	7749.33
928.106	7744.81
928.416	7725.6
928.725	7711.82
929.034	7646.73
929.344	7686.28
929.653	7600.86
929.962	7549.79
930.271	7555.66
930.581	7506.17
930.89	7483.8
931.199	7414.2
931.508	7436.57
931.817	7352.28
932.125	7377.36
932.434	7301.66
932.743	7264.82
933.051	7232.96
933.36	7213.53
933.669	7119.06
933.977	7104.38
934.286	7096.69
934.594	7039.52
934.902	7007.43
935.21	6966.07
935.519	7008.78
935.827	6926.98
936.135	6922.46
936.443	6860.31
936.751	6845.4
937.059	6834.78
937.367	6784.84
937.674	6771.95
937.982	6710.04
938.29	6686.53
938.597	6711.84
938.905	6593.2
939.213	6570.15
939.52	6569.7
939.827	6619.87
940.135	6512.53
940.442	6474.79
940.749	6492.41
941.056	6462.13
941.363	6332.64
941.67	6408.8
941.977	6329.03
942.284	6345.3
942.591	6244.96
942.898	6229.82
943.205	6221.69
943.511	6186.43
943.818	6127
944.125	6173.1
944.431	6112.76
944.738	6075.93
945.044	6048.58
945.35	6024.4
945.657	6071.18
945.963	5966.33
946.269	5959.55
946.575	5904.18
946.881	5886.78
947.187	5867.57
947.493	5821.92
947.799	5848.82
948.105	5783.73
948.41	5760.46
948.716	5748.48
949.022	5740.57
949.327	5718.65
949.633	5680.23
949.938	5697.86
950.244	5660.8
950.549	5612.44
950.854	5578.54
951.16	5504.64
951.465	5527.69
951.77	5444.31
952.075	5447.92
952.38	5421.26
952.685	5437.75
952.99	5372.44
953.294	5433.01
953.599	5341.94
953.904	5275.27
954.209	5324.31
954.513	5289.96
954.818	5261.26
955.122	5233.46
955.426	5222.16
955.731	5144.2
956.035	5179.45
956.339	5141.26
956.643	5158.66
956.948	5083.86
957.252	5069.85
957.556	5061.27
957.86	5087.71
958.163	5011.32
958.467	5035.96
958.771	4927.71
959.075	4934.49
959.378	4873.93
959.682	4897.2
959.985	4897.2
960.289	4862.85
960.592	4769.75
960.896	4825.11
961.199	4815.4
961.502	4767.49
961.805	4762.97
962.108	4745.34
962.411	4682.52
962.714	4670.99
963.017	4664.44
963.32	4637.77
963.623	4607.72
963.926	4641.84
964.228	4597.77
964.531	4567.94
964.833	4590.54
965.136	4493.6
965.438	4468.29
965.741	4489.53
966.043	4416.99
966.345	4395.29
966.648	4402.98
966.95	4385.35
967.252	4330.89
967.554	4381.28
967.856	4340.38
968.158	4329.53
968.46	4303.55
968.761	4342.19
969.063	4240.95
969.365	4219.48
969.666	4254.05
969.968	4188.52
970.269	4130.67
970.571	4188.07
970.872	4143.1
971.174	4138.8
971.475	4100.16
971.776	4071.23
972.077	4084.79
972.378	4064.91
972.679	4040.95
972.98	4015.19
973.281	3938.36
973.582	3933.61
973.883	3930.22
974.183	3915.08
974.484	3920.28
974.785	3895.19
975.085	3894.29
975.386	3854.52
975.686	3850.9
975.986	3885.7
976.287	3845.48
976.587	3751.02
976.887	3792.37
977.187	3811.13
977.487	3757.57
977.787	3731.58
978.087	3696.1
978.387	3707.18
978.687	3687.06
978.987	3687.29
979.286	3636.67
979.586	3619.95
979.885	3620.4
980.185	3593.51
980.484	3563.45
980.784	3560.06
981.083	3568.2
981.382	3505.83
981.682	3542.21
981.981	3507.18
982.28	3464.92
982.579	3435.09
982.878	3453.17
983.177	3415.21
983.475	3416.79
983.774	3383.57
984.073	3393.74
984.372	3364.36
984.67	3350.8
984.969	3344.47
985.267	3338.15
985.566	3291.14
985.864	3304.93
986.162	3259.96
986.461	3287.75
986.759	3258.15
987.057	3232.61
987.355	3166.4
987.653	3228.09
987.951	3206.17
988.249	3192.61
988.547	3191.03
988.844	3134.76
989.142	3158.49
989.44	3113.07
989.737	3116.91
990.035	3094.54
990.332	3053.18
990.63	3067.87
990.927	3086.63
991.224	3052.5
991.521	3033.75
991.819	3029.68
992.116	2973.64
992.413	2961.21
992.71	2957.37
993.006	2928.21
993.303	2923.69
993.6	2913.3
993.897	2916.91
994.193	2857.71
994.49	2876.24
994.787	2829.91
995.083	2855.67
995.379	2796.01
995.676	2811.61
995.972	2807.09
996.268	2784.04
996.565	2790.36
996.861	2735.68
997.157	2716.69
997.453	2713.98
997.749	2713.08
998.044	2718.05
998.34	2689.8
998.636	2664.27
998.932	2622.69
999.227	2646.87
999.523	2631.72
999.818	2615.68
1000.114	2588.79
1000.409	2614.78
1000.704	2566.42
1001	2517.6
1001.295	2555.79
1001.59	2537.72
1001.885	2534.55
1002.18	2511.5
1002.475	2502.01
1002.77	2478.06
1003.065	2451.16
1003.359	2460.2
1003.654	2402.8
1003.949	2402.35
1004.243	2382.01
1004.538	2403.26
1004.832	2366.87
1005.127	2351.73
1005.421	2353.54
1005.715	2358.51
1006.009	2341.34
1006.304	2313.54
1006.598	2309.02
1006.892	2307.21
1007.186	2236.03
1007.48	2239.42
1007.773	2236.25
1008.067	2220.89
1008.361	2215.92
1008.655	2198.06
1008.948	2217.95
1009.242	2158.29
1009.535	2178.4
1009.829	2155.35
1010.122	2121.46
1010.415	2110.38
1010.708	2116.71
1011.001	2097.28
1011.295	2087.11
1011.588	2077.39
1011.881	2037.16
1012.173	2050.95
1012.466	2052.98
1012.759	2014.34
1013.052	2039.65
1013.344	1977.73
1013.637	1971.85
1013.93	1946.32
1014.222	1957.62
1014.514	1903.61
1014.807	1930.5
1015.099	1939.31
1015.391	1931.18
1015.683	1892.76
1015.976	1871.07
1016.268	1885.08
1016.56	1869.71
1016.851	1863.38
1017.143	1853.89
1017.435	1822.71
1017.727	1820.9
1018.018	1782.26
1018.31	1775.02
1018.602	1781.8
1018.893	1791.29
1019.185	1773.44
1019.476	1776.38
1019.767	1719.66
1020.058	1740.67
1020.35	1709.26
1020.641	1688.47
1020.932	1692.31
1021.223	1676.5
1021.514	1680.79
1021.804	1618.64
1022.095	1627.46
1022.386	1616.38
1022.677	1634.01
1022.967	1591.53
1023.258	1588.36
1023.548	1595.14
1023.839	1554.46
1024.129	1551.75
1024.419	1548.36
1024.709	1557.85
1025	1530.28
1025.29	1534.13
1025.58	1512.66
1025.87	1494.35
1026.16	1520.34
1026.449	1491.42
1026.739	1461.13
1027.029	1460
1027.319	1446.45
1027.608	1441.25
1027.898	1452.77
1028.187	1408.93
1028.477	1398.31
1028.766	1403.28
1029.055	1403.51
1029.344	1382.04
1029.634	1361.48
1029.923	1368.25
1030.212	1354.24
1030.501	1330.29
1030.79	1330.97
1031.078	1315.6
1031.367	1307.92
1031.656	1302.49
1031.945	1291.87
1032.233	1267.24
1032.522	1270.86
1032.81	1261.14
1033.099	1255.94
1033.387	1234.7
1033.675	1227.47
1033.963	1247.13
1034.251	1241.7
1034.54	1221.82
1034.828	1229.05
1035.116	1217.52
1035.403	1196.51
1035.691	1191.54
1035.979	1203.97
1036.267	1166.68
1036.554	1197.19
1036.842	1135.94
1037.129	1141.59
1037.417	1166.9
1037.704	1134.81
1037.992	1133.23
1038.279	1118.54
1038.566	1076.74
1038.853	1076.74
1039.14	1076.74
