Data from white_wall_FLMS001491_049.txt Node
Date: Tue Feb 07 11:04:35 GMT 2017
User: dcchb
Spectrometer: FLMS00149
Trigger mode: 0
Integration Time (sec): 2.000000E-2
Scans to average: 10
Electric dark correction enabled: true
Nonlinearity correction enabled: false
Boxcar width: 0
XAxis mode: Wavelengths
Number of Pixels in Spectrum: 2048
>>>>>Begin Spectral Data<<<<<
341.393	-13.67
341.776	-13.67
342.16	-13.67
342.543	-82.37
342.927	-64.97
343.31	-81.01
343.693	-76.27
344.077	-69.72
344.46	-65.2
344.843	-53.44
345.226	-44.41
345.61	-11.64
345.993	-18.64
346.376	-2.6
346.759	15.25
347.142	32.2
347.525	31.52
347.908	55.03
348.291	74.46
348.674	99.55
349.057	114.91
349.44	146.1
349.823	142.48
350.206	152.65
350.588	208.02
350.971	208.7
351.354	246.66
351.737	259.32
352.119	274.46
352.502	290.27
352.884	273.78
353.267	293.44
353.65	311.74
354.032	318.75
354.414	325.75
354.797	318.3
355.179	329.14
355.562	338.18
355.944	332.76
356.326	329.82
356.709	351.74
357.091	350.84
357.473	361.23
357.855	378.41
358.238	364.62
358.62	354
359.002	365.98
359.384	362.59
359.766	345.19
360.148	368.46
360.53	329.14
360.912	333.21
361.294	351.52
361.676	336.6
362.057	360.33
362.439	331.4
362.821	344.96
363.203	337.73
363.584	341.12
363.966	342.25
364.348	342.48
364.729	345.87
365.111	323.04
365.493	344.28
365.874	334.12
366.256	321.23
366.637	315.13
367.019	331.63
367.4	335.02
367.781	343.15
368.163	330.05
368.544	338.18
368.925	338.41
369.306	334.57
369.688	346.32
370.069	341.35
370.45	328.92
370.831	323.27
371.212	342.25
371.593	324.4
371.974	328.69
372.355	323.49
372.736	329.6
373.117	331.86
373.498	313.33
373.879	324.85
374.26	342.93
374.641	319.88
375.021	344.06
375.402	355.36
375.783	344.96
376.163	370.5
376.544	349.93
376.925	369.14
377.305	350.39
377.686	341.12
378.066	345.64
378.447	342.7
378.827	364.4
379.208	355.58
379.588	338.41
379.968	366.88
380.349	368.24
380.729	355.81
381.109	370.27
381.489	375.92
381.87	360.33
382.25	374.79
382.63	353.55
383.01	377.96
383.39	371.63
383.77	377.5
384.15	373.89
384.53	380.67
384.91	386.77
385.29	353.55
385.67	387
386.049	397.39
386.429	402.59
386.809	408.01
387.189	375.7
387.568	407.56
387.948	398.75
388.328	403.27
388.707	436.49
389.087	416.37
389.466	427.22
389.846	419.76
390.225	436.49
390.605	459.08
390.984	434.45
391.363	435.58
391.743	444.62
392.122	464.06
392.501	475.35
392.881	473.09
393.26	453.43
393.639	465.86
394.018	465.86
394.397	485.07
394.776	491.4
395.155	511.74
395.534	493.43
395.913	528.69
396.292	496.37
396.671	524.62
397.05	526.88
397.429	509.25
397.808	539.08
398.186	563.49
398.565	551.06
398.944	554.22
399.323	580.89
399.701	598.29
400.08	603.26
400.458	596.26
400.837	602.81
401.215	605.07
401.594	626.54
401.972	635.8
402.351	635.8
402.729	648.46
403.107	675.8
403.486	683.48
403.864	691.62
404.242	715.57
404.62	700.89
404.999	743.82
405.377	737.49
405.755	739.53
406.133	759.19
406.511	774.1
406.889	762.58
407.267	801
407.645	816.81
408.023	824.95
408.401	843.03
408.779	865.4
409.156	874.89
409.534	867.66
409.912	904.72
410.29	907.89
410.667	915.12
411.045	954.66
411.422	965.51
411.8	953.76
412.178	993.53
412.555	1008.67
412.933	1003.02
413.31	1030.14
413.687	1041.44
414.065	1068.11
414.442	1080.99
414.819	1060.65
415.197	1104.49
415.574	1124.6
415.951	1123.25
416.328	1137.48
416.705	1142.46
417.082	1147.2
417.46	1189.23
417.837	1172.51
418.214	1179.97
418.591	1209.35
418.967	1222.91
419.344	1222.23
419.721	1233.07
420.098	1271.94
420.475	1271.72
420.852	1284.15
421.228	1318.27
421.605	1326.86
421.982	1326.18
422.358	1336.8
422.735	1367.31
423.111	1374.54
423.488	1355.11
423.864	1389
424.241	1411.15
424.617	1403.69
424.994	1420.64
425.37	1460.19
425.746	1457.7
426.123	1493.41
426.499	1471.71
426.875	1521.88
427.251	1563.01
427.627	1574.31
428.003	1602.33
428.379	1591.48
428.756	1610.47
429.132	1629.22
429.507	1678.26
429.883	1707.41
430.259	1721.88
430.635	1739.05
431.011	1740.63
431.387	1775.66
431.763	1803
432.138	1829.9
432.514	1860.18
432.89	1859.95
433.265	1886.39
433.641	1946.73
434.016	1970.23
434.392	1987.18
434.767	2017.24
435.143	2004.35
435.518	2055.88
435.894	2074.86
436.269	2102.88
436.644	2120.51
437.02	2143.11
437.395	2152.37
437.77	2170.23
438.145	2236.44
438.52	2219.04
438.895	2270.34
439.271	2276.66
439.646	2302.2
440.021	2340.84
440.395	2339.03
440.77	2355.53
441.145	2389.88
441.52	2416.55
441.895	2403.21
442.27	2449.54
442.645	2450.9
443.019	2466.71
443.394	2470.1
443.769	2519.14
444.143	2514.4
444.518	2581.51
444.892	2562.08
445.267	2554.4
445.641	2616.09
446.016	2640.72
446.39	2661.74
446.764	2654.51
447.139	2669.42
447.513	2694.51
447.887	2715.3
448.262	2705.35
448.636	2764.11
449.01	2779.02
449.384	2835.74
449.758	2825.8
450.132	2871.45
450.506	2933.14
450.88	2952.13
451.254	2920.26
451.628	2962.75
452.002	2967.94
452.376	3020.15
452.75	3067.6
453.123	3067.83
453.497	3150.31
453.871	3124.55
454.244	3211.55
454.618	3259.69
454.992	3275.73
455.365	3290.42
455.739	3394.37
456.112	3431.44
456.486	3437.76
456.859	3484.54
457.232	3526.57
457.606	3574.71
457.979	3590.08
458.352	3646.12
458.725	3694.93
459.099	3757.75
459.472	3819
459.845	3876.17
460.218	3886.34
460.591	3916.62
460.964	3955.04
461.337	4030.06
461.71	4101.47
462.083	4152.55
462.456	4190.96
462.829	4168.36
463.201	4259.44
463.574	4231.87
463.947	4331.52
464.32	4459.66
464.692	4502.82
465.065	4499.43
465.438	4618.3
465.81	4685.41
466.183	4713.21
466.555	4825.75
466.928	4817.39
467.3	4852.19
467.672	4932.86
468.045	5040.21
468.417	5086.98
468.789	5129.24
469.161	5199.98
469.534	5288.34
469.906	5410.37
470.278	5442.91
470.65	5538.72
471.022	5611.04
471.394	5721.09
471.766	5759.06
472.138	5829.79
472.51	5967.19
472.882	6037.02
473.253	6117.92
473.625	6239.72
473.997	6330.57
474.369	6373.5
474.74	6437.68
475.112	6575.08
475.484	6711.35
475.855	6811.91
476.227	6920.83
476.598	7139.81
476.97	7146.14
477.341	7370.77
477.713	7421.84
478.084	7476.3
478.455	7785.67
478.827	7752.9
479.198	8017.3
479.569	8064.99
479.94	8215.94
480.311	8294.36
480.682	8593.79
481.053	8772.99
481.424	8874
481.795	9007.11
482.166	9084.62
482.537	9219.31
482.908	9463.59
483.279	9472.18
483.65	9670.82
484.021	9916.91
484.391	9992.39
484.762	10089.57
485.133	10213.63
485.503	10348.32
485.874	10649.1
486.244	10694.07
486.615	10861.07
486.985	11049.77
487.356	11277.33
487.726	11422.41
488.097	11599.36
488.467	11674.16
488.837	11864.43
489.207	12013.81
489.578	12200.02
489.948	12325.66
490.318	12501.03
490.688	12561.36
491.058	12799.1
491.428	12896.05
491.798	13138.52
492.168	13336.03
492.538	13363.6
492.908	13616.48
493.278	13777.38
493.648	13744.38
494.017	14040.2
494.387	14138.72
494.757	14237.93
495.126	14451.26
495.496	14478.83
495.866	14621.88
496.235	14702.78
496.605	14898.93
496.974	14987.06
497.344	15223.89
497.713	15294.17
498.082	15355.64
498.452	15635.63
498.821	15678.8
499.19	15793.6
499.559	15888.73
499.928	16033.82
500.298	16190.65
500.667	16279.46
501.036	16261.38
501.405	16483.3
501.774	16547.93
502.143	16716.06
502.512	16816.39
502.88	16982.94
503.249	17041.47
503.618	17295.03
503.987	17252.99
504.356	17345.19
504.724	17489.82
505.093	17626.09
505.462	17689.37
505.83	17883.03
506.199	18107.66
506.567	18312.17
506.936	18262.46
507.304	18448.22
507.672	18580.19
508.041	18676.68
508.409	18771.6
508.777	19026.51
509.145	19125.49
509.514	19128.2
509.882	19358.93
510.25	19506.72
510.618	19650.44
510.986	19778.58
511.354	20016.54
511.722	20047.27
512.09	20322.29
512.458	20323.87
512.826	20559.35
513.193	20549.63
513.561	20685.67
513.929	20833.69
514.297	21080.69
514.664	21272.55
515.032	21378.08
515.4	21521.81
515.767	21662.59
516.135	21827.79
516.502	21693.55
516.869	22127.89
517.237	22187.33
517.604	22221.22
517.972	22526.53
518.339	22735.33
518.706	22789.12
519.073	22870.47
519.44	23078.15
519.808	23307.75
520.175	23207.86
520.542	23688.76
520.909	23866.38
521.276	23784.57
521.643	24104.34
522.009	24260.94
522.376	24563.31
522.743	24563.53
523.11	24927.37
523.477	25094.37
523.843	25170.75
524.21	25527.35
524.577	25546.79
524.943	25815.03
525.31	25973.67
525.676	26142.25
526.043	26372.53
526.409	26430.6
526.776	26769.13
527.142	26753.08
527.508	27012.28
527.874	27282.56
528.241	27278.04
528.607	27472.16
528.973	27805.26
529.339	27708.09
529.705	27941.07
530.071	28226.49
530.437	28311.01
530.803	28543.77
531.169	28640.72
531.535	28635.97
531.901	28840.48
532.267	28992.35
532.632	29256.52
532.998	29387.36
533.364	29519.34
533.73	29470.07
534.095	29729.5
534.461	30041.58
534.826	30015.37
535.192	30128.81
535.557	30362.48
535.923	30514.34
536.288	30421.91
536.653	30694
537.019	30576.48
537.384	30868
537.749	31128.79
538.114	31069.35
538.479	31244.72
538.845	31386.41
539.21	31350.25
539.575	31404.71
539.94	31552.73
540.305	31788.88
540.67	31702.1
541.034	31952.95
541.399	32199.27
541.764	32231.13
542.129	32295.54
542.494	32382.99
542.858	32683.55
543.223	32732.81
543.587	32900.26
543.952	32884.45
544.316	33042.86
544.681	32925.35
545.045	33199.24
545.41	33455.28
545.774	33614.37
546.138	33558.1
546.503	33692.79
546.867	33843.97
547.231	34043.51
547.595	34175.26
547.959	34258.87
548.324	34325.99
548.688	34479.88
549.052	34634.68
549.416	34757.39
549.779	34771.63
550.143	34915.58
550.507	35197.83
550.871	35212.97
551.235	35210.49
551.599	35627.65
551.962	35765.95
552.326	35842.11
552.689	36111.71
553.053	36061.54
553.417	36102.21
553.78	36714.63
554.143	36350.12
554.507	36794.63
554.87	36951.23
555.234	37254.95
555.597	37142.64
555.96	37286.14
556.323	37491.78
556.686	37657.2
557.05	37755.96
557.413	38034.82
557.776	38167.7
558.139	38282.5
558.502	38493.11
558.865	38561.81
559.228	38961.35
559.59	38966.55
559.953	38988.92
560.316	39479.75
560.679	39522.46
561.041	39783.7
561.404	39892.85
561.767	40223.46
562.129	40084.48
562.492	40447.19
562.854	40398.6
563.217	40603.57
563.579	40772.15
563.941	41164.91
564.304	41243.55
564.666	41454.39
565.028	41340.49
565.39	41636.98
565.753	41929.41
566.115	41919.24
566.477	42295.72
566.839	42320.58
567.201	42583.63
567.563	42483.52
567.925	42829.5
568.287	42935.26
568.648	42892.77
569.01	43147
569.372	43582.47
569.734	43335.24
570.095	43603.49
570.457	43721.9
570.819	43887.32
571.18	44012.06
571.542	44125.28
571.903	44262.9
572.265	44468.32
572.626	44545.38
572.987	44638.04
573.349	44764.59
573.71	44989.44
574.071	45182.65
574.432	45184.91
574.794	45291.58
575.155	45400.73
575.516	45369.77
575.877	45432.82
576.238	45472.14
576.599	45730.44
576.96	45553.72
577.32	45798.46
577.681	45884.33
578.042	46014.95
578.403	45963.2
578.763	46001.62
579.124	46100.37
579.485	46179.69
579.845	46307.37
580.206	46275.96
580.566	46234.38
580.927	46303.75
581.287	46475.73
581.648	46363.64
582.008	46573.58
582.368	46584.42
582.728	46538.55
583.089	46547.14
583.449	46581.71
583.809	46604.09
584.169	46738.55
584.529	46460.59
584.889	46945.77
585.249	46594.37
585.609	46584.65
585.969	46852.21
586.329	46627.59
586.688	46852.67
587.048	46806.79
587.408	46727.7
587.768	46743.74
588.127	46708.94
588.487	46766.11
588.846	46960.01
589.206	46659.45
589.565	46736.74
589.925	47046.79
590.284	46785.32
590.643	46882.27
591.003	46966.56
591.362	46987.13
591.721	46905.77
592.08	46918.2
592.44	46970.4
592.799	46966.79
593.158	46807.7
593.517	46833.23
593.876	47038.2
594.235	46981.02
594.593	46935.6
594.952	47142.83
595.311	46923.17
595.67	47140.79
596.029	47211.08
596.387	47262.83
596.746	47248.59
597.104	47035.71
597.463	47188.7
597.822	47250.62
598.18	47207.46
598.538	47144.41
598.897	47355.7
599.255	46998.2
599.613	47544.4
599.972	47208.59
600.33	47465.31
600.688	47314.35
601.046	47545.08
601.404	47691.51
601.762	47631.63
602.12	47627.34
602.478	47736.71
602.836	47769.7
603.194	47538.52
603.552	47656.49
603.91	47524.97
604.268	47663.49
604.625	47726.77
604.983	47821.45
605.341	47605.41
605.698	47843.37
606.056	47934.9
606.413	47965.18
606.771	48179.19
607.128	48096.25
607.485	48079.07
607.843	48006.08
608.2	48224.83
608.557	48329.46
608.914	48275.45
609.272	48397.94
609.629	48489.01
609.986	48621.89
610.343	48465.51
610.7	48663.24
611.057	48653.3
611.414	48536.69
611.771	48530.81
612.127	48768.1
612.484	48720.19
612.841	48870.47
613.198	48694.88
613.554	48698.72
613.911	48916.57
614.267	48927.41
614.624	48957.7
614.98	48956.79
615.337	49059.39
615.693	49025.04
616.05	48937.58
616.406	49223.9
616.762	49056.68
617.118	49183.23
617.475	49139.84
617.831	49304.13
618.187	49290.57
618.543	49307.29
618.899	49426.61
619.255	49421.64
619.611	49422.77
619.967	49517.23
620.323	49619.83
620.678	49506.61
621.034	49408.31
621.39	49384.58
621.746	49338.7
622.101	49764.68
622.457	49397.01
622.812	49504.57
623.168	49701.63
623.523	49581.41
623.879	49687.85
624.234	49452.15
624.589	49602.2
624.945	49624.12
625.3	49561.07
625.655	49628.64
626.01	49623.67
626.365	49607.4
626.72	49579.6
627.075	49658.69
627.43	49722.65
627.785	49433.84
628.14	49605.14
628.495	49713.61
628.85	49587.74
629.205	49459.15
629.559	49572.14
629.914	49455.99
630.269	49516.55
630.623	49444.91
630.978	49296.44
631.332	49370.79
631.687	49493.5
632.041	49307.07
632.396	49510.45
632.75	49171.02
633.104	49375.76
633.459	49160.4
633.813	49118.14
634.167	49065.94
634.521	48919.5
634.875	49138.71
635.229	49079.27
635.583	48914.08
635.937	48838.15
636.291	48926.51
636.645	48891.48
636.999	48880.41
637.352	48887.64
637.706	48716.12
638.06	48831.15
638.413	48779.4
638.767	48580.76
639.121	48605.39
639.474	48522.68
639.828	48431.38
640.181	48496.24
640.534	48588.67
640.888	48271.16
641.241	48364.49
641.594	48404.94
641.947	48328.33
642.301	48236.81
642.654	48312.97
643.007	48301.22
643.36	48225.96
643.713	48113.42
644.066	48292.4
644.419	48108
644.771	47707.33
645.124	47468.47
645.477	47278.19
645.83	47062.6
646.182	47037.52
646.535	46942.16
646.888	46896.06
647.24	46588.04
647.593	46858.09
647.945	46770.41
648.298	46560.02
648.65	46485.22
649.002	46355.5
649.355	46548.49
649.707	46418.78
650.059	46612.22
650.411	46998.2
650.763	46990.74
651.115	47421.01
651.467	47249.94
651.819	47226.44
652.171	47017.41
652.523	47034.36
652.875	47228.93
653.227	46994.81
653.578	47263.95
653.93	47094.92
654.282	46849.05
654.633	46855.38
654.985	46953.91
655.337	46844.76
655.688	46869.16
656.039	47013.79
656.391	46595.27
656.742	46727.25
657.094	46589.62
657.445	46878.2
657.796	46815.38
658.147	46667.59
658.498	46572.45
658.849	46661.48
659.2	46626.01
659.551	46538.1
659.902	46563.63
660.253	46486.8
660.604	46427.82
660.955	46361.15
661.306	46425.33
661.656	46365
662.007	46359.12
662.358	46399.12
662.708	46411.77
663.059	46300.82
663.409	46101.05
663.76	46386.69
664.11	46322.28
664.461	46412.68
664.811	46285.45
665.161	46354.83
665.511	46153.25
665.862	46322.51
666.212	46252
666.562	46359.12
666.912	46166.36
667.262	46157.32
667.612	46063.99
667.962	46187.6
668.312	46084.1
668.662	46158.22
669.011	46047.04
669.361	46040.71
669.711	45955.06
670.06	45862.64
670.41	45845.69
670.76	45745.58
671.109	45847.04
671.459	45793.26
671.808	45772.02
672.157	45685.69
672.507	45645.24
672.856	45642.08
673.205	45627.16
673.554	45702.64
673.904	45522.98
674.253	45804.11
674.602	45512.59
674.951	44906.05
675.3	44733.17
675.649	45440.95
675.998	45444.12
676.346	45287.06
676.695	45383.55
677.044	45120.96
677.393	45428.07
677.741	45192.37
678.09	45185.37
678.438	44998.25
678.787	45061.98
679.135	45143.11
679.484	44792.61
679.832	45006.61
680.181	44739.28
680.529	44743.34
680.877	44891.14
681.225	44682.55
681.573	44800.29
681.922	44442.33
682.27	44555.33
682.618	44521.2
682.966	44286.41
683.314	44390.81
683.661	44229.91
684.009	44089.8
684.357	43907.89
684.705	43973.87
685.053	43855.01
685.4	43903.82
685.748	43697.04
686.095	43521.45
686.443	43518.06
686.79	43579.98
687.138	43609.14
687.485	43489.14
687.832	43308.35
688.18	43367.79
688.527	43119.43
688.874	43074.69
689.221	43027.91
689.568	42733.23
689.915	42751.98
690.262	42803.51
690.609	42654.13
690.956	42579.56
691.303	42514.25
691.65	42236.97
691.997	42187.48
692.344	41986.35
692.69	42052.34
693.037	42026.35
693.383	41690.32
693.73	41913.81
694.077	41485.58
694.423	41515.18
694.769	41324.45
695.116	41430.21
695.462	41287.39
695.808	41284.68
696.155	41215.53
696.501	40987.28
696.847	40916.78
697.193	40629.1
697.539	40788.87
697.885	40510.69
698.231	40435.43
698.577	40385.04
698.923	40280.86
699.269	40223.46
699.614	39976.46
699.96	39998.84
700.306	39961.1
700.651	39779.41
700.997	39589.81
701.342	39561.11
701.688	39421.9
702.033	39347.33
702.379	39284.73
702.724	39139.87
703.069	39374.67
703.415	38854.91
703.76	38958.41
704.105	38745.53
704.45	38773.56
704.795	38644.52
705.14	38582.38
705.485	38586.22
705.83	38276.17
706.175	38395.04
706.52	38301.03
706.865	38153.01
707.209	37955.05
707.554	37962.28
707.899	38020.81
708.243	37745.34
708.588	37572.68
708.932	37585.79
709.277	37431.67
709.621	37580.59
709.966	37279.13
710.31	37310.54
710.654	37043.66
710.998	37111.68
711.342	37037.33
711.687	36888.86
712.031	36860.84
712.375	36683.89
712.719	36695.87
713.063	36729.09
713.407	36915.07
713.75	36565.93
714.094	36537.68
714.438	36427.63
714.782	36390.57
715.125	36096.34
715.469	36338.14
715.812	36069
716.156	35841.66
716.499	35782.22
716.843	36059.96
717.186	35634.43
717.53	35909.23
717.873	35852.5
718.216	35818.61
718.559	35589.23
718.902	35353.31
719.246	35482.57
719.589	35348.11
719.932	35217.49
720.275	35292.97
720.617	35242.12
720.96	35113.77
721.303	35125.07
721.646	35069.02
721.989	34866.99
722.331	35046.2
722.674	34847.56
723.016	34891.17
723.359	34702.93
723.701	34778.41
724.044	34704.51
724.386	34429.26
724.729	34579.09
725.071	34456.83
725.413	34441.02
725.755	34292.54
726.097	34355.14
726.439	34077.41
726.782	34131.64
727.124	34288.02
727.465	33954.47
727.807	34109.95
728.149	33969.39
728.491	33765.1
728.833	33751.99
729.175	33712.9
729.516	33508.61
729.858	33543.64
730.199	33599.91
730.541	33572.56
730.882	33535.5
731.224	33545.67
731.565	33266.36
731.906	33426.58
732.248	33349.52
732.589	33257.77
732.93	33110.43
733.271	33100.03
733.612	33198.56
733.953	33208.73
734.294	32976.2
734.635	32816.43
734.976	33051.22
735.317	32763.32
735.658	32801.28
735.999	32666.15
736.339	32714.06
736.68	32802.41
737.021	32639.71
737.361	32629.54
737.702	32678.35
738.042	32569.65
738.383	32435.19
738.723	32507.05
739.063	32294.86
739.404	32369.66
739.744	32240.85
740.084	32018.03
740.424	32189.55
740.764	32103.9
741.104	32059.16
741.444	31930.57
741.784	31959.27
742.124	32029.55
742.464	31893.51
742.804	31781.65
743.143	31664.37
743.483	31757.24
743.823	31565.61
744.162	31511.15
744.502	31587.98
744.841	31380.3
745.181	31553.63
745.52	31369.91
745.86	31395.22
746.199	31322.91
746.538	31201.33
746.877	31248.33
747.216	31149.35
747.556	30952.97
747.895	31093.98
748.234	31095.11
748.573	30973.99
748.911	30983.03
749.25	30997.49
749.589	30646.54
749.928	30700.55
750.267	30686.99
750.605	30652.64
750.944	30680.89
751.283	30511.18
751.621	30490.84
751.96	30327.45
752.298	30414.91
752.636	30364.74
752.975	30257.4
753.313	30129.26
753.651	30281.8
753.989	29985.09
754.327	30002.26
754.666	29833.68
755.004	29855.15
755.342	29884.98
755.679	29863.06
756.017	29621.48
756.355	29620.13
756.693	29493.35
757.031	29636.4
757.368	29447.25
757.706	29383.52
758.044	29456.06
758.381	29300.13
758.719	29259.23
759.056	29173.36
759.394	28951.89
759.731	28793.71
760.068	28823.08
760.405	28612.92
760.743	28551
761.08	28534.96
761.417	28420.16
761.754	28435.75
762.091	28321.63
762.428	28278.69
762.765	28211.8
763.102	28252.25
763.438	28144.68
763.775	27841.87
764.112	27892.49
764.449	27987.85
764.785	27819.49
765.122	27557.58
765.458	27507.86
765.795	27500.41
766.131	27489.79
766.467	27357.59
766.804	27223.8
767.14	27032.85
767.476	27023.81
767.812	26898.16
768.148	27016.58
768.485	26736.13
768.821	26624.95
769.157	26495.46
769.492	26504.5
769.828	26489.59
770.164	26187
770.5	26330.72
770.836	26196.03
771.171	26061.35
771.507	26024.97
771.842	25739.32
772.178	25718.31
772.513	25787.68
772.849	25556.28
773.184	25466.34
773.519	25581.14
773.855	25339.11
774.19	25163.52
774.525	25197.42
774.86	25155.16
775.195	25087.36
775.53	24897.76
775.865	24884.88
776.2	24585.23
776.535	24486.02
776.87	24587.49
777.205	24480.37
777.539	24275.18
777.874	24295.52
778.209	24106.6
778.543	24100.95
778.878	23926.26
779.212	24011.23
779.547	23841.52
779.881	23857.79
780.215	23690.11
780.55	23807.85
780.884	23463.22
781.218	23416.45
781.552	23516.1
781.886	23254.42
782.22	23185.27
782.554	23112.27
782.888	22934.88
783.222	22808.33
783.556	22786.63
783.889	22655.56
784.223	22639.29
784.557	22493.76
784.89	22568.56
785.224	22389.35
785.557	22264.16
785.891	22217.83
786.224	22200.43
786.558	22049.93
786.891	21941.01
787.224	21824.62
787.557	21798.86
787.891	21870.27
788.224	21709.15
788.557	21745.98
788.89	21620.34
789.223	21552.31
789.556	21391.19
789.888	21324.75
790.221	21260.34
790.554	21198.43
790.887	21144.42
791.219	21028.49
791.552	21035.72
791.884	20840.47
792.217	20796.85
792.549	20824.2
792.882	20520.48
793.214	20468.95
793.546	20550.76
793.879	20491.55
794.211	20265.79
794.543	20424.43
794.875	20307.83
795.207	20339.92
795.539	20194.38
795.871	20125.91
796.203	20018.34
796.535	19964.11
796.867	19885.01
797.198	19793.26
797.53	19807.73
797.862	19672.36
798.193	19667.17
798.525	19544.23
798.856	19611.12
799.188	19366.84
799.519	19255.2
799.85	19206.61
800.182	19204.35
800.513	19218.14
800.844	18961.65
801.175	19185.82
801.506	19032.38
801.837	18883.68
802.168	18893.18
802.499	18745.61
802.83	18723.91
803.161	18610.7
803.491	18756.23
803.822	18587.19
804.153	18542.68
804.483	18475.33
804.814	18359.63
805.145	18400.08
805.475	18399.4
805.805	18274.66
806.136	18282.57
806.466	18286.64
806.796	17996.02
807.126	18101.11
807.457	17994.22
807.787	17998.96
808.117	17836.25
808.447	17804.62
808.777	17956.03
809.107	17750.15
809.436	17698.63
809.766	17773.2
810.096	17635.36
810.426	17559.2
810.755	17590.61
811.085	17619.08
811.414	17505.19
811.744	17380.9
812.073	17319.88
812.403	17372.76
812.732	17170.96
813.061	17165.54
813.39	17085.09
813.719	17070.4
814.049	17144.97
814.378	17041.47
814.707	16976.16
815.036	16984.98
815.365	16855.94
815.693	16801.48
816.022	16737.98
816.351	16581.37
816.68	16659.56
817.008	16593.12
817.337	16484.43
817.665	16437.65
817.994	16547.7
818.322	16490.75
818.651	16358.55
818.979	16341.15
819.307	16404.88
819.636	16352.9
819.964	16222.06
820.292	16256.86
820.62	16188.61
820.948	16208.95
821.276	16269.06
821.604	16140.25
821.932	16146.13
822.259	16210.99
822.587	16160.14
822.915	16067.49
823.243	16160.14
823.57	16187.71
823.898	16107.49
824.225	16039.92
824.553	16145.23
824.88	16035.17
825.207	16106.81
825.535	16114.27
825.862	16193.36
826.189	16023.87
826.516	16177.54
826.843	16132.57
827.17	16132.57
827.497	16054.83
827.824	16110.88
828.151	16008.51
828.478	16046.92
828.805	16165.34
829.131	16082.63
829.458	16021.39
829.785	15982.74
830.111	16006.25
830.438	16074.72
830.764	16036.98
831.09	16131.21
831.417	15994.95
831.743	16098.9
832.069	16044.21
832.395	16009.41
832.722	16042.18
833.048	15876.98
833.374	15962.63
833.7	15845.8
834.026	15881.73
834.351	15910.66
834.677	15851.9
835.003	15901.39
835.329	15934.16
835.654	15817.55
835.98	15779.13
836.306	15781.17
836.631	15727.16
836.956	15778
837.282	15739.13
837.607	15726.03
837.932	15651.45
838.258	15608.74
838.583	15658.91
838.908	15513.6
839.233	15636.76
839.558	15573.26
839.883	15532.36
840.208	15415.53
840.533	15486.71
840.858	15451.01
841.182	15425.7
841.507	15294.85
841.832	15375.98
842.156	15257.11
842.481	15273.16
842.805	15255.08
843.13	15213.27
843.454	15211.92
843.778	15064.8
844.103	15084.01
844.427	15014.18
844.751	14968.31
845.075	15025.03
845.399	14937.57
845.723	14831.36
846.047	14907.97
846.371	14657.58
846.695	14693.06
847.019	14585.94
847.343	14553.4
847.666	14475.21
847.99	14477.7
848.313	14416.91
848.637	14348.66
848.96	14365.61
849.284	14240.42
849.607	14125.17
849.931	14062.57
850.254	14024.38
850.577	13989.35
850.9	13854.89
851.223	13985.96
851.546	13786.87
851.869	13625.07
852.192	13785.06
852.515	13668
852.838	13563.37
853.161	13565.63
853.483	13592.52
853.806	13471.17
854.129	13494.45
854.451	13314.57
854.774	13365.86
855.096	13339.42
855.419	13357.73
855.741	13247.9
856.063	13113.21
856.385	13146.89
856.708	13023.05
857.03	13025.76
857.352	13129.49
857.674	12983.73
857.996	12917.74
858.318	12872.32
858.64	12853.79
858.961	12894.24
859.283	12810.17
859.605	12770.17
859.926	12750.96
860.248	12667.8
860.57	12654.92
860.891	12626
861.212	12538.54
861.534	12522.04
861.855	12558.65
862.176	12475.94
862.498	12494.25
862.819	12499.45
863.14	12527.69
863.461	12438.66
863.782	12385.32
864.103	12403.4
864.424	12308.94
864.745	12375.15
865.065	12245.44
865.386	12200.24
865.707	12145.33
866.027	12178.1
866.348	12235.27
866.668	12160.47
866.989	12086.35
867.309	12018.1
867.63	12071.43
867.95	12045.9
868.27	11950.31
868.59	11962.96
868.91	11934.49
869.23	11922.96
869.55	11888.16
869.87	11974.71
870.19	11845.23
870.51	11957.09
870.83	11933.36
871.15	11777.66
871.469	11843.19
871.789	11803.19
872.109	11803.64
872.428	11744.44
872.748	11778.33
873.067	11764.55
873.386	11738.11
873.706	11725.45
874.025	11638.9
874.344	11645
874.663	11662.86
874.982	11659.02
875.301	11663.31
875.62	11617.66
875.939	11553.71
876.258	11584.89
876.577	11476.87
876.896	11500.15
877.214	11503.77
877.533	11456.08
877.852	11386.03
878.17	11418.12
878.489	11447.27
878.807	11424.67
879.125	11324.56
879.444	11358.91
879.762	11266.03
880.08	11365.69
880.398	11273.26
880.716	11258.35
881.034	11169.76
881.352	11182.87
881.67	11169.99
881.988	11172.25
882.306	11184
882.624	11143.55
882.941	11107.84
883.259	10980.62
883.577	11042.08
883.894	11060.16
884.212	10990.56
884.529	10976.32
884.846	10977
885.164	10910.56
885.481	10887.06
885.798	10920.05
886.115	10833.05
886.432	10843.22
886.75	10739.49
887.067	10767.97
887.383	10664.24
887.7	10744.01
888.017	10616.78
888.334	10669.89
888.651	10625.82
888.967	10631.25
889.284	10581.53
889.6	10536.79
889.917	10488.88
890.233	10484.58
890.55	10411.14
890.866	10475.77
891.182	10386.96
891.498	10300.41
891.815	10366.17
892.131	10278.03
892.447	10239.84
892.763	10222.44
893.079	10220.41
893.395	10105.84
893.71	10159.39
894.026	10147.42
894.342	10085.5
894.657	10028.55
894.973	10011.15
895.289	10003.01
895.604	9987.2
895.92	9871.27
896.235	9898.16
896.55	9857.25
896.865	9798.5
897.181	9799.63
897.496	9815.67
897.811	9807.09
898.126	9702.23
898.441	9674.66
898.756	9665.4
899.071	9550.82
899.386	9522.8
899.7	9480.77
900.015	9502.24
900.33	9374.33
900.644	9340.88
900.959	9395.12
901.273	9289.59
901.588	9279.87
901.902	9280.77
902.216	9293.43
902.531	9155.58
902.845	9166.43
903.159	9134.56
903.473	9075.13
903.787	9017.95
904.101	9059.08
904.415	9074
904.729	8991.74
905.042	8919.2
905.356	8926.66
905.67	8884.4
905.984	8865.19
906.297	8863.83
906.611	8834.68
906.924	8770.5
907.237	8779.09
907.551	8697.29
907.864	8671.3
908.177	8673.33
908.491	8623.84
908.804	8521.7
909.117	8465.88
909.43	8450.29
909.743	8418.2
910.056	8413
910.368	8409.16
910.681	8290.97
910.994	8257.3
911.307	8291.42
911.619	8211.65
911.932	8240.35
912.244	8167.81
912.557	8192.89
912.869	8145.44
913.181	8138.88
913.494	8053.46
913.806	7999.45
914.118	7988.6
914.43	7903.86
914.742	7907.7
915.054	7945.44
915.366	7839.91
915.678	7794.03
915.99	7735.73
916.302	7697.31
916.613	7723.98
916.925	7678.78
917.236	7691.89
917.548	7526.69
917.859	7621.61
918.171	7517.66
918.482	7513.59
918.794	7505.45
919.105	7457.54
919.416	7422.74
919.727	7368.73
920.038	7395.85
920.349	7360.37
920.66	7333.48
920.971	7269.53
921.282	7261.17
921.593	7201.51
921.903	7137.55
922.214	7142.98
922.525	7090.55
922.835	7104.33
923.146	7068.4
923.456	7074.5
923.767	7015.75
924.077	7036.54
924.387	6962.19
924.697	6875.86
925.008	6871.8
925.318	6815.98
925.628	6811.91
925.938	6796.09
926.248	6674.97
926.558	6673.38
926.867	6714.96
927.177	6644.23
927.487	6646.49
927.796	6597.45
928.106	6545.93
928.416	6524.46
928.725	6543.9
929.034	6448.76
929.344	6497.57
929.653	6508.42
929.962	6396.55
930.271	6368.76
930.581	6352.71
930.89	6326.73
931.199	6246.73
931.508	6283.34
931.817	6266.16
932.125	6236.79
932.434	6210.12
932.743	6175.32
933.051	6109.1
933.36	6083.12
933.669	5996.79
933.977	6023.23
934.286	6023.91
934.594	5997.92
934.902	5915.44
935.21	5940.97
935.519	5950.69
935.827	5869.56
936.135	5868.89
936.443	5802.45
936.751	5762.67
937.059	5817.14
937.367	5741.43
937.674	5798.83
937.982	5770.58
938.29	5743.24
938.597	5737.14
938.905	5660.76
939.213	5640.42
939.52	5631.83
939.827	5618.04
940.135	5620.08
940.442	5512.96
940.749	5528.33
941.056	5524.26
941.363	5415.56
941.67	5401.55
941.977	5387.09
942.284	5386.19
942.591	5375.34
942.898	5379.86
943.205	5347.99
943.511	5313.87
943.818	5296.24
944.125	5193.87
944.431	5248.11
944.738	5259.41
945.044	5215.57
945.35	5218.05
945.657	5154.55
945.963	5159.3
946.269	5117.04
946.575	5085.18
946.881	5018.96
947.187	5034.33
947.493	4993.43
947.799	4972.86
948.105	4925.18
948.41	4949.14
948.716	4894.9
949.022	4899.65
949.327	4855.8
949.633	4790.27
949.938	4852.41
950.244	4825.52
950.549	4824.62
950.854	4776.26
951.16	4730.84
951.465	4719.99
951.77	4708.46
952.075	4660.33
952.38	4653.32
952.685	4692.87
952.99	4628.24
953.294	4605.19
953.599	4574
953.904	4577.85
954.209	4497.85
954.513	4552.08
954.818	4481.8
955.122	4490.62
955.426	4462.37
955.731	4437.51
956.035	4426.66
956.339	4408.58
956.643	4429.38
956.948	4351.41
957.252	4329.26
957.556	4314.58
957.86	4349.83
958.163	4307.8
958.467	4271.41
958.771	4305.31
959.075	4239.55
959.378	4207.46
959.682	4249.27
959.985	4182.15
960.289	4156.16
960.592	4142.83
960.896	4074.13
961.199	4122.94
961.502	4102.15
961.805	4096.5
962.108	4000.46
962.411	4026
962.714	4003.17
963.017	4002.04
963.32	3974.47
963.623	4012.66
963.926	4009.95
964.228	3951.87
964.531	3887.92
964.833	3888.37
965.136	3873.01
965.438	3828.26
965.741	3890.41
966.043	3843.18
966.345	3797.75
966.648	3809.05
966.95	3795.72
967.252	3767.25
967.554	3775.15
967.856	3717.98
968.158	3713.24
968.46	3715.72
968.761	3688.83
969.063	3674.59
969.365	3641.15
969.666	3630.3
969.968	3641.83
970.269	3610.64
970.571	3590.98
970.872	3583.52
971.174	3548.27
971.475	3520.25
971.776	3543.97
972.077	3522.96
972.378	3471.21
972.679	3484.09
972.98	3523.64
973.281	3464.2
973.582	3436.18
973.883	3409.29
974.183	3437.54
974.484	3455.16
974.785	3362.74
975.085	3376.3
975.386	3354.15
975.686	3361.38
975.986	3306.92
976.287	3303.53
976.587	3259.69
976.887	3284.55
977.187	3312.34
977.487	3261.27
977.787	3236.86
978.087	3216.3
978.387	3194.15
978.687	3196.19
978.987	3165.23
979.286	3158.9
979.586	3119.58
979.885	3155.74
980.185	3099.01
980.484	3075.51
980.784	3082.74
981.083	3056.08
981.382	3023.08
981.682	3040.94
981.981	3002.07
982.28	3023.08
982.579	3006.59
982.878	3029.86
983.177	2964.78
983.475	2960.94
983.774	2916.19
984.073	2897.66
984.372	2885.91
984.67	2910.32
984.969	2899.92
985.267	2890.21
985.566	2863.99
985.864	2850.89
986.162	2832.13
986.461	2821.51
986.759	2843.88
987.057	2766.59
987.355	2811.79
987.653	2739.7
987.951	2748.74
988.249	2732.24
988.547	2761.62
988.844	2744.22
989.142	2727.05
989.44	2683.88
989.737	2711.23
990.035	2678.69
990.332	2663.55
990.63	2667.16
990.927	2636.65
991.224	2633.04
991.521	2626.26
991.819	2595.75
992.116	2566.37
992.413	2575.41
992.71	2538.35
993.006	2567.96
993.303	2541.52
993.6	2540.84
993.897	2528.41
994.193	2513.49
994.49	2481.4
994.787	2486.6
995.083	2456.55
995.379	2440.95
995.676	2458.35
995.972	2445.92
996.268	2410.22
996.565	2391.24
996.861	2405.7
997.157	2450.22
997.453	2374.51
997.749	2365.25
998.044	2362.08
998.34	2338.58
998.636	2304.69
998.932	2295.65
999.227	2300.84
999.523	2301.52
999.818	2303.1
1000.114	2262.2
1000.409	2257.68
1000.704	2264.23
1001	2238.25
1001.295	2244.57
1001.59	2195.08
1001.885	2210.68
1002.18	2183.56
1002.475	2155.54
1002.77	2159.38
1003.065	2138.81
1003.359	2147.18
1003.654	2143.79
1003.949	2110.11
1004.243	2110.79
1004.538	2069.89
1004.832	2079.15
1005.127	2087.97
1005.421	2062.66
1005.715	2058.82
1006.009	2020.62
1006.304	2018.59
1006.598	2034.41
1006.892	1991.7
1007.186	2008.42
1007.48	1954.64
1007.773	1955.09
1008.067	1933.85
1008.361	1911.25
1008.655	1912.61
1008.948	1948.08
1009.242	1933.62
1009.535	1928.88
1009.829	1901.53
1010.122	1880.29
1010.415	1863.11
1010.708	1861.76
1011.001	1855.88
1011.295	1848.2
1011.588	1825.15
1011.881	1841.65
1012.173	1797.35
1012.466	1787.86
1012.759	1808.43
1013.052	1761.2
1013.344	1754.87
1013.637	1739.73
1013.93	1733.4
1014.222	1708.77
1014.514	1749.45
1014.807	1694.31
1015.099	1692.5
1015.391	1693.63
1015.683	1693.18
1015.976	1672.61
1016.268	1643.23
1016.56	1631.93
1016.851	1621.31
1017.143	1641.88
1017.435	1602.1
1017.727	1627.41
1018.018	1596.68
1018.31	1604.14
1018.602	1604.59
1018.893	1568.43
1019.185	1562.56
1019.476	1529.34
1019.767	1568.66
1020.058	1554.65
1020.35	1514.65
1020.641	1493.63
1020.932	1487.53
1021.223	1488.89
1021.514	1490.47
1021.804	1450.47
1022.095	1459.06
1022.386	1437.14
1022.677	1451.83
1022.967	1442.79
1023.258	1428.32
1023.548	1420.41
1023.839	1405.05
1024.129	1418.38
1024.419	1393.3
1024.709	1381.32
1025	1381.77
1025.29	1349.23
1025.58	1359.4
1025.87	1330.7
1026.16	1306.29
1026.449	1335.67
1026.739	1303.13
1027.029	1293.86
1027.319	1276.92
1027.608	1287.08
1027.898	1287.99
1028.187	1270.81
1028.477	1258.61
1028.766	1256.35
1029.055	1241.89
1029.344	1258.16
1029.634	1211.83
1029.923	1209.57
1030.212	1211.38
1030.501	1195.34
1030.79	1193.08
1031.078	1189.69
1031.367	1180.42
1031.656	1188.78
1031.945	1189.23
1032.233	1160.53
1032.522	1176.81
1032.81	1152.17
1033.099	1164.15
1033.387	1126.86
1033.675	1104.49
1033.963	1109.24
1034.251	1108.56
1034.54	1106.52
1034.828	1095
1035.116	1087.32
1035.403	1085.96
1035.691	1062.91
1035.979	1045.96
1036.267	1045.51
1036.554	1051.84
1036.842	1059.97
1037.129	1048.67
1037.417	1029.46
1037.704	999.18
1037.992	1020.2
1038.279	1007.77
1038.566	1013.65
1038.853	1013.65
1039.14	1013.65
