Data from white_poster_card_FLMS001491_00099.txt Node
Date: Wed Feb 08 11:52:19 GMT 2017
User: dcchb
Spectrometer: FLMS00149
Trigger mode: 0
Integration Time (sec): 2.000000E-2
Scans to average: 10
Electric dark correction enabled: true
Nonlinearity correction enabled: false
Boxcar width: 0
XAxis mode: Wavelengths
Number of Pixels in Spectrum: 2048
>>>>>Begin Spectral Data<<<<<
341.393	-36.14
341.776	-36.14
342.16	-36.14
342.543	-53.77
342.927	-47.44
343.31	-75.69
343.693	-69.59
344.077	-62.58
344.46	-51.96
344.843	-65.07
345.226	-26.2
345.61	-18.06
345.993	-21.45
346.376	-6.99
346.759	13.57
347.142	8.38
347.525	29.62
347.908	68.03
348.291	86.79
348.674	82.95
349.057	108.26
349.44	122.72
349.823	155.94
350.206	178.31
350.588	197.3
350.971	206.34
351.354	227.35
351.737	257.41
352.119	253.34
352.502	248.6
352.884	296.5
353.267	262.83
353.65	299.22
354.032	311.19
354.414	295.6
354.797	306.45
355.179	331.53
355.562	332.43
355.944	339.21
356.326	334.92
356.709	349.84
357.091	330.17
357.473	322.49
357.855	340.8
358.238	348.03
358.62	350.06
359.002	354.13
359.384	367.91
359.766	344.41
360.148	327.92
360.53	364.52
360.912	345.09
361.294	309.61
361.676	337.41
362.057	328.37
362.439	326.33
362.821	333.11
363.203	355.49
363.584	330.17
363.966	302.38
364.348	315.03
364.729	356.61
365.111	327.69
365.493	331.98
365.874	314.13
366.256	290.85
366.637	303.73
367.019	334.69
367.4	307.35
367.781	280.91
368.163	309.61
368.544	292.66
368.925	315.49
369.306	314.58
369.688	319.55
370.069	301.7
370.45	320.23
370.831	319.78
371.212	308.25
371.593	312.1
371.974	304.19
372.355	312.55
372.736	300.57
373.117	333.56
373.498	306.22
373.879	294.7
374.26	323.85
374.641	328.14
375.021	321.36
375.402	337.63
375.783	344.86
376.163	335.37
376.544	316.39
376.925	330.4
377.305	324.98
377.686	338.76
378.066	318.65
378.447	323.62
378.827	316.84
379.208	345.77
379.588	333.11
379.968	332.43
380.349	335.82
380.729	345.32
381.109	343.51
381.489	339.67
381.87	326.11
382.25	358.2
382.63	339.89
383.01	324.98
383.39	333.34
383.77	359.33
384.15	360.46
384.53	347.8
384.91	347.8
385.29	355.94
385.67	376.73
386.049	358.87
386.429	347.35
386.809	362.26
387.189	385.99
387.568	340.57
387.948	361.36
388.328	368.37
388.707	355.49
389.087	374.92
389.466	367.01
389.846	395.03
390.225	384.18
390.605	367.01
390.984	392.32
391.363	368.37
391.743	370.4
392.122	388.48
392.501	390.96
392.881	393.45
393.26	402.26
393.639	397.97
394.018	405.65
394.397	396.39
394.776	397.97
395.155	393.9
395.534	408.36
395.913	426.9
396.292	412.88
396.671	405.65
397.05	439.55
397.429	405.2
397.808	411.98
398.186	413.56
398.565	425.77
398.944	410.17
399.323	429.61
399.701	436.84
400.08	434.8
400.458	432.09
400.837	435.93
401.215	442.26
401.594	461.02
401.972	471.41
402.351	449.04
402.729	460.79
403.107	472.54
403.486	475.26
403.864	468.7
404.242	457.18
404.62	469.38
404.999	479.32
405.377	485.65
405.755	491.98
406.133	490.17
406.511	480
406.889	480.91
407.267	507.35
407.645	503.05
408.023	492.2
408.401	538.76
408.779	561.36
409.156	527.23
409.534	534.24
409.912	554.8
410.29	545.99
410.667	562.94
411.045	598.87
411.422	608.36
411.8	611.75
412.178	618.3
412.555	631.64
412.933	640.22
413.31	669.83
413.687	672.76
414.065	680.9
414.442	680.9
414.819	703.27
415.197	703.27
415.574	733.78
415.951	740.11
416.328	749.6
416.705	772.42
417.082	762.71
417.46	792.76
417.837	769.49
418.214	808.58
418.591	828.47
418.967	829.82
419.344	860.1
419.721	863.49
420.098	899.2
420.475	910.95
420.852	898.97
421.228	879.77
421.605	941.23
421.982	948.01
422.358	937.16
422.735	971.29
423.111	975.36
423.488	991.17
423.864	994.56
424.241	1033.21
424.617	1013.32
424.994	1037.27
425.37	1051.96
425.746	1085.64
426.123	1067.1
426.499	1095.13
426.875	1115.69
427.251	1140.78
427.627	1133.77
428.003	1166.54
428.379	1175.12
428.756	1184.16
429.132	1217.16
429.507	1241.34
429.883	1259.42
430.259	1277.72
430.635	1277.95
431.011	1257.38
431.387	1327.44
431.763	1312.07
432.138	1341.45
432.514	1374.67
432.89	1395.46
433.265	1441.78
433.641	1448.11
434.016	1459.18
434.392	1486.3
434.767	1450.82
435.143	1490.14
435.518	1532.86
435.894	1553.42
436.269	1544.83
436.644	1578.5
437.02	1613.53
437.395	1572.18
437.77	1627.54
438.145	1650.59
438.52	1662.12
438.895	1658.95
439.271	1693.08
439.646	1728.56
440.021	1717.94
440.395	1756.13
440.77	1725.17
441.145	1754.54
441.52	1785.05
441.895	1766.3
442.27	1801.77
442.645	1806.52
443.019	1850.13
443.394	1805.62
443.769	1832.06
444.143	1811.72
444.518	1883.58
444.892	1874.99
445.267	1857.37
445.641	1890.13
446.016	1891.94
446.39	1922
446.764	1941.43
447.139	1938.95
447.513	1945.05
447.887	1959.51
448.262	1987.76
448.636	2004.03
449.01	2003.58
449.384	2052.16
449.758	2045.38
450.132	2074.31
450.506	2087.64
450.88	2069.56
451.254	2137.81
451.628	2103.91
452.002	2154.53
452.376	2159.73
452.75	2174.42
453.123	2206.28
453.497	2236.57
453.871	2228.2
454.244	2275.21
454.618	2311.59
454.992	2330.8
455.365	2307.98
455.739	2401.08
456.112	2436.33
456.486	2439.05
456.859	2461.87
457.232	2474.07
457.606	2457.35
457.979	2507.52
458.352	2582.09
458.725	2602.88
459.099	2588.87
459.472	2658.48
459.845	2682.66
460.218	2708.42
460.591	2731.24
460.964	2731.47
461.337	2798.13
461.71	2829.09
462.083	2870.22
462.456	2867.28
462.829	2891.01
463.201	2909.09
463.574	2979.37
463.947	3004.45
464.32	3034.51
464.692	3078.13
465.065	3064.34
465.438	3109.99
465.81	3173.72
466.183	3206.03
466.555	3284.67
466.928	3261.62
467.3	3267.95
467.672	3382.75
468.045	3439.02
468.417	3446.7
468.789	3395.41
469.161	3479.92
469.534	3545.23
469.906	3630.65
470.278	3672.46
470.65	3663.87
471.022	3811.67
471.394	3771.89
471.766	3867.71
472.138	3886.69
472.51	4012.56
472.882	4042.85
473.253	4056.86
473.625	4118.1
473.997	4193.35
474.369	4225.89
474.74	4266.57
475.112	4361.48
475.484	4402.84
475.855	4477.41
476.227	4464.08
476.598	4665.65
476.97	4712.88
477.341	4736.61
477.713	4820
478.084	4846.89
478.455	4958.3
478.827	5002.82
479.198	5187.67
479.569	5169.37
479.94	5288.69
480.311	5321.68
480.682	5453.43
481.053	5561
481.424	5661.33
481.795	5750.82
482.166	5803.48
482.537	5864.49
482.908	6012.06
483.279	6001.89
483.65	6155.33
484.021	6285.05
484.391	6372.05
484.762	6395.33
485.133	6425.83
485.503	6512.61
485.874	6676.45
486.244	6755.09
486.615	6835.54
486.985	6995.99
487.356	7097.45
487.726	7141.3
488.097	7282.08
488.467	7322.31
488.837	7442.98
489.207	7534.73
489.578	7647.72
489.948	7748.28
490.318	7882.29
490.688	7859.69
491.058	8053.81
491.428	8110.31
491.798	8205.9
492.168	8316.41
492.538	8383.3
492.908	8456.06
493.278	8638.43
493.648	8621.93
494.017	8703.29
494.387	8794.81
494.757	8842.27
495.126	9038.65
495.496	9030.74
495.866	9049.72
496.235	9172.43
496.605	9338.07
496.974	9367.45
497.344	9428.24
497.713	9485.19
498.082	9593.89
498.452	9642.02
498.821	9723.83
499.19	9764.05
499.559	9870.04
499.928	9918.62
500.298	9969.7
500.667	10079.07
501.036	10108.22
501.405	10177.37
501.774	10245.85
502.143	10324.04
502.512	10371.04
502.88	10475.22
503.249	10479.06
503.618	10594.76
503.987	10678.83
504.356	10732.61
504.724	10788.21
505.093	10900.74
505.462	10891.25
505.83	11021.19
506.199	11075.2
506.567	11229.32
506.936	11161.98
507.304	11387.29
507.672	11441.97
508.041	11511.8
508.409	11585.92
508.777	11648.97
509.145	11778.69
509.514	11785.92
509.882	11904.56
510.25	11961.28
510.618	12015.07
510.986	12057.55
511.354	12285.57
511.722	12339.8
512.09	12521.72
512.458	12416.18
512.826	12606.46
513.193	12653.92
513.561	12667.03
513.929	12803.75
514.297	12864.08
514.664	12988.83
515.032	13088.03
515.4	13198.31
515.767	13234.47
516.135	13276.73
516.502	13328.48
516.869	13452.99
517.237	13644.85
517.604	13580.22
517.972	13776.38
518.339	13907.22
518.706	13912.64
519.073	14095.01
519.44	14121.22
519.808	14297.04
520.175	14199.19
520.542	14465.4
520.909	14542.68
521.276	14604.38
521.643	14694.09
522.009	14862.45
522.376	14914.65
522.743	15090.92
523.11	15208.88
523.477	15301.31
523.843	15474.41
524.21	15554.86
524.577	15667.62
524.943	15844.57
525.31	15924.57
525.676	16175.63
526.043	16163.2
526.409	16284.78
526.776	16375.18
527.142	16463.99
527.508	16599.35
527.874	16781.04
528.241	16861.94
528.607	16887.71
528.973	17007.93
529.339	17166.12
529.705	17244.98
530.071	17418.77
530.437	17446.34
530.803	17528.82
531.169	17760
531.535	17726.55
531.901	17870.28
532.267	17877.96
532.632	18125.64
532.998	18035.02
533.364	18230.27
533.73	18267.78
534.095	18313.88
534.461	18495.12
534.826	18627.32
535.192	18664.38
535.557	18803.81
535.923	18704.38
536.288	18888.11
536.653	18953.41
537.019	18817.82
537.384	19000.87
537.749	19244.25
538.114	19187.98
538.479	19199.28
538.845	19371.48
539.21	19301.88
539.575	19442.44
539.94	19528.54
540.305	19704.58
540.67	19673.85
541.034	19825.03
541.399	19871.58
541.764	19988.64
542.129	19969.43
542.494	20004.69
542.858	20145.47
543.223	20187.96
543.587	20303.44
543.952	20314.51
544.316	20315.19
544.681	20295.75
545.045	20562.86
545.41	20570.77
545.774	20688.28
546.138	20704.78
546.503	20831.78
546.867	20750.65
547.231	21145.45
547.595	21077.65
547.959	21190.87
548.324	21271.09
548.688	21250.75
549.052	21346.57
549.416	21377.08
549.779	21386.57
550.143	21574.59
550.507	21667.69
550.871	21681.48
551.235	21720.12
551.599	21986.55
551.962	21935.03
552.326	22050.51
552.689	22169.6
553.053	22090.73
553.417	22152.65
553.78	22497.95
554.143	22340.9
554.507	22506.54
554.87	22524.85
555.234	22801.9
555.597	22681.68
555.96	22755.8
556.323	22825.4
556.686	22884.61
557.05	23131.61
557.413	23228.33
557.776	23273.98
558.139	23311.94
558.502	23464.03
558.865	23630.13
559.228	23656.57
559.59	23830.35
559.953	23837.35
560.316	24032.6
560.679	24046.16
561.041	24324.8
561.404	24405.47
561.767	24620.84
562.129	24393.95
562.492	24721.85
562.854	24730.21
563.217	24753.04
563.579	24915.07
563.941	25037.32
564.304	25114.16
564.666	25355.05
565.028	25276.64
565.39	25549.62
565.753	25556.4
566.115	25741.48
566.477	25821.71
566.839	25953
567.201	26087.46
567.563	26066.22
567.925	26228.03
568.287	26277.06
568.648	26384.86
569.01	26624.4
569.372	26655.81
569.734	26549.37
570.095	26848.35
570.457	26940.1
570.819	26972.19
571.18	27004.95
571.542	27089.02
571.903	27112.97
572.265	27333.31
572.626	27319.52
572.987	27465.96
573.349	27545.05
573.71	27593.86
574.071	27673.86
574.432	27858.49
574.794	27961.76
575.155	27921.09
575.516	27903.69
575.877	27944.59
576.238	28065.26
576.599	28152.72
576.96	28152.72
577.32	28244.47
577.681	28401.3
578.042	28425.93
578.403	28427.52
578.763	28383.9
579.124	28461.64
579.485	28649.66
579.845	28649.2
580.206	28628.41
580.566	28729.88
580.927	28717.68
581.287	28916.77
581.648	28740.28
582.008	28844.23
582.368	28773.95
582.728	29035.86
583.089	28826.15
583.449	28844.68
583.809	28885.36
584.169	28855.53
584.529	28778.69
584.889	29126.48
585.249	28995.41
585.609	28931.46
585.969	29085.8
586.329	29032.25
586.688	29032.92
587.048	29071.57
587.408	28954.28
587.768	28989.76
588.127	28928.75
588.487	28909.54
588.846	29110.66
589.206	28884.9
589.565	29098.68
589.925	29033.15
590.284	29003.32
590.643	29030.89
591.003	29051.68
591.362	29174.39
591.721	29006.94
592.08	29108.18
592.44	29245.12
592.799	29234.05
593.158	29134.62
593.517	29062.07
593.876	29238.34
594.235	29134.62
594.593	29190.21
594.952	29211.45
595.311	29153.15
595.67	29143.65
596.029	29473.82
596.387	29392.91
596.746	29458.22
597.104	29241.96
597.463	29247.15
597.822	29414.38
598.18	29257.32
598.538	29259.58
598.897	29472.46
599.255	29235.86
599.613	29711.1
599.972	29472.01
600.33	29524.21
600.688	29556.3
601.046	29516.53
601.404	29743.64
601.762	29595.17
602.12	29870.19
602.478	29787.25
602.836	29815.73
603.194	29563.3
603.552	29674.49
603.91	29724.43
604.268	29685.11
604.625	29702.06
604.983	29935.27
605.341	29634.49
605.698	29868.38
606.056	29929.85
606.413	29918.32
606.771	30025.89
607.128	30097.75
607.485	30019.79
607.843	29966.91
608.2	30068.15
608.557	30297.97
608.914	30123.97
609.272	30214.81
609.629	30260.24
609.986	30388.82
610.343	30218.43
610.7	30431.08
611.057	30307.69
611.414	30454.35
611.771	30391.31
612.127	30490.96
612.484	30582.94
612.841	30570.96
613.198	30461.36
613.554	30549.04
613.911	30730.28
614.267	30602.83
614.624	30580
614.98	30648.7
615.337	30814.57
615.693	30662.26
616.05	30675.82
616.406	30879.65
616.762	30796.04
617.118	30793.78
617.475	30697.96
617.831	30925.53
618.187	30978.41
618.543	30819.32
618.899	31103.83
619.255	31018.18
619.611	31041.23
619.967	31164.39
620.323	31075.36
620.678	30965.98
621.034	30892.31
621.39	31065.19
621.746	31002.59
622.101	31278.51
622.457	30927.11
622.812	31058.63
623.168	31182.92
623.523	31152.87
623.879	31231.51
624.234	30979.31
624.589	31072.42
624.945	31153.32
625.3	31192.19
625.655	31106.09
626.01	31077.16
626.365	31172.08
626.72	31087.11
627.075	31196.71
627.43	31080.1
627.785	30982.93
628.14	31031.06
628.495	31033.32
628.85	31094.11
629.205	31098.86
629.559	31154.68
629.914	31106.54
630.269	31054.11
630.623	30864.51
630.978	30778.41
631.332	30933.89
631.687	31040.1
632.041	30799.2
632.396	30905.19
632.75	30662.94
633.104	30752.88
633.459	30522.15
633.813	30681.69
634.167	30624.75
634.521	30590.62
634.875	30607.57
635.229	30486.44
635.583	30388.82
635.937	30438.08
636.291	30371.64
636.645	30342.95
636.999	30280.57
637.352	30457.07
637.706	30203.51
638.06	30213.68
638.413	30157.64
638.767	30081.71
639.121	30198.77
639.474	30003.29
639.828	29965.1
640.181	30025.44
640.534	30138.43
640.888	29968.94
641.241	29921.49
641.594	29732.57
641.947	29774.15
642.301	29872.67
642.654	29886.01
643.007	29622.51
643.36	29707.71
643.713	29682.62
644.066	29827.25
644.419	29755.16
644.771	29467.71
645.124	29133.94
645.477	28990.44
645.83	28834.74
646.182	28806.94
646.535	28607.17
646.888	28696.89
647.24	28494.63
647.593	28745.25
647.945	28693.5
648.298	28432.03
648.65	28306.16
649.002	28316.78
649.355	28349.33
649.707	28272.04
650.059	28514.74
650.411	28809.2
650.763	28914.96
651.115	29064.33
651.467	29068.4
651.819	28992.02
652.171	28940.5
652.523	28896.43
652.875	28835.64
653.227	28623.22
653.578	28893.72
653.93	28760.39
654.282	28810.33
654.633	28569.88
654.985	28609.21
655.337	28601.75
655.688	28545.7
656.039	28693.04
656.391	28424.58
656.742	28496.89
657.094	28521.52
657.445	28506.38
657.796	28529.21
658.147	28504.12
658.498	28472.03
658.849	28446.05
659.2	28353.17
659.551	28218.48
659.902	28293.73
660.253	28338.7
660.604	28436.1
660.955	28284.69
661.306	28366.95
661.656	28143
662.007	28327.63
662.358	28298.03
662.708	28299.83
663.059	28232.94
663.409	28011.03
663.76	28276.33
664.11	28187.52
664.461	28136
664.811	28220.29
665.161	28076.79
665.511	27999.28
665.862	28029.56
666.212	28195.2
666.562	28179.39
666.912	28008.09
667.262	28009
667.612	28145.49
667.962	27995.44
668.312	27868.21
668.662	28063.68
669.011	28034.53
669.361	28044.47
669.711	28076.79
670.06	27970.35
670.41	27936.68
670.76	27813.52
671.109	27976
671.459	27879.73
671.808	27867.76
672.157	27882.22
672.507	27504.15
672.856	27620.76
673.205	27663.92
673.554	27831.37
673.904	27629.34
674.253	27813.07
674.602	27694.2
674.951	27300.77
675.3	27200.43
675.649	27500.53
675.998	27560.87
676.346	27621.66
676.695	27588.89
677.044	27420.54
677.393	27506.41
677.741	27584.6
678.09	27494.88
678.438	27399.52
678.787	27409.91
679.135	27455.34
679.484	27155.68
679.832	27331.27
680.181	27087.89
680.529	27254.44
680.877	27055.8
681.225	27041.34
681.573	27336.92
681.922	27070.71
682.27	27018.51
682.618	27066.65
682.966	26898.74
683.314	27021.22
683.661	26938.06
684.009	26749.37
684.357	26745.53
684.705	26693.1
685.053	26700.1
685.4	26581.91
685.748	26517.28
686.095	26488.81
686.443	26388.02
686.79	26249.72
687.138	26458.98
687.485	26351.19
687.832	26223.28
688.18	26222.15
688.527	26094.24
688.874	26113.9
689.221	26009.73
689.568	26035.71
689.915	25867.36
690.262	25991.87
690.609	25858.32
690.956	25746.91
691.303	25646.35
691.65	25469.63
691.997	25590.08
692.344	25431.89
692.69	25318.44
693.037	25353.7
693.383	25154.38
693.73	25204.32
694.077	25135.85
694.423	25083.42
694.769	24966.36
695.116	24868.06
695.462	24857.21
695.808	24656.31
696.155	24853.15
696.501	24688.4
696.847	24599.37
697.193	24344.68
697.539	24633.04
697.885	24377.23
698.231	24245.25
698.577	24222.2
698.923	24247.06
699.269	24176.33
699.614	24074.64
699.96	24021.98
700.306	23952.83
700.651	23879.39
700.997	23791.25
701.342	23693.4
701.688	23753.74
702.033	23603.24
702.379	23579.06
702.724	23451.6
703.069	23603.01
703.415	23337.48
703.76	23390.36
704.105	23306.52
704.45	23281.89
704.795	23168.44
705.14	23128.9
705.485	23110.82
705.83	22960.99
706.175	23010.71
706.52	22913.54
706.865	22886.19
707.209	22852.29
707.554	22764.39
707.899	22795.8
708.243	22619.76
708.588	22553.55
708.932	22418.63
709.277	22434.9
709.621	22449.82
709.966	22256.83
710.31	22293.21
710.654	22081.24
710.998	22077.17
711.342	22137.74
711.687	22120.79
712.031	21973
712.375	21897.07
712.719	21945.43
713.063	21961.47
713.407	21925.09
713.75	21810.97
714.094	21904.52
714.438	21654.13
714.782	21655.04
715.125	21464.08
715.469	21591.99
715.812	21560.13
716.156	21420.02
716.499	21401.49
716.843	21559
717.186	21326.01
717.53	21356.51
717.873	21374.82
718.216	21197.2
718.559	21179.57
718.902	21082.62
719.246	21169.18
719.589	21008.73
719.932	20990.2
720.275	20906.36
720.617	20937.32
720.96	20924.89
721.303	20875.85
721.646	20839.47
721.989	20706.36
722.331	20704.33
722.674	20707.27
723.016	20674.27
723.359	20563.77
723.701	20576.2
724.044	20552.69
724.386	20470.89
724.729	20452.13
725.071	20378.69
725.413	20360.16
725.755	20331
726.097	20283.32
726.439	20246.26
726.782	20268.63
727.124	20329.2
727.465	20151.35
727.807	20134.63
728.149	20157.45
728.491	20164
728.833	20164.46
729.175	19993.61
729.516	19904.58
729.858	19943.9
730.199	19936.21
730.541	19912.48
730.882	19866.38
731.224	19912.48
731.565	19766.5
731.906	19754.97
732.248	19784.35
732.589	19686.5
732.93	19578.48
733.271	19602.89
733.612	19508.88
733.953	19625.49
734.294	19501.2
734.635	19437.24
734.976	19496.68
735.317	19324.7
735.658	19360.18
735.999	19274.31
736.339	19316.79
736.68	19290.81
737.021	19214.65
737.361	19180.3
737.702	19266.17
738.042	19107.31
738.383	19151.6
738.723	19255.55
739.063	19139.17
739.404	19083.81
739.744	19019.18
740.084	19007.65
740.424	19118.61
740.764	18942.34
741.104	18999.51
741.444	18933.53
741.784	18791.61
742.124	18876.35
742.464	18896.47
742.804	18757.94
743.143	18769.24
743.483	18705.29
743.823	18640.88
744.162	18606.98
744.502	18675.46
744.841	18507.78
745.181	18590.26
745.52	18526.53
745.86	18498.96
746.199	18423.94
746.538	18409.02
746.877	18533.99
747.216	18355.46
747.556	18438.17
747.895	18316.14
748.234	18312.08
748.573	18266.88
748.911	18212.42
749.25	18132.87
749.589	18061.01
749.928	18113.21
750.267	18146.43
750.605	18091.52
750.944	17991.18
751.283	17903.5
751.621	18031.86
751.96	17752.54
752.298	17792.54
752.636	17886.78
752.975	17703.96
753.313	17744.18
753.651	17753.9
753.989	17647.23
754.327	17632.09
754.666	17603.62
755.004	17558.87
755.342	17538.76
755.679	17481.81
756.017	17329.95
756.355	17476.16
756.693	17401.14
757.031	17333.34
757.368	17306.68
757.706	17176.29
758.044	17237.53
758.381	17158.66
758.719	17115.04
759.056	17260.35
759.394	16967.48
759.731	16979.45
760.068	16893.36
760.405	16894.03
760.743	16765.45
761.08	16829.63
761.417	16709.18
761.754	16690.87
762.091	16658.11
762.428	16625.57
762.765	16490.43
763.102	16457.89
763.438	16450.2
763.775	16341.73
764.112	16399.58
764.449	16411.33
764.785	16234.84
765.122	16212.47
765.458	16035.98
765.795	16108.97
766.131	16076.88
766.467	16088.18
766.804	15932.02
767.14	15763.89
767.476	15826.26
767.812	15713.95
768.148	15725.25
768.485	15595.76
768.821	15534.29
769.157	15518.93
769.492	15621.3
769.828	15479.16
770.164	15407.52
770.5	15325.49
770.836	15236.9
771.171	15254.98
771.507	15277.58
771.842	15111.71
772.178	15138.15
772.513	15049.79
772.849	15015.21
773.184	14967.76
773.519	14856.8
773.855	14878.72
774.19	14804.14
774.525	14691.61
774.86	14764.82
775.195	14664.04
775.53	14598.5
775.865	14507.88
776.2	14489.58
776.535	14391.95
776.87	14479.63
777.205	14309.47
777.539	14253.2
777.874	14330.94
778.209	14177.95
778.543	14161.45
778.878	14057.27
779.212	14073.09
779.547	13909.25
779.881	14049.14
780.215	13787.67
780.55	13869.71
780.884	13768.92
781.218	13697.51
781.552	13713.78
781.886	13620.45
782.22	13623.84
782.554	13527.57
782.888	13518.08
783.222	13327.12
783.556	13302.94
783.889	13159.22
784.223	13193.34
784.557	13127.35
784.89	13238.31
785.224	13120.35
785.557	12980.69
785.891	13023.63
786.224	12953.8
786.558	12858.66
786.891	12787.7
787.224	12790.41
787.557	12799.23
787.891	12694.37
788.224	12710.41
788.557	12656.4
788.89	12600.13
789.223	12613.02
789.556	12468.16
789.888	12478.56
790.221	12499.57
790.554	12411.44
790.887	12370.54
791.219	12333.93
791.552	12259.35
791.884	12247.38
792.217	12157.21
792.549	12121.28
792.882	12009.64
793.214	11989.53
793.546	12081.05
793.879	11924.45
794.211	11827.73
794.543	11896.2
794.875	11755.19
795.207	11920.15
795.539	11735.52
795.871	11757.22
796.203	11695.98
796.535	11632.25
796.867	11655.3
797.198	11506.38
797.53	11495.08
797.862	11447.85
798.193	11486.49
798.525	11429.77
798.856	11472.25
799.188	11280.62
799.519	11251.47
799.85	11189.32
800.182	11282.66
800.513	11165.6
800.844	11138.03
801.175	11143.22
801.506	11067.97
801.837	11076.11
802.168	11051.02
802.499	11060.97
802.83	10951.59
803.161	10954.3
803.491	10870.01
803.822	10902.78
804.153	10872.95
804.483	10743.69
804.814	10773.06
805.145	10713.18
805.475	10682.45
805.805	10672.73
806.136	10710.02
806.466	10638.38
806.796	10615.78
807.126	10493.98
807.457	10543.01
807.787	10489.91
808.117	10429.57
808.447	10459.4
808.777	10389.12
809.107	10367.88
809.436	10387.76
809.766	10308.9
810.096	10380.76
810.426	10259.86
810.755	10278.61
811.085	10233.19
811.414	10205.62
811.744	10181.44
812.073	10166.75
812.403	10170.59
812.732	10038.17
813.061	10070.94
813.39	9948
813.719	9968.57
814.049	10013.08
814.378	9947.1
814.707	9888.34
815.036	9955.01
815.365	9848.34
815.693	9733.77
816.022	9819.19
816.351	9751.17
816.68	9739.87
817.008	9765.63
817.337	9706.43
817.665	9648.8
817.994	9697.16
818.322	9625.98
818.651	9567.45
818.979	9538.97
819.307	9610.38
819.636	9581.23
819.964	9501.46
820.292	9573.32
820.62	9560.44
820.948	9548.46
821.276	9542.59
821.604	9430.5
821.932	9543.27
822.259	9519.76
822.587	9470.05
822.915	9457.17
823.243	9461.46
823.57	9419.65
823.898	9426.66
824.225	9413.1
824.553	9459.88
824.88	9453.32
825.207	9414.46
825.535	9456.26
825.862	9458.97
826.189	9431.86
826.516	9512.98
826.843	9450.16
827.17	9443.16
827.497	9453.55
827.824	9426.88
828.151	9430.95
828.478	9401.12
828.805	9444.74
829.131	9375.13
829.458	9358.86
829.785	9383.27
830.111	9376.49
830.438	9392.54
830.764	9404.96
831.09	9390.95
831.417	9367.23
831.743	9391.63
832.069	9355.93
832.395	9355.47
832.722	9298.07
833.048	9343.5
833.374	9378.75
833.7	9282.93
834.026	9323.16
834.351	9378.52
834.677	9362.93
835.003	9316.83
835.329	9351.41
835.654	9298.53
835.98	9269.83
836.306	9199.77
836.631	9182.15
836.956	9162.03
837.282	9249.71
837.607	9213.33
837.932	9170.17
838.258	9189.6
838.583	9148.02
838.908	9117.97
839.233	9169.04
839.558	9162.03
839.883	9057.18
840.208	9020.34
840.533	9072.32
840.858	9021.25
841.182	9051.75
841.507	9009.95
841.832	9015.14
842.156	8940.57
842.481	8913.45
842.805	8917.29
843.13	8934.24
843.454	8915.94
843.778	8816.96
844.103	8835.94
844.427	8778.54
844.751	8748.94
845.075	8772.44
845.399	8729.05
845.723	8760.91
846.047	8746.45
846.371	8651.09
846.695	8597.08
847.019	8570.64
847.343	8575.38
847.666	8439.11
847.99	8476.18
848.313	8420.13
848.637	8379.68
848.96	8366.8
849.284	8392.79
849.607	8313.92
849.931	8283.19
850.254	8199.35
850.577	8141.72
850.9	8099.91
851.223	8112.8
851.546	8052.01
851.869	8043.64
852.192	8088.39
852.515	8032.35
852.838	7961.84
853.161	7962.74
853.483	7907.15
853.806	7883.65
854.129	7882.52
854.451	7870.09
854.774	7848.4
855.096	7815.63
855.419	7836.64
855.741	7772.92
856.063	7681.39
856.385	7697.44
856.708	7652.69
857.03	7659.7
857.352	7649.3
857.674	7603.2
857.996	7580.83
858.318	7575.86
858.64	7538.8
858.961	7484.11
859.283	7505.13
859.605	7446.15
859.926	7419.71
860.248	7449.99
860.57	7410.67
860.891	7432.81
861.212	7333.15
861.534	7315.75
861.855	7338.35
862.176	7342.87
862.498	7351.91
862.819	7356.43
863.14	7325.25
863.461	7274.17
863.782	7296.32
864.103	7270.56
864.424	7211.12
864.745	7230.56
865.065	7203.44
865.386	7210.22
865.707	7200.28
866.027	7147.62
866.348	7195.31
866.668	7143.56
866.989	7148.3
867.309	7077.57
867.63	7132.03
867.95	7045.93
868.27	7038.93
868.59	7054.07
868.91	7001.64
869.23	7002.77
869.55	7008.87
869.87	7073.05
870.19	7030.11
870.51	7016.55
870.83	7036.89
871.15	6976.78
871.469	6969.32
871.789	6944.46
872.109	6938.59
872.428	6908.08
872.748	6939.72
873.067	6946.72
873.386	6914.86
873.706	6866.73
874.025	6870.34
874.344	6846.84
874.663	6863.56
874.982	6825.15
875.301	6821.98
875.62	6826.05
875.939	6784.69
876.258	6813.17
876.577	6786.95
876.896	6787.41
877.214	6734.3
877.533	6758.03
877.852	6768.88
878.17	6734.98
878.489	6695.43
878.807	6712.61
879.125	6688.2
879.444	6681.87
879.762	6717.58
880.08	6681.19
880.398	6648.65
880.716	6658.37
881.034	6644.59
881.352	6580.63
881.67	6584.02
881.988	6625.15
882.306	6553.29
882.624	6552.84
882.941	6576.56
883.259	6470.8
883.577	6476.23
883.894	6502.22
884.212	6470.8
884.529	6452.05
884.846	6477.81
885.164	6455.44
885.481	6429.68
885.798	6391.71
886.115	6352.84
886.432	6364.82
886.75	6354.42
887.067	6374.54
887.383	6326.18
887.7	6355.33
888.017	6326.85
888.334	6352.39
888.651	6326.63
888.967	6307.87
889.284	6230.81
889.6	6226.52
889.917	6158.04
890.233	6149.46
890.55	6191.04
890.866	6130.02
891.182	6180.42
891.498	6107.42
891.815	6077.82
892.131	6056.13
892.447	6071.27
892.763	5967.31
893.079	6039.4
893.395	6048.67
893.71	5982.23
894.026	5923.7
894.342	5948.33
894.657	5926.41
894.973	5899.07
895.289	5888.45
895.604	5931.16
895.92	5829.69
896.235	5822.01
896.55	5844.38
896.865	5807.32
897.181	5787.21
897.496	5751.28
897.811	5772.74
898.126	5692.97
898.441	5716.25
898.756	5664.05
899.071	5695.01
899.386	5640.77
899.7	5632.86
900.015	5586.99
900.33	5539.98
900.644	5554.9
900.959	5542.69
901.273	5552.64
901.588	5457.95
901.902	5471.06
902.216	5444.39
902.531	5504.95
902.845	5454.79
903.159	5382.7
903.473	5412.98
903.787	5398.74
904.101	5337.95
904.415	5315.81
904.729	5313.77
905.042	5283.49
905.356	5268.58
905.67	5271.74
905.984	5260.44
906.297	5247.11
906.611	5179.76
906.924	5214.57
907.237	5161.23
907.551	5170.05
907.864	5149.03
908.177	5100.67
908.491	5106.77
908.804	5081.91
909.117	5056.6
909.43	4993.56
909.743	4976.38
910.056	5021.35
910.368	4942.71
910.681	4975.48
910.994	4891.86
911.307	4939.77
911.619	4855.25
911.932	4876.27
912.244	4841.47
912.557	4859.77
912.869	4796.5
913.181	4789.49
913.494	4777.29
913.806	4766.89
914.118	4752.66
914.43	4738.87
914.742	4698.87
915.054	4694.35
915.366	4651.87
915.678	4672.43
915.99	4650.29
916.302	4610.06
916.613	4607.35
916.925	4586.79
917.236	4557.18
917.548	4529.84
917.859	4546.34
918.171	4496.17
918.482	4491.42
918.794	4486.22
919.105	4475.38
919.416	4430.86
919.727	4417.07
920.038	4418.66
920.349	4370.97
920.66	4361.03
920.971	4346.11
921.282	4315.61
921.593	4341.59
921.903	4286.23
922.214	4296.85
922.525	4270.64
922.835	4234.93
923.146	4180.24
923.456	4222.95
923.767	4189.73
924.077	4198.1
924.387	4198.32
924.697	4142.28
925.008	4137.08
925.318	4123.07
925.628	4112.67
925.938	4054.82
926.248	4073.35
926.558	4046.69
926.867	4063.64
927.177	4007.59
927.487	3993.81
927.796	3994.94
928.106	3919.01
928.416	3933.24
928.725	3896.41
929.034	3931.21
929.344	3925.56
929.653	3876.07
929.962	3871.32
930.271	3842.17
930.581	3811.67
930.89	3801.95
931.199	3780.71
931.508	3818.44
931.817	3797.2
932.125	3741.38
932.434	3760.37
932.743	3724.44
933.051	3701.39
933.36	3634.04
933.669	3667.71
933.977	3613.03
934.286	3653.03
934.594	3635.4
934.902	3617.32
935.21	3589.3
935.519	3610.54
935.827	3582.07
936.135	3549.53
936.443	3536.87
936.751	3519.47
937.059	3493.26
937.367	3481.5
937.674	3481.96
937.982	3467.27
938.29	3468.17
938.597	3491.45
938.905	3408.96
939.213	3362.19
939.52	3395.86
939.827	3408.74
940.135	3358.12
940.442	3383.43
940.749	3382.52
941.056	3322.19
941.363	3304.79
941.67	3286.71
941.977	3286.03
942.284	3259.36
942.591	3260.72
942.898	3223.66
943.205	3259.36
943.511	3235.18
943.818	3234.73
944.125	3183.21
944.431	3220.04
944.738	3219.36
945.044	3173.26
945.35	3131.01
945.657	3130.55
945.963	3100.95
946.269	3084.68
946.575	3109.54
946.881	3085.36
947.187	3090.1
947.493	3072.25
947.799	3080.61
948.105	3011.69
948.41	2986.38
948.716	2971.01
949.022	3004.23
949.327	2956.32
949.633	2948.41
949.938	2957.45
950.244	2938.24
950.549	2910.67
950.854	2899.37
951.16	2908.41
951.465	2918.13
951.77	2914.06
952.075	2856.21
952.38	2870.9
952.685	2844.46
952.99	2851.01
953.294	2829.32
953.599	2811.69
953.904	2830.9
954.209	2773.27
954.513	2804.91
954.818	2786.38
955.122	2750
955.426	2719.04
955.731	2731.24
956.035	2705.48
956.339	2737.34
956.643	2704.58
956.948	2706.61
957.252	2679.72
957.556	2679.27
957.86	2651.47
958.163	2632.71
958.467	2647.18
958.771	2641.3
959.075	2608.76
959.378	2566.5
959.682	2589.78
959.985	2585.03
960.289	2571.7
960.592	2575.77
960.896	2560.17
961.199	2535.77
961.502	2536.9
961.805	2544.13
962.108	2482.89
962.411	2504.13
962.714	2468.65
963.017	2467.75
963.32	2476.56
963.623	2462.77
963.926	2418.93
964.228	2419.61
964.531	2442.21
964.833	2430.46
965.136	2377.13
965.438	2400.4
965.741	2381.19
966.043	2376.45
966.345	2373.06
966.648	2369.22
966.95	2357.47
967.252	2354.08
967.554	2344.59
967.856	2323.57
968.158	2322.44
968.46	2293.74
968.761	2319.28
969.063	2306.85
969.365	2280.86
969.666	2246.28
969.968	2274.98
970.269	2215.78
970.571	2278.6
970.872	2234.76
971.174	2221.88
971.475	2242.22
971.776	2215.32
972.077	2204.7
972.378	2186.85
972.679	2155.89
972.98	2166.28
973.281	2133.74
973.582	2176.45
973.883	2136.68
974.183	2122.9
974.484	2110.02
974.785	2112.73
975.085	2113.86
975.386	2121.54
975.686	2101.2
975.986	2082.22
976.287	2050.13
976.587	2043.8
976.887	2058.94
977.187	2071.82
977.487	2014.65
977.787	2039.73
978.087	2012.62
978.387	2006.97
978.687	2033.18
978.987	2012.62
979.286	1974.2
979.586	1974.43
979.885	1976.91
980.185	1937.14
980.484	1939.85
980.784	1946.4
981.083	1931.49
981.382	1930.13
981.682	1916.57
981.981	1932.62
982.28	1920.87
982.579	1889
982.878	1872.73
983.177	1881.77
983.475	1875.67
983.774	1862.34
984.073	1858.04
984.372	1836.35
984.67	1832.06
984.969	1812.17
985.267	1856.24
985.566	1824.37
985.864	1833.19
986.162	1817.14
986.461	1790.93
986.759	1787.31
987.057	1772.62
987.355	1790.7
987.653	1792.06
987.951	1770.82
988.249	1764.26
988.547	1761.78
988.844	1737.37
989.142	1752.06
989.44	1733.75
989.737	1714.77
990.035	1692.62
990.332	1676.58
990.63	1736.47
990.927	1720.42
991.224	1683.81
991.521	1690.37
991.819	1702.34
992.116	1665.73
992.413	1632.51
992.71	1641.1
993.006	1639.97
993.303	1655.56
993.6	1614.43
993.897	1623.47
994.193	1615.34
994.49	1610.14
994.787	1601.78
995.083	1591.61
995.379	1564.94
995.676	1580.76
995.972	1557.26
996.268	1575.34
996.565	1554.78
996.861	1547.09
997.157	1550.03
997.453	1525.85
997.749	1517.49
998.044	1520.65
998.34	1512.06
998.636	1528.79
998.932	1476.36
999.227	1448.11
999.523	1451.5
999.818	1479.52
1000.114	1484.49
1000.409	1461.22
1000.704	1471.84
1001	1485.62
1001.295	1432.07
1001.59	1451.28
1001.885	1425.29
1002.18	1429.58
1002.475	1430.71
1002.77	1417.15
1003.065	1410.6
1003.359	1418.28
1003.654	1374.22
1003.949	1376.93
1004.243	1359.53
1004.538	1364.72
1004.832	1364.95
1005.127	1361.11
1005.421	1354.33
1005.715	1362.24
1006.009	1336.25
1006.304	1338.51
1006.598	1322.01
1006.892	1311.17
1007.186	1298.74
1007.48	1305.29
1007.773	1278.62
1008.067	1311.17
1008.361	1266.87
1008.655	1280.43
1008.948	1265.07
1009.242	1281.11
1009.535	1262.58
1009.829	1252.41
1010.122	1265.29
1010.415	1241.56
1010.708	1235.91
1011.001	1227.78
1011.295	1206.31
1011.588	1232.07
1011.881	1172.19
1012.173	1184.84
1012.466	1192.98
1012.759	1203.37
1013.052	1187.55
1013.344	1168.34
1013.637	1202.02
1013.93	1159.98
1014.222	1158.18
1014.514	1141.68
1014.807	1125.18
1015.099	1143.26
1015.391	1146.42
1015.683	1117.72
1015.976	1101
1016.268	1113.43
1016.56	1108.46
1016.851	1110.95
1017.143	1081.57
1017.435	1103.94
1017.727	1075.47
1018.018	1078.86
1018.31	1063.26
1018.602	1078.86
1018.893	1055.81
1019.185	1042.02
1019.476	1053.77
1019.767	1063.04
1020.058	1052.87
1020.35	1014.9
1020.641	1024.62
1020.932	1024.17
1021.223	1000.89
1021.514	1017.61
1021.804	1009.25
1022.095	978.07
1022.386	991.17
1022.677	983.27
1022.967	1007.45
1023.258	973.32
1023.548	966.32
1023.839	979.2
1024.129	964.06
1024.419	956.15
1024.709	942.59
1025	930.61
1025.29	950.72
1025.58	942.14
1025.87	908.46
1026.16	934.9
1026.449	912.76
1026.739	921.35
1027.029	923.15
1027.319	894
1027.608	877.05
1027.898	926.09
1028.187	887
1028.477	897.17
1028.766	865.08
1029.055	854.68
1029.344	892.42
1029.634	876.83
1029.923	834.79
1030.212	879.99
1030.501	860.56
1030.79	852.87
1031.078	832.31
1031.367	833.66
1031.656	823.27
1031.945	822.82
1032.233	844.96
1032.522	803.83
1032.81	835.92
1033.099	795.93
1033.387	795.7
1033.675	777.85
1033.963	807.45
1034.251	779.65
1034.54	779.65
1034.828	780.11
1035.116	788.02
1035.403	763.38
1035.691	758.86
1035.979	758.64
1036.267	753.21
1036.554	754.34
1036.842	729.71
1037.129	755.47
1037.417	758.41
1037.704	731.29
1037.992	748.02
1038.279	719.32
1038.566	700.79
1038.853	700.79
1039.14	700.79
