Data from white_steel_sheet_FLMS001491_056.txt Node
Date: Tue Feb 07 10:58:05 GMT 2017
User: dcchb
Spectrometer: FLMS00149
Trigger mode: 0
Integration Time (sec): 2.000000E-2
Scans to average: 10
Electric dark correction enabled: true
Nonlinearity correction enabled: false
Boxcar width: 0
XAxis mode: Wavelengths
Number of Pixels in Spectrum: 2048
>>>>>Begin Spectral Data<<<<<
341.393	6.96
341.776	6.96
342.16	6.96
342.543	-70.32
342.927	-65.8
343.31	-63.77
343.693	-68.06
344.077	-58.35
344.46	-50.21
344.843	-62.87
345.226	-47.27
345.61	-35.3
345.993	-14.05
346.376	0.86
346.759	3.12
347.142	36.57
347.525	24.59
347.908	46.74
348.291	80.86
348.674	86.28
349.057	120.86
349.44	119.73
349.823	130.12
350.206	163.34
350.588	195.43
350.971	218.93
351.354	203.57
351.737	260.97
352.119	235.21
352.502	262.1
352.884	295.77
353.267	284.24
353.65	301.87
354.032	312.49
354.414	331.02
354.797	323.11
355.179	332.83
355.562	333.73
355.944	335.32
356.326	351.13
356.709	332.83
357.091	330.8
357.473	358.14
357.855	341.42
358.238	372.6
358.62	359.04
359.002	362.43
359.384	351.59
359.766	338.71
360.148	345.03
360.53	356.33
360.912	358.82
361.294	350.91
361.676	342.55
362.057	348.2
362.439	329.21
362.821	342.1
363.203	334.64
363.584	346.84
363.966	332.83
364.348	324.24
364.729	334.86
365.111	355.88
365.493	338.71
365.874	349.33
366.256	339.61
366.637	331.25
367.019	350
367.4	324.02
367.781	345.26
368.163	328.31
368.544	334.86
368.925	345.71
369.306	340.74
369.688	351.36
370.069	319.05
370.45	323.56
370.831	343.23
371.212	340.51
371.593	340.97
371.974	323.34
372.355	347.07
372.736	323.34
373.117	338.48
373.498	347.75
373.879	345.49
374.26	343.23
374.641	335.99
375.021	350.68
375.402	336.22
375.783	361.98
376.163	347.29
376.544	334.64
376.925	339.16
377.305	353.62
377.686	375.54
378.066	349.78
378.447	377.57
378.827	351.36
379.208	359.04
379.588	354.75
379.968	369.67
380.349	380.29
380.729	375.99
381.109	373.06
381.489	380.96
381.87	355.65
382.25	378.93
382.63	359.27
383.01	372.15
383.39	385.48
383.77	373.28
384.15	383.22
384.53	391.81
384.91	384.13
385.29	404.47
385.67	406.5
386.049	413.96
386.429	400.4
386.809	418.25
387.189	423
387.568	397.24
387.948	404.92
388.328	423
388.707	387.52
389.087	433.62
389.466	427.52
389.846	456.89
390.225	445.82
390.605	437.69
390.984	439.49
391.363	457.8
391.743	452.38
392.122	460.74
392.501	457.35
392.881	437.69
393.26	464.8
393.639	470.68
394.018	466.84
394.397	496.89
394.776	494.18
395.155	496.89
395.534	488.76
395.913	505.48
396.292	517.01
396.671	513.16
397.05	485.82
397.429	525.59
397.808	526.72
398.186	531.92
398.565	533.5
398.944	558.59
399.323	569.89
399.701	555.42
400.08	564.01
400.458	564.24
400.837	585.48
401.215	595.2
401.594	600.39
401.972	604.24
402.351	605.59
402.729	623.44
403.107	641.52
403.486	646.27
403.864	637
404.242	670
404.62	658.02
404.999	685.82
405.377	697.79
405.755	721.52
406.133	716.55
406.511	739.6
406.889	738.92
407.267	737.57
407.645	763.55
408.023	738.47
408.401	792.48
408.779	796.77
409.156	799.94
409.534	794.74
409.912	818.24
410.29	860.05
410.667	864.79
411.045	865.25
411.422	870.9
411.8	880.16
412.178	914.96
412.555	917.67
412.933	938.01
413.31	966.03
413.687	957.67
414.065	962.64
414.442	986.82
414.819	981.63
415.197	982.08
415.574	998.8
415.951	1046.94
416.328	1047.84
416.705	1048.52
417.082	1055.75
417.46	1093.94
417.837	1104.79
418.214	1110.89
418.591	1104.34
418.967	1105.24
419.344	1119.25
419.721	1122.41
420.098	1136.88
420.475	1163.99
420.852	1175.52
421.228	1188.4
421.605	1213.26
421.982	1198.12
422.358	1221.62
422.735	1255.29
423.111	1241.28
423.488	1257.55
423.864	1247.83
424.241	1283.54
424.617	1308.4
424.994	1328.96
425.37	1318.79
425.746	1357.44
426.123	1370.77
426.499	1361.96
426.875	1383.2
427.251	1423.42
427.627	1425.46
428.003	1439.69
428.379	1478.56
428.756	1445.57
429.132	1476.98
429.507	1549.97
429.883	1488.05
430.259	1569.86
430.635	1585.9
431.011	1582.97
431.387	1589.07
431.763	1676.3
432.138	1657.32
432.514	1697.09
432.89	1710.65
433.265	1730.53
433.641	1743.41
434.016	1746.8
434.392	1809.63
434.767	1801.49
435.143	1847.37
435.518	1867.48
435.894	1894.6
436.269	1891.21
436.644	1889.4
437.02	1951.09
437.395	1937.08
437.77	2013.69
438.145	2000.58
438.52	2029.73
438.895	2062.28
439.271	2079.22
439.646	2128.72
440.021	2117.19
440.395	2119.68
440.77	2132.1
441.145	2161.93
441.52	2199
441.895	2184.31
442.27	2174.59
442.645	2197.64
443.019	2254.81
443.394	2265.21
443.769	2273.57
444.143	2281.71
444.518	2299.78
444.892	2310.41
445.267	2324.64
445.641	2340.69
446.016	2393.34
446.39	2412.55
446.764	2409.61
447.139	2418.88
447.513	2471.98
447.887	2463.85
448.262	2502.49
448.636	2483.06
449.01	2529.61
449.384	2559.66
449.758	2558.99
450.132	2622.71
450.506	2590.85
450.88	2633.79
451.254	2657.29
451.628	2678.31
452.002	2734.57
452.376	2740.22
452.75	2751.07
453.123	2794.01
453.497	2842.14
453.871	2886.21
454.244	2902.03
454.618	2955.36
454.992	2976.6
455.365	2952.65
455.739	3058.86
456.112	3027
456.486	3089.82
456.859	3115.81
457.232	3151.97
457.606	3161.46
457.979	3227.22
458.352	3237.61
458.725	3373.65
459.099	3402.81
459.472	3410.49
459.845	3453.88
460.218	3473.54
460.591	3494.56
460.964	3530.94
461.337	3603.03
461.71	3647.77
462.083	3709.92
462.456	3717.6
462.829	3759.86
463.201	3804.83
463.574	3848.67
463.947	3863.58
464.32	3984.94
464.692	3985.84
465.065	4029
465.438	4088.89
465.81	4111.94
466.183	4157.59
466.555	4251.15
466.928	4314.42
467.3	4309
467.672	4379.5
468.045	4495.66
468.417	4479.39
468.789	4565.94
469.161	4596.45
469.534	4642.55
469.906	4828.53
470.278	4768.42
470.65	4880.28
471.022	4933.84
471.394	5002.54
471.766	5037.34
472.138	5112.14
472.51	5263.55
472.882	5301.06
473.253	5378.57
473.625	5471.23
473.997	5582.41
474.369	5574.5
474.74	5669.19
475.112	5761.39
475.484	5871.22
475.855	6007.71
476.227	5982.85
476.598	6173.13
476.97	6189.17
477.341	6362.95
477.713	6455.61
478.084	6485.89
478.455	6674.13
478.827	6774.24
479.198	6922.04
479.569	6902.15
479.94	7120.67
480.311	7250.39
480.682	7385.53
481.053	7461
481.424	7675.69
481.795	7721.79
482.166	7841.11
482.537	7978.05
482.908	8151.83
483.279	8206.97
483.65	8298.04
484.021	8539.62
484.391	8589.79
484.762	8614.65
485.133	8802.44
485.503	8905.71
485.874	9077.91
486.244	9194.74
486.615	9383.21
486.985	9489.2
487.356	9610.78
487.726	9697.78
488.097	9935.97
488.467	9997.43
488.837	10156.53
489.207	10271.55
489.578	10406.69
489.948	10444.65
490.318	10667.47
490.688	10673.8
491.058	10869.28
491.428	11013.91
491.798	11124.41
492.168	11376.61
492.538	11415.02
492.908	11567.56
493.278	11697.73
493.648	11735.47
494.017	11962.81
494.387	11982.24
494.757	12179.52
495.126	12237.6
495.496	12292.06
495.866	12421.55
496.235	12564.15
496.605	12709.68
496.974	12704.03
497.344	12893.63
497.713	12939.28
498.082	13138.14
498.452	13244.58
498.821	13263.56
499.19	13314.86
499.559	13531.81
499.928	13592.59
500.298	13701.74
500.667	13837.33
501.036	13817
501.405	13946.26
501.774	13993.04
502.143	14210.21
502.512	14212.47
502.88	14469.63
503.249	14498.79
503.618	14508.5
503.987	14581.72
504.356	14741.72
504.724	14799.79
505.093	14922.73
505.462	14972.45
505.83	15142.38
506.199	15251.99
506.567	15414.24
506.936	15415.6
507.304	15601.13
507.672	15706.21
508.041	15776.49
508.409	15948.24
508.777	16047.22
509.145	16167.67
509.514	16226.65
509.882	16395.01
510.25	16487.43
510.618	16514.1
510.986	16611.5
511.354	16834.32
511.722	17048.77
512.09	17154.53
512.458	17065.72
512.826	17276.34
513.193	17392.04
513.561	17425.49
513.929	17550
514.297	17866.61
514.664	17901.41
515.032	18041.07
515.4	18183.43
515.767	18273.6
516.135	18417.55
516.502	18281.28
516.869	18747.94
517.237	18766.47
517.604	18748.62
517.972	19076.97
518.339	19152.9
518.706	19288.72
519.073	19244.42
519.44	19503.63
519.808	19719.44
520.175	19751.3
520.542	20083.27
520.909	20165.3
521.276	20192.42
521.643	20376.15
522.009	20484.39
522.376	20728.23
522.743	20868.79
523.11	21077.82
523.477	21250.25
523.843	21350.81
524.21	21666.51
524.577	21765.71
524.943	21833.51
525.31	22042.99
525.676	22255.42
526.043	22394.17
526.409	22481.85
526.776	22801.84
527.142	22838.23
527.508	23005.23
527.874	23244.32
528.241	23329.51
528.607	23411.32
528.973	23547.81
529.339	23722.05
529.705	23973.79
530.071	24165.42
530.437	24152.99
530.803	24297.85
531.169	24526.54
531.535	24557.73
531.901	24543.49
532.267	24687.22
532.632	25016.25
532.998	24978.06
533.364	25243.81
533.73	25241.78
534.095	25545.05
534.461	25501.43
534.826	25704.37
535.192	25811.26
535.557	25911.37
535.923	25946.62
536.288	26115.2
536.653	26346.38
537.019	26297.12
537.384	26422.77
537.749	26529.88
538.114	26615.75
538.479	26739.14
538.845	26791.8
539.21	26773.26
539.575	26978.68
539.94	27108.4
540.305	27342.52
540.67	27259.35
541.034	27354.72
541.399	27546.35
541.764	27597.65
542.129	27683.3
542.494	27697.53
542.858	27905.21
543.223	27941.14
543.587	28150.86
543.952	28120.12
544.316	28270.85
544.681	28276.73
545.045	28510.39
545.41	28579.09
545.774	28640.33
546.138	28804.85
546.503	28839.65
546.867	28860.67
547.231	29091.62
547.595	29160.55
547.959	29221.79
548.324	29198.74
548.688	29377.04
549.052	29376.13
549.416	29539.29
549.779	29625.85
550.143	29665.39
550.507	29892.96
550.871	29985.16
551.235	29888.44
551.599	30266.05
551.962	30238.71
552.326	30398.71
552.689	30610.68
553.053	30541.08
553.417	30564.8
553.78	30876.89
554.143	30817.23
554.507	31081.63
554.87	31175.18
555.234	31372.24
555.597	31336.31
555.96	31447.04
556.323	31698.33
556.686	31623.31
557.05	31936.29
557.413	32122.05
557.776	32100.36
558.139	32254.7
558.502	32366.56
558.865	32553.45
559.228	32632.32
559.59	32772.43
559.953	32811.52
560.316	33247.67
560.679	33176.49
561.041	33411.28
561.404	33555.69
561.767	33837.49
562.129	33671.16
562.492	34084.03
562.854	34074.77
563.217	34197.7
563.579	34183.01
563.941	34428.88
564.304	34589.33
564.666	34790.23
565.028	34737.58
565.39	34965.37
565.753	35114.51
566.115	35275.41
566.477	35416.65
566.839	35599.02
567.201	35692.58
567.563	35820.71
567.925	35920.14
568.287	35977.77
568.648	36041.72
569.01	36295.73
569.372	36517.42
569.734	36272
570.095	36754.92
570.457	36742.27
570.819	36842.15
571.18	36984.97
571.542	37132.31
571.903	37186.78
572.265	37309.71
572.626	37341.35
572.987	37429.71
573.349	37587.9
573.71	37648.23
574.071	37702.7
574.432	37810.49
574.794	38187.2
575.155	38066.98
575.516	38028.11
575.877	38225.39
576.238	38190.37
576.599	38430.36
576.96	38376.58
577.32	38418.16
577.681	38428.78
578.042	38781.08
578.403	38541.32
578.763	38665.61
579.124	38847.98
579.485	38966.84
579.845	38788.99
580.206	38865.38
580.566	38901.99
580.927	38995.54
581.287	39116.67
581.648	38829.45
582.008	39082.55
582.368	38982.44
582.728	39176.78
583.089	39094.75
583.449	39038.93
583.809	39129.78
584.169	39154.86
584.529	39173.84
584.889	39418.58
585.249	39108.31
585.609	39155.09
585.969	39245.71
586.329	39136.1
586.688	39211.81
587.048	39213.16
587.408	39174.52
587.768	39165.71
588.127	39215.2
588.487	39195.31
588.846	39390.33
589.206	39006.62
589.565	39219.72
589.925	39362.54
590.284	39004.36
590.643	39152.37
591.003	39272.37
591.362	39395.31
591.721	39213.62
592.08	39233.5
592.44	39353.5
592.799	39375.42
593.158	39214.97
593.517	39226.95
593.876	39324.12
594.235	39306.04
594.593	39309.21
594.952	39556.21
595.311	39377.23
595.67	39386.27
596.029	39484.57
596.387	39579.71
596.746	39530.44
597.104	39406.38
597.463	39508.3
597.822	39547.39
598.18	39561.63
598.538	39361.41
598.897	39732.25
599.255	39343.78
599.613	39758.46
599.972	39548.52
600.33	39718.24
600.688	39358.24
601.046	39611.35
601.404	39830.55
601.762	39682.08
602.12	39786.03
602.478	39746.03
602.836	39866.93
603.194	39571.8
603.552	39671.68
603.91	39542.42
604.268	39817.89
604.625	39667.84
604.983	39804.79
605.341	39622.64
605.698	39875.97
606.056	39884.56
606.413	39813.37
606.771	40047.94
607.128	40023.09
607.485	39885.46
607.843	39907.61
608.2	40102.86
608.557	40303.08
608.914	40051.56
609.272	40216.75
609.629	40274.6
609.986	40424.21
610.343	40178.56
610.7	40543.3
611.057	40486.8
611.414	40387.6
611.771	40522.51
612.127	40609.96
612.484	40593.24
612.841	40861.26
613.198	40689.28
613.554	40634.82
613.911	40871.65
614.267	40966.79
614.624	40832.33
614.98	40968.37
615.337	41047.47
615.693	41039.78
616.05	41120.23
616.406	41262.38
616.762	41069.16
617.118	41005.66
617.475	41105.54
617.831	41245.43
618.187	41197.97
618.543	41275.26
618.899	41562.71
619.255	41337.63
619.611	41294.92
619.967	41437.06
620.323	41496.49
620.678	41437.51
621.034	41271.64
621.39	41355.48
621.746	41307.12
622.101	41773.55
622.457	41463.05
622.812	41636.15
623.168	41595.25
623.523	41588.69
623.879	41816.94
624.234	41403.61
624.589	41658.3
624.945	41658.98
625.3	41673.66
625.655	41524.06
626.01	41751.18
626.365	41624.63
626.72	41675.47
627.075	41529.04
627.43	41617.39
627.785	41519.54
628.14	41604.74
628.495	41567.68
628.85	41414.69
629.205	41324.75
629.559	41600.67
629.914	41510.73
630.269	41441.35
630.623	41327.46
630.978	41178.54
631.332	41322.03
631.687	41341.47
632.041	41140.8
632.396	41358.64
632.75	41214.69
633.104	41085.43
633.459	41007.92
633.813	41002.95
634.167	40946.23
634.521	41049.95
634.875	40949.39
635.229	40913.01
635.583	40814.93
635.937	40691.77
636.291	40714.59
636.645	40620.13
636.999	40562.96
637.352	40643.18
637.706	40310.76
638.06	40682.96
638.413	40571.09
638.767	40346.69
639.121	40446.58
639.474	40218.79
639.828	40224.44
640.181	40147.83
640.534	40258.33
640.888	40183.76
641.241	39892.47
641.594	40004.78
641.947	40048.4
642.301	39906.48
642.654	39923.88
643.007	39972.69
643.36	39838.68
643.713	39671
644.066	39760.49
644.419	39649.76
644.771	39417.45
645.124	38927.52
645.477	38994.64
645.83	38609.56
646.182	38516.01
646.535	38368.21
646.888	38608.43
647.24	38310.36
647.593	38456.35
647.945	38490.47
648.298	38238.05
648.65	38346.29
649.002	38172.29
649.355	38211.61
649.707	38041.9
650.059	38223.81
650.411	38683.91
650.763	38757.36
651.115	39072.6
651.467	38792.16
651.819	38878.94
652.171	38963.23
652.523	38653.18
652.875	38788.32
653.227	38692.73
653.578	38961.19
653.93	38830.12
654.282	38496.8
654.633	38503.8
654.985	38540.64
655.337	38570.92
655.688	38621.54
656.039	38617.93
656.391	38383.13
656.742	38417.25
657.094	38400.3
657.445	38506.06
657.796	38374.77
658.147	38406.86
658.498	38376.12
658.849	38412.28
659.2	38231.27
659.551	38121.67
659.902	38317.82
660.253	38221.33
660.604	38094.78
660.955	37848
661.306	37980.88
661.656	37921.67
662.007	37735.46
662.358	37699.53
662.708	37869.24
663.059	37778.17
663.409	37521.23
663.76	37771.39
664.11	37724.16
664.461	37615.92
664.811	37504.06
665.161	37438.3
665.511	37267
665.862	37427.22
666.212	37434
666.562	37454.57
666.912	37190.39
667.262	37087.12
667.612	37105.65
667.962	37040.11
668.312	36943.17
668.662	36957.18
669.011	36881.93
669.361	36583.18
669.711	36663.17
670.06	36490.75
670.41	36415.05
670.76	36368.27
671.109	36569.84
671.459	36323.52
671.808	36304.99
672.157	36205.56
672.507	35987.71
672.856	35914.04
673.205	35887.6
673.554	35973.02
673.904	35694.84
674.253	35873.59
674.602	35764.67
674.951	35233.38
675.3	35048.75
675.649	35558.34
675.998	35355.41
676.346	35421.85
676.695	35564.9
677.044	35274.51
677.393	35474.28
677.741	35431.34
678.09	35261.63
678.438	35165.59
678.787	35327.62
679.135	35281.29
679.484	35065.93
679.832	35240.84
680.181	35042.43
680.529	35191.57
680.877	35106.83
681.225	35013.27
681.573	35248.52
681.922	35084.46
682.27	35100.28
682.618	35090.33
682.966	34986.83
683.314	34961.3
683.661	34991.35
684.009	34791.81
684.357	34929.66
684.705	34935.76
685.053	34933.05
685.4	35006.95
685.748	34697.8
686.095	34810.57
686.443	34727.63
686.79	34842.43
687.138	34780.06
687.485	34926.72
687.832	34820.29
688.18	34899.15
688.527	34616.9
688.874	34876.33
689.221	34715.65
689.568	34591.14
689.915	34624.13
690.262	34465.27
690.609	34559.73
690.956	34488.99
691.303	34542.55
691.65	34454.64
691.997	34395.21
692.344	34253.29
692.69	34292.39
693.037	34280.41
693.383	34173.07
693.73	34147.53
694.077	34135.33
694.423	34141.21
694.769	34026.63
695.116	34032.51
695.462	34032.28
695.808	33962.45
696.155	34026.18
696.501	33623.25
696.847	33823.02
697.193	33469.13
697.539	33607.44
697.885	33496.25
698.231	33447.67
698.577	33443.37
698.923	33308.69
699.269	33180.55
699.614	32924.74
699.96	32989.15
700.306	32983.72
700.651	32837.29
700.997	32749.38
701.342	32715.03
701.688	32652.88
702.033	32645.43
702.379	32512.55
702.724	32380.12
703.069	32550.74
703.415	32151.65
703.76	32244.31
704.105	32229.84
704.45	32089.51
704.795	31943.98
705.14	32004.31
705.485	31829.86
705.83	31677.32
706.175	31673.48
706.52	31610.2
706.865	31611.1
707.209	31371.79
707.554	31435.29
707.899	31466.25
708.243	31346.03
708.588	31294.95
708.932	31039.59
709.277	31100.38
709.621	31153.26
709.966	30906.04
710.31	30913.04
710.654	30672.6
710.998	30728.64
711.342	30831.69
711.687	30612.71
712.031	30456.56
712.375	30399.16
712.719	30473.05
713.063	30308.31
713.407	30534.52
713.75	30271.48
714.094	30249.78
714.438	30047.98
714.782	30167.75
715.125	30096.57
715.469	30078.71
715.812	29986.29
716.156	29713.07
716.499	29678.05
716.843	29807.54
717.186	29572.06
717.53	29719.4
717.873	29553.08
718.216	29462.23
718.559	29465.85
718.902	29250.04
719.246	29436.92
719.589	29289.81
719.932	29095.92
720.275	29205.29
720.617	29121.23
720.96	28956.94
721.303	29016.37
721.646	28885.53
721.989	28839.88
722.331	28928.01
722.674	28776.83
723.016	28764.17
723.359	28730.05
723.701	28754.91
724.044	28570.51
724.386	28441.7
724.729	28460
725.071	28504.07
725.413	28445.99
725.755	28469.94
726.097	28416.61
726.439	28140.23
726.782	28278.31
727.124	28313.34
727.465	28211.87
727.807	28163.28
728.149	27987.24
728.491	28053.01
728.833	28054.14
729.175	28090.97
729.516	28045.1
729.858	27863.18
730.199	27906.57
730.541	27740.25
730.882	27695.27
731.224	27741.15
731.565	27475.85
731.906	27594.94
732.248	27516.07
732.589	27519.91
732.93	27386.81
733.271	27398.33
733.612	27475.39
733.953	27417.09
734.294	27307.04
734.635	27225.46
734.976	27347.49
735.317	27030.21
735.658	27228.17
735.999	27101.17
736.339	27078.12
736.68	27172.58
737.021	26999.02
737.361	26806.94
737.702	26963.54
738.042	26920.83
738.383	26782.08
738.723	26704.11
739.063	26652.14
739.404	26720.84
739.744	26689.65
740.084	26527.62
740.424	26699.82
740.764	26613.04
741.104	26649.2
741.444	26434.74
741.784	26321.3
742.124	26389.09
742.464	26378.25
742.804	26298.93
743.143	26252.6
743.483	26252.6
743.823	26126.95
744.162	26098.03
744.502	26117.91
744.841	25933.96
745.181	26125.37
745.52	25958.37
745.86	25999.5
746.199	26016.22
746.538	25796.34
746.877	25975.77
747.216	25761.77
747.556	25786.85
747.895	25772.39
748.234	25564.94
748.573	25539.4
748.911	25449.68
749.25	25511.15
749.589	25385.96
749.928	25389.8
750.267	25458.72
750.605	25288.11
750.944	25310.7
751.283	25119.3
751.621	25288.56
751.96	25070.71
752.298	24996.14
752.636	25042.01
752.975	25030.49
753.313	24808.12
753.651	25118.39
753.989	24717.05
754.327	24709.82
754.666	24567.22
755.004	24586.2
755.342	24527.9
755.679	24590.5
756.017	24400.67
756.355	24528.8
756.693	24269.83
757.031	24341.92
757.368	24218.08
757.706	24183.05
758.044	24060.79
758.381	24071.87
758.719	24020.79
759.056	23919.55
759.394	23952.1
759.731	23704.65
760.068	23643.63
760.405	23533.58
760.743	23433.69
761.08	23594.59
761.417	23371.09
761.754	23261.72
762.091	23382.39
762.428	23244.54
762.765	23151.89
763.102	23202.06
763.438	23012.23
763.775	22938.79
764.112	22997.32
764.449	22874.61
764.785	22814.72
765.122	22715.07
765.458	22607.5
765.795	22563.43
766.131	22543.32
766.467	22409.76
766.804	22310.11
767.14	22216.77
767.476	22185.59
767.812	22094.07
768.148	22130
768.485	21921.64
768.821	21847.07
769.157	21832.6
769.492	21808.65
769.828	21770.91
770.164	21513.29
770.5	21489.79
770.836	21489.34
771.171	21260.42
771.507	21365.95
771.842	21154.66
772.178	21140.64
772.513	20970.25
772.849	20969.12
773.184	20863.82
773.519	20833.99
773.855	20687.78
774.19	20702.24
774.525	20560.77
774.86	20602.13
775.195	20526.65
775.53	20496.37
775.865	20339.54
776.2	20226.77
776.535	20028.58
776.87	20126.21
777.205	19976.38
777.539	19952.43
777.874	20070.84
778.209	19798.53
778.543	19710.63
778.878	19534.13
779.212	19567.8
779.547	19502.95
779.881	19455.27
780.215	19321.03
780.55	19395.61
780.884	19147.93
781.218	19273.58
781.552	19197.64
781.886	19033.58
782.22	18959.91
782.554	18971.21
782.888	18783.19
783.222	18687.15
783.556	18703.19
783.889	18658.68
784.223	18473.37
784.557	18434.95
784.89	18517.44
785.224	18406.71
785.557	18239.48
785.891	18229.76
786.224	18140.05
786.558	18101.63
786.891	18022.99
787.224	17924.91
787.557	17904.35
787.891	17876.1
788.224	17834.74
788.557	17798.59
788.89	17730.34
789.223	17545.03
789.556	17597.46
789.888	17448.76
790.221	17477.24
790.554	17270.92
790.887	17332.61
791.219	17190.47
791.552	17129.68
791.884	17004.26
792.217	17006.52
792.549	16959.96
792.882	16963.13
793.214	16826.63
793.546	16802
793.879	16680.87
794.211	16536.02
794.543	16629.35
794.875	16533.76
795.207	16592.29
795.539	16400.43
795.871	16520.43
796.203	16370.6
796.535	16315.69
796.867	16213.54
797.198	16230.72
797.53	16095.58
797.862	16015.81
798.193	16092.42
798.525	15961.57
798.856	16052.87
799.188	15858.07
799.519	15715.02
799.85	15684.07
800.182	15685.65
800.513	15693.78
800.844	15623.95
801.175	15627.57
801.506	15656.27
801.837	15491.75
802.168	15414.24
802.499	15333.79
802.83	15304.41
803.161	15272.32
803.491	15278.2
803.822	15258.31
804.153	15130.18
804.483	15053.12
804.814	14948.04
805.145	15014.25
805.475	15032.56
805.805	14914.82
806.136	14849.06
806.466	14876.85
806.796	14753.92
807.126	14740.14
807.457	14645
807.787	14640.7
808.117	14595.51
808.447	14576.3
808.777	14546.69
809.107	14483.19
809.436	14445.45
809.766	14411.33
810.096	14373.82
810.426	14321.16
810.755	14360.48
811.085	14337.43
811.414	14253.59
811.744	14159.36
812.073	14114.84
812.403	14186.7
812.732	14062.41
813.061	14012.7
813.39	13975.18
813.719	13938.57
814.049	14063.54
814.378	13904.45
814.707	13849.76
815.036	13791.69
815.365	13781.97
815.693	13566.83
816.022	13697.45
816.351	13652.03
816.68	13591.01
817.008	13563.89
817.337	13376.56
817.665	13385.14
817.994	13470.79
818.322	13429.66
818.651	13364.58
818.979	13345.37
819.307	13435.08
819.636	13373.39
819.964	13227.18
820.292	13334.97
820.62	13300.62
820.948	13266.28
821.276	13219.5
821.604	13201.42
821.932	13250.68
822.259	13300.4
822.587	13190.8
822.915	13090.46
823.243	13166.17
823.57	13196.9
823.898	13136.79
824.225	13112.83
824.553	13062.67
824.88	13127.75
825.207	13215.2
825.535	13091.59
825.862	13176.56
826.189	13011.14
826.516	13144.7
826.843	13196.9
827.17	13129.1
827.497	13152.61
827.824	13164.13
828.151	13110.12
828.478	13119.16
828.805	13244.36
829.131	13067.64
829.458	13053.85
829.785	13027.41
830.111	13038.71
830.438	13056.56
830.764	13098.82
831.09	13083
831.417	13024.93
831.743	13036.68
832.069	13014.98
832.395	13000.29
832.722	13048.88
833.048	12956.23
833.374	12962.78
833.7	12996.23
834.026	12972.05
834.351	12917.36
834.677	12880.52
835.003	12950.13
835.329	12958.49
835.654	12905.16
835.98	12846.17
836.306	12895.21
836.631	12882.33
836.956	12804.82
837.282	12872.61
837.607	12691.83
837.932	12693.64
838.258	12725.72
838.583	12716.23
838.908	12635.56
839.233	12705.16
839.558	12618.83
839.883	12585.62
840.208	12550.81
840.533	12558.05
840.858	12526.18
841.182	12543.58
841.507	12520.76
841.832	12519.18
842.156	12353.53
842.481	12442.34
842.805	12434.43
843.13	12362.8
843.454	12328.45
843.778	12366.64
844.103	12284.83
844.427	12231.27
844.751	12179.98
845.075	12163.48
845.399	12140.43
845.723	12048.68
846.047	12092.75
846.371	12008.68
846.695	11938.17
847.019	12007.33
847.343	11893.88
847.666	11806.2
847.99	11780.89
848.313	11726.43
848.637	11679.65
848.96	11680.55
849.284	11659.76
849.607	11594.68
849.931	11532.76
850.254	11459.54
850.577	11463.84
850.9	11245.99
851.223	11334.35
851.546	11206.22
851.869	11188.59
852.192	11234.46
852.515	11072.89
852.838	11064.07
853.161	11087.12
853.483	10933.46
853.806	10904.53
854.129	10915.6
854.451	10939.11
854.774	10880.35
855.096	10855.04
855.419	10823.63
855.741	10751.54
856.063	10702.28
856.385	10677.19
856.708	10657.53
857.03	10607.36
857.352	10652.11
857.674	10585.89
857.996	10498.66
858.318	10426.12
858.64	10503.86
858.961	10495.73
859.283	10470.87
859.605	10358.33
859.926	10355.84
860.248	10287.37
860.57	10303.42
860.891	10333.92
861.212	10269.07
861.534	10201.27
861.855	10217.99
862.176	10197.88
862.498	10220.71
862.819	10187.03
863.14	10149.07
863.461	10166.24
863.782	10072.24
864.103	10140.03
864.424	10032.24
864.745	10102.29
865.065	10013.71
865.386	9953.82
865.707	10010.54
866.027	9982.07
866.348	9965.57
866.668	9909.98
866.989	9839.25
867.309	9871.11
867.63	9879.02
867.95	9833.82
868.27	9795.41
868.59	9751.34
868.91	9774.16
869.23	9713.15
869.55	9712.02
869.87	9786.37
870.19	9732.81
870.51	9701.85
870.83	9741.4
871.15	9633.38
871.469	9629.99
871.789	9702.3
872.109	9606.03
872.428	9554.96
872.748	9646.48
873.067	9548.41
873.386	9618.91
873.706	9524.23
874.025	9474.28
874.344	9431.35
874.663	9517.9
874.982	9494.17
875.301	9422.99
875.62	9411.24
875.939	9360.84
876.258	9385.7
876.577	9411.91
876.896	9336.89
877.214	9340.73
877.533	9356.1
877.852	9328.98
878.17	9400.16
878.489	9342.31
878.807	9340.73
879.125	9221.41
879.444	9263.67
879.762	9249.88
880.08	9241.3
880.398	9171.24
880.716	9207.85
881.034	9151.58
881.352	9073.39
881.67	9150.23
881.988	9121.3
882.306	9118.36
882.624	9080.17
882.941	9056.22
883.259	9010.79
883.577	9013.05
883.894	8987.52
884.212	8929.89
884.529	8920.4
884.846	8887.41
885.164	8932.6
885.481	8877.92
885.798	8827.97
886.115	8821.87
886.432	8849.67
886.75	8752.5
887.067	8768.77
887.383	8746.85
887.7	8788.2
888.017	8664.14
888.334	8682.22
888.651	8678.15
888.967	8613.74
889.284	8576
889.6	8561.31
889.917	8529.22
890.233	8594.76
890.55	8524.48
890.866	8515.21
891.182	8495.33
891.498	8426.63
891.815	8430.92
892.131	8352.96
892.447	8390.92
892.763	8293.98
893.079	8272.51
893.395	8269.57
893.71	8241.77
894.026	8293.98
894.342	8233.87
894.657	8079.52
894.973	8179.63
895.289	8119.74
895.604	8130.37
895.92	8126.75
896.235	8042.46
896.55	8023.25
896.865	8045.17
897.181	7993.87
897.496	7979.41
897.811	7987.77
898.126	7938.05
898.441	7826.64
898.756	7863.25
899.071	7796.14
899.386	7810.6
899.7	7755.01
900.015	7738.74
900.33	7702.81
900.644	7690.15
900.959	7698.29
901.273	7616.25
901.588	7523.6
901.902	7560.21
902.216	7570.38
902.531	7545.07
902.845	7469.37
903.159	7433.21
903.473	7382.14
903.787	7361.12
904.101	7374.23
904.415	7256.49
904.729	7236.15
905.042	7239.09
905.356	7192.31
905.67	7165.87
905.984	7210.84
906.297	7146.89
906.611	7113.89
906.924	7099.66
907.237	7107.12
907.551	7039.77
907.864	7061.92
908.177	7023.5
908.491	6997.74
908.804	6934.46
909.117	6872.09
909.43	6910.96
909.743	6855.14
910.056	6863.51
910.368	6789.84
910.681	6750.51
910.994	6753.23
911.307	6774.24
911.619	6680.46
911.932	6691.08
912.244	6651.31
912.557	6667.35
912.869	6588.71
913.181	6543.06
913.494	6525.66
913.806	6492.22
914.118	6503.52
914.43	6439.79
914.742	6437.75
915.054	6392.33
915.366	6408.6
915.678	6354.82
915.99	6289.28
916.302	6282.05
916.613	6282.73
916.925	6289.74
917.236	6229.62
917.548	6263.3
917.859	6164.54
918.171	6153.47
918.482	6137.42
918.794	6122.73
919.105	6115.28
919.416	6062.85
919.727	6040.93
920.038	6027.82
920.349	6022.4
920.66	5964.09
920.971	5937.88
921.282	5972.46
921.593	5790.99
921.903	5861.72
922.214	5850.43
922.525	5792.8
922.835	5804.78
923.146	5746.02
923.456	5780.6
923.767	5725.68
924.077	5720.26
924.387	5654.27
924.697	5628.06
925.008	5617.89
925.318	5574.95
925.628	5621.5
925.938	5591.68
926.248	5535.86
926.558	5515.52
926.867	5445.24
927.177	5394.62
927.487	5406.6
927.796	5401.17
928.106	5357.1
928.416	5369.99
928.725	5320.95
929.034	5307.16
929.344	5327.95
929.653	5265.58
929.962	5206.37
930.271	5159.82
930.581	5180.61
930.89	5175.64
931.199	5132.03
931.508	5143.1
931.817	5078.24
932.125	5135.19
932.434	5028.07
932.743	5021.97
933.051	5006.38
933.36	5024.01
933.669	4939.26
933.977	4959.38
934.286	4936.55
934.594	4975.65
934.902	4913.5
935.21	4894.07
935.519	4850.45
935.827	4819.27
936.135	4822.2
936.443	4770.45
936.751	4733.62
937.059	4763
937.367	4750.34
937.674	4698.37
937.982	4732.04
938.29	4694.3
938.597	4693.17
938.905	4623.34
939.213	4606.84
939.52	4613.62
939.827	4571.81
940.135	4579.05
940.442	4557.8
940.749	4569.1
941.056	4526.39
941.363	4454.53
941.67	4454.98
941.977	4416.34
942.284	4421.31
942.591	4400.75
942.898	4397.81
943.205	4349.9
943.511	4345.15
943.818	4308.77
944.125	4260.64
944.431	4257.7
944.738	4243.91
945.044	4250.02
945.35	4233.97
945.657	4218.15
945.963	4194.2
946.269	4230.13
946.575	4139.28
946.881	4167.08
947.187	4084.82
947.493	4075.56
947.799	4098.38
948.105	4052.28
948.41	4025.61
948.716	4009.34
949.022	4020.64
949.327	4003.24
949.633	3959.4
949.938	3955.79
950.244	3947.65
950.549	3922.34
950.854	3919.4
951.16	3905.39
951.465	3866.52
951.77	3852.96
952.075	3829.46
952.38	3809.8
952.685	3838.05
952.99	3812.74
953.294	3790.59
953.599	3755.57
953.904	3737.71
954.209	3744.27
954.513	3720.31
954.818	3712.63
955.122	3677.6
955.426	3619.52
955.731	3700.43
956.035	3599.86
956.339	3598.06
956.643	3613.42
956.948	3587.43
957.252	3592.86
957.556	3571.39
957.86	3537.04
958.163	3508.11
958.467	3474.44
958.771	3537.72
959.075	3508.57
959.378	3424.73
959.682	3430.15
959.985	3441.68
960.289	3423.14
960.592	3396.25
960.896	3388.34
961.199	3345.63
961.502	3379.3
961.805	3351.28
962.108	3316.25
962.411	3300.44
962.714	3293.66
963.017	3279.42
963.32	3310.15
963.623	3262.24
963.926	3259.53
964.228	3254.79
964.531	3222.47
964.833	3216.14
965.136	3147.9
965.438	3175.47
965.741	3179.31
966.043	3160.33
966.345	3136.82
966.648	3085.3
966.95	3103.6
967.252	3105.19
967.554	3092.98
967.856	3072.87
968.158	3049.82
968.46	3028.35
968.761	3037.39
969.063	3032.19
969.365	3003.27
969.666	2996.49
969.968	2942.25
970.269	2970.73
970.571	2906.77
970.872	2963.5
971.174	2918.98
971.475	2929.37
971.776	2895.25
972.077	2880.56
972.378	2887.11
972.679	2860.9
972.98	2863.16
973.281	2870.62
973.582	2799.43
973.883	2815.48
974.183	2824.52
974.484	2767.12
974.785	2786.33
975.085	2772.09
975.386	2744.74
975.686	2731.86
975.986	2723.5
976.287	2753.78
976.587	2708.36
976.887	2684.41
977.187	2726.67
977.487	2643.28
977.787	2643.05
978.087	2650.51
978.387	2610.28
978.687	2607.57
978.987	2594.24
979.286	2603.96
979.586	2578.87
979.885	2595.14
980.185	2528.48
980.484	2532.77
980.784	2555.14
981.083	2505.2
981.382	2494.81
981.682	2504.98
981.981	2508.37
982.28	2500.68
982.579	2477.63
982.878	2438.09
983.177	2436.28
983.475	2427.46
983.774	2402.83
984.073	2429.95
984.372	2397.18
984.67	2441.02
984.969	2394.7
985.267	2367.8
985.566	2382.27
985.864	2347.69
986.162	2361.93
986.461	2302.95
986.759	2319.67
987.057	2295.26
987.355	2297.75
987.653	2292.78
987.951	2263.17
988.249	2271.76
988.547	2260.46
988.844	2249.16
989.142	2227.24
989.44	2240.8
989.737	2243.06
990.035	2196.28
990.332	2207.13
990.63	2225.66
990.927	2187.7
991.224	2148.6
991.521	2155.16
991.819	2163.74
992.116	2145.66
992.413	2125.78
992.71	2112.22
993.006	2112.44
993.303	2134.36
993.6	2064.08
993.897	2123.74
994.193	2116.51
994.49	2046.68
994.787	2066.8
995.083	2057.3
995.379	2012.33
995.676	2045.55
995.972	2045.55
996.268	2031.99
996.565	1987.7
996.861	1996.74
997.157	1998.1
997.453	1977.98
997.749	1961.49
998.044	1950.41
998.34	1961.26
998.636	1956.06
998.932	1925.56
999.227	1921.49
999.523	1877.87
999.818	1906.57
1000.114	1859.8
1000.409	1856.41
1000.704	1837.65
1001	1845.78
1001.295	1855.95
1001.59	1835.16
1001.885	1819.8
1002.18	1799.46
1002.475	1810.76
1002.77	1813.24
1003.065	1796.29
1003.359	1776.86
1003.654	1757.43
1003.949	1729.18
1004.243	1742.06
1004.538	1764.88
1004.832	1755.62
1005.127	1727.14
1005.421	1712.23
1005.715	1705
1006.009	1676.52
1006.304	1689.63
1006.598	1668.16
1006.892	1641.95
1007.186	1643.3
1007.48	1630.88
1007.773	1639.91
1008.067	1653.25
1008.361	1611.67
1008.655	1601.5
1008.948	1584.32
1009.242	1593.59
1009.535	1618.67
1009.829	1568.5
1010.122	1575.06
1010.415	1551.56
1010.708	1529.18
1011.001	1565.57
1011.295	1538.9
1011.588	1526.47
1011.881	1515.85
1012.173	1488.51
1012.466	1483.99
1012.759	1503.42
1013.052	1476.08
1013.344	1475.63
1013.637	1472.91
1013.93	1439.47
1014.222	1464.33
1014.514	1422.52
1014.807	1439.92
1015.099	1425.23
1015.391	1425.91
1015.683	1432.91
1015.976	1418.9
1016.268	1384.55
1016.56	1386.36
1016.851	1364.89
1017.143	1365.12
1017.435	1370.09
1017.727	1335.29
1018.018	1324.44
1018.31	1341.62
1018.602	1325.12
1018.893	1322.63
1019.185	1345.46
1019.476	1319.24
1019.767	1316.53
1020.058	1277.66
1020.35	1252.13
1020.641	1257.1
1020.932	1260.04
1021.223	1267.49
1021.514	1274.05
1021.804	1204.9
1022.095	1201.28
1022.386	1220.94
1022.677	1186.37
1022.967	1183.88
1023.258	1190.43
1023.548	1207.38
1023.839	1173.03
1024.129	1198.57
1024.419	1146.82
1024.709	1164.45
1025	1165.58
1025.29	1161.28
1025.58	1118.57
1025.87	1102.98
1026.16	1127.61
1026.449	1136.88
1026.739	1111.34
1027.029	1102.75
1027.319	1111.11
1027.608	1093.04
1027.898	1094.17
1028.187	1088.06
1028.477	1082.42
1028.766	1064.79
1029.055	1074.05
1029.344	1076.09
1029.634	1016.43
1029.923	1031.34
1030.212	1036.99
1030.501	1016.2
1030.79	1004.9
1031.078	999.93
1031.367	1015.3
1031.656	985.47
1031.945	976.2
1032.233	965.36
1032.522	967.16
1032.81	977.11
1033.099	961.74
1033.387	988.18
1033.675	972.36
1033.963	946.83
1034.251	975.98
1034.54	938.46
1034.828	916.09
1035.116	914.96
1035.403	914.96
1035.691	896.88
1035.979	886.04
1036.267	908.41
1036.554	890.33
1036.842	889.88
1037.129	874.51
1037.417	880.61
1037.704	878.8
1037.992	877.9
1038.279	876.77
1038.566	854.17
1038.853	854.17
1039.14	854.17
