Data from White_reflection_standard_FLMS001491_074.txt Node
Date: Tue Feb 07 10:32:10 GMT 2017
User: dcchb
Spectrometer: FLMS00149
Trigger mode: 0
Integration Time (sec): 2.000000E-2
Scans to average: 10
Electric dark correction enabled: true
Nonlinearity correction enabled: false
Boxcar width: 0
XAxis mode: Wavelengths
Number of Pixels in Spectrum: 2048
>>>>>Begin Spectral Data<<<<<
341.393	-26.47
341.776	-26.47
342.16	-26.47
342.543	-57.43
342.927	-56.75
343.31	-51.33
343.693	-88.61
344.077	-52.91
344.46	-57.65
344.843	-61.5
345.226	-40.48
345.61	-20.14
345.993	-21.04
346.376	-2.06
346.759	-0.03
347.142	46.52
347.525	34.55
347.908	52.17
348.291	49.91
348.674	113.87
349.057	98.73
349.44	115.45
349.823	126.75
350.206	155.45
350.588	225.5
350.971	259.85
351.354	242.23
351.737	281.77
352.119	307.08
352.502	283.81
352.884	317.93
353.267	313.41
353.65	320.42
354.032	338.72
354.414	349.79
354.797	357.25
355.179	362.45
355.562	372.84
355.944	371.71
356.326	387.76
356.709	374.65
357.091	371.49
357.473	390.7
357.855	393.86
358.238	374.65
358.62	393.63
359.002	388.21
359.384	395.44
359.766	409.68
360.148	403.12
360.53	391.83
360.912	404.25
361.294	405.61
361.676	394.76
362.057	410.58
362.439	384.82
362.821	384.14
363.203	399.51
363.584	390.02
363.966	389.79
364.348	399.28
364.729	385.72
365.111	404.25
365.493	406.74
365.874	415.33
366.256	424.37
366.637	399.28
367.019	406.29
367.4	400.41
367.781	391.15
368.163	411.71
368.544	409.23
368.925	429.56
369.306	411.49
369.688	417.14
370.069	451.49
370.45	442.67
370.831	426.4
371.212	432.5
371.593	433.86
371.974	429.34
372.355	431.6
372.736	448.77
373.117	442.45
373.498	458.04
373.879	450.58
374.26	443.8
374.641	447.42
375.021	434.31
375.402	457.59
375.783	456.68
376.163	503.24
376.544	510.92
376.925	459.17
377.305	469.79
377.686	499.85
378.066	488.55
378.447	485.83
378.827	487.87
379.208	506.63
379.588	524.48
379.968	518.83
380.349	515.66
380.729	531.26
381.109	534.87
381.489	524.03
381.87	546.85
382.25	523.12
382.63	530.81
383.01	530.13
383.39	573.74
383.77	548.66
384.15	566.74
384.53	558.15
384.91	586.4
385.29	622.33
385.67	583.69
386.049	627.75
386.429	616.23
386.809	606.96
387.189	622.33
387.568	620.75
387.948	657.58
388.328	668.88
388.707	624.81
389.087	646.51
389.466	660.75
389.846	677.02
390.225	668.88
390.605	681.31
390.984	690.35
391.363	695.32
391.743	716.56
392.122	722.21
392.501	714.76
392.881	742.1
393.26	738.94
393.639	726.05
394.018	771.02
394.397	753.4
394.776	789.56
395.155	802.66
395.534	801.08
395.913	803.34
396.292	801.98
396.671	813.28
397.05	827.29
397.429	851.02
397.808	839.95
398.186	856.45
398.565	850.12
398.944	870.46
399.323	867.29
399.701	884.92
400.08	885.6
400.458	887.63
400.837	895.99
401.215	934.18
401.594	911.81
401.972	950.23
402.351	954.3
402.729	967.86
403.107	936.44
403.486	1009.44
403.864	1003.79
404.242	1012.37
404.62	1005.6
404.999	1025.26
405.377	1033.39
405.755	1053.96
406.133	1071.36
406.511	1098.25
406.889	1078.59
407.267	1102.32
407.645	1163.56
408.023	1124.69
408.401	1155.2
408.779	1176.21
409.156	1185.48
409.534	1203.56
409.912	1211.24
410.29	1250.79
410.667	1241.52
411.045	1275.19
411.422	1279.49
411.8	1294.18
412.178	1295.76
412.555	1335.76
412.933	1364
413.31	1356.77
413.687	1406.94
414.065	1400.84
414.442	1427.5
414.819	1466.6
415.197	1435.87
415.574	1519.93
415.951	1510.89
416.328	1484.45
416.705	1485.36
417.082	1521.06
417.46	1550.21
417.837	1587.05
418.214	1594.05
418.591	1604.45
418.967	1628.63
419.344	1612.13
419.721	1674.96
420.098	1632.47
420.475	1691.68
420.852	1685.8
421.228	1740.49
421.605	1746.59
421.982	1743.2
422.358	1735.52
422.735	1795.63
423.111	1843.77
423.488	1872.01
423.864	1850.77
424.241	1870.43
424.617	1914.05
424.994	1904.55
425.37	1887.38
425.746	1970.54
426.123	1991.11
426.499	1989.98
426.875	2029.97
427.251	2071.1
427.627	2096.87
428.003	2112.23
428.379	2159.46
428.756	2192.68
429.132	2188.61
429.507	2232
429.883	2267.03
430.259	2301.15
430.635	2312.91
431.011	2356.52
431.387	2380.93
431.763	2455.27
432.138	2454.37
432.514	2508.15
432.89	2510.87
433.265	2566.91
433.641	2596.06
434.016	2620.24
434.392	2681.48
434.767	2742.72
435.143	2695.04
435.518	2793.34
435.894	2808.49
436.269	2797.86
436.644	2827.92
437.02	2884.19
437.395	2911.76
437.77	2952.66
438.145	3017.29
438.52	3043.73
438.895	3032.43
439.271	3088.48
439.646	3116.73
440.021	3185.2
440.395	3164.18
440.77	3170.51
441.145	3196.05
441.52	3263.84
441.895	3275.82
442.27	3326.21
442.645	3261.81
443.019	3341.8
443.394	3354.46
443.769	3404.18
444.143	3392.88
444.518	3487.79
444.892	3443.95
445.267	3485.08
445.641	3539.54
446.016	3527.79
446.39	3579.54
446.764	3641.68
447.139	3622.93
447.513	3655.47
447.887	3653.21
448.262	3699.08
448.636	3718.74
449.01	3744.28
449.384	3789.48
449.758	3846.2
450.132	3931.39
450.506	3908.34
450.88	3946.08
451.254	3988.79
451.628	4023.37
452.002	4064.72
452.376	4078.28
452.75	4115.34
453.123	4161.9
453.497	4236.02
453.871	4294.1
454.244	4404.38
454.618	4365.28
454.992	4433.08
455.365	4476.69
455.739	4586.74
456.112	4621.32
456.486	4713.97
456.859	4689.79
457.232	4851.82
457.606	4802.33
457.979	4890.01
458.352	4984.47
458.725	5026.05
459.099	5037.35
459.472	5160.74
459.845	5245.03
460.218	5320.96
460.591	5334.75
460.964	5372.94
461.337	5408.42
461.71	5535.42
462.083	5660.84
462.456	5612.48
462.829	5725.7
463.201	5793.72
463.574	5808.86
463.947	5909.65
464.32	6032.36
464.692	6084.56
465.065	6151
465.438	6218.34
465.81	6332.01
466.183	6404.55
466.555	6485.68
466.928	6583.98
467.3	6608.39
467.672	6683.86
468.045	6852.67
468.417	6898.32
468.789	6941.03
469.161	7043.63
469.534	7174.92
469.906	7376.73
470.278	7374.47
470.65	7461.92
471.022	7599.09
471.394	7713.89
471.766	7799.09
472.138	7883.38
472.51	8097.61
472.882	8277.04
473.253	8336.25
473.625	8425.51
473.997	8645.62
474.369	8665.73
474.74	8740.98
475.112	8929
475.484	9077.47
475.855	9220.07
476.227	9370.57
476.598	9652.15
476.97	9670.9
477.341	9960.84
477.713	10041.52
478.084	10159.48
478.455	10386.37
478.827	10443.31
479.198	10788.16
479.569	10812.57
479.94	11126.68
480.311	11176.4
480.682	11482.38
481.053	11724.41
481.424	11932.09
481.795	12016.83
482.166	12217.5
482.537	12282.36
482.908	12682.8
483.279	12825.62
483.65	13097.71
484.021	13309.68
484.391	13419.51
484.762	13559.84
485.133	13685.94
485.503	13894.97
485.874	14240.05
486.244	14297.67
486.615	14640.49
486.985	14798.9
487.356	15046.13
487.726	15176.75
488.097	15494.93
488.467	15482.28
488.837	15880.46
489.207	16041.58
489.578	16371.29
489.948	16421.69
490.318	16762.69
490.688	16765.41
491.058	16969.92
491.428	17288.56
491.798	17446.97
492.168	17778.26
492.538	17881.76
492.908	18080.4
493.278	18397.68
493.648	18338.25
494.017	18546.15
494.387	18789.99
494.757	18942.75
495.126	19103.2
495.496	19211.9
495.866	19406.02
496.235	19575.28
496.605	19772.33
496.974	19875.38
497.344	20074.47
497.713	20190.4
498.082	20397.18
498.452	20506.1
498.821	20688.02
499.19	20826.32
499.559	21019.98
499.928	21263.37
500.298	21196.7
500.667	21437.15
501.036	21447.09
501.405	21656.35
501.774	21775.9
502.143	21935.67
502.512	22066.96
502.88	22360.97
503.249	22295.88
503.618	22454.97
503.987	22674.4
504.356	22787.62
504.724	22977.22
505.093	23029.42
505.462	23162.3
505.83	23357.32
506.199	23658.11
506.567	23863.07
506.936	23818.78
507.304	24225.32
507.672	24242.27
508.041	24408.14
508.409	24558.87
508.777	24876.83
509.145	24949.37
509.514	25059.43
509.882	25243.6
510.25	25362.69
510.618	25557.27
510.986	25753.87
511.354	25848.56
511.722	26128.55
512.09	26312.05
512.458	26398.6
512.826	26655.54
513.193	26845.37
513.561	26911.13
513.929	27128.52
514.297	27282.64
514.664	27605.12
515.032	27731.9
515.4	27952.01
515.767	28130.08
516.135	28330.3
516.502	28193.81
516.869	28729.84
517.237	28877.4
517.604	28806.45
517.972	29143.16
518.339	29354.68
518.706	29524.17
519.073	29632.41
519.44	29893.65
519.808	30186.07
520.175	30180.2
520.542	30560.3
520.909	30724.81
521.276	30936.33
521.643	31270.34
522.009	31519.59
522.376	31676.43
522.743	31857.67
523.11	32156.19
523.477	32543.07
523.843	32685.21
524.21	32967.92
524.577	33119.33
524.943	33352.99
525.31	33683.61
525.676	33969.7
526.043	34109.81
526.409	34366.3
526.776	34793.86
527.142	34637.71
527.508	35145.26
527.874	35357.23
528.241	35425.25
528.607	35500.73
528.973	36043.54
529.339	35971.23
529.705	36265.01
530.071	36521.95
530.437	36858.66
530.803	36977.98
531.169	37079.22
531.535	37229.28
531.901	37463.62
532.267	37578.87
532.632	37837.85
532.998	37997.62
533.364	38229.93
533.73	38310.38
534.095	38602.8
534.461	38757.82
534.826	38987.42
535.192	39054.99
535.557	39378.82
535.923	39277.13
536.288	39627.86
536.653	39666.27
537.019	39711.47
537.384	39911.92
537.749	40108.07
538.114	40259.7
538.479	40304.45
538.845	40473.94
539.21	40496.76
539.575	40728.17
539.94	40826.47
540.305	41169.51
540.67	40946.69
541.034	41313.24
541.399	41502.61
541.764	41531.99
542.129	41777.18
542.494	41784.86
542.858	42109.37
543.223	42084.29
543.587	42287
543.952	42254.45
544.316	42424.17
544.681	42382.81
545.045	42773.76
545.41	42949.35
545.774	42943.02
546.138	43049.91
546.503	43244.03
546.867	43379.62
547.231	43648.54
547.595	43783.23
547.959	43977.35
548.324	43970.79
548.688	44034.52
549.052	44180.73
549.416	44299.6
549.779	44419.37
550.143	44536.65
550.507	44815.52
550.871	44970.99
551.235	44887.38
551.599	45339.12
551.962	45461.15
552.326	45429.06
552.689	45748.15
553.053	45569.62
553.417	45754.93
553.78	46230.17
554.143	46153.11
554.507	46299.09
554.87	46514.23
555.234	46779.31
555.597	46638.07
555.96	46902.69
556.323	47143.36
556.686	47215.68
557.05	47405.5
557.413	47587.42
557.776	47596.46
558.139	47951.71
558.502	48009.1
558.865	48094.53
559.228	48405.7
559.59	48414.52
559.953	48628.75
560.316	49112.35
560.679	49066.03
561.041	49252.24
561.404	49288.39
561.767	49542.17
562.129	49692.45
562.492	49962.73
562.854	49990.97
563.217	50015.38
563.579	50101.93
563.941	50397.74
564.304	50441.13
564.666	50728.81
565.028	50820.33
565.39	50964.06
565.753	51106.42
566.115	51265.52
566.477	51339.41
566.839	51431.16
567.201	51678.16
567.563	51740.31
567.925	51915.22
568.287	51985.05
568.648	52131.03
569.01	52258.48
569.372	52379.16
569.734	52343.91
570.095	52605.37
570.457	52642.43
570.819	52728.75
571.18	52762.88
571.542	52925.36
571.903	53017.11
572.265	53065.92
572.626	53205.58
572.987	53286.48
573.349	53398.12
573.71	53530.77
574.071	53517.43
574.432	53697.54
574.794	53824.09
575.155	53885.79
575.516	53753.81
575.877	53921.04
576.238	54051.66
576.599	54153.58
576.96	54087.14
577.32	54127.14
577.681	54285.78
578.042	54302.72
578.403	54221.37
578.763	54275.15
579.124	54390.41
579.485	54474.25
579.845	54616.61
580.206	54554.47
580.566	54558.76
580.927	54636.05
581.287	54634.24
581.648	54620
582.008	54698.42
582.368	54677.86
582.728	54707.01
583.089	54591.76
583.449	54679.66
583.809	54663.85
584.169	54750.85
584.529	54791.75
584.889	54950.84
585.249	54749.49
585.609	54712.66
585.969	54834.46
586.329	54741.58
586.688	54872.65
587.048	54747.68
587.408	54761.02
587.768	54810.73
588.127	54710.62
588.487	54800.11
588.846	54966.89
589.206	54725.76
589.565	54811.64
589.925	54862.94
590.284	54755.14
590.643	54819.32
591.003	54915.82
591.362	54936.61
591.721	54900.22
592.08	54999.88
592.44	55018.86
592.799	55041.01
593.158	54859.32
593.517	54983.61
593.876	54986.1
594.235	54845.54
594.593	54886.44
594.952	55111.52
595.311	54936.15
595.67	55019.77
596.029	55194.68
596.387	55183.61
596.746	55177.73
597.104	55130.73
597.463	55107.68
597.822	55167.56
598.18	55066.77
598.538	55126.43
598.897	55248.46
599.255	55020.45
599.613	55430.6
599.972	55205.53
600.33	55372.3
600.688	55247.33
601.046	55384.5
601.404	55391.74
601.762	55443.94
602.12	55489.13
602.478	55544.05
602.836	55570.94
603.194	55411.4
603.552	55417.95
603.91	55357.84
604.268	55515.35
604.625	55425.41
604.983	55581.34
605.341	55432.41
605.698	55642.8
606.056	55667.21
606.413	55590.37
606.771	55722.12
607.128	55753.08
607.485	55577.95
607.843	55598.74
608.2	55838.5
608.557	55914.89
608.914	55769.13
609.272	55867.2
609.629	55948.11
609.986	56007.99
610.343	55903.36
610.7	56078.27
611.057	56098.61
611.414	55989.69
611.771	55999.4
612.127	56150.13
612.484	56107.42
612.841	56234.43
613.198	56129.12
613.554	56129.8
613.911	56273.97
614.267	56287.76
614.624	56243.46
614.98	56231.94
615.337	56403.46
615.693	56349.9
616.05	56270.81
616.406	56449.11
616.762	56358.49
617.118	56411.6
617.475	56399.39
617.831	56427.87
618.187	56524.36
618.543	56472.39
618.899	56598.71
619.255	56535.66
619.611	56621.76
619.967	56570.01
620.323	56647.07
620.678	56502.67
621.034	56432.39
621.39	56549.9
621.746	56532.72
622.101	56711.02
622.457	56537.69
622.812	56593.96
623.168	56622.89
623.523	56676.9
623.879	56728.65
624.234	56538.37
624.589	56607.52
624.945	56619.5
625.3	56672.61
625.655	56610.46
626.01	56616.34
626.365	56689.1
626.72	56571.37
627.075	56604.81
627.43	56598.71
627.785	56493.85
628.14	56550.8
628.495	56607.3
628.85	56573.4
629.205	56467.41
629.559	56598.26
629.914	56464.02
630.269	56473.74
630.623	56398.94
630.978	56438.04
631.332	56465.61
631.687	56520.75
632.041	56343.12
632.396	56311.26
632.75	56212.73
633.104	56422.67
633.459	56201.88
633.813	56173.64
634.167	56183.81
634.521	56173.41
634.875	56213.18
635.229	56142
635.583	55905.85
635.937	55938.84
636.291	55933.19
636.645	55913.76
636.999	55927.99
637.352	55971.61
637.706	55794.89
638.06	55938.61
638.413	55826.98
638.767	55719.18
639.121	55805.74
639.474	55493.65
639.828	55577.95
640.181	55608.45
640.534	55661.33
640.888	55563.93
641.241	55407.55
641.594	55455.69
641.947	55523.48
642.301	55440.55
642.654	55459.76
643.007	55462.92
643.36	55375.46
643.713	55334.34
644.066	55325.75
644.419	55119.88
644.771	55010.73
645.124	54682.6
645.477	54729.15
645.83	54406.22
646.182	54362.16
646.535	54375.49
646.888	54297.98
647.24	54229.05
647.593	54359.67
647.945	54282.39
648.298	54109.96
648.65	54087.82
649.002	53922.62
649.355	54109.06
649.707	54072.67
650.059	54095.95
650.411	54461.59
650.763	54576.39
651.115	54784.29
651.467	54702.26
651.819	54699.1
652.171	54591.98
652.523	54494.13
652.875	54502.72
653.227	54373.68
653.578	54574.81
653.93	54465.66
654.282	54359.22
654.633	54230.41
654.985	54262.95
655.337	54312.44
655.688	54233.12
656.039	54307.7
656.391	54018.44
656.742	54182.73
657.094	54140.7
657.445	54163.07
657.796	54222.27
658.147	54023.18
658.498	54028.83
658.849	54118.1
659.2	54031.55
659.551	53983.64
659.902	54048.72
660.253	54039.68
660.604	54079.45
660.955	53912.45
661.306	53966.46
661.656	53853.7
662.007	53930.53
662.358	53919.23
662.708	53814.15
663.059	53755.39
663.409	53650.31
663.76	53832.45
664.11	53762.63
664.461	53808.27
664.811	53778.9
665.161	53766.92
665.511	53622.52
665.862	53688.28
666.212	53787.26
666.562	53768.5
666.912	53662.74
667.262	53599.69
667.612	53595.85
667.962	53733.47
668.312	53633.59
668.662	53697.99
669.011	53548.17
669.361	53491.9
669.711	53510.2
670.06	53462.97
670.41	53344.11
670.76	53337.78
671.109	53431.11
671.459	53395.18
671.808	53349.3
672.157	53340.94
672.507	53183.66
672.856	53224.79
673.205	53279.25
673.554	53322.86
673.904	53157.67
674.253	53337.1
674.602	53146.14
674.951	52778.02
675.3	52539.38
675.649	53069.31
675.998	53027.05
676.346	53078.58
676.695	53103.43
677.044	52896.21
677.393	53040.39
677.741	52994.28
678.09	52862.54
678.438	52888.98
678.787	52949.54
679.135	52907.28
679.484	52646.27
679.832	52822.54
680.181	52524.01
680.529	52639.49
680.877	52555.43
681.225	52549.32
681.573	52696.89
681.922	52413.73
682.27	52376.67
682.618	52420.06
682.966	52256
683.314	52336.9
683.661	52303.91
684.009	52034.99
684.357	51930.36
684.705	51874.31
685.053	51926.29
685.4	51903.24
685.748	51800.19
686.095	51701.89
686.443	51582.57
686.79	51560.42
687.138	51621.44
687.485	51543.7
687.832	51451.05
688.18	51395
688.527	51329.02
688.874	51276.14
689.221	51240.88
689.568	50975.81
689.915	50962.02
690.262	51011.51
690.609	50842.7
690.956	50776.72
691.303	50731.07
691.65	50517.74
691.997	50600.68
692.344	50321.81
692.69	50272.55
693.037	50261.48
693.383	50116.39
693.73	50127.47
694.077	49928.15
694.423	49864.88
694.769	49769.74
695.116	49637.31
695.462	49526.13
695.808	49503.53
696.155	49367.04
696.501	49279.81
696.847	49207.94
697.193	49009.3
697.539	49195.29
697.885	48773.38
698.231	48660.39
698.577	48646.15
698.923	48470.56
699.269	48322.09
699.614	48297.91
699.96	48210.23
700.306	48124.36
700.651	48017.24
700.997	47966.17
701.342	47818.6
701.688	47739.28
702.033	47671.49
702.379	47648.89
702.724	47498.38
703.069	47527.76
703.415	47101.78
703.76	47164.16
704.105	47113.99
704.45	46972.52
704.795	46716.03
705.14	46633.55
705.485	46727.33
705.83	46441.91
706.175	46628.12
706.52	46362.37
706.865	46095.48
707.209	46213.9
707.554	46121.02
707.899	46109.49
708.243	45944.75
708.588	45768.94
708.932	45633.57
709.277	45501.83
709.621	45471.54
709.966	45166.24
710.31	45421.83
710.654	44930.99
710.998	45048.73
711.342	44980.94
711.687	44855.29
712.031	44696.88
712.375	44663.2
712.719	44627.27
713.063	44596.31
713.407	44684.45
713.75	44393.61
714.094	44267.28
714.438	44161.52
714.782	44246.49
715.125	43911.36
715.469	44092.15
715.812	43837.01
716.156	43634.76
716.499	43697.13
716.843	43653.74
717.186	43444.93
717.53	43750.91
717.873	43626.62
718.216	43518.6
718.559	43206.75
718.902	43026.19
719.246	43085.84
719.589	42944.38
719.932	42727.21
720.275	42885.17
720.617	42843.14
720.96	42723.59
721.303	42697.38
721.646	42733.09
721.989	42410.83
722.331	42437.27
722.674	42416.48
723.016	42332.87
723.359	42202.48
723.701	42195.25
724.044	41967
724.386	41791.42
724.729	41906.89
725.071	41878.42
725.413	41879.32
725.755	41840
726.097	41578.31
726.439	41436.62
726.782	41419.9
727.124	41598.43
727.465	41333.12
727.807	41331.09
728.149	41083.86
728.491	41096.52
728.833	41155.95
729.175	41020.81
729.516	40849.75
729.858	40830.99
730.199	40927.26
730.541	40766.36
730.882	40568.85
731.224	40857.65
731.565	40414.73
731.906	40498.34
732.248	40519.36
732.589	40146.94
732.93	40219.03
733.271	40140.61
733.612	40173.15
733.953	40227.16
734.294	40201.85
734.635	40019.71
734.976	39919.15
735.317	39787.4
735.658	39816.78
735.999	39762.09
736.339	39582.66
736.68	39750.79
737.021	39517.35
737.361	39328.43
737.702	39546.28
738.042	39468.76
738.383	39359.16
738.723	39287.3
739.063	39160.75
739.404	39247.53
739.744	39033.52
740.084	38955.78
740.424	39007.08
740.764	38876.01
741.104	38951.04
741.444	38706.98
741.784	38671.05
742.124	38708.11
742.464	38566.64
742.804	38579.52
743.143	38374.78
743.483	38460.88
743.823	38306.54
744.162	38133.88
744.502	38356.48
744.841	38101.12
745.181	38153.09
745.52	38029.71
745.86	38069.71
746.199	38089.59
746.538	37860.22
746.877	37923.27
747.216	37902.25
747.556	37701.58
747.895	37695.03
748.234	37409.16
748.573	37366.67
748.911	37548.59
749.25	37453.45
749.589	37224.3
749.928	37222.04
750.267	37271.31
750.605	37164.64
750.944	37086.68
751.283	36855.27
751.621	36938.44
751.96	36692.57
752.298	36583.87
752.636	36690.08
752.975	36567.82
753.313	36348.39
753.651	36481.72
753.989	36388.39
754.327	36169.19
754.666	36022.53
755.004	36069.31
755.342	36058.01
755.679	35991.12
756.017	35700.5
756.355	35907.95
756.693	35568.08
757.031	35596.55
757.368	35374.86
757.706	35457.8
758.044	35314.52
758.381	35362.66
758.719	35090.12
759.056	35115.43
759.394	35002.22
759.731	34777.81
760.068	34745.72
760.405	34613.98
760.743	34386.64
761.08	34431.38
761.417	34248.34
761.754	34165.85
762.091	34261.9
762.428	33922.47
762.765	33884.5
763.102	33913.2
763.438	33703.72
763.775	33612.87
764.112	33506.66
764.449	33525.19
764.785	33471.18
765.122	33062.83
765.458	33179.89
765.795	33137.86
766.131	32970.86
766.467	32898.54
766.804	32799.56
767.14	32546.23
767.476	32513.69
767.812	32310.31
768.148	32390.98
768.485	32162.74
768.821	32083.42
769.157	31941.28
769.492	31841.62
769.828	31755.75
770.164	31558.01
770.5	31480.73
770.836	31511.69
771.171	31287.51
771.507	31217.23
771.842	31054.3
772.178	30942.89
772.513	30876.22
772.849	30739.28
773.184	30674.87
773.519	30568.21
773.855	30460.19
774.19	30354.43
774.525	30175
774.86	30284.37
775.195	30118.05
775.53	29948.56
775.865	29698.63
776.2	29548.8
776.535	29440.78
776.87	29445.07
777.205	29270.39
777.539	29195.36
777.874	29306.77
778.209	28914.69
778.543	28783.4
778.878	28801.7
779.212	28708.6
779.547	28542.5
779.881	28584.08
780.215	28401.71
780.55	28473.57
780.884	28255.5
781.218	28184.09
781.552	28136.41
781.886	27966.47
782.22	27794.27
782.554	27737.77
782.888	27462.53
783.222	27403.32
783.556	27304.11
783.889	27237.22
784.223	27099.15
784.557	26957.23
784.89	27098.24
785.224	26829.32
785.557	26751.58
785.891	26711.13
786.224	26564.25
786.558	26610.12
786.891	26348.43
787.224	26251.94
787.557	26094.43
787.891	26091.49
788.224	26089.46
788.557	26085.61
788.89	25851.27
789.223	25832.51
789.556	25608.34
789.888	25623.48
790.221	25586.42
790.554	25292.64
790.887	25380.55
791.219	25245.86
791.552	25119.09
791.884	25094.45
792.217	24903.72
792.549	24836.15
792.882	24642.71
793.214	24610.85
793.546	24567.91
793.879	24418.99
794.211	24338.77
794.543	24399.56
794.875	24338.09
795.207	24209.05
795.539	24129.96
795.871	24129.51
796.203	23985.33
796.535	23842.96
796.867	23828.72
797.198	23763.64
797.53	23632.8
797.862	23505.79
798.193	23599.8
798.525	23424.89
798.856	23501.5
799.188	23206.82
799.519	23078.01
799.85	22917.56
800.182	22868.97
800.513	23021.51
800.844	22741.97
801.175	22936.09
801.506	22885.92
801.837	22662.88
802.168	22652.71
802.499	22530.68
802.83	22417.91
803.161	22302.21
803.491	22449.32
803.822	22391.93
804.153	22296.33
804.483	22057.24
804.814	21965.72
805.145	21979.51
805.475	21999.39
805.805	21890.24
806.136	21823.58
806.466	21833.07
806.796	21701.1
807.126	21582.46
807.457	21523.93
807.787	21567.09
808.117	21466.53
808.447	21349.92
808.777	21309.92
809.107	21269.24
809.436	21182.01
809.766	21192.86
810.096	21097.95
810.426	21033.09
810.755	20961.91
811.085	20912.42
811.414	20866.54
811.744	20725.75
812.073	20656.83
812.403	20742.25
812.732	20531.18
813.061	20492.31
813.39	20443.05
813.719	20406.44
814.049	20464.07
814.378	20419.77
814.707	20230.17
815.036	20159.89
815.365	20140.91
815.693	19994.7
816.022	19974.81
816.351	19948.83
816.68	19860.69
817.008	19980.24
817.337	19678.78
817.665	19641.94
817.994	19854.14
818.322	19691.66
818.651	19536.63
818.979	19537.54
819.307	19644.65
819.636	19568.5
819.964	19396.07
820.292	19426.13
820.62	19474.94
820.948	19462.74
821.276	19414.6
821.604	19398.78
821.932	19440.14
822.259	19425.22
822.587	19338.45
822.915	19310.42
823.243	19398.33
823.57	19319.46
823.898	19300.71
824.225	19295.06
824.553	19233.82
824.88	19323.08
825.207	19370.08
825.535	19189.52
825.862	19324.89
826.189	19152.01
826.516	19329.41
826.843	19362.17
827.17	19263.87
827.497	19374.38
827.824	19242.63
828.151	19279.92
828.478	19168.73
828.805	19274.49
829.131	19192.01
829.458	19159.69
829.785	19135.74
830.111	19205.57
830.438	19249.18
830.764	19132.8
831.09	19152.46
831.417	19144.33
831.743	19192.24
832.069	19123.54
832.395	19046.02
832.722	19202.86
833.048	19048.28
833.374	19099.13
833.7	18899.81
834.026	18979.36
834.351	19040.38
834.677	18948.17
835.003	18976.2
835.329	19001.51
835.654	18952.92
835.98	18764.68
836.306	18862.75
836.631	18749.08
836.956	18782.08
837.282	18840.38
837.607	18665.92
837.932	18658.92
838.258	18643.1
838.583	18672.7
838.908	18543.66
839.233	18581.86
839.558	18560.84
839.883	18402.2
840.208	18449.66
840.533	18297.34
840.858	18448.3
841.182	18360.17
841.507	18308.87
841.832	18226.16
842.156	18216.67
842.481	18246.95
842.805	18171.7
843.13	18096.45
843.454	18059.38
843.778	17874.08
844.103	17970.12
844.427	17967.86
844.751	17901.65
845.075	17820.07
845.399	17824.59
845.723	17713.18
846.047	17704.14
846.371	17556.57
846.695	17648.77
847.019	17453.3
847.343	17309.8
847.666	17299.18
847.99	17204.27
848.313	17093.99
848.637	17066.19
848.96	17116.81
849.284	16987.1
849.607	16894.67
849.931	16850.15
850.254	16632.98
850.577	16631.17
850.9	16545.07
851.223	16537.84
851.546	16526.99
851.869	16335.59
852.192	16361.8
852.515	16257.4
852.838	16101.47
853.161	16251.3
853.483	16103.73
853.806	15941.25
854.129	16045.43
854.451	15923.85
854.774	15921.36
855.096	15834.36
855.419	15703.06
855.741	15738.77
856.063	15625.32
856.385	15684.53
856.708	15547.13
857.03	15502.61
857.352	15590.52
857.674	15418.1
857.996	15326.35
858.318	15324.31
858.64	15240.25
858.961	15266.01
859.283	15218.1
859.605	15133.59
859.926	15170.87
860.248	15182.4
860.57	14954.38
860.891	15018.33
861.212	14965
861.534	14893.82
861.855	14901.05
862.176	14882.52
862.498	14898.56
862.819	14890.65
863.14	14771.56
863.461	14695.4
863.782	14718.45
864.103	14718.68
864.424	14639.36
864.745	14687.04
865.065	14535.86
865.386	14617.67
865.707	14619.25
866.027	14579.02
866.348	14513.26
866.668	14445.92
866.989	14390.1
867.309	14298.13
867.63	14378.35
867.95	14376.54
868.27	14161.18
868.59	14265.13
868.91	14280.27
869.23	14276.21
869.55	14188.53
869.87	14191.01
870.19	14170.45
870.51	14156.44
870.83	14186.94
871.15	14058.13
871.469	14057.68
871.789	14158.7
872.109	14059.72
872.428	13895.88
872.748	14012.94
873.067	14033.5
873.386	13908.08
873.706	13966.61
874.025	13895.43
874.344	13821.76
874.663	13794.41
874.982	13796.45
875.301	13803.68
875.62	13820.63
875.939	13660.86
876.258	13788.54
876.577	13615.43
876.896	13684.58
877.214	13588.99
877.533	13679.39
877.852	13657.24
878.17	13574.76
878.489	13635.77
878.807	13610.46
879.125	13526.4
879.444	13542.89
879.762	13498.37
880.08	13407.75
880.398	13340.86
880.716	13434.19
881.034	13338.83
881.352	13352.16
881.67	13300.64
881.988	13323.24
882.306	13253.63
882.624	13203.01
882.941	13162.79
883.259	13138.61
883.577	13124.37
883.894	13108.78
884.212	13046.41
884.529	13017.93
884.846	13022
885.164	13034.21
885.481	12951.04
885.798	12933.42
886.115	12867.66
886.432	12838.05
886.75	12752.4
887.067	12755.34
887.383	12666.53
887.7	12703.14
888.017	12689.36
888.334	12688.68
888.651	12645.06
888.967	12683.93
889.284	12539.53
889.6	12443.26
889.917	12378.18
890.233	12402.36
890.55	12351.06
890.866	12324.17
891.182	12338.4
891.498	12254.56
891.815	12268.35
892.131	12202.36
892.447	12107.9
892.763	12127.79
893.079	12082.82
893.395	12015.7
893.71	12036.72
894.026	12020.9
894.342	12007.79
894.657	11880.11
894.973	11882.82
895.289	11853.9
895.604	11881.69
895.92	11758.08
896.235	11735.03
896.55	11676.95
896.865	11600.57
897.181	11638.54
897.496	11614.36
897.811	11634.92
898.126	11498.88
898.441	11470.86
898.756	11450.52
899.071	11395.15
899.386	11399.45
899.7	11296.17
900.015	11204.2
900.33	11202.16
900.644	11202.84
900.959	11209.39
901.273	11085.78
901.588	10964.66
901.902	10956.52
902.216	10944.77
902.531	10843.53
902.845	10855.51
903.159	10776.41
903.473	10831.55
903.787	10731.44
904.101	10651.9
904.415	10648.28
904.729	10634.95
905.042	10578
905.356	10530.32
905.67	10488.96
905.984	10485.12
906.297	10446.02
906.611	10418.23
906.924	10381.62
907.237	10340.94
907.551	10309.31
907.864	10270.89
908.177	10194.96
908.491	10194.28
908.804	10092.81
909.117	10164.45
909.43	10022.53
909.743	10018.69
910.056	10014.62
910.368	9904.8
910.681	9882.2
910.994	9856.89
911.307	9804.01
911.619	9698.7
911.932	9771.01
912.244	9642.43
912.557	9672.26
912.869	9550
913.181	9498.03
913.494	9515.2
913.806	9453.51
914.118	9412.61
914.43	9355.88
914.742	9286.28
915.054	9295.77
915.366	9248.09
915.678	9258.26
915.99	9143.69
916.302	9149.34
916.613	9100.07
916.925	9114.31
917.236	9077.7
917.548	8969.45
917.859	9030.92
918.171	8887.65
918.482	8876.35
918.794	8817.14
919.105	8799.74
919.416	8755.9
919.727	8730.36
920.038	8731.95
920.349	8719.74
920.66	8658.73
920.971	8598.84
921.282	8570.59
921.593	8446.08
921.903	8501.44
922.214	8427.32
922.525	8398.62
922.835	8357.72
923.146	8325.18
923.456	8291.05
923.767	8236.37
924.077	8209.93
924.387	8235.01
924.697	8113.2
925.008	8129.02
925.318	8084.05
925.628	8011.29
925.938	7991.17
926.248	7972.64
926.558	7904.17
926.867	7909.14
927.177	7805.64
927.487	7776.49
927.796	7755.25
928.106	7712.54
928.416	7663.5
928.725	7756.6
929.034	7652.88
929.344	7698.98
929.653	7635.25
929.962	7618.53
930.271	7525.88
930.581	7450.17
930.89	7473
931.199	7455.82
931.508	7408.59
931.817	7370.4
932.125	7339.21
932.434	7304.64
932.743	7242.49
933.051	7216.51
933.36	7252.44
933.669	7157.75
933.977	7108.94
934.286	7122.04
934.594	7039.33
934.902	6983.06
935.21	6967.25
935.519	6961.82
935.827	6946.46
936.135	6887.02
936.443	6874.82
936.751	6870.07
937.059	6784.65
937.367	6749.17
937.674	6806.35
937.982	6728.16
938.29	6651.77
938.597	6633.24
938.905	6647.25
939.213	6615.62
939.52	6586.24
939.827	6547.14
940.135	6506.47
940.442	6536.75
940.749	6451.1
941.056	6459.01
941.363	6372.01
941.67	6374.95
941.977	6289.52
942.284	6259.24
942.591	6302.86
942.898	6253.82
943.205	6265.12
943.511	6197.55
943.818	6186.48
944.125	6149.64
944.431	6135.63
944.738	6108.96
945.044	6077.1
945.35	6059.7
945.657	5984.67
945.963	5979.25
946.269	5927.73
946.575	5900.38
946.881	5896.77
947.187	5869.2
947.493	5858.8
947.799	5824.23
948.105	5825.81
948.41	5756.66
948.716	5727.96
949.022	5738.13
949.327	5724.12
949.633	5644.34
949.938	5587.4
950.244	5672.36
950.549	5588.3
950.854	5584.46
951.16	5592.82
951.465	5525.7
951.77	5441.18
952.075	5452.26
952.38	5448.64
952.685	5410.9
952.99	5412.48
953.294	5407.74
953.599	5371.13
953.904	5281.19
954.209	5275.09
954.513	5310.57
954.818	5281.87
955.122	5239.83
955.426	5207.74
955.731	5195.99
956.035	5129.55
956.339	5130.46
956.643	5103.11
956.948	5061.53
957.252	5062.21
957.556	5013.17
957.86	5019.27
958.163	4993.29
958.467	4993.06
958.771	4965.49
959.075	4944.47
959.378	4894.98
959.682	4895.44
959.985	4828.32
960.289	4839.39
960.592	4784.03
960.896	4803.46
961.199	4762.11
961.502	4794.87
961.805	4770.69
962.108	4719.85
962.411	4671.71
962.714	4691.6
963.017	4622
963.32	4663.8
963.623	4647.53
963.926	4616.12
964.228	4568.21
964.531	4525.05
964.833	4558.95
965.136	4515.11
965.438	4523.92
965.741	4467.42
966.043	4460.19
966.345	4439.86
966.648	4391.04
966.95	4387.88
967.252	4311.27
967.554	4333.19
967.856	4334.55
968.158	4308.79
968.46	4245.74
968.761	4237.6
969.063	4249.35
969.365	4222.91
969.666	4208.22
969.968	4186.53
970.269	4188.79
970.571	4166.87
970.872	4191.95
971.174	4135.68
971.475	4097.04
971.776	4081.67
972.077	4055.01
972.378	4056.81
972.679	4012.52
972.98	4024.5
973.281	4016.82
973.582	3968
973.883	3942.92
974.183	3947.21
974.484	3920.55
974.785	3900.43
975.085	3866.08
975.386	3859.31
975.686	3853.43
975.986	3829.93
976.287	3843.71
976.587	3755.58
976.887	3751.74
977.187	3770.27
977.487	3794.9
977.787	3724.17
978.087	3745.41
978.387	3683.26
978.687	3688.01
978.987	3649.82
979.286	3659.31
979.586	3632.42
979.885	3636.94
980.185	3596.26
980.484	3549.71
980.784	3579.76
981.083	3553.1
981.382	3539.99
981.682	3501.35
981.981	3480.56
982.28	3509.26
982.579	3490.73
982.878	3459.32
983.177	3451.63
983.475	3414.35
983.774	3372.54
984.073	3384.52
984.372	3350.62
984.67	3314.91
984.969	3374.12
985.267	3323.95
985.566	3301.58
985.864	3298.19
986.162	3268.36
986.461	3240.11
986.759	3259.1
987.057	3223.16
987.355	3218.87
987.653	3217.51
987.951	3173.67
988.249	3173.67
988.547	3126.22
988.844	3173.45
989.142	3116.73
989.44	3116.5
989.737	3113.56
990.035	3085.77
990.332	3075.82
990.63	3040.34
990.927	3031.08
991.224	3010.06
991.521	2987.24
991.819	3004.41
992.116	2994.7
992.413	3001.7
992.71	2977.29
993.006	2949.72
993.303	2923.28
993.6	2921.7
993.897	2908.14
994.193	2930.29
994.49	2880.8
994.787	2857.07
995.083	2810.07
995.379	2821.59
995.676	2857.52
995.972	2782.27
996.268	2784.53
996.565	2732.56
996.861	2732.33
997.157	2752.22
997.453	2691.65
997.749	2706.34
998.044	2681.48
998.34	2695.27
998.636	2677.64
998.932	2632.44
999.227	2606.23
999.523	2642.61
999.818	2571.66
1000.114	2574.14
1000.409	2575.05
1000.704	2550.87
1001	2549.96
1001.295	2545.22
1001.59	2519.91
1001.885	2514.03
1002.18	2519.45
1002.475	2474.93
1002.77	2460.7
1003.065	2450.98
1003.359	2428.38
1003.654	2413.92
1003.949	2419.34
1004.243	2423.41
1004.538	2372.34
1004.832	2344.09
1005.127	2353.81
1005.421	2357.42
1005.715	2353.13
1006.009	2302.28
1006.304	2313.58
1006.598	2297.09
1006.892	2278.78
1007.186	2230.2
1007.48	2259.35
1007.773	2237.43
1008.067	2234.94
1008.361	2197.88
1008.655	2216.64
1008.948	2181.16
1009.242	2190.42
1009.535	2134.6
1009.829	2121.72
1010.122	2140.03
1010.415	2114.49
1010.708	2121.27
1011.001	2095.96
1011.295	2073.14
1011.588	2073.82
1011.881	2042.63
1012.173	2050.77
1012.466	2001.5
1012.759	1995.63
1013.052	2001.95
1013.344	2010.09
1013.637	1975.06
1013.93	1987.26
1014.222	1924.89
1014.514	1944.78
1014.807	1923.76
1015.099	1907.49
1015.391	1894.39
1015.683	1878.34
1015.976	1882.41
1016.268	1890.54
1016.56	1849.87
1016.851	1851.67
1017.143	1876.31
1017.435	1817.78
1017.727	1828.62
1018.018	1809.87
1018.31	1769.64
1018.602	1772.13
1018.893	1759.25
1019.185	1740.26
1019.476	1729.87
1019.767	1723.09
1020.058	1721.51
1020.35	1694.84
1020.641	1671.34
1020.932	1670.21
1021.223	1667.27
1021.514	1646.93
1021.804	1626.14
1022.095	1617.1
1022.386	1654.62
1022.677	1612.58
1022.967	1569.87
1023.258	1615.52
1023.548	1594.96
1023.839	1568.52
1024.129	1569.42
1024.419	1549.08
1024.709	1527.62
1025	1519.25
1025.29	1507.05
1025.58	1492.14
1025.87	1481.97
1026.16	1481.29
1026.449	1457.56
1026.739	1449.88
1027.029	1475.64
1027.319	1444.45
1027.608	1442.42
1027.898	1444.23
1028.187	1406.04
1028.477	1413.95
1028.766	1412.14
1029.055	1378.69
1029.344	1365.36
1029.634	1366.26
1029.923	1376.88
1030.212	1356.09
1030.501	1333.04
1030.79	1336.89
1031.078	1328.3
1031.367	1305.93
1031.656	1312.71
1031.945	1273.61
1032.233	1272.25
1032.522	1267.51
1032.81	1289.88
1033.099	1258.92
1033.387	1267.28
1033.675	1230.45
1033.963	1254.63
1034.251	1251.46
1034.54	1215.08
1034.828	1225.93
1035.116	1194.29
1035.403	1202.2
1035.691	1175.08
1035.979	1181.86
1036.267	1170.34
1036.554	1171.47
1036.842	1166.95
1037.129	1140.28
1037.417	1142.99
1037.704	1133.28
1037.992	1130.34
1038.279	1126.04
1038.566	1099.15
1038.853	1099.15
1039.14	1099.15
