Data from White_paper_FLMS001491_016.txt Node
Date: Tue Feb 07 10:34:44 GMT 2017
User: dcchb
Spectrometer: FLMS00149
Trigger mode: 0
Integration Time (sec): 2.000000E-2
Scans to average: 10
Electric dark correction enabled: true
Nonlinearity correction enabled: false
Boxcar width: 0
XAxis mode: Wavelengths
Number of Pixels in Spectrum: 2048
>>>>>Begin Spectral Data<<<<<
341.393	-15.83
341.776	-15.83
342.16	-15.83
342.543	-53.12
342.927	-61.03
343.31	-79.11
343.693	-84.98
344.077	-68.26
344.46	-53.57
344.843	-61.26
345.226	-30.52
345.61	-16.74
345.993	-19.45
346.376	-5.21
346.759	4.28
347.142	31.85
347.525	38.18
347.908	62.58
348.291	72.3
348.674	89.02
349.057	120.89
349.44	115.24
349.823	145.52
350.206	166.54
350.588	238.62
350.971	218.74
351.354	256.93
351.737	245.63
352.119	283.37
352.502	293.99
352.884	291.5
353.267	345.74
353.65	317.72
354.032	334.44
354.414	339.86
354.797	338.28
355.179	369.24
355.562	366.53
355.944	356.36
356.326	369.02
356.709	370.15
357.091	360.65
357.473	381.22
357.855	378.51
358.238	362.24
358.62	369.92
359.002	365.4
359.384	373.54
359.766	371.28
360.148	374.67
360.53	401.11
360.912	368.11
361.294	361.56
361.676	365.4
362.057	381.9
362.439	353.2
362.821	373.08
363.203	343.03
363.584	367.21
363.966	359.98
364.348	345.51
364.729	376.47
365.111	345.51
365.493	354.33
365.874	348.23
366.256	352.07
366.637	351.16
367.019	355.46
367.4	364.5
367.781	352.29
368.163	364.04
368.544	335.34
368.925	357.72
369.306	376.7
369.688	370.82
370.069	360.88
370.45	358.85
370.831	361.11
371.212	385.74
371.593	360.43
371.974	364.5
372.355	386.64
372.736	380.99
373.117	365.63
373.498	369.92
373.879	390.94
374.26	361.56
374.641	366.98
375.021	381.22
375.402	386.64
375.783	374.67
376.163	404.04
376.544	395.68
376.925	384.16
377.305	372.63
377.686	397.04
378.066	384.16
378.447	388.45
378.827	379.18
379.208	382.35
379.588	398.39
379.968	406.3
380.349	413.99
380.729	424.16
381.109	415.79
381.489	413.08
381.87	408.34
382.25	411.95
382.63	423.7
383.01	429.35
383.39	426.64
383.77	441.1
384.15	406.98
384.53	443.36
384.91	444.95
385.29	411.5
385.67	438.84
386.049	435
386.429	451.73
386.809	441.78
387.189	467.77
387.568	448.11
387.948	447.21
388.328	452.18
388.707	488.33
389.087	501.89
389.466	491.05
389.846	511.84
390.225	512.74
390.605	475.91
390.984	507.54
391.363	503.02
391.743	519.75
392.122	508.9
392.501	524.27
392.881	536.24
393.26	533.76
393.639	515.9
394.018	537.6
394.397	529.46
394.776	525.4
395.155	543.25
395.534	540.54
395.913	557.03
396.292	563.81
396.671	570.82
397.05	572.4
397.429	580.08
397.808	562.91
398.186	559.29
398.565	607.2
398.944	600.65
399.323	610.59
399.701	610.14
400.08	609.46
400.458	632.06
400.837	623.47
401.215	661.66
401.594	667.76
401.972	645.84
402.351	669.12
402.729	685.17
403.107	706.18
403.486	705.5
403.864	715.9
404.242	719.29
404.62	729.91
404.999	746.41
405.377	744.15
405.755	755.45
406.133	790.02
406.511	766.29
406.889	822.79
407.267	828.89
407.645	846.52
408.023	866.86
408.401	905.72
408.779	931.94
409.156	938.27
409.534	939.17
409.912	963.8
410.29	999.28
410.667	1019.62
411.045	1024.14
411.422	1078.38
411.8	1121.31
412.178	1140.07
412.555	1159.5
412.933	1150.92
413.31	1208.09
413.687	1241.76
414.065	1246.51
414.442	1293.96
414.819	1320.4
415.197	1364.7
415.574	1370.12
415.951	1400.63
416.328	1412.38
416.705	1470
417.082	1479.04
417.46	1514.75
417.837	1529.21
418.214	1585.03
418.591	1595.65
418.967	1601.98
419.344	1651.92
419.721	1653.05
420.098	1677
420.475	1768.07
420.852	1754.97
421.228	1766.27
421.605	1826.83
421.982	1808.07
422.358	1852.14
422.735	1872.25
423.111	1860.05
423.488	1921.74
423.864	1926.71
424.241	1993.61
424.617	2015.75
424.994	2053.94
425.37	2060.5
425.746	2076.32
426.123	2114.96
426.499	2114.28
426.875	2150.66
427.251	2213.04
427.627	2273.6
428.003	2234.28
428.379	2311.56
428.756	2308.85
429.132	2370.09
429.507	2425.68
429.883	2425.01
430.259	2490.77
430.635	2503.65
431.011	2563.99
431.387	2567.38
431.763	2677.2
432.138	2633.14
432.514	2725.79
432.89	2739.57
433.265	2808.5
433.641	2823.19
434.016	2827.71
434.392	2914.94
434.767	2991.77
435.143	2979.79
435.518	2993.58
435.894	3031.32
436.269	3049.17
436.644	3137.76
437.02	3175.27
437.395	3193.12
437.77	3224.76
438.145	3312.22
438.52	3285.55
438.895	3350.86
439.271	3367.58
439.646	3476.96
440.021	3456.39
440.395	3504.3
440.77	3466.56
441.145	3474.92
441.52	3564.86
441.895	3586.33
442.27	3624.98
442.645	3650.06
443.019	3684.18
443.394	3668.59
443.769	3679.21
444.143	3701.13
444.518	3742.26
444.892	3755.59
445.267	3760.34
445.641	3828.13
446.016	3842.6
446.39	3852.31
446.764	3907.68
447.139	3884.86
447.513	3959.66
447.887	3974.12
448.262	3937.06
448.636	3998.07
449.01	4064.74
449.384	4085.08
449.758	4069.71
450.132	4156.94
450.506	4213.89
450.88	4203.27
451.254	4234.45
451.628	4271.96
452.002	4332.08
452.376	4346.54
452.75	4366.65
453.123	4470.15
453.497	4473.77
453.871	4526.65
454.244	4577.04
454.618	4642.58
454.992	4688.45
455.365	4752.4
455.739	4846.41
456.112	4832.63
456.486	4903.36
456.859	4936.13
457.232	5019.97
457.606	4980.65
457.979	5099.51
458.352	5185.16
458.725	5262.45
459.099	5298.83
459.472	5372.05
459.845	5466.51
460.218	5500.18
460.591	5529.56
460.964	5660.4
461.337	5710.12
461.71	5772.94
462.083	5885.25
462.456	5908.53
462.829	5932.94
463.201	6014.52
463.574	6037.57
463.947	6116.66
464.32	6232.82
464.692	6324.57
465.065	6398.46
465.438	6416.54
465.81	6570.43
466.183	6645.23
466.555	6762.29
466.928	6831.44
467.3	6808.62
467.672	6927.26
468.045	7080.48
468.417	7094.94
468.789	7179.46
469.161	7335.61
469.534	7456.06
469.906	7572.22
470.278	7602.95
470.65	7675.94
471.022	7873
471.394	7961.13
471.766	8057.18
472.138	8239.77
472.51	8354.34
472.882	8503.04
473.253	8540.33
473.625	8631.62
473.997	8822.13
474.369	8901.67
474.74	8982.12
475.112	9164.49
475.484	9313.19
475.855	9501.43
476.227	9551.6
476.598	9843.34
476.97	9878.37
477.341	10068.87
477.713	10235.87
478.084	10331.69
478.455	10577.79
478.827	10687.61
479.198	10999.02
479.569	10975.06
479.94	11334.83
480.311	11406.69
480.682	11659.57
481.053	12014.13
481.424	12047.35
481.795	12255.48
482.166	12394.01
482.537	12592.2
482.908	12830.83
483.279	12964.16
483.65	13243.48
484.021	13449.8
484.391	13541.32
484.762	13660.42
485.133	13813.63
485.503	14011.82
485.874	14274.86
486.244	14412.94
486.615	14709.88
486.985	14845.25
487.356	15032.81
487.726	15238.23
488.097	15501.27
488.467	15610.65
488.837	15955.27
489.207	16084.31
489.578	16232.33
489.948	16481.36
490.318	16691.98
490.688	16774.23
491.058	17110.72
491.428	17275.46
491.798	17467.78
492.168	17673.65
492.538	17763.36
492.908	17991.83
493.278	18248.32
493.648	18146.18
494.017	18466.84
494.387	18715.2
494.757	18774.18
495.126	18912.71
495.496	19043.1
495.866	19150.44
496.235	19413.71
496.605	19532.13
496.974	19653.71
497.344	19828.84
497.713	19994.94
498.082	20132.56
498.452	20326.68
498.821	20375.72
499.19	20453.23
499.559	20664.53
499.928	20842.83
500.298	20921.47
500.667	21136.61
501.036	21149.71
501.405	21375.24
501.774	21367.33
502.143	21648.91
502.512	21727.55
502.88	21911.27
503.249	21881.9
503.618	22058.61
503.987	22207.76
504.356	22413.86
504.724	22515.33
505.093	22572.5
505.462	22584.7
505.83	22957.35
506.199	23030.34
506.567	23398.69
506.936	23292.03
507.304	23553.72
507.672	23646.82
508.041	23785.12
508.409	23929.53
508.777	24096.08
509.145	24261.27
509.514	24314.6
509.882	24613.58
510.25	24620.36
510.618	24789.84
510.986	24875.72
511.354	25136.05
511.722	25338.53
512.09	25510.5
512.458	25570.16
512.826	25828.01
513.193	25919.53
513.561	26047.44
513.929	26279.29
514.297	26464.6
514.664	26628.66
515.032	26630.25
515.4	26831.14
515.767	26978.03
516.135	27235.2
516.502	27046.51
516.869	27535.31
517.237	27713.16
517.604	27610.33
517.972	27871.57
518.339	28091.9
518.706	28188.62
519.073	28391.33
519.44	28600.14
519.808	28876.74
520.175	28779.34
520.542	29380.46
520.909	29394.69
521.276	29434.47
521.643	29755.81
522.009	29903.83
522.376	30020.67
522.743	30265.18
523.11	30693.87
523.477	30836.92
523.843	31094.54
524.21	31278.26
524.577	31366.84
524.943	31675.31
525.31	31676.89
525.676	32137.9
526.043	32296.76
526.409	32425.12
526.776	32782.4
527.142	32899.69
527.508	33087.48
527.874	33234.82
528.241	33466.68
528.607	33675.94
528.973	33855.14
529.339	33890.62
529.705	34305.52
530.071	34385.52
530.437	34591.84
530.803	34735.12
531.169	35020.76
531.535	34946.19
531.901	35135.11
532.267	35302.79
532.632	35632.04
532.998	35696
533.364	35841.53
533.73	35914.75
534.095	36373.94
534.461	36371.46
534.826	36588.18
535.192	36688.96
535.557	36864.55
535.923	36956.53
536.288	37079.24
536.653	37238.1
537.019	37311.1
537.384	37466.35
537.749	37573.01
538.114	37761.25
538.479	37762.16
538.845	38003.96
539.21	38155.37
539.575	38347.68
539.94	38317.85
540.305	38590.38
540.67	38490.27
541.034	38843.48
541.399	38974.55
541.764	39007.32
542.129	39335.67
542.494	39283.47
542.858	39479.85
543.223	39539.06
543.587	39795.78
543.952	39785.83
544.316	39964.58
544.681	39874.64
545.045	40229.89
545.41	40223.11
545.774	40492.25
546.138	40558.69
546.503	40628.07
546.867	40724.79
547.231	41025.12
547.595	41169.52
547.959	41263.53
548.324	41233.7
548.688	41409.52
549.052	41540.81
549.416	41645.22
549.779	41751.88
550.143	41910.07
550.507	42219.44
550.871	42314.81
551.235	42133.79
551.599	42506.44
551.962	42609.26
552.326	42749.6
552.689	43029.36
553.053	42766.32
553.417	42999.76
553.78	43458.73
554.143	43210.6
554.507	43617.14
554.87	43752.51
555.234	43963.8
555.597	43830.92
555.96	44187.98
556.323	44269.56
556.686	44319.05
557.05	44665.03
557.413	44583.67
557.776	44798.36
558.139	45099.14
558.502	45070.44
558.865	45228.63
559.228	45476.53
559.59	45596.75
559.953	45634.49
560.316	45943.18
560.679	46039.23
561.041	46362.61
561.404	46375.26
561.767	46612.32
562.129	46626.78
562.492	47076.94
562.854	46922.82
563.217	47065.87
563.579	47130.27
563.941	47484.39
564.304	47574.33
564.666	47866.52
565.028	47848.22
565.39	48047.31
565.753	48249.56
566.115	48478.26
566.477	48565.26
566.839	48732.04
567.201	48878.47
567.563	48954.63
567.925	49186.72
568.287	49265.13
568.648	49255.41
569.01	49488.18
569.372	49729.53
569.734	49643.2
570.095	49910.99
570.457	50080.93
570.819	50204.54
571.18	50244.54
571.542	50417.87
571.903	50402.28
572.265	50595.49
572.626	50731.99
572.987	50767.69
573.349	50834.81
573.71	51007.91
574.071	51125.65
574.432	51167.68
574.794	51546.2
575.155	51479.76
575.516	51363.61
575.877	51520.67
576.238	51617.61
576.599	51748.68
576.96	51839.3
577.32	51899.64
577.681	52015.12
578.042	52071.84
578.403	52098.5
578.763	52068.9
579.124	52205.39
579.485	52326.75
579.845	52433.86
580.206	52388.66
580.566	52432.73
580.927	52394.09
581.287	52632.73
581.648	52503.01
582.008	52721.99
582.368	52686.06
582.728	52761.31
583.089	52674.31
583.449	52717.24
583.809	52873.62
584.169	52853.51
584.529	52812.38
584.889	53026.16
585.249	52863
585.609	52885.83
585.969	53013.73
586.329	52932.61
586.688	53004.47
587.048	53008.31
587.408	53039.27
587.768	52953.17
588.127	52988.88
588.487	53025.48
588.846	53209.66
589.206	53047.86
589.565	53067.07
589.925	53177.8
590.284	53163.56
590.643	53217.12
591.003	53316.55
591.362	53377.34
591.721	53373.95
592.08	53323.78
592.44	53330.11
592.799	53353.16
593.158	53298.7
593.517	53338.24
593.876	53490.56
594.235	53311.35
594.593	53402.42
594.952	53539.6
595.311	53371.01
595.67	53484.68
596.029	53621.85
596.387	53689.42
596.746	53778.01
597.104	53606.26
597.463	53602.87
597.822	53772.58
598.18	53623.21
598.538	53612.81
598.897	53770.1
599.255	53534.62
599.613	54032.24
599.972	53856.42
600.33	53849.87
600.688	53780.04
601.046	53840.83
601.404	54042.63
601.762	53970.77
602.12	54114.95
602.478	54118.11
602.836	54069.52
603.194	53848.74
603.552	54076.53
603.91	53920.6
604.268	54160.37
604.625	54058.9
604.983	54122.86
605.341	54024.33
605.698	54207.15
606.056	54267.94
606.413	54199.01
606.771	54352
607.128	54371.66
607.485	54124.44
607.843	54238.33
608.2	54397.2
608.557	54499.57
608.914	54380.48
609.272	54448.72
609.629	54529.4
609.986	54669.73
610.343	54476.97
610.7	54747.02
611.057	54633.35
611.414	54604.43
611.771	54638.55
612.127	54727.13
612.484	54674.03
612.841	54789.96
613.198	54723.74
613.554	54697.53
613.911	54917.64
614.267	54893.91
614.624	54867.7
614.98	54910.63
615.337	54970.52
615.693	54925.55
616.05	54895.72
616.406	55083.96
616.762	54927.81
617.118	54910.86
617.475	55080.8
617.831	55053.68
618.187	55119.44
618.543	55036.73
618.899	55208.03
619.255	55150.85
619.611	55199.21
619.967	55206.67
620.323	55286.89
620.678	55190.63
621.034	55165.99
621.39	55106.56
621.746	55164.19
622.101	55429.49
622.457	55156.05
622.812	55288.02
623.168	55300.23
623.523	55242.6
623.879	55364.63
624.234	55187.01
624.589	55281.92
624.945	55312.88
625.3	55266.56
625.655	55311.53
626.01	55315.59
626.365	55347.23
626.72	55218.87
627.075	55308.36
627.43	55311.98
627.785	55279.66
628.14	55280.11
628.495	55359.21
628.85	55335.71
629.205	55224.52
629.559	55421.81
629.914	55209.61
630.269	55330.06
630.623	55230.85
630.978	55168.03
631.332	55357.17
631.687	55321.92
632.041	55206.22
632.396	55203.28
632.75	55204.86
633.104	55267.01
633.459	55056.62
633.813	55082.61
634.167	55037.63
634.521	55119.21
634.875	55174.81
635.229	55121.93
635.583	54938.2
635.937	54953.57
636.291	55009.16
636.645	54920.8
636.999	54957.41
637.352	55018.2
637.706	54856.17
638.06	55016.84
638.413	54904.3
638.767	54856.62
639.121	54936.62
639.474	54860.46
639.828	54816.62
640.181	54813.01
640.534	54850.75
640.888	54740.69
641.241	54639.45
641.594	54687.36
641.947	54786.79
642.301	54689.62
642.654	54751.77
643.007	54732.11
643.36	54683.29
643.713	54678.77
644.066	54716.74
644.419	54567.59
644.771	54307.71
645.124	54071.11
645.477	54113.14
645.83	53939.81
646.182	53806.71
646.535	53776.88
646.888	53858.91
647.24	53699.59
647.593	53883.77
647.945	53787.05
648.298	53718.8
648.65	53567.62
649.002	53499.82
649.355	53672.7
649.707	53628.63
650.059	53703.21
650.411	54067.72
650.763	54150.65
651.115	54495.95
651.467	54292.8
651.819	54311.1
652.171	54244.21
652.523	54227.49
652.875	54170.76
653.227	54102.52
653.578	54277.65
653.93	54220.26
654.282	54121.27
654.633	54007.83
654.985	54163.31
655.337	54071.78
655.688	54062.07
656.039	54211.89
656.391	53914.5
656.742	54002.18
657.094	53940.04
657.445	54159.69
657.796	53983.43
658.147	54001.05
658.498	53916.08
658.849	53917.44
659.2	53954.95
659.551	53935.06
659.902	54005.12
660.253	53931.68
660.604	53898.23
660.955	53746.82
661.306	53926.93
661.656	53876.99
662.007	53838.12
662.358	53779.59
662.708	53758.35
663.059	53834.5
663.409	53637.22
663.76	53759.93
664.11	53779.14
664.461	53807.38
664.811	53828.63
665.161	53790.66
665.511	53627.95
665.862	53705.92
666.212	53740.72
666.562	53792.7
666.912	53678.35
667.262	53630.44
667.612	53608.75
667.962	53649.65
668.312	53722.42
668.662	53828.18
669.011	53629.76
669.361	53621.85
669.711	53603.32
670.06	53567.16
670.41	53509.09
670.76	53409.88
671.109	53561.29
671.459	53504.57
671.808	53411.01
672.157	53439.48
672.507	53298.25
672.856	53326.49
673.205	53291.47
673.554	53413.27
673.904	53305.7
674.253	53383.44
674.602	53319.94
674.951	52866.62
675.3	52573.29
675.649	53149.77
675.998	53095.09
676.346	53106.39
676.695	53201.52
677.044	52932.83
677.393	53033.62
677.741	53025.03
678.09	52906.62
678.438	52853.96
678.787	52956.56
679.135	52931.25
679.484	52719.05
679.832	52745.27
680.181	52504.37
680.529	52634.31
680.877	52620.98
681.225	52596.12
681.573	52749.56
681.922	52462.79
682.27	52416.23
682.618	52345.28
682.966	52312.73
683.314	52327.2
683.661	52354.77
684.009	52065.06
684.357	52055.57
684.705	51997.49
685.053	52030.93
685.4	52020.31
685.748	51797.72
686.095	51654.22
686.443	51738.29
686.79	51545.3
687.138	51599.08
687.485	51619.87
687.832	51477.95
688.18	51543.94
688.527	51283.84
688.874	51220.11
689.221	51177.17
689.568	51072.77
689.915	50987.8
690.262	50956.39
690.609	50991.87
690.956	50818.31
691.303	50763.62
691.65	50588.26
691.997	50499.22
692.344	50351.2
692.69	50259.46
693.037	50217.2
693.383	50072.57
693.73	50113.92
694.077	49997.99
694.423	49842.74
694.769	49762.52
695.116	49710.09
695.462	49519.81
695.808	49541.06
696.155	49562.07
696.501	49286.37
696.847	49191.91
697.193	49063.78
697.539	49151.91
697.885	48882.77
698.231	48856.78
698.577	48774.52
698.923	48651.81
699.269	48531.37
699.614	48351.03
699.96	48303.35
700.306	48255.44
700.651	48180.64
700.997	48001.89
701.342	47918.5
701.688	47872.85
702.033	47676.47
702.379	47665.17
702.724	47634.21
703.069	47701.33
703.415	47138.41
703.76	47295.01
704.105	47290.95
704.45	47157.62
704.795	46991.29
705.14	46898.19
705.485	46820.22
705.83	46600.12
706.175	46744.75
706.52	46590.63
706.865	46435.15
707.209	46400.35
707.554	46250.3
707.899	46327.81
708.243	46105.67
708.588	45942.96
708.932	45685.56
709.277	45779.35
709.621	45751.33
709.966	45490.32
710.31	45564.66
710.654	45244.22
710.998	45485.8
711.342	45372.8
711.687	45213.03
712.031	45030.21
712.375	44926.94
712.719	44975.75
713.063	44961.52
713.407	44990.44
713.75	44768.98
714.094	44798.13
714.438	44627.74
714.782	44554.97
715.125	44402.66
715.469	44467.52
715.812	44166.28
716.156	44119.73
716.499	44041.54
716.843	43996.34
717.186	43858.49
717.53	43961.54
717.873	43989.11
718.216	43781.21
718.559	43700.76
718.902	43412.63
719.246	43447.21
719.589	43464.83
719.932	43234.1
720.275	43158.85
720.617	43215.8
720.96	43255.8
721.303	43177.16
721.646	43069.14
721.989	42871.63
722.331	42991.4
722.674	42823.94
723.016	42938.52
723.359	42665.76
723.701	42804.96
724.044	42511.86
724.386	42372.43
724.729	42418.53
725.071	42588.02
725.413	42353.9
725.755	42249.5
726.097	42207.01
726.439	41945.55
726.782	41978.77
727.124	42242.26
727.465	41891.99
727.807	41972.89
728.149	41845.89
728.491	41869.39
728.833	41806.8
729.175	41494.49
729.516	41571.55
729.858	41596.86
730.199	41498.1
730.541	41496.07
730.882	41374.72
731.224	41481.16
731.565	41165.23
731.906	41179.24
732.248	41295.85
732.589	40991
732.93	40989.87
733.271	40969.98
733.612	41038.68
733.953	41012.24
734.294	40752.13
734.635	40772.93
734.976	40768.18
735.317	40590.78
735.658	40549.65
735.999	40508.98
736.339	40451.35
736.68	40370.9
737.021	40190.79
737.361	40346.5
737.702	40507.17
738.042	40332.26
738.383	40222.66
738.723	40130.91
739.063	40077.8
739.404	40230.34
739.744	40061.98
740.084	39869.22
740.424	39819.28
740.764	39717.59
741.104	40011.59
741.444	39636.46
741.784	39620.86
742.124	39633.97
742.464	39593.3
742.804	39459.97
743.143	39502.9
743.483	39538.83
743.823	39274.43
744.162	39247.32
744.502	39350.14
744.841	39167.09
745.181	39284.83
745.52	39130.03
745.86	39271.95
746.199	38963.03
746.538	39006.64
746.877	38908.57
747.216	39056.59
747.556	38722.58
747.895	38826.54
748.234	38580.89
748.573	38527.11
748.911	38615.92
749.25	38593.1
749.589	38448.69
749.928	38471.74
750.267	38502.7
750.605	38279.88
750.944	38309.49
751.283	38079.44
751.621	38156.27
751.96	38022.04
752.298	37915.83
752.636	37933.23
752.975	37751.54
753.313	37716.28
753.651	37708.15
753.989	37505.67
754.327	37575.27
754.666	37455.05
755.004	37447.59
755.342	37359
755.679	37460.7
756.017	37128.05
756.355	37167.14
756.693	37103.87
757.031	37010.54
757.368	36818.68
757.706	36733.26
758.044	36728.06
758.381	36562.41
758.719	36580.27
759.056	36367.39
759.394	36476.54
759.731	36192.71
760.068	36029.32
760.405	36005.82
760.743	35886.95
761.08	35905.26
761.417	35817.12
761.754	35722.21
762.091	35672.04
762.428	35439.96
762.765	35231.6
763.102	35319.28
763.438	35127.88
763.775	35063.02
764.112	35020.99
764.449	35117.93
764.785	34734.21
765.122	34628
765.458	34521.34
765.795	34426.88
766.131	34431.17
766.467	34303.49
766.804	34048.58
767.14	34006.78
767.476	34015.59
767.812	33730.17
768.148	33824.63
768.485	33633.9
768.821	33547.13
769.157	33501.03
769.492	33346.68
769.828	33256.96
770.164	33033.69
770.5	33010.19
770.836	32983.07
771.171	32741.5
771.507	32720.71
771.842	32423.77
772.178	32438.45
772.513	32471.9
772.849	32272.81
773.184	32215.86
773.519	32033.49
773.855	31965.02
774.19	31768.42
774.525	31734.97
774.86	31660.4
775.195	31721.64
775.53	31570.46
775.865	31400.74
776.2	31067.87
776.535	30840.53
776.87	30950.58
777.205	30765.05
777.539	30716.69
777.874	30751.27
778.209	30336.59
778.543	30413.65
778.878	30082.81
779.212	30196.25
779.547	30013.66
779.881	29954.9
780.215	29864.29
780.55	29884.85
780.884	29653.67
781.218	29595.37
781.552	29617.51
781.886	29453.67
782.22	29197.64
782.554	29147.69
782.888	28961.71
783.222	28800.13
783.556	28685.33
783.889	28609.18
784.223	28433.36
784.557	28402.18
784.89	28471.78
785.224	28219.13
785.557	28235.85
785.891	27977.56
786.224	27956.09
786.558	27990.21
786.891	27788.86
787.224	27648.3
787.557	27533.73
787.891	27430.45
788.224	27455.08
788.557	27532.6
788.89	27282.88
789.223	27265.71
789.556	27072.95
789.888	26933.06
790.221	26961.08
790.554	26779.39
790.887	26826.17
791.219	26608.78
791.552	26537.59
791.884	26431.83
792.217	26408.11
792.549	26228.67
792.882	26022.13
793.214	25919.76
793.546	26017.61
793.879	25856.48
794.211	25753.43
794.543	25881.57
794.875	25644.74
795.207	25723.83
795.539	25523.83
795.871	25429.83
796.203	25273.45
796.535	25242.03
796.867	25228.02
797.198	25066.22
797.53	24936.51
797.862	24883.4
798.193	24734.25
798.525	24681.82
798.856	24767.92
799.188	24477.08
799.519	24395.95
799.85	24303.08
800.182	24320.25
800.513	24303.08
800.844	24163.19
801.175	24293.58
801.506	24118.9
801.837	24033.93
802.168	23976.76
802.499	23886.82
802.83	23760.72
803.161	23687.05
803.491	23518.46
803.822	23628.29
804.153	23500.84
804.483	23212.93
804.814	23360.95
805.145	23270.33
805.475	23208.42
805.805	23032.6
806.136	23059.27
806.466	23053.17
806.796	23109.89
807.126	22805.26
807.457	22882.77
807.787	22796.67
808.117	22656.11
808.447	22655.44
808.777	22691.37
809.107	22510.81
809.436	22378.83
809.766	22443.69
810.096	22311.26
810.426	22244.6
810.755	22267.65
811.085	22240.08
811.414	22138.84
811.744	21954.44
812.073	21998.5
812.403	21967.09
812.732	21835.57
813.061	21865.63
813.39	21673.77
813.719	21658.17
814.049	21695.46
814.378	21600.55
814.707	21479.87
815.036	21490.72
815.365	21382.7
815.693	21284.62
816.022	21322.59
816.351	21196.72
816.68	21102.03
817.008	21102.03
817.337	20876.73
817.665	20852.09
817.994	20940.9
818.322	20948.14
818.651	20802.38
818.979	20699.78
819.307	20761.47
819.636	20750.4
819.964	20437.19
820.292	20686.22
820.62	20612.1
820.948	20497.98
821.276	20599.22
821.604	20581.37
821.932	20571.65
822.259	20588.15
822.587	20539.33
822.915	20501.82
823.243	20513.57
823.57	20430.64
823.898	20479.67
824.225	20436.28
824.553	20426.79
824.88	20375.72
825.207	20486.23
825.535	20398.32
825.862	20531.2
826.189	20400.81
826.516	20475.61
826.843	20453.01
827.17	20479.67
827.497	20503.4
827.824	20442.61
828.151	20489.39
828.478	20415.27
828.805	20524.42
829.131	20426.34
829.458	20286.91
829.785	20241.94
830.111	20363.29
830.438	20442.16
830.764	20438.77
831.09	20363.52
831.417	20255.95
831.743	20347.47
832.069	20234.71
832.395	20151.77
832.722	20438.09
833.048	20221.6
833.374	20206.69
833.7	20189.06
834.026	20198.1
834.351	20294.59
834.677	20130.08
835.003	20214.82
835.329	20216.4
835.654	20156.52
835.98	20039.01
836.306	20086.24
836.631	19977.54
836.956	20060.25
837.282	20017.54
837.607	19799.24
837.932	19805.11
838.258	19820.48
838.583	19793.14
838.908	19720.82
839.233	19813.48
839.558	19767.6
839.883	19673.59
840.208	19591.56
840.533	19540.26
840.858	19523.31
841.182	19559.47
841.507	19483.77
841.832	19395.18
842.156	19375.07
842.481	19310.89
842.805	19366.26
843.13	19292.81
843.454	19275.19
843.778	19215.07
844.103	19040.16
844.427	19113.38
844.751	19114.06
845.075	18927.85
845.399	18948.41
845.723	18773.73
846.047	18930.56
846.371	18672.49
846.695	18793.62
847.019	18563.11
847.343	18433.17
847.666	18416
847.99	18239.51
848.313	18282.67
848.637	18120.87
848.96	18108.89
849.284	18155.21
849.607	18028.89
849.931	17930.59
850.254	17827.54
850.577	17734.43
850.9	17609.01
851.223	17554.55
851.546	17522.46
851.869	17445.85
852.192	17565.17
852.515	17276.59
852.838	17228.69
853.161	17273.43
853.483	17181.46
853.806	17032.98
854.129	17037.96
854.451	17009.26
854.774	16914.34
855.096	16768.58
855.419	16859.88
855.741	16791.18
856.063	16660.56
856.385	16632.54
856.708	16587.57
857.03	16493.11
857.352	16574.24
857.674	16421.7
857.996	16348.48
858.318	16311.2
858.64	16331.99
858.961	16254.7
859.283	16197.53
859.605	16076.17
859.926	16203.4
860.248	16097.64
860.57	15926.8
860.891	15976.29
861.212	15957.31
861.534	15849.74
861.855	15845.44
862.176	15910.75
862.498	15857.65
862.819	15895.16
863.14	15795.95
863.461	15780.14
863.782	15735.17
864.103	15690.42
864.424	15651.33
864.745	15719.57
865.065	15638.67
865.386	15425.34
865.707	15540.37
866.027	15537.66
866.348	15439.58
866.668	15551.89
866.989	15318
867.309	15339.47
867.63	15255.18
867.95	15319.81
868.27	15264.67
868.59	15303.09
868.91	15181.51
869.23	15240.04
869.55	15074.84
869.87	15253.6
870.19	15123.88
870.51	15132.7
870.83	15152.36
871.15	14955.07
871.469	15023.55
871.789	15027.84
872.109	14966.82
872.428	14881.63
872.748	15016.09
873.067	14955.98
873.386	14903.1
873.706	14949.65
874.025	14795.76
874.344	14756.21
874.663	14828.52
874.982	14755.53
875.301	14753.95
875.62	14618.58
875.939	14650.67
876.258	14583.56
876.577	14599.15
876.896	14582.65
877.214	14545.82
877.533	14558.47
877.852	14569.32
878.17	14532.49
878.489	14505.37
878.807	14484.12
879.125	14408.87
879.444	14406.16
879.762	14326.16
880.08	14380.85
880.398	14231.48
880.716	14284.13
881.034	14269.89
881.352	14255.66
881.67	14141.76
881.988	14127.3
882.306	14122.33
882.624	14123
882.941	14022.89
883.259	13940.18
883.577	13932.05
883.894	13918.72
884.212	13934.08
884.529	13864.25
884.846	13879.85
885.164	13893.41
885.481	13787.19
885.798	13826.06
886.115	13706.74
886.432	13690.47
886.75	13720.3
887.067	13696.57
887.383	13595.56
887.7	13557.82
888.017	13579.74
888.334	13586.07
888.651	13495.45
888.967	13436.92
889.284	13443.93
889.6	13333.87
889.917	13277.15
890.233	13296.59
890.55	13240.77
890.866	13168.45
891.182	13154.89
891.498	13124.39
891.815	13090.94
892.131	13016.82
892.447	12979.53
892.763	12920.55
893.079	12954
893.395	12891.17
893.71	12824.28
894.026	12845.75
894.342	12783.15
894.657	12717.39
894.973	12629.71
895.289	12677.84
895.604	12671.07
895.92	12534.12
896.235	12472.43
896.55	12498.64
896.865	12456.61
897.181	12411.64
897.496	12441.92
897.811	12329.61
898.126	12369.38
898.441	12191.76
898.756	12219.33
899.071	12125.77
899.386	12133.9
899.7	12024.3
900.015	11946.11
900.33	11897.53
900.644	11938.43
900.959	11904.76
901.273	11812.33
901.588	11770.52
901.902	11781.15
902.216	11670.41
902.531	11653.01
902.845	11575.73
903.159	11534.6
903.473	11484.88
903.787	11422.96
904.101	11326.24
904.415	11367.37
904.729	11281.72
905.042	11294.6
905.356	11215.96
905.67	11241.05
905.984	11170.54
906.297	11156.53
906.611	11076.3
906.924	11072.24
907.237	11085.57
907.551	10952.24
907.864	10891.9
908.177	10841.28
908.491	10803.32
908.804	10711.57
909.117	10785.92
909.43	10671.12
909.743	10522.2
910.056	10591.8
910.368	10557.22
910.681	10409.43
910.994	10508.41
911.307	10387.74
911.619	10335.99
911.932	10329.43
912.244	10250.34
912.557	10301.86
912.869	10154.75
913.181	10185.03
913.494	10126.73
913.806	10090.57
914.118	9968.31
914.43	10003.79
914.742	9955.66
915.054	9855.09
915.366	9778.26
915.678	9853.06
915.99	9767.41
916.302	9707.75
916.613	9722.44
916.925	9729.9
917.236	9661.88
917.548	9577.14
917.859	9580.3
918.171	9498.72
918.482	9440.19
918.794	9354.09
919.105	9425.95
919.416	9268.89
919.727	9309.57
920.038	9223.7
920.349	9228.22
920.66	9138.05
920.971	9169.01
921.282	9161.55
921.593	9071.84
921.903	8981.9
922.214	8963.59
922.525	8890.37
922.835	8907.55
923.146	8857.38
923.456	8833.43
923.767	8763.82
924.077	8792.07
924.387	8710.72
924.697	8673.88
925.008	8647.22
925.318	8669.81
925.628	8641.57
925.938	8555.02
926.248	8421.23
926.558	8411.06
926.867	8433.21
927.177	8390.95
927.487	8369.94
927.796	8278.86
928.106	8265.98
928.416	8225.31
928.725	8192.99
929.034	8165.87
929.344	8084.75
929.653	8116.83
929.962	8042.03
930.271	8023.96
930.581	7993.67
930.89	7955.03
931.199	7903.96
931.508	7893.34
931.817	7856.5
932.125	7818.54
932.434	7795.49
932.743	7768.6
933.051	7651.54
933.36	7661.03
933.669	7552.78
933.977	7603.63
934.286	7597.75
934.594	7516.62
934.902	7480.92
935.21	7456.29
935.519	7456.29
935.827	7388.72
936.135	7402.05
936.443	7317.76
936.751	7301.71
937.059	7225.11
937.367	7229.17
937.674	7206.12
937.982	7158.67
938.29	7081.16
938.597	7114.6
938.905	7053.13
939.213	7013.59
939.52	6995.06
939.827	7000.03
940.135	6929.52
940.442	6907.83
940.749	6836.64
941.056	6817.21
941.363	6808.17
941.67	6840.03
941.977	6774.72
942.284	6713.48
942.591	6712.35
942.898	6635.52
943.205	6639.81
943.511	6619.02
943.818	6572.92
944.125	6537.44
944.431	6416.09
944.738	6532.47
945.044	6504.22
945.35	6408.86
945.657	6344.23
945.963	6367.73
946.269	6365.47
946.575	6344.23
946.881	6285.24
947.187	6226.94
947.493	6208.64
947.799	6217.68
948.105	6112.37
948.41	6087.51
948.716	6084.12
949.022	6052.71
949.327	6052.26
949.633	5990.11
949.938	6063.33
950.244	6019.26
950.549	5933.84
950.854	5904.92
951.16	5927.74
951.465	5787.4
951.77	5829.89
952.075	5788.08
952.38	5814.52
952.685	5822.43
952.99	5664.7
953.294	5739.27
953.599	5658.14
953.904	5655.43
954.209	5667.41
954.513	5619.73
954.818	5564.13
955.122	5558.03
955.426	5529.78
955.731	5512.38
956.035	5539.5
956.339	5494.3
956.643	5457.47
956.948	5406.17
957.252	5388.77
957.556	5345.83
957.86	5310.58
958.163	5337.47
958.467	5294.99
958.771	5286.85
959.075	5220.41
959.378	5228.77
959.682	5252.05
959.985	5200.3
960.289	5136.57
960.592	5131.15
960.896	5136.35
961.199	5097.48
961.502	5065.84
961.805	5092.96
962.108	5010.25
962.411	4957.6
962.714	4961.44
963.017	4903.36
963.32	4972.51
963.623	4910.82
963.926	4920.53
964.228	4871.95
964.531	4813.42
964.833	4846.41
965.136	4787.2
965.438	4801.67
965.741	4737.26
966.043	4702.24
966.345	4667.66
966.648	4678.28
966.95	4630.15
967.252	4620.88
967.554	4610.94
967.856	4557.15
968.158	4542.69
968.46	4556.93
968.761	4558.28
969.063	4496.14
969.365	4515.35
969.666	4439.64
969.968	4437.61
970.269	4485.07
970.571	4438.51
970.872	4389.02
971.174	4374.56
971.475	4362.58
971.776	4345.18
972.077	4320.55
972.378	4266.09
972.679	4266.31
972.98	4248.46
973.281	4264.73
973.582	4229.48
973.883	4201.91
974.183	4166.43
974.484	4204.62
974.785	4141.57
975.085	4135.47
975.386	4133.66
975.686	4075.58
975.986	4101.35
976.287	4076.71
976.587	4042.82
976.887	4013.21
977.187	3955.59
977.487	3974.57
977.787	3925.76
978.087	3931.41
978.387	3944.51
978.687	3922.59
978.987	3889.15
979.286	3835.82
979.586	3841.69
979.885	3817.06
980.185	3796.5
980.484	3808.93
980.784	3799.66
981.083	3754.69
981.382	3725.09
981.682	3703.39
981.981	3725.31
982.28	3693.67
982.579	3677.63
982.878	3634.01
983.177	3643.28
983.475	3628.14
983.774	3621.36
984.073	3585.65
984.372	3550.18
984.67	3547.92
984.969	3537.97
985.267	3499.33
985.566	3475.6
985.864	3503.17
986.162	3496.62
986.461	3403.29
986.759	3430.18
987.057	3413.23
987.355	3424.08
987.653	3382.04
987.951	3341.37
988.249	3371.42
988.547	3333.01
988.844	3336.85
989.142	3296.85
989.44	3292.33
989.737	3224.76
990.035	3269.05
990.332	3266.11
990.63	3192.22
990.927	3190.86
991.224	3189.96
991.521	3213.91
991.819	3183.63
992.116	3167.59
992.413	3146.34
992.71	3096.63
993.006	3101.6
993.303	3074.26
993.6	3055.27
993.897	3111.99
994.193	3044.43
994.49	3050.53
994.787	3023.64
995.083	2969.4
995.379	2992.22
995.676	2949.29
995.972	2956.97
996.268	2939.8
996.565	2921.04
996.861	2903.64
997.157	2875.62
997.453	2860.7
997.749	2855.96
998.044	2855.73
998.34	2873.81
998.636	2829.29
998.932	2802.62
999.227	2755.17
999.523	2736.41
999.818	2759.69
1000.114	2725.34
1000.409	2726.92
1000.704	2726.47
1001	2688.73
1001.295	2665.68
1001.59	2650.99
1001.885	2632.01
1002.18	2619.13
1002.475	2635.4
1002.77	2598.56
1003.065	2542.74
1003.359	2594.95
1003.654	2566.02
1003.949	2524.21
1004.243	2503.42
1004.538	2507.72
1004.832	2498.23
1005.127	2462.07
1005.421	2446.02
1005.715	2470.43
1006.009	2439.24
1006.304	2441.73
1006.598	2452.58
1006.892	2400.15
1007.186	2361.05
1007.48	2356.76
1007.773	2378.68
1008.067	2324.67
1008.361	2304.56
1008.655	2337.33
1008.948	2312.69
1009.242	2284.45
1009.535	2275.86
1009.829	2267.04
1010.122	2226.14
1010.415	2234.73
1010.708	2232.7
1011.001	2240.15
1011.295	2178.91
1011.588	2172.58
1011.881	2149.53
1012.173	2129.2
1012.466	2142.3
1012.759	2129.2
1013.052	2138.69
1013.344	2126.94
1013.637	2104.79
1013.93	2097.78
1014.222	2075.86
1014.514	2063.66
1014.807	2054.17
1015.099	2032.47
1015.391	1984.11
1015.683	2027.5
1015.976	2000.16
1016.268	1982.08
1016.56	1945.02
1016.851	1953.61
1017.143	1976.66
1017.435	1893.04
1017.727	1929.43
1018.018	1888.98
1018.31	1894.63
1018.602	1906.6
1018.893	1843.33
1019.185	1851.46
1019.476	1863.21
1019.767	1845.59
1020.058	1812.14
1020.35	1758.13
1020.641	1778.24
1020.932	1771.01
1021.223	1759.94
1021.514	1751.13
1021.804	1731.24
1022.095	1715.42
1022.386	1712.03
1022.677	1694.4
1022.967	1670.45
1023.258	1623.22
1023.548	1669.32
1023.839	1648.08
1024.129	1662.77
1024.419	1642.65
1024.709	1601.75
1025	1610.34
1025.29	1621.41
1025.58	1587.29
1025.87	1570.79
1026.16	1581.64
1026.449	1553.62
1026.739	1553.84
1027.029	1523.34
1027.319	1514.75
1027.608	1510.68
1027.898	1503.45
1028.187	1498.93
1028.477	1466.16
1028.766	1461.64
1029.055	1467.07
1029.344	1472.04
1029.634	1450.34
1029.923	1426.39
1030.212	1410.12
1030.501	1397.01
1030.79	1390.46
1031.078	1340.97
1031.367	1347.97
1031.656	1392.27
1031.945	1366.05
1032.233	1364.92
1032.522	1336.22
1032.81	1327.86
1033.099	1331.93
1033.387	1337.58
1033.675	1314.08
1033.963	1276.34
1034.251	1277.01
1034.54	1276.56
1034.828	1272.27
1035.116	1261.87
1035.403	1249.22
1035.691	1236.79
1035.979	1226.39
1036.267	1220.52
1036.554	1215.1
1036.842	1183.01
1037.129	1194.08
1037.417	1216
1037.704	1213.97
1037.992	1181.2
1038.279	1161.99
1038.566	1176
1038.853	1176
1039.14	1176
