Data from white_poster_card_FLMS001491_00004.txt Node
Date: Wed Feb 08 11:50:57 GMT 2017
User: dcchb
Spectrometer: FLMS00149
Trigger mode: 0
Integration Time (sec): 2.000000E-2
Scans to average: 10
Electric dark correction enabled: true
Nonlinearity correction enabled: false
Boxcar width: 0
XAxis mode: Wavelengths
Number of Pixels in Spectrum: 2048
>>>>>Begin Spectral Data<<<<<
341.393	-12.51
341.776	-12.51
342.16	-12.51
342.543	-84.6
342.927	-72.63
343.31	-77.6
343.693	-64.49
344.077	-90.03
344.46	-62.91
344.843	-65.17
345.226	-35.56
345.61	-35.34
345.993	-15
346.376	-5.06
346.759	24.77
347.142	13.47
347.525	40.59
347.908	64.77
348.291	86.24
348.674	93.7
349.057	127.6
349.44	133.92
349.823	126.24
350.206	153.36
350.588	210.31
350.971	208.27
351.354	217.76
351.737	254.6
352.119	250.76
352.502	276.52
352.884	295.95
353.267	274.71
353.65	283.75
354.032	297.99
354.414	333.69
354.797	323.97
355.179	297.08
355.562	330.08
355.944	322.84
356.326	327.14
356.709	353.13
357.091	336.63
357.473	343.64
357.855	319.91
358.238	356.74
358.62	335.05
359.002	342.28
359.384	358.32
359.766	350.19
360.148	350.41
360.53	342.73
360.912	331.88
361.294	345.67
361.676	359.45
362.057	329.62
362.439	342.05
362.821	324.88
363.203	335.95
363.584	318.32
363.966	349.06
364.348	333.01
364.729	328.04
365.111	305.22
365.493	313.58
365.874	316.74
366.256	341.6
366.637	326.23
367.019	314.71
367.4	319.45
367.781	328.04
368.163	346.57
368.544	326.91
368.925	328.04
369.306	370.53
369.688	321.26
370.069	318.32
370.45	320.13
370.831	334.6
371.212	321.71
371.593	338.21
371.974	310.87
372.355	340.25
372.736	317.65
373.117	333.01
373.498	326.91
373.879	326.01
374.26	326.91
374.641	337.99
375.021	335.95
375.402	316.29
375.783	340.02
376.163	332.79
376.544	347.48
376.925	343.41
377.305	351.77
377.686	332.79
378.066	354.26
378.447	334.82
378.827	334.82
379.208	348.38
379.588	344.76
379.968	335.95
380.349	345.22
380.729	352.67
381.109	370.98
381.489	367.14
381.87	351.09
382.25	378.21
382.63	360.13
383.01	379.11
383.39	354.93
383.77	385.44
384.15	366.46
384.53	371.66
384.91	368.95
385.29	382.73
385.67	376.63
386.049	364.65
386.429	371.66
386.809	397.19
387.189	376.4
387.568	375.27
387.948	383.41
388.328	417.53
388.707	405.1
389.087	402.62
389.466	387.25
389.846	400.36
390.225	396.29
390.605	416.4
390.984	385.44
391.363	409.17
391.743	414.37
392.122	408.72
392.501	414.59
392.881	421.37
393.26	433.8
393.639	426.34
394.018	403.29
394.397	422.95
394.776	436.97
395.155	437.87
395.534	438.55
395.913	426.34
396.292	450.98
396.671	430.41
397.05	447.14
397.429	442.84
397.808	448.94
398.186	456.4
398.565	459.34
398.944	461.82
399.323	445.78
399.701	450.98
400.08	469.06
400.458	472.22
400.837	480.13
401.215	473.12
401.594	469.51
401.972	487.36
402.351	474.25
402.729	487.81
403.107	503.86
403.486	487.59
403.864	512.9
404.242	509.73
404.62	517.19
404.999	507.7
405.377	528.49
405.755	537.53
406.133	536.17
406.511	539.11
406.889	561.71
407.267	569.84
407.645	544.99
408.023	587.02
408.401	603.52
408.779	600.58
409.156	606.9
409.534	638.77
409.912	633.8
410.29	631.54
410.667	635.38
411.045	640.8
411.422	647.13
411.8	671.08
412.178	702.27
412.555	716.05
412.933	731.65
413.31	748.82
413.687	743.4
414.065	773.91
414.442	782.95
414.819	809.39
415.197	828.82
415.574	855.49
415.951	857.52
416.328	873.34
416.705	884.86
417.082	888.71
417.46	918.54
417.837	941.13
418.214	929.61
418.591	973.9
418.967	980.23
419.344	999.21
419.721	1032.2
420.098	1030.17
420.475	1009.83
420.852	1061.13
421.228	1086.67
421.605	1071.3
421.982	1107.68
422.358	1118.53
422.735	1118.53
423.111	1134.57
423.488	1165.99
423.864	1174.57
424.241	1209.37
424.617	1226.55
424.994	1219.54
425.37	1252.99
425.746	1273.33
426.123	1301.12
426.499	1316.04
426.875	1325.53
427.251	1349.48
427.627	1386.77
428.003	1396.71
428.379	1402.36
428.756	1440.33
429.132	1432.42
429.507	1503.83
429.883	1461.8
430.259	1537.73
430.635	1543.38
431.011	1519.88
431.387	1575.92
431.763	1624.96
432.138	1640.78
432.514	1673.09
432.89	1660.66
433.265	1721
433.641	1737.27
434.016	1748.12
434.392	1773.88
434.767	1790.15
435.143	1819.98
435.518	1841
435.894	1836.25
436.269	1854.33
436.644	1904.27
437.02	1923.03
437.395	1920.54
437.77	1933.88
438.145	1984.04
438.52	2000.54
438.895	2013.87
439.271	2014.33
439.646	2082.57
440.021	2078.96
440.395	2094.32
440.77	2102.68
441.145	2126.64
441.52	2137.71
441.895	2194.43
442.27	2177.49
442.645	2199.41
443.019	2177.26
443.394	2217.48
443.769	2243.47
444.143	2259.06
444.518	2267.65
444.892	2242.34
445.267	2241.44
445.641	2285.5
446.016	2322.57
446.39	2349.46
446.764	2346.29
447.139	2347.2
447.513	2388.78
447.887	2372.28
448.262	2398.72
448.636	2393.3
449.01	2424.26
449.384	2452.73
449.758	2481.88
450.132	2519.85
450.506	2552.62
450.88	2546.29
451.254	2541.09
451.628	2569.34
452.002	2595.55
452.376	2633.29
452.75	2627.87
453.123	2677.36
453.497	2712.84
453.871	2709
454.244	2790.8
454.618	2803.68
454.992	2823.34
455.365	2840.07
455.739	2927.97
456.112	2904.7
456.486	2950.57
456.859	2942.89
457.232	3034.19
457.606	3019.5
457.979	3056.78
458.352	3093.17
458.725	3115.99
459.099	3160.06
459.472	3244.35
459.845	3255.2
460.218	3265.59
460.591	3346.49
460.964	3336.78
461.337	3426.94
461.71	3489.32
462.083	3537.45
462.456	3534.51
462.829	3509.65
463.201	3628.97
463.574	3597.79
463.947	3658.35
464.32	3742.42
464.692	3782.41
465.065	3822.41
465.438	3831.23
465.81	3906.25
466.183	3962.07
466.555	4059.02
466.928	4067.15
467.3	4026.02
467.672	4111.45
468.045	4207.94
468.417	4252.46
468.789	4262.18
469.161	4315.73
469.534	4420.36
469.906	4470.98
470.278	4487.71
470.65	4554.15
471.022	4670.3
471.394	4680.47
471.766	4755.72
472.138	4802.73
472.51	4900.8
472.882	4993.68
473.253	5012.44
473.625	5082.72
473.997	5177.86
474.369	5196.84
474.74	5312.09
475.112	5360.45
475.484	5460.11
475.855	5526.78
476.227	5600.22
476.598	5792.53
476.97	5819.88
477.341	5920.21
477.713	5964.96
478.084	6031.62
478.455	6179.19
478.827	6216.47
479.198	6452.85
479.569	6445.85
479.94	6564.94
480.311	6670.7
480.682	6786.63
481.053	6948.43
481.424	7068.88
481.795	7094.42
482.166	7227.75
482.537	7332.38
482.908	7459.15
483.279	7540.73
483.65	7714.97
484.021	7825.92
484.391	7899.82
484.762	7967.62
485.133	8021.4
485.503	8253.48
485.874	8386.59
486.244	8524.89
486.615	8596.07
486.985	8725.56
487.356	8861.38
487.726	8944.54
488.097	9158.32
488.467	9119.45
488.837	9379.33
489.207	9410.29
489.578	9586.33
489.948	9622.49
490.318	9810.5
490.688	9857.06
491.058	10032.87
491.428	10102.7
491.798	10228.8
492.168	10485.97
492.538	10465.18
492.908	10660.2
493.278	10751.72
493.648	10797.82
494.017	10948.55
494.387	11010.02
494.757	11151.49
495.126	11338.15
495.496	11286.4
495.866	11386.06
496.235	11499.73
496.605	11586.28
496.974	11746.73
497.344	11789.89
497.713	11873.28
498.082	11978.58
498.452	12135.19
498.821	12176.09
499.19	12225.36
499.559	12432.58
499.928	12465.12
500.298	12509.42
500.667	12604.56
501.036	12620.15
501.405	12812.91
501.774	12767.72
502.143	12942.17
502.512	13036.41
502.88	13166.12
503.249	13114.37
503.618	13326.12
503.987	13288.38
504.356	13364.54
504.724	13574.25
505.093	13559.56
505.462	13668.48
505.83	13842.04
506.199	13919.78
506.567	14037.74
506.936	14116.38
507.304	14223.04
507.672	14352.31
508.041	14420.33
508.409	14545.07
508.777	14635.46
509.145	14760.88
509.514	14687.89
509.882	14951.61
510.25	14950.48
510.618	15132.62
510.986	15163.36
511.354	15347.99
511.722	15386.4
512.09	15608.54
512.458	15565.16
512.826	15750.69
513.193	15865.94
513.561	15960.17
513.929	16054.63
514.297	16114.52
514.664	16362.2
515.032	16373.04
515.4	16497.79
515.767	16592.7
516.135	16641.74
516.502	16730.77
516.869	17025.46
517.237	17006.93
517.604	16997.66
517.972	17260.03
518.339	17386.58
518.706	17471.32
519.073	17533.47
519.44	17711.99
519.808	18008.03
520.175	17959.89
520.542	18160.34
520.909	18295.71
521.276	18293.22
521.643	18549.71
522.009	18670.61
522.376	18838.52
522.743	18885.29
523.11	19084.61
523.477	19266.08
523.843	19364.15
524.21	19611.15
524.577	19685.73
524.943	19857.47
525.31	19947.64
525.676	20176.56
526.043	20296.1
526.409	20382.43
526.776	20630.56
527.142	20688.41
527.508	20856.99
527.874	21000.49
528.241	21086.82
528.607	21174.27
528.973	21368.84
529.339	21404.1
529.705	21546.02
530.071	21728.16
530.437	21953.69
530.803	22030.07
531.169	22132.89
531.535	22234.58
531.901	22270.06
532.267	22554.58
532.632	22612.65
532.998	22674.57
533.364	22912.76
533.73	22899.88
534.095	23023.94
534.461	23238.4
534.826	23175.8
535.192	23400.2
535.557	23574.21
535.923	23555.91
536.288	23575.79
536.653	23763.13
537.019	23813.3
537.384	23867.08
537.749	23992.05
538.114	24049.68
538.479	24188.88
538.845	24314.53
539.21	24292.16
539.575	24479.72
539.94	24598.36
540.305	24731.24
540.67	24674.52
541.034	24765.14
541.399	24938.02
541.764	24960.61
542.129	25114.51
542.494	25205.13
542.858	25271.12
543.223	25347.95
543.587	25553.82
543.952	25440.83
544.316	25591.11
544.681	25593.59
545.045	25806.24
545.41	25972.11
545.774	26010.98
546.138	25921.72
546.503	26100.25
546.867	26115.39
547.231	26317.42
547.595	26342.27
547.959	26517.86
548.324	26476.51
548.688	26624.07
549.052	26798.08
549.416	26796.95
549.779	26790.4
550.143	26966.66
550.507	27070.16
550.871	27175.47
551.235	27158.52
551.599	27347.9
551.962	27524.62
552.326	27538.4
552.689	27779.3
553.053	27638.51
553.417	27867.88
553.78	28134.77
554.143	28018.16
554.507	28194.88
554.87	28261.55
555.234	28565.49
555.597	28452.95
555.96	28568.66
556.323	28762.77
556.686	28815.88
557.05	29054.29
557.413	29091.81
557.776	29175.87
558.139	29398.69
558.502	29471.68
558.865	29394.62
559.228	29743.31
559.59	29830.54
559.953	29900.15
560.316	30186.69
560.679	30245.45
561.041	30326.12
561.404	30529.96
561.767	30709.62
562.129	30518.21
562.492	31077.52
562.854	31005.2
563.217	31085.43
563.579	31127.91
563.941	31341.46
564.304	31571.51
564.666	31842.92
565.028	31769.02
565.39	31819.87
565.753	32070.48
566.115	32307.54
566.477	32408.55
566.839	32458.04
567.201	32663.46
567.563	32732.39
567.925	32890.35
568.287	32975.09
568.648	33098.03
569.01	33307.06
569.372	33408.3
569.734	33291.92
570.095	33605.59
570.457	33887.39
570.819	33738.92
571.18	33855.52
571.542	34059.58
571.903	33988.85
572.265	34181.62
572.626	34327.83
572.987	34484.21
573.349	34438.78
573.71	34608.72
574.071	34722.17
574.432	34686.91
574.794	35121.25
575.155	35035.83
575.516	34846
575.877	35158.76
576.238	35164.19
576.599	35276.95
576.96	35368.7
577.32	35387.46
577.681	35397.63
578.042	35613.89
578.403	35522.82
578.763	35579.32
579.124	35714.46
579.485	35876.71
579.845	35869.03
580.206	35884.62
580.566	35846.66
580.927	35887.11
581.287	36083.26
581.648	35895.02
582.008	36144.95
582.368	36113.09
582.728	36084.16
583.089	36050.27
583.449	36038.06
583.809	36095.46
584.169	36194.9
584.529	36182.01
584.889	36355.57
585.249	36147.89
585.609	35930.95
585.969	36305.85
586.329	36230.38
586.688	36169.59
587.048	36288.23
587.408	36309.24
587.768	36361.22
588.127	36286.42
588.487	36283.71
588.846	36340.43
589.206	36106.54
589.565	36241
589.925	36479.41
590.284	36333.2
590.643	36364.61
591.003	36432.4
591.362	36391.95
591.721	36470.59
592.08	36445.28
592.44	36575.22
592.799	36583.81
593.158	36523.47
593.517	36490.71
593.876	36485.51
594.235	36472.18
594.593	36535.68
594.952	36604.83
595.311	36490.71
595.67	36473.76
596.029	36733.19
596.387	36692.74
596.746	36794.2
597.104	36444.83
597.463	36503.81
597.822	36758.72
598.18	36666.07
598.538	36610.48
598.897	36943.35
599.255	36585.39
599.613	37047.08
599.972	36894.31
600.33	36892.05
600.688	36839.62
601.046	37021.09
601.404	37170.69
601.762	37136.11
602.12	37162.33
602.478	37196.68
602.836	37228.09
603.194	37048.66
603.552	37259.73
603.91	37102.44
604.268	37295.88
604.625	37077.58
604.983	37266.51
605.341	37173.4
605.698	37306.05
606.056	37406.39
606.413	37332.94
606.771	37470.12
607.128	37471.92
607.485	37356.9
607.843	37441.64
608.2	37636.44
608.557	37829.66
608.914	37673.5
609.272	37857.45
609.629	37728.87
609.986	38026.03
610.343	37809.54
610.7	38074.39
611.057	37952.36
611.414	37912.14
611.771	37890.67
612.127	38085.02
612.484	38009.99
612.841	38271.23
613.198	38102.64
613.554	37934.74
613.911	38361.84
614.267	38288.85
614.624	38318.23
614.98	38283.88
615.337	38412.24
615.693	38355.29
616.05	38473.71
616.406	38646.36
616.762	38434.38
617.118	38525.68
617.475	38393.26
617.831	38654.94
618.187	38733.59
618.543	38609.07
618.899	38784.66
619.255	38749.86
619.611	38659.24
619.967	38794.83
620.323	38906.46
620.678	38767.03
621.034	38693.81
621.39	38769.97
621.746	38653.36
622.101	39057.65
622.457	38672.8
622.812	38909.63
623.168	38910.76
623.523	38930.64
623.879	38987.59
624.234	38714.6
624.589	38929.29
624.945	38857.88
625.3	38930.19
625.655	38894.94
626.01	38974.48
626.365	38956.18
626.72	38820.82
627.075	38837.54
627.43	38722.29
627.785	38729.74
628.14	38920.93
628.495	38862.17
628.85	38823.75
629.205	38653.59
629.559	38797.09
629.914	38558.22
630.269	38587.6
630.623	38623.76
630.978	38378.79
631.332	38639.35
631.687	38702.17
632.041	38560.48
632.396	38503.54
632.75	38343.99
633.104	38509.41
633.459	38307.38
633.813	38220.15
634.167	38375.86
634.521	38233.71
634.875	38207.95
635.229	38168.4
635.583	38049.99
635.937	38030.55
636.291	37989.42
636.645	37933.16
636.999	37855.64
637.352	37938.58
637.706	37833.95
638.06	37873.95
638.413	37805.47
638.767	37658.36
639.121	37664.91
639.474	37524.8
639.828	37433.28
640.181	37644.58
640.534	37611.13
640.888	37493.84
641.241	37282.78
641.594	37310.35
641.947	37444.81
642.301	37252.5
642.654	37374.98
643.007	37429.21
643.36	37230.57
643.713	37177.24
644.066	37161.2
644.419	37066.06
644.771	36839.85
645.124	36405.29
645.477	36444.15
645.83	36175.69
646.182	36075.35
646.535	35934.34
646.888	35964.17
647.24	35812.98
647.593	35979.31
647.945	35844.62
648.298	35643.5
648.65	35488.93
649.002	35488.25
649.355	35595.36
649.707	35486.89
650.059	35727.56
650.411	36038.52
650.763	36132.3
651.115	36448.22
651.467	36335.23
651.819	36286.19
652.171	36161.45
652.523	36044.62
652.875	36115.58
653.227	35878.52
653.578	36271.05
653.93	36073.32
654.282	35898.41
654.633	35803.04
654.985	35923.49
655.337	35875.58
655.688	35866.54
656.039	35975.69
656.391	35642.59
656.742	35780.22
657.094	35700.22
657.445	35781.57
657.796	35705.19
658.147	35615.7
658.498	35608.24
658.849	35659.09
659.2	35481.92
659.551	35418.19
659.902	35635.59
660.253	35388.59
660.604	35599.88
660.955	35341.58
661.306	35447.8
661.656	35474.24
662.007	35382.71
662.358	35453.45
662.708	35367.12
663.059	35330.96
663.409	35135.26
663.76	35278.99
664.11	35352.21
664.461	35419.77
664.811	35345.88
665.161	35371.19
665.511	35187.92
665.862	35213.23
666.212	35408.25
666.562	35271.08
666.912	35181.14
667.262	35219.78
667.612	35177.07
667.962	35231.98
668.312	35226.79
668.662	35377.52
669.011	35281.02
669.361	35195.15
669.711	35012.1
670.06	34899.79
670.41	34780.24
670.76	34838.32
671.109	34849.85
671.459	34790.64
671.808	34810.98
672.157	34893.01
672.507	34819.56
672.856	34692.56
673.205	34752.67
673.554	34827.02
673.904	34619.34
674.253	34903.63
674.602	34636.97
674.951	34132.13
675.3	34081.96
675.649	34615.95
675.998	34415.73
676.346	34526.47
676.695	34556.29
677.044	34404.66
677.393	34408.05
677.741	34403.98
678.09	34291.67
678.438	34258
678.787	34357.88
679.135	34313.82
679.484	34095.29
679.832	34226.36
680.181	34053.94
680.529	34146.59
680.877	33971.45
681.225	33985.91
681.573	34136.19
681.922	33953.15
682.27	33825.92
682.618	33799.03
682.966	33668.41
683.314	33751.34
683.661	33708.41
684.009	33568.75
684.357	33506.6
684.705	33442.65
685.053	33366.5
685.4	33463.67
685.748	33356.55
686.095	33265.26
686.443	32985.04
686.79	33098.48
687.138	33086.73
687.485	33056.45
687.832	33013.51
688.18	33107.29
688.527	32800.63
688.874	32714.99
689.221	32640.19
689.568	32417.14
689.915	32485.61
690.262	32431.38
690.609	32355.45
690.956	32289.46
691.303	32106.64
691.65	32111.16
691.997	32025.29
692.344	31759.76
692.69	31839.53
693.037	31926.99
693.383	31548.46
693.73	31627.78
694.077	31523.83
694.423	31476.83
694.769	31399.09
695.116	31442.03
695.462	31361.58
695.808	31060.79
696.155	31220.11
696.501	30931.53
696.847	30928.37
697.193	30701.48
697.539	30869.16
697.885	30669.62
698.231	30466.91
698.577	30586.46
698.923	30505.78
699.269	30267.14
699.614	30296.97
699.96	30226.01
700.306	30184.66
700.651	29939.47
700.997	29923.2
701.342	29906.93
701.688	29756.19
702.033	29756.42
702.379	29680.72
702.724	29541.06
703.069	29539.25
703.415	29265.59
703.76	29344.45
704.105	29392.14
704.45	29225.14
704.795	29054.07
705.14	28963.45
705.485	29042.32
705.83	28743.79
706.175	28841.19
706.52	28731.82
706.865	28688.65
707.209	28551.48
707.554	28516.45
707.899	28479.17
708.243	28411.15
708.588	28259.74
708.932	28083.24
709.277	28148.78
709.621	28134.99
709.966	27908.33
710.31	28017.94
710.654	27854.55
710.998	27834.21
711.342	27820.88
711.687	27671.05
712.031	27652.97
712.375	27525.07
712.719	27565.74
713.063	27516.03
713.407	27638.06
713.75	27362.81
714.094	27326.43
714.438	27312.87
714.782	27292.98
715.125	27125.08
715.469	27149.03
715.812	27062.71
716.156	26962.14
716.499	26918.76
716.843	26823.16
717.186	26792.66
717.53	26822.03
717.873	26830.4
718.216	26752.66
718.559	26644.86
718.902	26480.8
719.246	26567.58
719.589	26472.67
719.932	26313.8
720.275	26376.4
720.617	26272.9
720.96	26196.06
721.303	26168.04
721.646	26332.78
721.989	26095.95
722.331	26163.75
722.674	25945.45
723.016	26043.52
723.359	25999.68
723.701	25922.4
724.044	25842.85
724.386	25763.53
724.729	25890.53
725.071	25699.8
725.413	25615.74
725.755	25583.42
726.097	25655.96
726.439	25365.58
726.782	25396.76
727.124	25532.13
727.465	25247.61
727.807	25420.49
728.149	25343.66
728.491	25264.34
728.833	25336.42
729.175	25061.86
729.516	25052.36
729.858	25117.9
730.199	25046.26
730.541	24957.68
730.882	24981.63
731.224	24957.23
731.565	24812.14
731.906	24769.43
732.248	24870.67
732.589	24695.31
732.93	24735.31
733.271	24593.62
733.612	24672.49
733.953	24565.6
734.294	24509.78
734.635	24427.97
734.976	24630
735.317	24345.49
735.658	24469.55
735.999	24390.91
736.339	24378.26
736.68	24284.02
737.021	24330.35
737.361	24144.82
737.702	24190.47
738.042	24107.76
738.383	24109.11
738.723	24107.98
739.063	24040.19
739.404	24067.53
739.744	23896.69
740.084	23848.33
740.424	23862.34
740.764	23816.01
741.104	23872.28
741.444	23720.87
741.784	23757.03
742.124	23702.12
742.464	23546.87
742.804	23619.63
743.143	23607.2
743.483	23573.31
743.823	23450.15
744.162	23459.19
744.502	23402.92
744.841	23348.45
745.181	23477.94
745.52	23183.94
745.86	23251.51
746.199	23203.37
746.538	23159.98
746.877	23296.7
747.216	23124.28
747.556	23094.45
747.895	23127.22
748.234	22988.69
748.573	22975.81
748.911	22884.51
749.25	22880.22
749.589	22827.79
749.928	22747.57
750.267	22822.14
750.605	22697.85
750.944	22647.91
751.283	22510.74
751.621	22627.57
751.96	22405.43
752.298	22499.89
752.636	22503.28
752.975	22367.69
753.313	22217.64
753.651	22398.87
753.989	22147.81
754.327	22268.48
754.666	22080.01
755.004	22121.59
755.342	22124.31
755.679	22078.2
756.017	21921.6
756.355	22004.99
756.693	21900.58
757.031	21830.3
757.368	21761.83
757.706	21758.89
758.044	21621.04
758.381	21609.74
758.719	21504.21
759.056	21556.86
759.394	21433.02
759.731	21398.45
760.068	21260.15
760.405	21189.41
760.743	21180.83
761.08	21172.01
761.417	20978.8
761.754	20898.8
762.091	20974.73
762.428	20901.29
762.765	20779.71
763.102	20761.18
763.438	20662.42
763.775	20595.31
764.112	20536.1
764.449	20452.48
764.785	20454.74
765.122	20313.05
765.458	20233.73
765.795	20312.6
766.131	20178.82
766.467	20088.2
766.804	20010.01
767.14	19869.45
767.476	19947.41
767.812	19749.68
768.148	19829.9
768.485	19627.65
768.821	19572.96
769.157	19591.49
769.492	19506.3
769.828	19455.22
770.164	19245.06
770.5	19292.52
770.836	19324.15
771.171	19106.53
771.507	19088
771.842	18964.39
772.178	19039.19
772.513	18955.35
772.849	18871.51
773.184	18736.15
773.519	18745.86
773.855	18608.92
774.19	18572.53
774.525	18592.87
774.86	18477.17
775.195	18382.93
775.53	18424.29
775.865	18293.22
776.2	18137.07
776.535	18052.32
776.87	18095.26
777.205	17868.37
777.539	17844.87
777.874	17878.09
778.209	17694.59
778.543	17706.57
778.878	17543.86
779.212	17559.91
779.547	17508.38
779.881	17528.04
780.215	17385.22
780.55	17415.5
780.884	17287.6
781.218	17309.97
781.552	17257.99
781.886	17061.61
782.22	17123.98
782.554	17031.78
782.888	16815.07
783.222	16782.52
783.556	16701.62
783.889	16651
784.223	16559.71
784.557	16460.05
784.89	16500.95
785.224	16488.52
785.557	16405.81
785.891	16391.57
786.224	16358.81
786.558	16297.57
786.891	16109.32
787.224	16111.81
787.557	15949.33
787.891	15992.26
788.224	15956.78
788.557	15975.09
788.89	15886.05
789.223	15847.41
789.556	15670.46
789.888	15614.42
790.221	15646.06
790.554	15505.5
790.887	15557.92
791.219	15413.07
791.552	15392.73
791.884	15326.97
792.217	15274.32
792.549	15223.92
792.882	15166.75
793.214	15077.71
793.546	15122
793.879	14978.5
794.211	14964.04
794.543	14942.35
794.875	14909.35
795.207	14952.52
795.539	14763.59
795.871	14855.34
796.203	14720.21
796.535	14692.18
796.867	14583.71
797.198	14534.45
797.53	14614.67
797.862	14440.89
798.193	14468.91
798.525	14359.31
798.856	14358.86
799.188	14302.59
799.519	14177.4
799.85	14058.75
800.182	14074.12
800.513	14079.77
800.844	14013.11
801.175	13948.48
801.506	14023.05
801.837	13843.62
802.168	13871.41
802.499	13829.61
802.83	13732.44
803.161	13670.52
803.491	13713.23
803.822	13649.5
804.153	13566.79
804.483	13422.16
804.814	13498.32
805.145	13456.96
805.475	13405.89
805.805	13436.62
806.136	13400.24
806.466	13375.61
806.796	13307.14
807.126	13222.84
807.457	13225.78
807.787	13214.71
808.117	13150.53
808.447	13091.77
808.777	13127.25
809.107	13071.44
809.436	12975.85
809.766	12990.08
810.096	12938.11
810.426	12872.8
810.755	12883.19
811.085	12832.12
811.414	12810.88
811.744	12735.63
812.073	12698.79
812.403	12719.81
812.732	12698.56
813.061	12609.3
813.39	12502.19
813.719	12549.42
814.049	12561.84
814.378	12541.96
814.707	12494.05
815.036	12439.36
815.365	12308.97
815.693	12277.11
816.022	12315.07
816.351	12286.82
816.68	12192.14
817.008	12221.06
817.337	12054.97
817.665	12156.66
817.994	12064.68
818.322	12196.2
818.651	11972.26
818.979	11981.97
819.307	12018.81
819.636	11972.48
819.964	11876.44
820.292	11992.59
820.62	11925.03
820.948	11866.5
821.276	11897.68
821.604	11899.94
821.932	11906.95
822.259	11845.71
822.587	11831.02
822.915	11846.61
823.243	11866.5
823.57	11851.58
823.898	11809.1
824.225	11772.04
824.553	11869.66
824.88	11798.93
825.207	11819.94
825.535	11825.14
825.862	11780.17
826.189	11804.12
826.516	11864.91
826.843	11805.71
827.17	11808.42
827.497	11833.5
827.824	11837.57
828.151	11839.38
828.478	11824.01
828.805	11759.15
829.131	11742.43
829.458	11775.2
829.785	11728.87
830.111	11676.44
830.438	11842.99
830.764	11732.49
831.09	11819.94
831.417	11691.13
831.743	11768.87
832.069	11708.53
832.395	11663.56
832.722	11723
833.048	11653.85
833.374	11717.8
833.7	11558.26
834.026	11624.02
834.351	11669.21
834.677	11640.29
835.003	11686.84
835.329	11701.3
835.654	11592.6
835.98	11556.67
836.306	11615.88
836.631	11567.75
836.956	11586.73
837.282	11481.87
837.607	11458.37
837.932	11405.04
838.258	11481.2
838.583	11477.81
838.908	11332.05
839.233	11401.65
839.558	11368.88
839.883	11356.9
840.208	11297.47
840.533	11287.08
840.858	11224.93
841.182	11312.39
841.507	11277.81
841.832	11219.96
842.156	11182.67
842.481	11259.51
842.805	11208.66
843.13	11113.07
843.454	11087.31
843.778	10986.97
844.103	10965.95
844.427	11024.71
844.751	11041.66
845.075	10999.63
845.399	10968.67
845.723	10891.61
846.047	10831.27
846.371	10748.79
846.695	10779.52
847.019	10743.36
847.343	10678.96
847.666	10631.73
847.99	10589.24
848.313	10532.29
848.637	10547.43
848.96	10539.53
849.284	10534.1
849.607	10360.32
849.931	10331.17
850.254	10287.33
850.577	10294.11
850.9	10177.73
851.223	10138.41
851.546	10118.07
851.869	10044.62
852.192	10106.77
852.515	10025.19
852.838	9976.38
853.161	10021.8
853.483	9923.27
853.806	9871.97
854.129	9798.53
854.451	9829.71
854.774	9826.78
855.096	9759.88
855.419	9725.76
855.741	9689.15
856.063	9642.37
856.385	9606.67
856.708	9637.85
857.03	9535.26
857.352	9537.07
857.674	9518.31
857.996	9483.06
858.318	9421.59
858.64	9410.74
858.961	9390.4
859.283	9370.29
859.605	9366.9
859.926	9392.44
860.248	9330.07
860.57	9302.27
860.891	9285.32
861.212	9200.35
861.534	9166.91
861.855	9189.96
862.176	9184.31
862.498	9112.22
862.819	9148.15
863.14	9164.65
863.461	9149.51
863.782	9074.03
864.103	9090.52
864.424	9035.38
864.745	9005.33
865.065	8984.99
865.386	8932.11
865.707	9015.5
866.027	8953.13
866.348	8919
866.668	8884.43
866.989	8910.87
867.309	8876.74
867.63	8830.19
867.95	8860.02
868.27	8747.48
868.59	8797.42
868.91	8797.2
869.23	8765.79
869.55	8752.91
869.87	8726.92
870.19	8741.83
870.51	8730.99
870.83	8725.34
871.15	8664.77
871.469	8727.82
871.789	8711.78
872.109	8656.41
872.428	8637.88
872.748	8664.09
873.067	8640.14
873.386	8653.92
873.706	8578.9
874.025	8583.19
874.344	8552.91
874.663	8533.7
874.982	8506.81
875.301	8530.54
875.62	8566.47
875.939	8507.49
876.258	8498.22
876.577	8420.48
876.896	8403.76
877.214	8424.78
877.533	8420.03
877.852	8444.44
878.17	8438.11
878.489	8376.87
878.807	8387.27
879.125	8342.75
879.444	8333.03
879.762	8345.46
880.08	8364.22
880.398	8277.21
880.716	8251.45
881.034	8235.86
881.352	8248.74
881.67	8265.69
881.988	8263.88
882.306	8222.52
882.624	8191.34
882.941	8160.15
883.259	8143.88
883.577	8130.1
883.894	8074.73
884.212	8066.14
884.529	8035.18
884.846	8056.88
885.164	8016.43
885.481	7952.7
885.798	7974.39
886.115	7966.49
886.432	7956.09
886.75	7855.98
887.067	7928.29
887.383	7902.08
887.7	7957.45
888.017	7843.55
888.334	7820.5
888.651	7802.65
888.967	7815.53
889.284	7773.04
889.6	7718.13
889.917	7658.92
890.233	7705.25
890.55	7643.56
890.866	7653.27
891.182	7602.2
891.498	7578.25
891.815	7522.43
892.131	7567.4
892.447	7479.49
892.763	7506.61
893.079	7486.27
893.395	7474.07
893.71	7442.66
894.026	7456.89
894.342	7417.57
894.657	7340.74
894.973	7285.6
895.289	7346.16
895.604	7337.12
895.92	7276.79
896.235	7210.8
896.55	7204.92
896.865	7232.72
897.181	7185.49
897.496	7185.94
897.811	7109.33
898.126	7145.26
898.441	7095.32
898.756	7050.13
899.071	7001.99
899.386	7033.85
899.7	6963.57
900.015	6943.46
900.33	6905.27
900.644	6869.34
900.959	6900.75
901.273	6882.22
901.588	6825.5
901.902	6797.25
902.216	6823.92
902.531	6776.91
902.845	6745.5
903.159	6717.03
903.473	6650.59
903.787	6646.52
904.101	6603.36
904.415	6610.59
904.729	6506.64
905.042	6544.6
905.356	6506.86
905.67	6540.99
905.984	6508.9
906.297	6483.59
906.611	6460.76
906.924	6427.32
907.237	6442.23
907.551	6395.23
907.864	6330.6
908.177	6330.82
908.491	6316.81
908.804	6253.54
909.117	6257.6
909.43	6255.12
909.743	6174.22
910.056	6188.68
910.368	6171.96
910.681	6127.89
910.994	6150.71
911.307	6100.09
911.619	6036.82
911.932	6019.87
912.244	6017.84
912.557	6016.25
912.869	5964.73
913.181	5908.46
913.494	5920.66
913.806	5864.62
914.118	5868.24
914.43	5892.87
914.742	5855.35
915.054	5814.45
915.366	5831.63
915.678	5774.68
915.99	5745.07
916.302	5650.84
916.613	5678.86
916.925	5659.88
917.236	5637.96
917.548	5639.99
917.859	5604.97
918.171	5550.73
918.482	5503.5
918.794	5506.21
919.105	5508.7
919.416	5438.42
919.727	5452.65
920.038	5452.65
920.349	5430.73
920.66	5348.02
920.971	5401.58
921.282	5349.83
921.593	5349.38
921.903	5252.88
922.214	5300.11
922.525	5248.14
922.835	5254.47
923.146	5203.17
923.456	5196.39
923.767	5146.45
924.077	5163.17
924.387	5142.6
924.697	5135.6
925.008	5104.64
925.318	5080.23
925.628	5075.94
925.938	5044.98
926.248	4937.86
926.558	4970.18
926.867	4993.46
927.177	4944.64
927.487	4945.32
927.796	4853.35
928.106	4878.21
928.416	4874.14
928.725	4834.36
929.034	4806.79
929.344	4856.51
929.653	4788.94
929.962	4783.07
930.271	4716.18
930.581	4715.05
930.89	4652.45
931.199	4645.44
931.508	4647.25
931.817	4652.45
932.125	4603.86
932.434	4623.3
932.743	4569.96
933.051	4576.29
933.36	4528.84
933.669	4519.8
933.977	4474.6
934.286	4488.61
934.594	4516.63
934.902	4459.68
935.21	4446.8
935.519	4394.15
935.827	4356.64
936.135	4366.13
936.443	4342.85
936.751	4299.01
937.059	4357.77
937.367	4252.46
937.674	4282.97
937.982	4251.55
938.29	4287.03
938.597	4222.4
938.905	4208.39
939.213	4209.75
939.52	4213.59
939.827	4146.02
940.135	4095.4
940.442	4148.73
940.749	4110.77
941.056	4093.59
941.363	4108.06
941.67	3995.06
941.977	4021.96
942.284	4015.4
942.591	4028.51
942.898	3990.32
943.205	4009.75
943.511	3889.98
943.818	3978.57
944.125	3904.22
944.431	3932.92
944.738	3927.72
945.044	3844.33
945.35	3851.79
945.657	3857.44
945.963	3832.36
946.269	3793.71
946.575	3846.82
946.881	3770.89
947.187	3789.19
947.493	3775.41
947.799	3704.45
948.105	3738.35
948.41	3716.2
948.716	3703.77
949.022	3667.39
949.327	3615.87
949.633	3629.88
949.938	3594.85
950.244	3600.72
950.549	3597.33
950.854	3583.55
951.16	3546.71
951.465	3533.83
951.77	3500.84
952.075	3494.96
952.38	3532.93
952.685	3513.95
952.99	3469.65
953.294	3468.3
953.599	3456.32
953.904	3423.78
954.209	3407.51
954.513	3409.77
954.818	3419.94
955.122	3406.61
955.426	3341.3
955.731	3366.38
956.035	3288.19
956.339	3314.63
956.643	3315.99
956.948	3278.47
957.252	3258.36
957.556	3265.59
957.86	3286.61
958.163	3261.3
958.467	3202.32
958.771	3183.11
959.075	3170.23
959.378	3179.27
959.682	3163.45
959.985	3181.98
960.289	3114.86
960.592	3157.35
960.896	3126.61
961.199	3137.23
961.502	3107.18
961.805	3105.14
962.108	3054.75
962.411	3059.27
962.714	3021.98
963.017	3031.93
963.32	3002.32
963.623	3045.26
963.926	2973.85
964.228	2962.55
964.531	2964.13
964.833	2928.2
965.136	2922.1
965.438	2904.92
965.741	2895.66
966.043	2894.98
966.345	2869.44
966.648	2872.83
966.95	2877.13
967.252	2854.53
967.554	2824.7
967.856	2867.64
968.158	2808.2
968.46	2792.16
968.761	2815.66
969.063	2735.89
969.365	2759.84
969.666	2749.67
969.968	2735.89
970.269	2748.32
970.571	2710.8
970.872	2709.22
971.174	2702.67
971.475	2657.25
971.776	2654.31
972.077	2643.69
972.378	2628.77
972.679	2659.05
972.98	2596.01
973.281	2633.97
973.582	2597.36
973.883	2611.6
974.183	2614.99
974.484	2526.18
974.785	2538.61
975.085	2538.83
975.386	2556.91
975.686	2532.05
975.986	2504.71
976.287	2520.75
976.587	2502.22
976.887	2490.7
977.187	2454.77
977.487	2459.74
977.787	2441.21
978.087	2467.65
978.387	2434.2
978.687	2436.01
978.987	2417.7
979.286	2407.54
979.586	2403.92
979.885	2387.2
980.185	2340.19
980.484	2383.13
980.784	2358.05
981.083	2377.71
981.382	2337.03
981.682	2341.55
981.981	2275.79
982.28	2318.5
982.579	2323.92
982.878	2292.06
983.177	2270.82
983.475	2273.08
983.774	2242.34
984.073	2221.55
984.372	2256.58
984.67	2242.12
984.969	2256.58
985.267	2207.31
985.566	2186.07
985.864	2183.59
986.162	2209.35
986.461	2189.69
986.759	2156.02
987.057	2171.38
987.355	2140.42
987.653	2127.09
987.951	2127.99
988.249	2114.66
988.547	2105.17
988.844	2112.18
989.142	2062.46
989.44	2052.52
989.737	2075.34
990.035	2045.96
990.332	2058.84
990.63	2022.69
990.927	2026.53
991.224	2030.14
991.521	1979.07
991.819	2027.21
992.116	2000.99
992.413	1981.33
992.71	1976.81
993.006	1954.44
993.303	1972.97
993.6	1963.48
993.897	1922.35
994.193	1952.63
994.49	1884.84
994.787	1930.03
995.083	1905.85
995.379	1928.23
995.676	1896.36
995.972	1897.27
996.268	1866.98
996.565	1877.83
996.861	1840.54
997.157	1849.36
997.453	1839.64
997.749	1830.38
998.044	1790.6
998.34	1798.74
998.636	1806.87
998.932	1809.81
999.227	1794.22
999.523	1793.09
999.818	1769.81
1000.114	1761.68
1000.409	1732.98
1000.704	1740.21
1001	1727.1
1001.295	1710.83
1001.59	1706.09
1001.885	1705.86
1002.18	1692.53
1002.475	1666.99
1002.77	1696.14
1003.065	1710.83
1003.359	1678.06
1003.654	1656.59
1003.949	1659.98
1004.243	1611.62
1004.538	1600.1
1004.832	1647.78
1005.127	1597.39
1005.421	1594
1005.715	1593.77
1006.009	1577.27
1006.304	1598.07
1006.598	1544.51
1006.892	1552.64
1007.186	1553.32
1007.48	1558.29
1007.773	1547.67
1008.067	1514.45
1008.361	1547.67
1008.655	1496.83
1008.948	1496.37
1009.242	1497.73
1009.535	1481.46
1009.829	1487.33
1010.122	1481.91
1010.415	1460.67
1010.708	1471.74
1011.001	1427
1011.295	1454.11
1011.588	1429.48
1011.881	1405.98
1012.173	1397.39
1012.466	1392.87
1012.759	1370.05
1013.052	1422.48
1013.344	1373.89
1013.637	1351.52
1013.93	1381.57
1014.222	1357.85
1014.514	1320.33
1014.807	1351.29
1015.099	1339.99
1015.391	1345.19
1015.683	1311.97
1015.976	1267.9
1016.268	1312.2
1016.56	1294.12
1016.851	1302.25
1017.143	1273.1
1017.435	1274.91
1017.727	1276.72
1018.018	1253.67
1018.31	1231.97
1018.602	1248.24
1018.893	1265.64
1019.185	1239.66
1019.476	1204.86
1019.767	1222.26
1020.058	1201.92
1020.35	1207.12
1020.641	1227
1020.932	1196.95
1021.223	1180.68
1021.514	1162.37
1021.804	1163.05
1022.095	1149.04
1022.386	1157.85
1022.677	1129.15
1022.967	1123.05
1023.258	1102.03
1023.548	1149.72
1023.839	1112.2
1024.129	1101.36
1024.419	1124.18
1024.709	1108.36
1025	1107.46
1025.29	1057.97
1025.58	1070.4
1025.87	1076.27
1026.16	1064.52
1026.449	1072.43
1026.739	1044.18
1027.029	1034.46
1027.319	1031.53
1027.608	1019.55
1027.898	1016.61
1028.187	1023.84
1028.477	1020.23
1028.766	1005.31
1029.055	1026.55
1029.344	996.5
1029.634	996.05
1029.923	996.95
1030.212	977.29
1030.501	961.25
1030.79	968.48
1031.078	962.6
1031.367	954.92
1031.656	960.79
1031.945	968.7
1032.233	956.95
1032.522	931.42
1032.81	931.87
1033.099	917.18
1033.387	921.92
1033.675	924.64
1033.963	909.72
1034.251	897.97
1034.54	892.77
1034.828	882.6
1035.116	868.82
1035.403	882.38
1035.691	860.46
1035.979	853.23
1036.267	860.91
1036.554	865.88
1036.842	853
1037.129	839.44
1037.417	860.46
1037.704	853.45
1037.992	843.51
1038.279	813.45
1038.566	842.83
1038.853	842.83
1039.14	842.83
