Data from white_steel_sheet_FLMS001491_051.txt Node
Date: Tue Feb 07 10:58:04 GMT 2017
User: dcchb
Spectrometer: FLMS00149
Trigger mode: 0
Integration Time (sec): 2.000000E-2
Scans to average: 10
Electric dark correction enabled: true
Nonlinearity correction enabled: false
Boxcar width: 0
XAxis mode: Wavelengths
Number of Pixels in Spectrum: 2048
>>>>>Begin Spectral Data<<<<<
341.393	-15.21
341.776	-15.21
342.16	-15.21
342.543	-46.4
342.927	-63.12
343.31	-57.47
343.693	-60.41
344.077	-69
344.46	-64.93
344.843	-74.87
345.226	-52.05
345.61	-38.49
345.993	-26.74
346.376	4
346.759	16.43
347.142	31.57
347.525	45.8
347.908	47.39
348.291	93.26
348.674	87.84
349.057	117.67
349.44	117.89
349.823	131.45
350.206	174.16
350.588	211.9
350.971	234.27
351.354	244.89
351.737	242.18
352.119	263.2
352.502	265.91
352.884	284.67
353.267	296.19
353.65	326.25
354.032	295.51
354.414	286.93
354.797	300.26
355.179	337.1
355.562	324.21
355.944	346.13
356.326	347.04
356.709	342.97
357.091	341.39
357.473	357.43
357.855	356.53
358.238	356.08
358.62	333.71
359.002	339.13
359.384	343.42
359.766	351.11
360.148	351.33
360.53	368.51
360.912	333.93
361.294	335.51
361.676	358.11
362.057	359.69
362.439	349.07
362.821	356.98
363.203	328.96
363.584	338.23
363.966	317.21
364.348	338
364.729	325.12
365.111	338
365.493	309.98
365.874	321.5
366.256	321.05
366.637	333.03
367.019	338
367.4	321.73
367.781	330.54
368.163	325.34
368.544	323.31
368.925	333.03
369.306	342.75
369.688	325.12
370.069	331.9
370.45	342.75
370.831	321.05
371.212	324.89
371.593	325.12
371.974	354.04
372.355	330.09
372.736	335.97
373.117	346.36
373.498	345.01
373.879	368.51
374.26	345.46
374.641	324.44
375.021	349.07
375.402	332.58
375.783	334.84
376.163	339.36
376.544	368.06
376.925	361.95
377.305	355.17
377.686	362.41
378.066	340.94
378.447	359.24
378.827	363.99
379.208	349.07
379.588	376.42
379.968	377.55
380.349	368.06
380.729	370.99
381.109	358.11
381.489	373.48
381.87	361.73
382.25	393.37
382.63	366.25
383.01	371.9
383.39	387.49
383.77	373.25
384.15	391.56
384.53	385.46
384.91	403.08
385.29	388.85
385.67	390.2
386.049	393.59
386.429	413.03
386.809	410.09
387.189	401.73
387.568	414.61
387.948	422.74
388.328	417.32
388.707	426.81
389.087	429.07
389.466	415.96
389.846	425.91
390.225	441.05
390.605	442.63
390.984	441.73
391.363	442.4
391.743	444.44
392.122	454.15
392.501	455.96
392.881	476.75
393.26	465.23
393.639	468.39
394.018	467.26
394.397	472.01
394.776	496.64
395.155	494.15
395.534	499.13
395.913	500.26
396.292	525.34
396.671	513.81
397.05	518.56
397.429	525.34
397.808	535.73
398.186	531.67
398.565	536.41
398.944	557.88
399.323	550.2
399.701	561.04
400.08	571.89
400.458	569.86
400.837	575.96
401.215	610.99
401.594	595.17
401.972	608.73
402.351	617.99
402.729	608.05
403.107	606.02
403.486	637.65
403.864	622.06
404.242	653.25
404.62	651.44
404.999	690.08
405.377	665.67
405.755	674.49
406.133	738.89
406.511	700.25
406.889	727.14
407.267	742.28
407.645	757.65
408.023	755.16
408.401	756.75
408.779	781.83
409.156	806.01
409.534	804.43
409.912	810.98
410.29	859.12
410.667	822.96
411.045	873.58
411.422	868.83
411.8	895.27
412.178	910.87
412.555	926.91
412.933	919.23
413.31	940.02
413.687	934.14
414.065	961.49
414.442	950.64
414.819	1003.29
415.197	1005.55
415.574	996.97
415.951	1003.07
416.328	1023.41
416.705	1025.67
417.082	1049.85
417.46	1075.16
417.837	1077.42
418.214	1085.1
418.591	1128.49
418.967	1099.34
419.344	1110.41
419.721	1133.01
420.098	1135.49
420.475	1165.55
420.852	1174.14
421.228	1159.45
421.605	1191.76
421.982	1205.1
422.358	1227.02
422.735	1183.63
423.111	1221.82
423.488	1245.55
423.864	1247.81
424.241	1284.87
424.617	1274.47
424.994	1298.43
425.37	1301.59
425.746	1316.5
426.123	1335.04
426.499	1372.77
426.875	1371.42
427.251	1396.05
427.627	1422.94
428.003	1451.87
428.379	1440.12
428.756	1431.53
429.132	1493.9
429.507	1496.61
429.883	1513.34
430.259	1534.8
430.635	1544.75
431.011	1568.02
431.387	1617.29
431.763	1675.14
432.138	1643.05
432.514	1655.03
432.89	1683.73
433.265	1722.6
433.641	1739.32
434.016	1758.3
434.392	1766.89
434.767	1775.7
435.143	1796.04
435.518	1831.07
435.894	1862.25
436.269	1878.52
436.644	1895.92
437.02	1931.4
437.395	1918.75
437.77	1980.67
438.145	1968.01
438.52	2041.01
438.895	2036.94
439.271	2048.46
439.646	2068.58
440.021	2088.91
440.395	2082.81
440.77	2135.47
441.145	2152.42
441.52	2155.58
441.895	2150.38
442.27	2207.55
442.645	2198.06
443.019	2222.7
443.394	2235.8
443.769	2248.23
444.143	2257.5
444.518	2300.43
444.892	2279.19
445.267	2337.72
445.641	2366.19
446.016	2359.19
446.39	2345.4
446.764	2366.42
447.139	2405.74
447.513	2467.89
447.887	2474.67
448.262	2482.8
448.636	2460.66
449.01	2503.14
449.384	2553.53
449.758	2555.12
450.132	2603.93
450.506	2594.89
450.88	2628.79
451.254	2610.71
451.628	2682.8
452.002	2724.15
452.376	2727.32
452.75	2767.09
453.123	2779.97
453.497	2846.86
453.871	2864.03
454.244	2894.99
454.618	2881.44
454.992	2950.81
455.365	2987.2
455.739	3013.86
456.112	3039.85
456.486	3113.07
456.859	3108.32
457.232	3153.07
457.606	3161.88
457.979	3224.93
458.352	3249.79
458.725	3303.8
459.099	3338.37
459.472	3422.44
459.845	3393.29
460.218	3455.88
460.591	3484.36
460.964	3523.9
461.337	3607.07
461.71	3670.79
462.083	3683.45
462.456	3674.41
462.829	3711.92
463.201	3788.08
463.574	3785.82
463.947	3876.21
464.32	3919.15
464.692	3941.52
465.065	3957.57
465.438	4048.18
465.81	4124.79
466.183	4134.74
466.555	4233.26
466.928	4251.79
467.3	4242.76
467.672	4368.4
468.045	4428.06
468.417	4459.7
468.789	4498.12
469.161	4557.78
469.534	4622.18
469.906	4714.38
470.278	4726.36
470.65	4790.99
471.022	4895.85
471.394	4964.32
471.766	4976.97
472.138	5095.84
472.51	5180.13
472.882	5300.58
473.253	5362.73
473.625	5387.36
473.997	5498.54
474.369	5538.99
474.74	5621.48
475.112	5750.06
475.484	5788.03
475.855	5941.69
476.227	5936.27
476.598	6091.75
476.97	6133.33
477.341	6284.28
477.713	6355.92
478.084	6422.81
478.455	6676.59
478.827	6731.96
479.198	6889.69
479.569	6890.6
479.94	7106.18
480.311	7105.28
480.682	7313.64
481.053	7466.17
481.424	7608.32
481.795	7677.02
482.166	7735.09
482.537	7860.29
482.908	8097.57
483.279	8150.68
483.65	8284.23
484.021	8463.89
484.391	8535.52
484.762	8627.27
485.133	8638.12
485.503	8822.07
485.874	8985
486.244	9112.46
486.615	9271.32
486.985	9324.66
487.356	9576.4
487.726	9622.73
488.097	9840.8
488.467	9823.63
488.837	10055.03
489.207	10165.99
489.578	10267.91
489.948	10408.47
490.318	10640.33
490.688	10560.1
491.058	10774.79
491.428	10903.6
491.798	11027.66
492.168	11295.45
492.538	11334.32
492.908	11474.66
493.278	11609.57
493.648	11659.06
494.017	11838.26
494.387	11932.72
494.757	12077.13
495.126	12102.21
495.496	12206.16
495.866	12267.18
496.235	12446.83
496.605	12646.15
496.974	12645.92
497.344	12852.92
497.713	12898.8
498.082	12941.28
498.452	13097.44
498.821	13201.39
499.19	13221.73
499.559	13365.91
499.928	13485.22
500.298	13565.9
500.667	13701.94
501.036	13705.56
501.405	13859.23
501.774	13873.91
502.143	14060.58
502.512	14089.73
502.88	14256.96
503.249	14271.87
503.618	14361.36
503.987	14456.05
504.356	14649.49
504.724	14693.78
505.093	14739.65
505.462	14804.51
505.83	15019.42
506.199	15072.53
506.567	15253.09
506.936	15312.52
507.304	15500.99
507.672	15640.42
508.041	15657.14
508.409	15809.68
508.777	15867.08
509.145	16021.2
509.514	15990.24
509.882	16135.55
510.25	16229.11
510.618	16397.92
510.986	16593.39
511.354	16653.5
511.722	16776.21
512.09	17001.97
512.458	16996.09
512.826	17175.52
513.193	17255.97
513.561	17251.23
513.929	17536.19
514.297	17722.4
514.664	17743.19
515.032	17812.34
515.4	18053.47
515.767	18095.95
516.135	18337.98
516.502	18201.71
516.869	18651.64
517.237	18598.76
517.604	18632.66
517.972	18849.83
518.339	18997.62
518.706	19135.92
519.073	19159.43
519.44	19351.51
519.808	19524.16
520.175	19622.69
520.542	19815.68
520.909	19969.12
521.276	19980.19
521.643	20229
522.009	20352.16
522.376	20552.84
522.743	20679.16
523.11	20880.96
523.477	21085.48
523.843	21301.52
524.21	21412.93
524.577	21545.8
524.943	21665.35
525.31	21778.11
525.676	22028.73
526.043	22144.43
526.409	22348.27
526.776	22542.16
527.142	22557.75
527.508	22826.67
527.874	22913.45
528.241	23108.25
528.607	23152.09
528.973	23465.98
529.339	23426.43
529.705	23674.34
530.071	23871.39
530.437	23946.64
530.803	24047.88
531.169	24264.83
531.535	24369.01
531.901	24460.08
532.267	24579.4
532.632	24798.83
532.998	24937.35
533.364	25042.21
533.73	25040.63
534.095	25284.91
534.461	25442.42
534.826	25496.43
535.192	25597.45
535.557	25796.77
535.923	25725.81
536.288	25959.7
536.653	25989.53
537.019	26032.69
537.384	26328.05
537.749	26312.01
538.114	26366.02
538.479	26393.13
538.845	26567.82
539.21	26692.56
539.575	26762.16
539.94	26920.13
540.305	27108.14
540.67	27054.81
541.034	27135.71
541.399	27344.07
541.764	27336.39
542.129	27465.2
542.494	27512.88
542.858	27611.86
543.223	27650.28
543.587	27945.64
543.952	27974.34
544.316	28048.01
544.681	28083.71
545.045	28238.96
545.41	28343.36
545.774	28497.71
546.138	28392.86
546.503	28510.14
546.867	28668.33
547.231	28792.39
547.595	28834.43
547.959	28973.63
548.324	28998.94
548.688	29086.62
549.052	29185.83
549.416	29324.13
549.779	29351.25
550.143	29439.38
550.507	29623.56
550.871	29820.61
551.235	29707.17
551.599	29958.46
551.962	29932.48
552.326	30064
552.689	30222.86
553.053	30156.88
553.417	30296.99
553.78	30603.19
554.143	30638.22
554.507	30921.83
554.87	30885.44
555.234	31182.16
555.597	30991.66
555.96	31041.37
556.323	31372.44
556.686	31415.83
557.05	31640.23
557.413	31754.12
557.776	31917.28
558.139	31948.24
558.502	32078.18
558.865	32108.46
559.228	32406.76
559.59	32550.71
559.953	32572.63
560.316	32911.15
560.679	32890.14
561.041	33081.09
561.404	33209.9
561.767	33515.43
562.129	33451.03
562.492	33847.18
562.854	33693.51
563.217	33777.12
563.579	33986.83
563.941	34166.04
564.304	34250.1
564.666	34393.6
565.028	34595.4
565.39	34680.6
565.753	34693.25
566.115	34903.42
566.477	35139.12
566.839	35267.02
567.201	35408.26
567.563	35376.63
567.925	35663.85
568.287	35610.07
568.648	35758.76
569.01	36014.58
569.372	36249.15
569.734	36066.78
570.095	36374.57
570.457	36589.48
570.819	36629.7
571.18	36584.73
571.542	36926.64
571.903	36831.96
572.265	36968.9
572.626	36977.71
572.987	37165.28
573.349	37201.21
573.71	37418.83
574.071	37338.61
574.432	37587.64
574.794	37823.57
575.155	37776.34
575.516	37727.75
575.877	37878.03
576.238	37864.24
576.599	38092.94
576.96	37991.92
577.32	38061.53
577.681	38149.89
578.042	38409.31
578.403	38317.34
578.763	38431.91
579.124	38399.15
579.485	38528.86
579.845	38460.84
580.206	38449.31
580.566	38595.3
580.927	38621.29
581.287	38799.14
581.648	38667.16
582.008	38765.01
582.368	38751.23
582.728	38870.32
583.089	38675.52
583.449	38668.97
583.809	38862.64
584.169	38877.55
584.529	38738.12
584.889	39039.58
585.249	38779.93
585.609	38610.21
585.969	38878
586.329	38800.49
586.688	38945.12
587.048	38910.54
587.408	38778.34
587.768	38856.53
588.127	38872.35
588.487	38808.17
588.846	39142.18
589.206	38781.96
589.565	38764.33
589.925	39135.85
590.284	38955.97
590.643	38932.69
591.003	38979.02
591.362	39021.5
591.721	38851.56
592.08	38979.92
592.44	39046.36
592.799	38949.41
593.158	38967.72
593.517	38970.88
593.876	38863.09
594.235	38984.67
594.593	39001.16
594.952	39063.54
595.311	39036.87
595.67	39115.96
596.029	39290.65
596.387	39209.97
596.746	39172.46
597.104	39158
597.463	39212.23
597.822	39309.4
598.18	39068.96
598.538	39176.75
598.897	39359.12
599.255	39047.72
599.613	39569.96
599.972	39229.41
600.33	39185.57
600.688	39122.52
601.046	39263.76
601.404	39351.89
601.762	39311.66
602.12	39480.47
602.478	39320.7
602.836	39574.03
603.194	39209.29
603.552	39342.4
603.91	39252.23
604.268	39497.42
604.625	39360.48
604.983	39449.29
605.341	39222.63
605.698	39588.27
606.056	39567.48
606.413	39529.74
606.771	39760.92
607.128	39636.18
607.485	39593.24
607.843	39633.92
608.2	39792.56
608.557	39931.76
608.914	39834.59
609.272	40084.53
609.629	40169.72
609.986	40085.2
610.343	39979.22
610.7	40196.84
611.057	40184.86
611.414	40139.21
611.771	40136.95
612.127	40283.62
612.484	40258.53
612.841	40357.96
613.198	40240.91
613.554	40335.37
613.911	40524.97
614.267	40523.16
614.624	40418.98
614.98	40632.31
615.337	40686.77
615.693	40613.32
616.05	40624.17
616.406	40924.73
616.762	40675.24
617.118	40726.32
617.475	40692.19
617.831	40876.59
618.187	40876.37
618.543	40894.9
618.899	41034.33
619.255	41142.12
619.611	40979.64
619.967	41042.01
620.323	41000.66
620.678	40958.63
621.034	41013.09
621.39	40981.68
621.746	41033.43
622.101	41574.43
622.457	41147.55
622.812	41256.7
623.168	41313.42
623.523	41268.67
623.879	41418.73
624.234	41134.22
624.589	41279.97
624.945	41263.25
625.3	41320.88
625.655	41185.29
626.01	41174.67
626.365	41300.09
626.72	41237.49
627.075	41255.57
627.43	41212.41
627.785	41162.91
628.14	41270.03
628.495	41245.4
628.85	41124.05
629.205	41038.62
629.559	41235
629.914	41084.27
630.269	41103.26
630.623	41017.38
630.978	40906.88
631.332	41038.17
631.687	41012.18
632.041	40751.4
632.396	41010.15
632.75	40823.49
633.104	40776.03
633.459	40593.21
633.813	40664.4
634.167	40702.36
634.521	40609.03
634.875	40592.99
635.229	40604.74
635.583	40324.07
635.937	40373.78
636.291	40478.19
636.645	40254.01
636.999	40283.39
637.352	40280.23
637.706	40019.89
638.06	40408.58
638.413	40129.04
638.767	39988.93
639.121	40129.72
639.474	39919.78
639.828	39959.33
640.181	39856.28
640.534	39867.81
640.888	39815.83
641.241	39531.55
641.594	39720.69
641.947	39776.28
642.301	39582.84
642.654	39670.98
643.007	39495.61
643.36	39453.36
643.713	39449.97
644.066	39457.2
644.419	39206.81
644.771	39043.2
645.124	38626.94
645.477	38508.52
645.83	38269.88
646.182	38232.6
646.535	38040.51
646.888	38174.07
647.24	37957.58
647.593	38247.96
647.945	38000.96
648.298	37970.23
648.65	37796.9
649.002	37797.35
649.355	37949.67
649.707	37662.67
650.059	37951.02
650.411	38440.27
650.763	38348.07
651.115	38803.43
651.467	38604.34
651.819	38638.24
652.171	38534.51
652.523	38408.64
652.875	38509.88
653.227	38299.71
653.578	38657.22
653.93	38410.22
654.282	38311.24
654.633	38229.66
654.985	38355.08
655.337	38284.8
655.688	38259.04
656.039	38350.33
656.391	38053.84
656.742	38045.93
657.094	38147.17
657.445	38259.94
657.796	38196.21
658.147	38093.39
658.498	37932.49
658.849	38163.22
659.2	37871.7
659.551	37828.31
659.902	37905.15
660.253	37895.2
660.604	37857.69
660.955	37660.41
661.306	37713.51
661.656	37722.33
662.007	37547.42
662.358	37668.32
662.708	37462.22
663.059	37477.81
663.409	37210.02
663.76	37509
664.11	37295.45
664.461	37358.5
664.811	37280.31
665.161	37142.68
665.511	37048.45
665.862	37018.39
666.212	37197.14
666.562	37029.69
666.912	36996.02
667.262	36766.87
667.612	36759.41
667.962	36661.79
668.312	36418.18
668.662	36689.13
669.011	36448.46
669.361	36314.91
669.711	36289.82
670.06	36227.45
670.41	36099.32
670.76	35935.93
671.109	36026.33
671.459	36035.59
671.808	35934.35
672.157	36024.74
672.507	35629.05
672.856	35626.79
673.205	35603.74
673.554	35882.38
673.904	35480.13
674.253	35706.11
674.602	35467.92
674.951	34914.49
675.3	34636.53
675.649	35350.41
675.998	35378.43
676.346	35310.64
676.695	35295.95
677.044	34998.33
677.393	35005.11
677.741	35050.99
678.09	35026.13
678.438	35002.17
678.787	35053.24
679.135	34997.65
679.484	34795.85
679.832	34949.07
680.181	34891.22
680.529	34938.22
680.877	34756.53
681.225	34708.62
681.573	34984.77
681.922	34747.49
682.27	34700.26
682.618	34699.13
682.966	34661.62
683.314	34873.81
683.661	34621.39
684.009	34567.61
684.357	34533.71
684.705	34620.71
685.053	34632.01
685.4	34568.74
685.748	34606.03
686.095	34538.68
686.443	34475.63
686.79	34437.22
687.138	34492.58
687.485	34528.29
687.832	34427.5
688.18	34547.04
688.527	34382.98
688.874	34567.83
689.221	34536.65
689.568	34396.54
689.915	34330.78
690.262	34419.59
690.609	34245.58
690.956	34192.7
691.303	34184.12
691.65	34038.13
691.997	34148.64
692.344	33958.81
692.69	33977.34
693.037	34088.98
693.383	33815.54
693.73	33948.42
694.077	33749.78
694.423	33862.54
694.769	33799.04
695.116	33740.51
695.462	33724.24
695.808	33491.48
696.155	33688.54
696.501	33433.63
696.847	33488.54
697.193	33330.35
697.539	33407.86
697.885	33038.38
698.231	33071.38
698.577	33055.78
698.923	32986.86
699.269	32844.94
699.614	32735.34
699.96	32686.08
700.306	32605.17
700.651	32628
700.997	32478.85
701.342	32302.13
701.688	32299.19
702.033	32422.81
702.379	32298.29
702.724	32181.23
703.069	32207.67
703.415	31878.87
703.76	31903.95
704.105	31978.52
704.45	31833.22
704.795	31741.47
705.14	31605.2
705.485	31547.35
705.83	31483.62
706.175	31555.94
706.52	31312.33
706.865	31202.5
707.209	31272.55
707.554	31179.22
707.899	31191.43
708.243	30964.99
708.588	30974.93
708.932	30833.92
709.277	30922.51
709.621	30930.42
709.966	30619.69
710.31	30752.34
710.654	30332.47
710.998	30454.5
711.342	30465.57
711.687	30367.72
712.031	30206.37
712.375	30188.97
712.719	30159.36
713.063	30082.75
713.407	30096.31
713.75	30091.12
714.094	29870.56
714.438	29900.39
714.782	29847.51
715.125	29791.69
715.469	29812.03
715.812	29646.16
716.156	29462.43
716.499	29475.99
716.843	29477.8
717.186	29357.35
717.53	29457.91
717.873	29410.23
718.216	29233.29
718.559	29294.07
718.902	29034.65
719.246	29071.93
719.589	28985.61
719.932	28849.11
720.275	28900.64
720.617	28912.62
720.96	28819.74
721.303	28800.75
721.646	28783.35
721.989	28512.63
722.331	28638.05
722.674	28443.02
723.016	28465.17
723.359	28424.04
723.701	28515.79
724.044	28350.37
724.386	28222.92
724.729	28336.36
725.071	28322.12
725.413	28228.34
725.755	28217.49
726.097	28082.35
726.439	27996.71
726.782	27919.87
727.124	28147.89
727.465	27888.91
727.807	27770.27
728.149	27897.95
728.491	27817.73
728.833	27787.45
729.175	27677.62
729.516	27540
729.858	27541.13
730.199	27539.32
730.541	27593.55
730.882	27513.78
731.224	27551.52
731.565	27458.42
731.906	27387.46
732.248	27391.98
732.589	27037.86
732.93	27145.66
733.271	27159.22
733.612	27083.06
733.953	27122.38
734.294	27025.66
734.635	27085.54
734.976	26917.19
735.317	26803.52
735.658	26895.27
735.999	26777.08
736.339	26782.73
736.68	26943.4
737.021	26740.02
737.361	26655.73
737.702	26814.82
738.042	26609.85
738.383	26471.55
738.723	26553.58
739.063	26480.36
739.404	26617.53
739.744	26376.86
740.084	26354.04
740.424	26452.79
740.764	26319.46
741.104	26376.86
741.444	26230.2
741.784	26090.54
742.124	26166.47
742.464	26165.34
742.804	26081.5
743.143	25889.19
743.483	26079.92
743.823	25876.09
744.162	25910.21
744.502	25930.77
744.841	25791.57
745.181	25822.08
745.52	25770.33
745.86	25808.52
746.199	25699.82
746.538	25601.06
746.877	25581.86
747.216	25615.75
747.556	25499.37
747.895	25487.62
748.234	25374.4
748.573	25314.52
748.911	25300.06
749.25	25272.49
749.589	25067.74
749.928	25185.71
750.267	25132.15
750.605	25055.99
750.944	24982.55
751.283	25051.47
751.621	25051.47
751.96	24846.51
752.298	24772.84
752.636	24842.44
752.975	24797.24
753.313	24659.62
753.651	24777.13
753.989	24616.68
754.327	24602.67
754.666	24368.78
755.004	24424.82
755.342	24398.38
755.679	24337.59
756.017	24189.35
756.355	24261.66
756.693	24043.14
757.031	24192.97
757.368	24001.33
757.706	23893.99
758.044	23839.08
758.381	23832.07
758.719	23712.75
759.056	23799.3
759.394	23734.22
759.731	23547.78
760.068	23423.49
760.405	23436.38
760.743	23347.56
761.08	23342.59
761.417	23204.74
761.754	23231.63
762.091	23163.61
762.428	22974.24
762.765	22885.43
763.102	22940.12
763.438	22805.43
763.775	22628.03
764.112	22735.6
764.449	22758.43
764.785	22555.95
765.122	22484.99
765.458	22366.12
765.795	22388.04
766.131	22355.73
766.467	22263.07
766.804	22015.62
767.14	21994.61
767.476	21915.29
767.812	21824.67
768.148	21830.99
768.485	21799.81
768.821	21618.8
769.157	21637.33
769.492	21630.77
769.828	21544.9
770.164	21195.08
770.5	21309.65
770.836	21327.28
771.171	21208.86
771.507	21137.9
771.842	20866.05
772.178	21008.19
772.513	20886.61
772.849	20842.55
773.184	20730.23
773.519	20712.38
773.855	20605.72
774.19	20542.44
774.525	20382.9
774.86	20465.83
775.195	20389.9
775.53	20273.97
775.865	20182
776.2	20123.24
776.535	19918.95
776.87	19865.4
777.205	19896.81
777.539	19804.61
777.874	19791.95
778.209	19603.48
778.543	19536.59
778.878	19459.08
779.212	19393.32
779.547	19351.96
779.881	19390.38
780.215	19187
780.55	19168.46
780.884	19093.66
781.218	19093.44
781.552	18923.27
781.886	18803.73
782.22	18824.29
782.554	18781.81
782.888	18556.5
783.222	18561.93
783.556	18539.33
783.889	18392.67
784.223	18318.09
784.557	18255.95
784.89	18312.44
785.224	18176.63
785.557	18087.36
785.891	18100.92
786.224	18017.99
786.558	17948.16
786.891	17829.52
787.224	17775.06
787.557	17610.77
787.891	17689.63
788.224	17707.94
788.557	17662.97
788.89	17626.13
789.223	17523.08
789.556	17390.66
789.888	17378.68
790.221	17364.22
790.554	17077.45
790.887	17041.29
791.219	16983.44
791.552	16989.77
791.884	16910.45
792.217	16846.49
792.549	16852.14
792.882	16678.13
793.214	16610.34
793.546	16693.5
793.879	16525.37
794.211	16438.37
794.543	16621.41
794.875	16439.72
795.207	16473.62
795.539	16366.5
795.871	16307.75
796.203	16218.26
796.535	16105.04
796.867	16175.78
797.198	16010.36
797.53	15942.56
797.862	15984.82
798.193	15866.18
798.525	15823.69
798.856	15867.76
799.188	15624.83
799.519	15599.29
799.85	15552.06
800.182	15557.71
800.513	15550.71
800.844	15398.17
801.175	15425.74
801.506	15435.46
801.837	15332.86
802.168	15230.26
802.499	15290.6
802.83	15159.08
803.161	15118.85
803.491	15190.26
803.822	15009.7
804.153	14985.07
804.483	14887.45
804.814	14789.15
805.145	14866.43
805.475	14787.11
805.805	14711.63
806.136	14788.47
806.466	14756.38
806.796	14687
807.126	14522.03
807.457	14593.44
807.787	14567.68
808.117	14476.38
808.447	14357.29
808.777	14471.19
809.107	14391.87
809.436	14329.5
809.766	14306.9
810.096	14194.81
810.426	14205.66
810.755	14137.64
811.085	14172.21
811.414	14146.68
811.744	14018.32
812.073	13998.43
812.403	14049.28
812.732	13936.51
813.061	13894.71
813.39	13868.49
813.719	13864.2
814.049	13901.03
814.378	13822.39
814.707	13751.43
815.036	13729.51
815.365	13637.76
815.693	13509.63
816.022	13559.8
816.351	13383.31
816.68	13400.26
817.008	13512.34
817.337	13370.2
817.665	13266.7
817.994	13340.14
818.322	13396.87
818.651	13282.29
818.979	13192.58
819.307	13230.77
819.636	13130.88
819.964	13075.97
820.292	13167.49
820.62	13146.02
820.948	13076.42
821.276	13147.83
821.604	13076.42
821.932	13167.49
822.259	13106.48
822.587	13051.34
822.915	13038.46
823.243	13068.06
823.57	12982.86
823.898	13060.15
824.225	13016.76
824.553	12935.86
824.88	12960.49
825.207	13063.77
825.535	12975.18
825.862	13007.05
826.189	13021.06
826.516	13045.01
826.843	13059.7
827.17	13030.32
827.497	13029.87
827.824	12903.09
828.151	12985.58
828.478	12951.45
828.805	13016.31
829.131	12979.02
829.458	12996.65
829.785	12931.11
830.111	12897.22
830.438	13054.28
830.764	12899.48
831.09	12952.13
831.417	12846.6
831.743	12897.44
832.069	12900.38
832.395	12841.85
832.722	12901.51
833.048	12837.78
833.374	12908.97
833.7	12772.02
834.026	12786.94
834.351	12883.21
834.677	12805.47
835.003	12872.36
835.329	12823.32
835.654	12805.47
835.98	12737.67
836.306	12810.44
836.631	12717.56
836.956	12678.01
837.282	12691.8
837.607	12664.91
837.932	12622.2
838.258	12556.44
838.583	12569.99
838.908	12555.08
839.233	12531.58
839.558	12517.57
839.883	12503.33
840.208	12408.64
840.533	12466.95
840.858	12451.13
841.182	12460.62
841.507	12417
841.832	12421.52
842.156	12371.36
842.481	12347.18
842.805	12266.5
843.13	12247.52
843.454	12219.72
843.778	12162.77
844.103	12158.48
844.427	12120.74
844.751	12135.2
845.075	12053.85
845.399	12037.58
845.723	11974.08
846.047	11997.35
846.371	11857.02
846.695	11878.71
847.019	11783.57
847.343	11795.1
847.666	11736.34
847.99	11626.29
848.313	11686.63
848.637	11586.07
848.96	11566.18
849.284	11622.22
849.607	11417.93
849.931	11453.87
850.254	11291.16
850.577	11296.58
850.9	11233.08
851.223	11232.4
851.546	11151.5
851.869	11127.09
852.192	11155.79
852.515	11057.04
852.838	10986.31
853.161	10997.38
853.483	10944.27
853.806	10885.29
854.129	10878.06
854.451	10778.63
854.774	10775.01
855.096	10760.1
855.419	10673.32
855.741	10616.6
856.063	10629.48
856.385	10571.85
856.708	10603.72
857.03	10507.22
857.352	10530.73
857.674	10523.49
857.996	10572.31
858.318	10350.17
858.64	10473.1
858.961	10376.61
859.283	10367.57
859.605	10284.18
859.926	10260.9
860.248	10288.47
860.57	10233.78
860.891	10208.02
861.212	10149.94
861.534	10089.61
861.855	10093.45
862.176	10104.3
862.498	10116.5
862.819	10119.89
863.14	10024.3
863.461	9957.18
863.782	9977.07
864.103	10063.39
864.424	9909.95
864.745	9942.27
865.065	9973.68
865.386	9878.54
865.707	9869.05
866.027	9831.31
866.348	9881.7
866.668	9746.34
866.989	9787.02
867.309	9694.36
867.63	9746.57
867.95	9742.27
868.27	9613.24
868.59	9769.39
868.91	9705.44
869.23	9624.31
869.55	9576.17
869.87	9605.1
870.19	9604.42
870.51	9632.67
870.83	9615.27
871.15	9598.77
871.469	9640.35
871.789	9606.23
872.109	9552.22
872.428	9447.36
872.748	9518.55
873.067	9536.18
873.386	9488.72
873.706	9445.1
874.025	9394.26
874.344	9354.71
874.663	9401.26
874.982	9439
875.301	9392.68
875.62	9343.41
875.939	9306.35
876.258	9275.17
876.577	9265.67
876.896	9306.13
877.214	9319.23
877.533	9247.82
877.852	9199.69
878.17	9276.52
878.489	9295.28
878.807	9173.25
879.125	9172.8
879.444	9224.77
879.762	9184.09
880.08	9143.64
880.398	9125.57
880.716	9100.26
881.034	9114.94
881.352	9088.5
881.67	8995.17
881.988	9036.75
882.306	8980.26
882.624	9003.31
882.941	8993.14
883.259	8975.29
883.577	8917.89
883.894	8848.96
884.212	8888.28
884.529	8923.99
884.846	8911.33
885.164	8896.42
885.481	8814.84
885.798	8834.5
886.115	8739.13
886.432	8734.39
886.75	8715.86
887.067	8660.04
887.383	8645.13
887.7	8666.82
888.017	8599.48
888.334	8597.44
888.651	8553.83
888.967	8596.54
889.284	8472.93
889.6	8472.25
889.917	8400.16
890.233	8435.19
890.55	8409.88
890.866	8477.67
891.182	8429.09
891.498	8384.79
891.815	8352.03
892.131	8323.55
892.447	8288.53
892.763	8215.98
893.079	8276.55
893.395	8185.25
893.71	8137.57
894.026	8126.5
894.342	8164.23
894.657	8109.55
894.973	8061.86
895.289	8075.65
895.604	8023.45
895.92	8004.24
896.235	7930.57
896.55	7956.33
896.865	7907.52
897.181	7920.63
897.496	7940.74
897.811	7822.55
898.126	7849.21
898.441	7824.81
898.756	7717.01
899.071	7732.61
899.386	7732.38
899.7	7712.04
900.015	7670.91
900.33	7613.74
900.644	7569.45
900.959	7590.92
901.273	7563.12
901.588	7523.57
901.902	7524.03
902.216	7490.13
902.531	7467.3
902.845	7431.6
903.159	7375.78
903.473	7355.22
903.787	7315.67
904.101	7249.68
904.415	7197.03
904.729	7219.4
905.042	7139.4
905.356	7194.77
905.67	7166.29
905.984	7131.27
906.297	7132.85
906.611	7041.33
906.924	7053.3
907.237	6988.67
907.551	6988.67
907.864	7004.72
908.177	6911.61
908.491	6915.91
908.804	6900.31
909.117	6830.48
909.43	6810.15
909.743	6773.54
910.056	6811.73
910.368	6709.58
910.681	6724.72
910.994	6657.16
911.307	6691.96
911.619	6604.73
911.932	6678.4
912.244	6651.73
912.557	6614.9
912.869	6510.72
913.181	6519.76
913.494	6505.97
913.806	6503.71
914.118	6435.69
914.43	6383.04
914.742	6404.28
915.054	6322.48
915.366	6314.57
915.678	6315.02
915.99	6271.85
916.302	6236.83
916.613	6220.33
916.925	6263.27
917.236	6200.9
917.548	6136.49
917.859	6146.89
918.171	6117.06
918.482	6103.72
918.794	6070.96
919.105	6037.51
919.416	6020.56
919.727	5930.85
920.038	5986.44
920.349	5962.03
920.66	5897.18
920.971	5863.05
921.282	5807.01
921.593	5793
921.903	5776.5
922.214	5782.38
922.525	5768.37
922.835	5724.75
923.146	5681.81
923.456	5702.83
923.767	5649.27
924.077	5710.06
924.387	5639.56
924.697	5546
925.008	5594.36
925.318	5531.08
925.628	5534.47
925.938	5496.06
926.248	5477.98
926.558	5471.2
926.867	5440.92
927.177	5381.48
927.487	5365.66
927.796	5328.38
928.106	5369.51
928.416	5271.2
928.725	5313.69
929.034	5272.56
929.344	5296.51
929.653	5279.79
929.962	5213.35
930.271	5182.39
930.581	5141.72
930.89	5170.87
931.199	5081.6
931.508	5080.47
931.817	5077.54
932.125	5043.19
932.434	5022.17
932.743	5021.27
933.051	4962.96
933.36	5004.32
933.669	4937.88
933.977	4910.99
934.286	4911.89
934.594	4917.99
934.902	4846.81
935.21	4808.62
935.519	4807.03
935.827	4798.45
936.135	4784.21
936.443	4748.96
936.751	4702.86
937.059	4689.07
937.367	4670.99
937.674	4720.94
937.982	4640.94
938.29	4663.31
938.597	4646.13
938.905	4599.36
939.213	4543.31
939.52	4512.81
939.827	4620.82
940.135	4462.18
940.442	4527.72
940.749	4441.17
941.056	4490.21
941.363	4450.21
941.67	4414.5
941.977	4400.27
942.284	4343.32
942.591	4332.7
942.898	4353.04
943.205	4310.32
943.511	4289.53
943.818	4300.38
944.125	4279.14
944.431	4237.33
944.738	4249.76
945.044	4251.79
945.35	4214.96
945.657	4191.23
945.963	4189.2
946.269	4099.93
946.575	4099.26
946.881	4096.54
947.187	4093.16
947.493	4097.45
947.799	4070.56
948.105	3992.14
948.41	4032.59
948.716	3988.75
949.022	4002.54
949.327	3976.1
949.633	3947.85
949.938	3901.07
950.244	3927.96
950.549	3907.62
950.854	3909.66
951.16	3872.37
951.465	3883.9
951.77	3821.75
952.075	3822.2
952.38	3810.9
952.685	3842.09
952.99	3762.99
953.294	3783.78
953.599	3761.86
953.904	3723
954.209	3692.26
954.513	3674.86
954.818	3665.37
955.122	3639.16
955.426	3626.27
955.731	3577.91
956.035	3585.6
956.339	3601.64
956.643	3573.62
956.948	3551.93
957.252	3532.72
957.556	3525.49
957.86	3527.29
958.163	3512.15
958.467	3461.08
958.771	3464.47
959.075	3463.34
959.378	3422.44
959.682	3401.2
959.985	3403
960.289	3400.07
960.592	3381.99
960.896	3402.78
961.199	3311.93
961.502	3342.67
961.805	3325.04
962.108	3297.02
962.411	3288.88
962.714	3254.53
963.017	3268.09
963.32	3283.01
963.623	3180.41
963.926	3247.3
964.228	3220.18
964.531	3162.78
964.833	3212.05
965.136	3183.57
965.438	3128.66
965.741	3116.01
966.043	3136.57
966.345	3107.42
966.648	3109
966.95	3063.8
967.252	3032.62
967.554	3053.41
967.856	3031.49
968.158	2992.17
968.46	3012.05
968.761	2994.43
969.063	2974.99
969.365	2960.08
969.666	2948.33
969.968	2951.49
970.269	2923.92
970.571	2927.54
970.872	2917.14
971.174	2900.87
971.475	2903.13
971.776	2889.57
972.077	2896.58
972.378	2862.23
972.679	2846.63
972.98	2818.16
973.281	2845.96
973.582	2772.96
973.883	2798.95
974.183	2812.74
974.484	2749.69
974.785	2760.53
975.085	2736.58
975.386	2754.43
975.686	2711.5
975.986	2711.95
976.287	2707.88
976.587	2673.08
976.887	2688.9
977.187	2655.9
977.487	2639.18
977.787	2629.69
978.087	2617.49
978.387	2608.9
978.687	2628.11
978.987	2611.84
979.286	2563.7
979.586	2576.13
979.885	2563.7
980.185	2542.91
980.484	2523.7
980.784	2554.44
981.083	2497.04
981.382	2522.57
981.682	2495.68
981.981	2450.94
982.28	2464.95
982.579	2441.9
982.878	2465.18
983.177	2457.94
983.475	2433.99
983.774	2403.71
984.073	2386.53
984.372	2388.79
984.67	2383.82
984.969	2372.52
985.267	2365.06
985.566	2387.66
985.864	2321.9
986.162	2343.6
986.461	2309.93
986.759	2310.6
987.057	2269.02
987.355	2301.79
987.653	2299.08
987.951	2276.93
988.249	2247.78
988.547	2258.18
988.844	2264.73
989.142	2215.69
989.44	2184.28
989.737	2201.45
990.035	2165.75
990.332	2190.83
990.63	2167.78
990.927	2165.52
991.224	2148.35
991.521	2143.83
991.819	2114.22
992.116	2130.04
992.413	2093.21
992.71	2094.34
993.006	2052.53
993.303	2101.34
993.6	2079.2
993.897	2054.34
994.193	2061.34
994.49	2039.65
994.787	2001.68
995.083	2024.28
995.379	2001.01
995.676	1963.04
995.972	2005.3
996.268	2005.53
996.565	1943.83
996.861	1968.69
997.157	1963.72
997.453	1963.72
997.749	1927.79
998.044	1921.01
998.34	1929.37
998.636	1914.91
998.932	1908.35
999.227	1927.34
999.523	1872.42
999.818	1885.76
1000.114	1856.6
1000.409	1851.86
1000.704	1839.43
1001	1819.09
1001.295	1838.07
1001.59	1817.96
1001.885	1828.13
1002.18	1768.47
1002.475	1801.24
1002.77	1757.85
1003.065	1774.35
1003.359	1787.68
1003.654	1787.45
1003.949	1761.46
1004.243	1729.6
1004.538	1752.65
1004.832	1726.21
1005.127	1704.29
1005.421	1698.64
1005.715	1659.55
1006.009	1661.58
1006.304	1646.21
1006.598	1653.67
1006.892	1642.37
1007.186	1656.83
1007.48	1633.56
1007.773	1601.24
1008.067	1603.05
1008.361	1603.73
1008.655	1597.4
1008.948	1582.94
1009.242	1580.9
1009.535	1557.18
1009.829	1557.63
1010.122	1549.27
1010.415	1557.85
1010.708	1526.67
1011.001	1537.74
1011.295	1521.02
1011.588	1504.75
1011.881	1481.92
1012.173	1497.74
1012.466	1503.17
1012.759	1481.7
1013.052	1457.74
1013.344	1439.89
1013.637	1444.41
1013.93	1458.42
1014.222	1443.73
1014.514	1436.05
1014.807	1413.45
1015.099	1382.04
1015.391	1426.78
1015.683	1408.71
1015.976	1377.75
1016.268	1374.58
1016.56	1363.28
1016.851	1359.89
1017.143	1365.77
1017.435	1349.5
1017.727	1346.33
1018.018	1300.23
1018.31	1329.16
1018.602	1309.73
1018.893	1293.91
1019.185	1312.89
1019.476	1272.21
1019.767	1282.38
1020.058	1256.85
1020.35	1247.35
1020.641	1245.55
1020.932	1275.83
1021.223	1255.04
1021.514	1237.86
1021.804	1245.09
1022.095	1220.69
1022.386	1199.9
1022.677	1226.56
1022.967	1187.69
1023.258	1181.82
1023.548	1168.26
1023.839	1171.88
1024.129	1149.05
1024.419	1144.53
1024.709	1128.26
1025	1127.81
1025.29	1118.32
1025.58	1133.68
1025.87	1122.84
1026.16	1110.41
1026.449	1097.08
1026.739	1119.22
1027.029	1080.58
1027.319	1100.24
1027.608	1086.23
1027.898	1072.22
1028.187	1090.75
1028.477	1054.59
1028.766	1051.88
1029.055	1064.53
1029.344	1031.09
1029.634	1031.54
1029.923	1047.81
1030.212	1014.37
1030.501	1021.37
1030.79	1035.38
1031.078	985.67
1031.367	1010.75
1031.656	976.85
1031.945	968.72
1032.233	955.61
1032.522	968.94
1032.81	969.62
1033.099	956.97
1033.387	965.55
1033.675	951.09
1033.963	966.46
1034.251	948.61
1034.54	937.98
1034.828	950.64
1035.116	933.92
1035.403	933.92
1035.691	923.52
1035.979	913.13
1036.267	892.79
1036.554	871.54
1036.842	860.92
1037.129	895.73
1037.417	901.15
1037.704	861.38
1037.992	883.07
1038.279	860.02
1038.566	863.41
1038.853	863.41
1039.14	863.41
