Data from hue_60_FLMS001491_2.txt Node
Date: Mon Feb 06 15:11:50 GMT 2017
User: dcchb
Spectrometer: FLMS00149
Trigger mode: 0
Integration Time (sec): 2.000000E-2
Scans to average: 10
Electric dark correction enabled: true
Nonlinearity correction enabled: false
Boxcar width: 0
XAxis mode: Wavelengths
Number of Pixels in Spectrum: 2048
>>>>>Begin Spectral Data<<<<<
341.393	-21.47
341.776	-21.47
342.16	-21.47
342.543	-46.33
342.927	-65.08
343.31	-68.7
343.693	-70.05
344.077	-72.31
344.46	-68.7
344.843	-57.17
345.226	-39.32
345.61	-16.5
345.993	-24.41
346.376	-11.53
346.759	34.8
347.142	11.3
347.525	14.24
347.908	75.25
348.291	90.17
348.674	98.08
349.057	104.86
349.44	110.73
349.823	120
350.206	158.87
350.588	207.68
350.971	212.65
351.354	214.46
351.737	252.87
352.119	262.59
352.502	255.13
352.884	295.36
353.267	305.53
353.65	312.08
354.032	291.52
354.414	297.39
354.797	326.77
355.179	308.24
355.562	324.74
355.944	336.49
356.326	339.43
356.709	357.05
357.091	342.59
357.473	342.59
357.855	329.93
358.238	370.61
358.62	338.97
359.002	328.58
359.384	321.57
359.766	351.4
360.148	361.8
360.53	352.99
360.912	324.74
361.294	328.8
361.676	330.16
362.057	333.78
362.439	332.65
362.821	345.53
363.203	317.28
363.584	321.57
363.966	311.4
364.348	331.74
364.729	308.47
365.111	340.78
365.493	320.9
365.874	319.31
366.256	321.57
366.637	317.96
367.019	311.63
367.4	327.9
367.781	301.01
368.163	329.03
368.544	319.99
368.925	317.73
369.306	333.32
369.688	308.92
370.069	297.85
370.45	313.44
370.831	330.39
371.212	324.74
371.593	333.55
371.974	321.8
372.355	316.38
372.736	305.3
373.117	334.68
373.498	310.27
373.879	311.63
374.26	335.13
374.641	325.42
375.021	303.27
375.402	309.82
375.783	326.55
376.163	321.35
376.544	337.17
376.925	326.32
377.305	330.61
377.686	335.81
378.066	334.91
378.447	328.35
378.827	326.55
379.208	354.79
379.588	340.33
379.968	324.06
380.349	352.31
380.729	344.4
381.109	349.37
381.489	344.4
381.87	337.17
382.25	346.88
382.63	324.29
383.01	347.11
383.39	348.92
383.77	346.88
384.15	352.53
384.53	358.18
384.91	364.28
385.29	358.86
385.67	347.11
386.049	344.17
386.429	349.14
386.809	341.91
387.189	334
387.568	348.24
387.948	338.52
388.328	379.65
388.707	373.78
389.087	348.69
389.466	386.2
389.846	364.28
390.225	351.4
390.605	367.9
390.984	383.72
391.363	360.89
391.743	366.54
392.122	361.8
392.501	385.75
392.881	368.8
393.26	360.22
393.639	372.65
394.018	382.36
394.397	383.72
394.776	373.32
395.155	383.72
395.534	388.69
395.913	384.4
396.292	371.06
396.671	381.23
397.05	393.21
397.429	398.63
397.808	385.53
398.186	400.67
398.565	378.97
398.944	400.44
399.323	370.84
399.701	399.31
400.08	392.53
400.458	390.5
400.837	382.59
401.215	397.96
401.594	412.64
401.972	402.93
402.351	388.46
402.729	402.02
403.107	409.93
403.486	410.61
403.864	411.06
404.242	427.56
404.62	418.75
404.999	414.9
405.377	409.93
405.755	413.32
406.133	416.71
406.511	421.68
406.889	408.58
407.267	427.79
407.645	421.91
408.023	440.89
408.401	418.07
408.779	420.33
409.156	406.54
409.534	416.94
409.912	430.95
410.29	432.76
410.667	459.42
411.045	469.59
411.422	427.11
411.8	457.62
412.178	468.01
412.555	458.97
412.933	476.6
413.31	483.6
413.687	474.34
414.065	465.75
414.442	448.12
414.819	486.99
415.197	483.6
415.574	484.06
415.951	492.64
416.328	480.89
416.705	500.33
417.082	503.49
417.46	506.43
417.837	483.15
418.214	517.5
418.591	503.26
418.967	505.52
419.344	514.34
419.721	487.22
420.098	508.24
420.475	524.73
420.852	526.99
421.228	543.94
421.605	508.91
421.982	535.81
422.358	540.78
422.735	555.01
423.111	552.53
423.488	541
423.864	541
424.241	539.19
424.617	543.94
424.994	562.92
425.37	582.81
425.746	559.08
426.123	588.23
426.499	576.93
426.875	575.58
427.251	582.13
427.627	572.41
428.003	568.57
428.379	591.85
428.756	586.88
429.132	596.82
429.507	573.77
429.883	612.19
430.259	613.32
430.635	608.57
431.011	626.65
431.387	622.58
431.763	637.27
432.138	628.01
432.514	630.04
432.89	632.75
433.265	649.02
433.641	655.35
434.016	651.73
434.392	658.29
434.767	665.97
435.143	667.1
435.518	677.95
435.894	679.53
436.269	687.89
436.644	703.71
437.02	711.17
437.395	692.41
437.77	697.16
438.145	718.4
438.52	718.63
438.895	742.81
439.271	740.09
439.646	726.76
440.021	729.47
440.395	738.74
440.77	739.87
441.145	758.17
441.52	755.69
441.895	741.45
442.27	735.57
442.645	722.24
443.019	769.7
443.394	768.12
443.769	790.94
444.143	770.38
444.518	780.32
444.892	786.19
445.267	799.75
445.641	781.22
446.016	815.8
446.39	814.22
446.764	795.23
447.139	784.39
447.513	827.77
447.887	829.13
448.262	812.63
448.636	833.2
449.01	854.89
449.384	853.31
449.758	815.35
450.132	845.18
450.506	850.37
450.88	865.29
451.254	856.02
451.628	877.04
452.002	868
452.376	879.98
452.75	905.96
453.123	893.08
453.497	900.54
453.871	911.39
454.244	943.7
454.618	950.71
454.992	951.61
455.365	953.65
455.739	963.82
456.112	988.67
456.486	992.97
456.859	967.88
457.232	1003.14
457.606	1002.69
457.979	983.48
458.352	1038.62
458.725	1007.43
459.099	1061.22
459.472	1059.18
459.845	1076.81
460.218	1068.22
460.591	1082.23
460.964	1082.68
461.337	1129.46
461.71	1151.16
462.083	1168.1
462.456	1176.69
462.829	1141.89
463.201	1188.44
463.574	1216.92
463.947	1225.05
464.32	1216.92
464.692	1253.53
465.065	1272.06
465.438	1269.8
465.81	1285.39
466.183	1315.22
466.555	1341.43
466.928	1340.98
467.3	1350.25
467.672	1412.39
468.045	1417.82
468.417	1404.26
468.789	1433.86
469.161	1465.5
469.534	1518.15
469.906	1529.45
470.278	1548.66
470.65	1553.86
471.022	1631.6
471.394	1610.58
471.766	1672.95
472.138	1683.8
472.51	1753.4
472.882	1808.09
473.253	1834.3
473.625	1837.01
473.997	1945.26
474.369	1921.76
474.74	1954.75
475.112	2045.82
475.484	2081.3
475.855	2128.98
476.227	2179.6
476.598	2252.14
476.97	2249.88
477.341	2358.81
477.713	2393.38
478.084	2463.66
478.455	2540.72
478.827	2605.81
479.198	2683.09
479.569	2762.64
479.94	2842.41
480.311	2916.53
480.682	3035.63
481.053	3130.99
481.424	3206.92
481.795	3250.31
482.166	3424.09
482.537	3473.36
482.908	3575.95
483.279	3693.46
483.65	3808.94
484.021	3902.27
484.391	3995.6
484.762	4104.52
485.133	4224.97
485.503	4314.01
485.874	4492.54
486.244	4569.6
486.615	4687.79
486.985	4871.06
487.356	5052.97
487.726	5161.67
488.097	5319.18
488.467	5415
488.837	5634.43
489.207	5761.66
489.578	5937.02
489.948	6033.06
490.318	6234.41
490.688	6339.72
491.058	6535.87
491.428	6654.06
491.798	6829.2
492.168	7113.26
492.538	7200.26
492.908	7337.43
493.278	7581.95
493.648	7612.91
494.017	7844.31
494.387	8049.96
494.757	8204.76
495.126	8361.36
495.496	8544.41
495.866	8643.39
496.235	8887.45
496.605	9114.11
496.974	9216.25
497.344	9350.94
497.713	9554.78
498.082	9752.29
498.452	9909.12
498.821	10072.73
499.19	10157.02
499.559	10309.79
499.928	10532.83
500.298	10744.58
500.667	10825.93
501.036	11027.05
501.405	11138.01
501.774	11363.09
502.143	11439.7
502.512	11631.33
502.88	11855.51
503.249	11953.36
503.618	12159
503.987	12271.32
504.356	12427.02
504.724	12586.34
505.093	12763.05
505.462	12878.76
505.83	12989.71
506.199	13149.26
506.567	13452.98
506.936	13549.25
507.304	13674.22
507.672	13858.17
508.041	13944.72
508.409	14202.79
508.777	14364.14
509.145	14523.46
509.514	14572.72
509.882	14847.97
510.25	14865.82
510.618	15128.64
510.986	15246.6
511.354	15324.79
511.722	15575.64
512.09	15789.64
512.458	15769.75
512.826	16056.07
513.193	16049.07
513.561	16284.32
513.929	16395.5
514.297	16615.16
514.664	16861.48
515.032	16869.84
515.4	17141.7
515.767	17159.32
516.135	17429.37
516.502	17311.18
516.869	17678.63
517.237	17772.64
517.604	17786.2
517.972	18109.35
518.339	18310.48
518.706	18305.28
519.073	18388.9
519.44	18677.93
519.808	18807.87
520.175	18897.13
520.542	19152.49
520.909	19291.92
521.276	19404.46
521.643	19610.33
522.009	19728.97
522.376	19895.07
522.743	20036.76
523.11	20256.64
523.477	20469.29
523.843	20615.28
524.21	20892.33
524.577	20977.3
524.943	21173
525.31	21215.71
525.676	21452.77
526.043	21539.55
526.409	21789.94
526.776	22025.18
527.142	22059.98
527.508	22187.67
527.874	22474.66
528.241	22490.26
528.607	22547.88
528.973	22849.34
529.339	22942.67
529.705	23120.52
530.071	23283.68
530.437	23446.16
530.803	23559.15
531.169	23700.17
531.535	23701.07
531.901	23728.42
532.267	23927.96
532.632	24061.06
532.998	24245.46
533.364	24464.44
533.73	24397.78
534.095	24645
534.461	24760.03
534.826	24887.03
535.192	24982.39
535.557	25112.33
535.923	25092.22
536.288	25317.07
536.653	25433.23
537.019	25380.8
537.384	25584.19
537.749	25608.14
538.114	25741.47
538.479	25712.09
538.845	25892.2
539.21	25972.2
539.575	25995.93
539.94	26181.46
540.305	26355.24
540.67	26273.21
541.034	26423.94
541.399	26579.87
541.764	26547.78
542.129	26904.83
542.494	26885.85
542.858	26879.29
543.223	26878.39
543.587	27138.72
543.952	27042.23
544.316	27259.85
544.681	27205.39
545.045	27390.92
545.41	27644.24
545.774	27708.88
546.138	27676.79
546.503	27829.55
546.867	27781.42
547.231	28045.82
547.595	28076.78
547.959	28203.33
548.324	28241.97
548.688	28301.63
549.052	28404.22
549.416	28377.33
549.779	28462.98
550.143	28663.43
550.507	28798.56
550.871	28856.19
551.235	28880.14
551.599	28984.55
551.962	29157.65
552.326	29281.26
552.689	29593.35
553.053	29276.07
553.417	29455.04
553.78	29872.43
554.143	29722.61
554.507	29820.91
554.87	29857.75
555.234	30230.62
555.597	30117.85
555.96	30287.57
556.323	30285.53
556.686	30429.03
557.05	30683.04
557.413	30778.4
557.776	30837.38
558.139	31133.19
558.502	31037.15
558.865	31175.9
559.228	31425.16
559.59	31483.92
559.953	31540.19
560.316	31944.02
560.679	31866.96
561.041	32186.5
561.404	32300.17
561.767	32489.09
562.129	32314.4
562.492	32830.32
562.854	32669.88
563.217	32779.48
563.579	32976.99
563.941	33138.34
564.304	33303.53
564.666	33521.38
565.028	33589.85
565.39	33635.27
565.753	33755.04
566.115	33911.65
566.477	34055.6
566.839	34117.3
567.201	34389.83
567.563	34367.01
567.925	34677.28
568.287	34590.05
568.648	34849.25
569.01	34985.97
569.372	35148.23
569.734	35067.1
570.095	35196.14
570.457	35379.18
570.819	35474.1
571.18	35608.78
571.542	35807.87
571.903	35810.13
572.265	35932.16
572.626	35934.87
572.987	36091.93
573.349	36250.57
573.71	36589.55
574.071	36453.96
574.432	36613.95
574.794	36754.74
575.155	36788.41
575.516	36663.67
575.877	36927.16
576.238	36881.06
576.599	37119.25
576.96	37069.08
577.32	37226.82
577.681	37419.81
578.042	37450.99
578.403	37394.5
578.763	37466.59
579.124	37587.03
579.485	37834.03
579.845	37671.78
580.206	37857.08
580.566	37670.65
580.927	37759.46
581.287	37972.33
581.648	37921.71
582.008	38093.69
582.368	38015.95
582.728	38140.92
583.089	38149.28
583.449	38106.79
583.809	38123.74
584.169	38269.05
584.529	38106.79
584.889	38446.22
585.249	38014.14
585.609	38029.51
585.969	38299.78
586.329	38273.12
586.688	38302.27
587.048	38163.29
587.408	38276.96
587.768	38208.94
588.127	38315.83
588.487	38296.39
588.846	38483.28
589.206	38200.35
589.565	38349.27
589.925	38482.15
590.284	38346.11
590.643	38568.25
591.003	38435.37
591.362	38726.89
591.721	38530.29
592.08	38587.69
592.44	38576.84
592.799	38697.29
593.158	38561.02
593.517	38734.57
593.876	38688.47
594.235	38741.81
594.593	38649.83
594.952	38790.17
595.311	38659.32
595.67	38890.73
596.029	39121.23
596.387	39116.49
596.746	39177.95
597.104	38936.38
597.463	38915.36
597.822	39076.03
598.18	38934.12
598.538	38924.17
598.897	39269.48
599.255	39003.72
599.613	39495.23
599.972	39186.09
600.33	39330.27
600.688	39142.02
601.046	39530.03
601.404	39453.65
601.762	39388.79
602.12	39570.26
602.478	39671.73
602.836	39675.57
603.194	39466.08
603.552	39502.46
603.91	39485.97
604.268	39779.29
604.625	39760.31
604.983	39814.32
605.341	39726.19
605.698	40038.27
606.056	39978.38
606.413	40074.43
606.771	40132.96
607.128	40188.1
607.485	40061.32
607.843	40064.03
608.2	40343.35
608.557	40470.35
608.914	40337.24
609.272	40544.7
609.629	40586.73
609.986	40857
610.343	40588.76
610.7	40925.48
611.057	40868.08
611.414	40808.42
611.771	41038.47
612.127	41077.56
612.484	40898.36
612.841	41196.2
613.198	41139.71
613.554	41186.49
613.911	41400.27
614.267	41367.95
614.624	41406.37
614.98	41380.38
615.337	41614.95
615.693	41637.78
616.05	41519.81
616.406	41827.37
616.762	41634.61
617.118	41624.22
617.475	41722.29
617.831	41887.49
618.187	41945.56
618.543	42023.75
618.899	42220.36
619.255	42200.25
619.611	42174.48
619.967	42212.68
620.323	42376.06
620.678	42174.03
621.034	42099.68
621.39	42303.97
621.746	42214.94
622.101	42754.81
622.457	42309.4
622.812	42415.83
623.168	42666.9
623.523	42508.49
623.879	42734.24
624.234	42430.75
624.589	42520.69
624.945	42728.14
625.3	42658.77
625.655	42687.24
626.01	42807.24
626.365	42681.59
626.72	42690.4
627.075	42725.66
627.43	42670.97
627.785	42697.41
628.14	42671.65
628.495	42744.41
628.85	42698.76
629.205	42664.19
629.559	42960.68
629.914	42660.12
630.269	42715.94
630.623	42593.68
630.978	42531.76
631.332	42797.97
631.687	42770.4
632.041	42637.07
632.396	42698.31
632.75	42468.04
633.104	42640.69
633.459	42430.97
633.813	42470.52
634.167	42468.04
634.521	42456.96
634.875	42513.23
635.229	42383.52
635.583	42305.78
635.937	42223.07
636.291	42272.79
636.645	42321.37
636.999	42057.65
637.352	42387.13
637.706	42159.34
638.06	42272.79
638.413	42179.46
638.767	42130.19
639.121	42118.67
639.474	41914.6
639.828	41900.59
640.181	42014.26
640.534	41946.69
640.888	41994.6
641.241	41822.18
641.594	41812.23
641.947	42018.1
642.301	41851.1
642.654	41869.18
643.007	41887.94
643.36	41772.46
643.713	41783.53
644.066	41875.74
644.419	41716.42
644.771	41416.99
645.124	41035.08
645.477	40948.08
645.83	40631.02
646.182	40643.45
646.535	40464.02
646.888	40453.4
647.24	40381.54
647.593	40506.28
647.945	40450.69
648.298	40227.42
648.65	40287.53
649.002	40146.52
649.355	40339.28
649.707	40216.57
650.059	40458.82
650.411	40852.03
650.763	40854.74
651.115	41232.59
651.467	41112.14
651.819	41006.61
652.171	40923.9
652.523	40891.81
652.875	41035.08
653.227	40826.27
653.578	40985.36
653.93	40904.24
654.282	40799.61
654.633	40686.16
654.985	40657.01
655.337	40610.01
655.688	40695.65
656.039	40913.95
656.391	40560.97
656.742	40649.1
657.094	40643.9
657.445	40763.9
657.796	40675.31
658.147	40600.06
658.498	40610.68
658.849	40558.26
659.2	40512.83
659.551	40487.3
659.902	40527.97
660.253	40611.36
660.604	40653.62
660.955	40434.42
661.306	40490.46
661.656	40510.12
662.007	40383.8
662.358	40479.61
662.708	40389.22
663.059	40357.81
663.409	40156.01
663.76	40475.77
664.11	40495.21
664.461	40552.83
664.811	40426.96
665.161	40262.67
665.511	40307.87
665.862	40250.92
666.212	40403.68
666.562	40481.87
666.912	40429.45
667.262	40232.39
667.612	40203.91
667.962	40385.15
668.312	40187.19
668.662	40428.09
669.011	40399.84
669.361	40167.08
669.711	40180.86
670.06	40124.37
670.41	40038.27
670.76	40112.39
671.109	40332.72
671.459	40132.73
671.808	40124.82
672.157	40181.32
672.507	39933.64
672.856	39908.1
673.205	39930.48
673.554	40118.72
673.904	39612.74
674.253	40098.15
674.602	39952.17
674.951	39342.47
675.3	39298.18
675.649	39954.43
675.998	39682.35
676.346	39914.2
676.695	39934.77
677.044	39562.8
677.393	39681.44
677.741	39801.44
678.09	39579.75
678.438	39510.83
678.787	39667.43
679.135	39732.51
679.484	39331.4
679.832	39508.34
680.181	39400.55
680.529	39370.26
680.877	39286.42
681.225	39323.71
681.573	39446.19
681.922	39242.13
682.27	39110.84
682.618	39163.94
682.966	39000.78
683.314	39074.45
683.661	38904.51
684.009	38846.21
684.357	38801.69
684.705	38778.19
685.053	38771.18
685.4	38653.22
685.748	38407.13
686.095	38557.18
686.443	38335.26
686.79	38329.16
687.138	38446.67
687.485	38385.21
687.832	38301.82
688.18	38253.23
688.527	37976.18
688.874	37997.42
689.221	37942.73
689.568	37823.41
689.915	37605.56
690.262	37721.49
690.609	37660.7
690.956	37535.74
691.303	37464.1
691.65	37243.99
691.997	37200.83
692.344	37075.18
692.69	37107.05
693.037	36972.14
693.383	36874.74
693.73	36874.51
694.077	36646.27
694.423	36827.96
694.769	36608.3
695.116	36554.07
695.462	36356.56
695.808	36232.04
696.155	36414.18
696.501	36079.5
696.847	36172.38
697.193	35955.89
697.539	35943.24
697.885	35687.2
698.231	35647.65
698.577	35771.26
698.923	35591.38
699.269	35554.55
699.614	35278.85
699.96	35184.61
700.306	35253.99
700.651	35150.49
700.997	35035.46
701.342	35008.8
701.688	34991.85
702.033	34866.88
702.379	34792.53
702.724	34709.37
703.069	34704.4
703.415	34391.86
703.76	34453.33
704.105	34398.87
704.45	34296.73
704.795	34195.94
705.14	33988.71
705.485	34009.95
705.83	33769.73
706.175	33853.57
706.52	33785.55
706.865	33713.69
707.209	33653.8
707.554	33543.3
707.899	33601.15
708.243	33396.41
708.588	33288.84
708.932	33094.27
709.277	33067.38
709.621	33116.19
709.966	32930.21
710.31	32998.68
710.654	32679.37
710.998	32862.86
711.342	32682.08
711.687	32545.81
712.031	32539.71
712.375	32392.82
712.719	32462.42
713.063	32312.82
713.407	32487.06
713.75	32238.47
714.094	32072.38
714.438	32002.1
714.782	32150.79
715.125	31951.02
715.469	31972.72
715.812	31751.03
716.156	31658.15
716.499	31710.8
716.843	31775.21
717.186	31510.36
717.53	31774.76
717.873	31719.17
718.216	31493.86
718.559	31480.98
718.902	31167.54
719.246	31309.01
719.589	31142.46
719.932	31059.75
720.275	31059.97
720.617	31032.63
720.96	30960.99
721.303	31000.31
721.646	30994.21
721.989	30692.3
722.331	30811.17
722.674	30725.97
723.016	30707.22
723.359	30659.08
723.701	30777.27
724.044	30448.46
724.386	30392.87
724.729	30495.24
725.071	30445.75
725.413	30366.89
725.755	30456.6
726.097	30302.71
726.439	30152.88
726.782	30105.2
727.124	30191.07
727.465	30035.37
727.807	30013.45
728.149	29867.92
728.491	29941.36
728.833	29950.62
729.175	29741.36
729.516	29685.1
729.858	29615.94
730.199	29608.71
730.541	29675.83
730.882	29514.7
731.224	29598.77
731.565	29478.55
731.906	29523.07
732.248	29570.97
732.589	29480.58
732.93	29231.77
733.271	29174.37
733.612	29195.62
733.953	29162.17
734.294	29190.19
734.635	29050.31
734.976	29184.09
735.317	28853.25
735.658	28852.8
735.999	28947.71
736.339	28879.01
736.68	28894.83
737.021	28812.12
737.361	28714.73
737.702	28834.5
738.042	28586.82
738.383	28718.11
738.723	28758.79
739.063	28574.62
739.404	28573.26
739.744	28491
740.084	28372.59
740.424	28452.59
740.764	28285.81
741.104	28478.8
741.444	28310.44
741.784	28254.85
742.124	28236.09
742.464	28198.13
742.804	28034.97
743.143	27982.77
743.483	28122.42
743.823	27793.85
744.162	27851.25
744.502	27990
744.841	27713.62
745.181	27891.7
745.52	27722.21
745.86	27796.78
746.199	27677.01
746.538	27671.81
746.877	27626.39
747.216	27495.32
747.556	27525.38
747.895	27469.33
748.234	27382.56
748.573	27350.02
748.911	27380.52
749.25	27393.18
749.589	27221.66
749.928	27203.35
750.267	27135.56
750.605	27125.61
750.944	26943.92
751.283	26933.98
751.621	27017.37
751.96	26797.71
752.298	26929.46
752.636	26796.13
752.975	26660.54
753.313	26617.83
753.651	26668
753.989	26566.99
754.327	26533.77
754.666	26430.27
755.004	26288.35
755.342	26383.49
755.679	26317.05
756.017	26226.88
756.355	26303.94
756.693	26170.16
757.031	26150.5
757.368	25875.7
757.706	25968.81
758.044	25936.95
758.381	25862.14
758.719	25722.94
759.056	25846.1
759.394	25607.91
759.731	25651.53
760.068	25619.21
760.405	25448.37
760.743	25315.94
761.08	25371.08
761.417	25209.05
761.754	25165.21
762.091	25064.88
762.428	24966.58
762.765	24929.51
763.102	24812.45
763.438	24690.65
763.775	24679.8
764.112	24697.43
764.449	24674.38
764.785	24611.33
765.122	24418.34
765.458	24285.92
765.795	24258.12
766.131	24244.56
766.467	24089.08
766.804	24096.09
767.14	24001.4
767.476	23866.27
767.812	23806.15
768.148	23790.11
768.485	23684.12
768.821	23559.61
769.157	23425.82
769.492	23432.15
769.828	23457.01
770.164	23203.01
770.5	23184.02
770.836	23184.93
771.171	22995.55
771.507	23029.9
771.842	22833.07
772.178	22863.58
772.513	22761.89
772.849	22700.87
773.184	22532.29
773.519	22551.27
773.855	22464.95
774.19	22310.83
774.525	22350.37
774.86	22258.17
775.195	22171.17
775.53	22027.9
775.865	21846.43
776.2	21779.77
776.535	21538.19
776.87	21665.87
777.205	21638.98
777.539	21539.55
777.874	21481.7
778.209	21201.48
778.543	21214.13
778.878	21199.22
779.212	21172.78
779.547	21044.64
779.881	21062.72
780.215	20870.41
780.55	20937.08
780.884	20796.52
781.218	20828.15
781.552	20754.48
781.886	20692.34
782.22	20637.65
782.554	20469.74
782.888	20355.17
783.222	20170.09
783.556	20088.29
783.889	20136.42
784.223	19977.78
784.557	19915.41
784.89	19939.59
785.224	19782.08
785.557	19683.78
785.891	19680.16
786.224	19638.13
786.558	19660.05
786.891	19387.29
787.224	19361.07
787.557	19259.38
787.891	19309.1
788.224	19174.86
788.557	19151.13
788.89	19047.86
789.223	19085.6
789.556	18865.94
789.888	18895.1
790.221	18759.96
790.554	18679.73
790.887	18668.66
791.219	18557.93
791.552	18453.3
791.884	18400.87
792.217	18447.88
792.549	18270.48
792.882	18137.38
793.214	18081.11
793.546	18249.46
793.879	17964.27
794.211	17961.79
794.543	17959.98
794.875	17898.29
795.207	17884.05
795.539	17851.51
795.871	17829.59
796.203	17713.66
796.535	17619.88
796.867	17490.39
797.198	17493.55
797.53	17420.56
797.862	17303.73
798.193	17341.69
798.525	17249.94
798.856	17303.27
799.188	17166.1
799.519	17130.85
799.85	16993.45
800.182	17009.5
800.513	17026.44
800.844	16845.66
801.175	16892.44
801.506	16866.22
801.837	16732.67
802.168	16689.96
802.499	16651.99
802.83	16631.65
803.161	16568.38
803.491	16533.58
803.822	16498.1
804.153	16407.7
804.483	16300.81
804.814	16210.87
805.145	16152.12
805.475	16216.3
805.805	16110.31
806.136	16165.68
806.466	16055.62
806.796	16131.55
807.126	15933.14
807.457	15939.02
807.787	15959.13
808.117	15744.44
808.447	15742.64
808.777	15811.11
809.107	15675.29
809.436	15675.29
809.766	15643.2
810.096	15598.23
810.426	15471.46
810.755	15559.59
811.085	15491.12
811.414	15358.69
811.744	15291.12
812.073	15233.5
812.403	15221.29
812.732	15188.53
813.061	15097.91
813.39	15119.83
813.719	15064.01
814.049	15074.63
814.378	15044.58
814.707	15017.68
815.036	14940.62
815.365	14910.34
815.693	14744.47
816.022	14804.58
816.351	14796.67
816.68	14668.77
817.008	14654.98
817.337	14530.24
817.665	14586.51
817.994	14549.9
818.322	14549.45
818.651	14517.58
818.979	14435.55
819.307	14479.39
819.636	14413.86
819.964	14297.7
820.292	14397.59
820.62	14305.61
820.948	14279.85
821.276	14306.97
821.604	14255.9
821.932	14401.43
822.259	14240.98
822.587	14292.73
822.915	14211.15
823.243	14252.96
823.57	14165.96
823.898	14335.89
824.225	14171.6
824.553	14226.97
824.88	14144.94
825.207	14236.91
825.535	14179.97
825.862	14236.01
826.189	14216.8
826.516	14247.08
826.843	14278.49
827.17	14265.16
827.497	14243.92
827.824	14114.88
828.151	14253.64
828.478	14240.53
828.805	14271.94
829.131	14213.64
829.458	14142.68
829.785	14119.85
830.111	14141.32
830.438	14231.49
830.764	14197.59
831.09	14210.93
831.417	14097.03
831.743	14187.88
832.069	14212.96
832.395	14045.73
832.722	14114.66
833.048	14055.68
833.374	14099.06
833.7	14091.38
834.026	13997.6
834.351	14040.08
834.677	13955.57
835.003	14063.59
835.329	14024.04
835.654	13984.27
835.98	13940.88
836.306	13880.31
836.631	13908.79
836.956	13924.61
837.282	13921.22
837.607	13893.87
837.932	13780.65
838.258	13793.31
838.583	13843.7
838.908	13676.48
839.233	13737.49
839.558	13731.16
839.883	13639.19
840.208	13681.22
840.533	13617.95
840.858	13675.12
841.182	13567.1
841.507	13580.21
841.832	13480.78
842.156	13477.84
842.481	13494.79
842.805	13440.55
843.13	13444.62
843.454	13411.4
843.778	13368.01
844.103	13405.98
844.427	13262.48
844.751	13268.58
845.075	13116.94
845.399	13167.79
845.723	13104.51
846.047	13164.4
846.371	12984.97
846.695	13090.96
847.019	12889.15
847.343	12909.49
847.666	12782.94
847.99	12763.96
848.313	12689.38
848.637	12656.84
848.96	12561.7
849.284	12560.57
849.607	12446.9
849.931	12485.32
850.254	12433.12
850.577	12346.34
850.9	12296.63
851.223	12304.76
851.546	12204.42
851.869	12060.47
852.192	12159.68
852.515	11987.93
852.838	11974.6
853.161	12011.21
853.483	11940.48
853.806	11887.82
854.129	11915.39
854.451	11769.86
854.774	11800.82
855.096	11702.52
855.419	11720.14
855.741	11671.33
856.063	11539.58
856.385	11561.96
856.708	11575.29
857.03	11495.06
857.352	11506.36
857.674	11456.87
857.996	11468.17
858.318	11320.15
858.64	11382.53
858.961	11356.09
859.283	11340.04
859.605	11251.46
859.926	11303.88
860.248	11188.86
860.57	11147.96
860.891	11148.41
861.212	11092.82
861.534	11094.85
861.855	11080.39
862.176	11082.42
862.498	11092.36
862.819	11053.72
863.14	10906.83
863.461	10960.84
863.782	10909.54
864.103	10844.01
864.424	10878.58
864.745	10858.7
865.065	10804.69
865.386	10771.02
865.707	10732.37
866.027	10747.06
866.348	10750.68
866.668	10719.49
866.989	10732.37
867.309	10594.98
867.63	10614.18
867.95	10647.63
868.27	10568.31
868.59	10589.1
868.91	10601.3
869.23	10564.92
869.55	10495.54
869.87	10594.75
870.19	10539.38
870.51	10455.09
870.83	10507.52
871.15	10450.12
871.469	10426.62
871.789	10496.45
872.109	10488.54
872.428	10360.63
872.748	10427.3
873.067	10367.19
873.386	10358.37
873.706	10407.86
874.025	10311.14
874.344	10312.05
874.663	10287.41
874.982	10263.23
875.301	10256.23
875.62	10225.72
875.939	10187.75
876.258	10194.99
876.577	10147.76
876.896	10124.03
877.214	10095.55
877.533	10120.41
877.852	10107.08
878.17	10183.69
878.489	10127.87
878.807	10111.82
879.125	10136
879.444	10072.73
879.762	10008.1
880.08	10053.52
880.398	9978.72
880.716	9995.44
881.034	9915.45
881.352	9965.84
881.67	9958.16
881.988	9919.51
882.306	9884.49
882.624	9861.44
882.941	9772.62
883.259	9762.91
883.577	9747.99
883.894	9742.34
884.212	9710.71
884.529	9642.68
884.846	9665.28
885.164	9643.81
885.481	9604.72
885.798	9595.23
886.115	9582.12
886.432	9552.52
886.75	9462.35
887.067	9550.03
887.383	9500.54
887.7	9530.37
888.017	9530.14
888.334	9461.45
888.651	9391.84
888.967	9334.67
889.284	9302.13
889.6	9295.35
889.917	9309.81
890.233	9293.54
890.55	9164.73
890.866	9141.68
891.182	9216.03
891.498	9147.1
891.815	9141
892.131	9074.79
892.447	9074.79
892.763	9059.42
893.079	9019.88
893.395	8968.35
893.71	9008.35
894.026	8917.51
894.342	8909.82
894.657	8898.75
894.973	8860.56
895.289	8863.5
895.604	8789.83
895.92	8762.26
896.235	8673.67
896.55	8691.75
896.865	8663.95
897.181	8696.04
897.496	8659.89
897.811	8572.2
898.126	8518.19
898.441	8555.03
898.756	8536.27
899.071	8458.08
899.386	8446.56
899.7	8363.17
900.015	8341.02
900.33	8338.31
900.644	8272.1
900.959	8346
901.273	8280.46
901.588	8247.47
901.902	8185.32
902.216	8260.57
902.531	8172.67
902.845	8157.07
903.159	8043.86
903.473	8131.54
903.787	7973.58
904.101	8007.93
904.415	8011.09
904.729	7929.96
905.042	7936.06
905.356	7865.33
905.67	7899.91
905.984	7835.05
906.297	7820.59
906.611	7813.81
906.924	7756.86
907.237	7692.91
907.551	7735.39
907.864	7650.19
908.177	7638.44
908.491	7609.29
908.804	7527.49
909.117	7521.38
909.43	7480.48
909.743	7400.94
910.056	7432.12
910.368	7359.58
910.681	7375.4
910.994	7330.88
911.307	7282.07
911.619	7238.23
911.932	7274.61
912.244	7169.08
912.557	7207.95
912.869	7119.36
913.181	7137.21
913.494	7170.43
913.806	7073.94
914.118	7035.75
914.43	7015.86
914.742	6996.65
915.054	6953.04
915.366	6958.69
915.678	6933.6
915.99	6867.39
916.302	6834.4
916.613	6783.78
916.925	6760.5
917.236	6683.21
917.548	6755.53
917.859	6742.65
918.171	6694.51
918.482	6644.8
918.794	6672.37
919.105	6627.85
919.416	6583.1
919.727	6594.18
920.038	6575.65
920.349	6504.01
920.66	6486.16
920.971	6523.22
921.282	6433.5
921.593	6349.44
921.903	6312.38
922.214	6304.92
922.525	6377.69
922.835	6307.63
923.146	6254.07
923.456	6195.54
923.767	6189.67
924.077	6169.33
924.387	6105.15
924.697	6066.73
925.008	6107.64
925.318	6091.82
925.628	6108.77
925.938	6050.01
926.248	5934.31
926.558	5958.94
926.867	5944.7
927.177	5944.02
927.487	5863.12
927.796	5857.25
928.106	5860.86
928.416	5771.6
928.725	5830.81
929.034	5760.3
929.344	5732.73
929.653	5702
929.962	5659.06
930.271	5666.07
930.581	5649.34
930.89	5577.71
931.199	5582
931.508	5603.69
931.817	5536.13
932.125	5531.61
932.434	5499.74
932.743	5459.74
933.051	5459.29
933.36	5451.16
933.669	5390.37
933.977	5363.93
934.286	5357.83
934.594	5352.18
934.902	5276.47
935.21	5264.04
935.519	5273.99
935.827	5274.89
936.135	5249.35
936.443	5133.2
936.751	5168.9
937.059	5196.7
937.367	5134.33
937.674	5097.49
937.982	5118.74
938.29	5049.58
938.597	5098.85
938.905	5011.39
939.213	5030.15
939.52	4974.56
939.827	5024.27
940.135	4916.48
940.442	4935.01
940.749	4913.54
941.056	4880.32
941.363	4864.96
941.67	4837.39
941.977	4828.8
942.284	4782.47
942.591	4755.58
942.898	4763.26
943.205	4761
943.511	4733.89
943.818	4713.1
944.125	4668.8
944.431	4646.43
944.738	4641.23
945.044	4627.67
945.35	4582.25
945.657	4542.71
945.963	4543.84
946.269	4502.25
946.575	4537.73
946.881	4496.15
947.187	4434.23
947.493	4453.44
947.799	4428.58
948.105	4402.82
948.41	4391.3
948.716	4396.04
949.022	4381.81
949.327	4362.6
949.633	4296.61
949.938	4302.71
950.244	4294.8
950.549	4285.31
950.854	4267.68
951.16	4256.16
951.465	4221.58
951.77	4168.25
952.075	4164.18
952.38	4118.99
952.685	4176.61
952.99	4085.09
953.294	4158.31
953.599	4067.69
953.904	4089.84
954.209	4050.51
954.513	4044.64
954.818	4005.32
955.122	4043.74
955.426	4007.8
955.731	3936.62
956.035	3951.53
956.339	3934.59
956.643	3908.82
956.948	3934.13
957.252	3894.81
957.556	3824.08
957.86	3853.91
958.163	3868.15
958.467	3817.53
958.771	3812.33
959.075	3784.08
959.378	3747.25
959.682	3789.96
959.985	3712.67
960.289	3708.15
960.592	3713.35
960.896	3720.58
961.199	3643.07
961.502	3640.81
961.805	3620.02
962.108	3637.42
962.411	3612.79
962.714	3586.12
963.017	3582.5
963.32	3577.31
963.623	3546.57
963.926	3517.42
964.228	3551.09
964.531	3459.8
964.833	3500.7
965.136	3460.7
965.438	3469.97
965.741	3441.04
966.043	3433.13
966.345	3428.16
966.648	3407.59
966.95	3394.71
967.252	3330.53
967.554	3338.22
967.856	3325.79
968.158	3286.69
968.46	3297.54
968.761	3314.72
969.063	3278.78
969.365	3255.73
969.666	3245.11
969.968	3198.56
970.269	3217.09
970.571	3223.64
970.872	3206.02
971.174	3181.16
971.475	3132.8
971.776	3153.14
972.077	3128.05
972.378	3131.44
972.679	3113.36
972.98	3108.17
973.281	3066.36
973.582	3078.56
973.883	3031.11
974.183	3017.32
974.484	3022.29
974.785	3051.9
975.085	2988.17
975.386	2949.07
975.686	3019.58
975.986	2978
976.287	2957.89
976.587	2907.04
976.887	2911.11
977.187	2887.16
977.487	2877.66
977.787	2856.42
978.087	2870.21
978.387	2870.66
978.687	2815.29
978.987	2835.86
979.286	2806.03
979.586	2775.29
979.885	2812.36
980.185	2773.94
980.484	2759.25
980.784	2785.46
981.083	2754.28
981.382	2768.06
981.682	2745.24
981.981	2736.88
982.28	2698.23
982.579	2645.81
982.878	2663.88
983.177	2653.26
983.475	2656.43
983.774	2620.5
984.073	2622.53
984.372	2595.41
984.67	2624.56
984.969	2580.72
985.267	2589.99
985.566	2586.37
985.864	2569.65
986.162	2550.89
986.461	2541.18
986.759	2500.5
987.057	2501.18
987.355	2501.63
987.653	2502.08
987.951	2484.45
988.249	2493.27
988.547	2472.25
988.844	2446.94
989.142	2424.12
989.44	2421.18
989.737	2422.08
990.035	2399.94
990.332	2397.45
990.63	2381.18
990.927	2383.44
991.224	2360.84
991.521	2346.6
991.819	2342.31
992.116	2351.58
992.413	2318.13
992.71	2295.53
993.006	2284.91
993.303	2263.22
993.6	2259.6
993.897	2257.57
994.193	2271.58
994.49	2279.94
994.787	2224.57
995.083	2198.13
995.379	2223.44
995.676	2222.09
995.972	2218.92
996.268	2130.79
996.565	2176.67
996.861	2136.44
997.157	2173.05
997.453	2140.51
997.749	2155.2
998.044	2069.1
998.34	2117.23
998.636	2092.6
998.932	2080.62
999.227	2075.88
999.523	2075.88
999.818	2051.02
1000.114	2018.48
1000.409	2034.3
1000.704	2001.76
1001	2003.34
1001.295	1987.52
1001.59	1999.95
1001.885	1989.78
1002.18	1946.16
1002.475	1941.87
1002.77	1939.16
1003.065	1938.93
1003.359	1934.86
1003.654	1901.87
1003.949	1922.89
1004.243	1895.54
1004.538	1873.62
1004.832	1892.38
1005.127	1886.05
1005.421	1853.51
1005.715	1834.08
1006.009	1856
1006.304	1826.39
1006.598	1837.01
1006.892	1815.32
1007.186	1808.09
1007.48	1798.82
1007.773	1786.17
1008.067	1804.02
1008.361	1782.33
1008.655	1739.62
1008.948	1731.48
1009.242	1752.95
1009.535	1723.12
1009.829	1704.36
1010.122	1704.81
1010.415	1671.82
1010.708	1681.99
1011.001	1654.19
1011.295	1668.2
1011.588	1622.78
1011.881	1646.51
1012.173	1626.4
1012.466	1621.2
1012.759	1609.68
1013.052	1594.53
1013.344	1569
1013.637	1586.85
1013.93	1569.68
1014.222	1569.68
1014.514	1556.34
1014.807	1557.93
1015.099	1533.74
1015.391	1524.93
1015.683	1554.54
1015.976	1514.54
1016.268	1534.2
1016.56	1491.94
1016.851	1487.42
1017.143	1500.07
1017.435	1495.33
1017.727	1440.64
1018.018	1428.44
1018.31	1422.56
1018.602	1462.11
1018.893	1428.21
1019.185	1426.4
1019.476	1417.82
1019.767	1403.8
1020.058	1378.49
1020.35	1393.64
1020.641	1385.27
1020.932	1352.73
1021.223	1357.93
1021.514	1337.37
1021.804	1337.82
1022.095	1339.63
1022.386	1330.13
1022.677	1331.04
1022.967	1320.64
1023.258	1282
1023.548	1281.32
1023.839	1276.8
1024.129	1284.03
1024.419	1243.81
1024.709	1255.33
1025	1244.26
1025.29	1228.89
1025.58	1217.14
1025.87	1200.65
1026.16	1205.62
1026.449	1196.13
1026.739	1199.52
1027.029	1192.96
1027.319	1187.09
1027.608	1201.1
1027.898	1167.65
1028.187	1163.59
1028.477	1147.99
1028.766	1141.89
1029.055	1124.72
1029.344	1114.32
1029.634	1133.98
1029.923	1118.39
1030.212	1107.54
1030.501	1112.29
1030.79	1124.72
1031.078	1100.99
1031.367	1094.89
1031.656	1062.8
1031.945	1073.87
1032.233	1059.86
1032.522	1052.63
1032.81	1022.35
1033.099	1053.08
1033.387	1028.45
1033.675	1022.57
1033.963	999.3
1034.251	1027.54
1034.54	991.84
1034.828	1003.82
1035.116	1005.4
1035.403	985.06
1035.691	976.25
1035.979	996.58
1036.267	976.02
1036.554	992.29
1036.842	975.57
1037.129	966.53
1037.417	955.46
1037.704	941.44
1037.992	922.24
1038.279	933.08
1038.566	930.6
1038.853	930.6
1039.14	930.6
