Data from hue_310_FLMS001491_98.txt Node
Date: Mon Feb 06 15:50:29 GMT 2017
User: dcchb
Spectrometer: FLMS00149
Trigger mode: 0
Integration Time (sec): 2.000000E-2
Scans to average: 10
Electric dark correction enabled: true
Nonlinearity correction enabled: false
Boxcar width: 0
XAxis mode: Wavelengths
Number of Pixels in Spectrum: 2048
>>>>>Begin Spectral Data<<<<<
341.393	-16.78
341.776	-16.78
342.16	-16.78
342.543	-49.32
342.927	-78.02
343.31	-64.01
343.693	-72.6
344.077	-53.39
344.46	-51.58
344.843	-49.55
345.226	-45.71
345.61	-32.82
345.993	-26.5
346.376	-14.52
346.759	5.59
347.142	31.58
347.525	47.4
347.908	65.03
348.291	69.55
348.674	84.46
349.057	107.06
349.44	142.99
349.823	167.17
350.206	158.81
350.588	174.18
350.971	214.4
351.354	221.41
351.737	255.08
352.119	237.68
352.502	250.33
352.884	298.69
353.267	287.17
353.65	276.77
354.032	292.82
354.414	295.75
354.797	344.12
355.179	312.03
355.562	313.61
355.944	334.62
356.326	329.88
356.709	342.31
357.091	331.46
357.473	352.25
357.855	329.43
358.238	334.62
358.62	344.34
359.002	342.76
359.384	323.1
359.766	335.3
360.148	350.89
360.53	338.01
360.912	332.36
361.294	324
361.676	320.39
362.057	329.88
362.439	331.46
362.821	318.81
363.203	321.52
363.584	342.99
363.966	344.79
364.348	323.32
364.729	325.36
365.111	314.51
365.493	320.16
365.874	297.79
366.256	324
366.637	330.56
367.019	321.29
367.4	343.89
367.781	317.68
368.163	326.94
368.544	294.4
368.925	312.48
369.306	329.43
369.688	317.68
370.069	303.44
370.45	332.59
370.831	307.73
371.212	336.66
371.593	319.94
371.974	315.87
372.355	312.7
372.736	303.44
373.117	321.52
373.498	339.14
373.879	317
374.26	315.19
374.641	322.42
375.021	309.77
375.402	321.07
375.783	311.57
376.163	306.38
376.544	323.1
376.925	316.77
377.305	321.29
377.686	318.13
378.066	334.4
378.447	338.24
378.827	329.2
379.208	335.98
379.588	333.95
379.968	316.55
380.349	326.04
380.729	354.06
381.109	354.28
381.489	342.99
381.87	324
382.25	349.54
382.63	327.39
383.01	347.73
383.39	351.35
383.77	356.32
384.15	333.72
384.53	334.4
384.91	343.44
385.29	366.49
385.67	340.05
386.049	344.57
386.429	340.5
386.809	371.91
387.189	330.33
387.568	351.57
387.948	348.41
388.328	347.73
388.707	339.14
389.087	344.34
389.466	367.84
389.846	372.82
390.225	355.19
390.605	361.97
390.984	339.37
391.363	368.3
391.743	345.47
392.122	385.7
392.501	377.11
392.881	364.68
393.26	397.22
393.639	373.72
394.018	365.13
394.397	374.62
394.776	381.85
395.155	377.79
395.534	392.25
395.913	344.34
396.292	403.32
396.671	390.44
397.05	385.02
397.429	412.81
397.808	367.84
398.186	380.05
398.565	401.97
398.944	399.71
399.323	397.45
399.701	417.79
400.08	410.78
400.458	408.52
400.837	404.9
401.215	413.04
401.594	406.26
401.972	416.2
402.351	419.14
402.729	410.55
403.107	442.19
403.486	411.91
403.864	437.22
404.242	413.27
404.62	456.43
404.999	429.08
405.377	452.14
405.755	440.38
406.133	423.66
406.511	445.36
406.889	455.75
407.267	466.82
407.645	456.43
408.023	473.83
408.401	472.7
408.779	489.42
409.156	478.12
409.534	513.6
409.912	508.18
410.29	509.08
410.667	514.28
411.045	513.83
411.422	514.28
411.8	517.22
412.178	535.3
412.555	538.91
412.933	549.53
413.31	571.91
413.687	552.92
414.065	580.72
414.442	571.45
414.819	588.63
415.197	578.23
415.574	592.02
415.951	614.16
416.328	600.83
416.705	616.2
417.082	613.49
417.46	650.32
417.837	637.21
418.214	647.61
418.591	649.42
418.967	651.23
419.344	669.3
419.721	679.25
420.098	689.64
420.475	691.45
420.852	684.22
421.228	701.39
421.605	719.25
421.982	725.12
422.358	720.15
422.735	759.92
423.111	742.75
423.488	755.18
423.864	761.96
424.241	737.55
424.617	793.37
424.994	791.34
425.37	779.13
425.746	771
426.123	805.8
426.499	803.99
426.875	826.81
427.251	835.4
427.627	836.31
428.003	857.1
428.379	862.97
428.756	883.76
429.132	896.87
429.507	879.69
429.883	888.96
430.259	894.38
430.635	892.58
431.011	969.64
431.387	951.1
431.763	953.59
432.138	952.23
432.514	967.6
432.89	970.77
433.265	1001.27
433.641	1009.41
434.016	1015.96
434.392	1026.58
434.767	1035.62
435.143	1058.45
435.518	1046.24
435.894	1082.4
436.269	1093.02
436.644	1072.68
437.02	1092.57
437.395	1101.61
437.77	1126.92
438.145	1137.09
438.52	1143.87
438.895	1145.22
439.271	1184.09
439.646	1183.19
440.021	1196.07
440.395	1170.08
440.77	1181.83
441.145	1189.74
441.52	1218.89
441.895	1194.94
442.27	1227.26
442.645	1231.32
443.019	1237.65
443.394	1216.86
443.769	1224.77
444.143	1225.67
444.518	1286.69
444.892	1242.85
445.267	1269.51
445.641	1276.97
446.016	1265.22
446.39	1278.55
446.764	1306.58
447.139	1276.75
447.513	1300.93
447.887	1286.92
448.262	1297.08
448.636	1335.28
449.01	1331.21
449.384	1333.02
449.758	1317.65
450.132	1343.86
450.506	1344.31
450.88	1356.74
451.254	1356.29
451.628	1374.14
452.002	1378.44
452.376	1376.63
452.75	1405.56
453.123	1392.68
453.497	1421.15
453.871	1404.2
454.244	1415.95
454.618	1422.96
454.992	1431.32
455.365	1429.96
455.739	1461.15
456.112	1500.47
456.486	1470.87
456.859	1501.6
457.232	1524.2
457.606	1502.28
457.979	1513.8
458.352	1553.12
458.725	1575.27
459.099	1580.01
459.472	1579.56
459.845	1594.25
460.218	1612.78
460.591	1601.03
460.964	1608.04
461.337	1650.52
461.71	1637.41
462.083	1688.26
462.456	1682.61
462.829	1673.8
463.201	1703.18
463.574	1667.02
463.947	1703.4
464.32	1750.18
464.692	1737.3
465.065	1750.41
465.438	1789.27
465.81	1765.32
466.183	1789.05
466.555	1826.56
466.928	1832.66
467.3	1836.28
467.672	1827.24
468.045	1910.63
468.417	1883.74
468.789	1917.18
469.161	1885.09
469.534	1910.4
469.906	1944.75
470.278	1932.1
470.65	1950.85
471.022	2009.38
471.394	2021.36
471.766	2030.17
472.138	2042.38
472.51	2067.46
472.882	2099.32
473.253	2090.96
473.625	2116.5
473.997	2147.01
474.369	2162.6
474.74	2163.05
475.112	2222.48
475.484	2228.13
475.855	2251.64
476.227	2262.93
476.598	2294.8
476.97	2324.63
477.341	2351.07
477.713	2421.35
478.084	2414.12
478.455	2449.37
478.827	2455.47
479.198	2502.7
479.569	2484.85
479.94	2535.92
480.311	2575.92
480.682	2591.74
481.053	2640.55
481.424	2697.73
481.795	2670.16
482.166	2694.11
482.537	2751.96
482.908	2797.38
483.279	2759.42
483.65	2824.5
484.021	2878.74
484.391	2878.51
484.762	2881.68
485.133	2895.69
485.503	2950.15
485.874	3022.46
486.244	2991.73
486.615	3044.84
486.985	3033.54
487.356	3099.75
487.726	3151.05
488.097	3174.78
488.467	3171.61
488.837	3245.96
489.207	3252.74
489.578	3265.85
489.948	3315.56
490.318	3367.09
490.688	3330.25
491.058	3363.92
491.428	3415.9
491.798	3430.36
492.168	3472.17
492.538	3468.78
492.908	3532.51
493.278	3541.09
493.648	3551.04
494.017	3612.05
494.387	3645.95
494.757	3607.53
495.126	3639.62
495.496	3649.34
495.866	3664.25
496.235	3691.15
496.605	3749.22
496.974	3757.81
497.344	3767.98
497.713	3818.6
498.082	3794.42
498.452	3823.8
498.821	3829
499.19	3831.93
499.559	3852.27
499.928	3849.33
500.298	3876.9
500.667	3905.6
501.036	3942.66
501.405	3923.91
501.774	3958.48
502.143	3951.25
502.512	3963
502.88	3993.74
503.249	4006.39
503.618	4005.71
503.987	4027.41
504.356	4033.96
504.724	4085.03
505.093	4076.9
505.462	4086.84
505.83	4128.2
506.199	4105.82
506.567	4187.4
506.936	4193.96
507.304	4194.41
507.672	4216.1
508.041	4195.77
508.409	4266.5
508.777	4269.89
509.145	4300.85
509.514	4236.44
509.882	4288.87
510.25	4299.72
510.618	4311.69
510.986	4325.48
511.354	4348.08
511.722	4348.3
512.09	4396.66
512.458	4350.34
512.826	4371.81
513.193	4421.07
513.561	4431.69
513.929	4468.07
514.297	4496.77
514.664	4474.4
515.032	4491.58
515.4	4554.17
515.767	4513.27
516.135	4483.22
516.502	4515.53
516.869	4542.42
517.237	4601.86
517.604	4567.96
517.972	4584.91
518.339	4591.91
518.706	4597.34
519.073	4601.18
519.44	4628.75
519.808	4643.66
520.175	4653.38
520.542	4664.45
520.909	4742.19
521.276	4718.24
521.643	4683.89
522.009	4801.4
522.376	4755.07
522.743	4769.99
523.11	4806.82
523.477	4852.92
523.843	4842.98
524.21	4878.46
524.577	4893.37
524.943	4898.8
525.31	4886.59
525.676	4969.53
526.043	4965.46
526.409	5019.25
526.776	5048.17
527.142	5040.94
527.508	5087.72
527.874	5126.59
528.241	5150.54
528.607	5152.58
528.973	5209.52
529.339	5169.07
529.705	5224.44
530.071	5248.39
530.437	5273.48
530.803	5263.99
531.169	5296.3
531.535	5324.55
531.901	5340.37
532.267	5363.42
532.632	5393.25
532.998	5423.08
533.364	5414.26
533.73	5446.13
534.095	5489.52
534.461	5522.96
534.826	5534.94
535.192	5570.19
535.557	5635.95
535.923	5607.48
536.288	5628.27
536.653	5664.43
537.019	5658.55
537.384	5690.87
537.749	5740.13
538.114	5741.04
538.479	5716.63
538.845	5741.71
539.21	5750.53
539.575	5793.46
539.94	5746.01
540.305	5836.17
540.67	5860.81
541.034	5880.24
541.399	5915.27
541.764	5964.76
542.129	5923.63
542.494	5982.61
542.858	6010.18
543.223	6002.95
543.587	6069.61
543.952	6079.78
544.316	6087.02
544.681	6099.44
545.045	6109.39
545.41	6187.35
545.774	6190.97
546.138	6172.89
546.503	6224.64
546.867	6228.48
547.231	6299.66
547.595	6286.11
547.959	6325.65
548.324	6407.01
548.688	6335.37
549.052	6433.9
549.416	6450.17
549.779	6489.94
550.143	6480.9
550.507	6487.23
550.871	6507.34
551.235	6513.22
551.599	6618.07
551.962	6584.4
552.326	6558.19
552.689	6636.38
553.053	6580.56
553.417	6555.03
553.78	6643.84
554.143	6661.46
554.507	6672.76
554.87	6729.03
555.234	6788.92
555.597	6714.12
555.96	6785.53
556.323	6797.5
556.686	6795.02
557.05	6848.13
557.413	6882.47
557.776	6885.86
558.139	6902.59
558.502	6895.36
558.865	6948.46
559.228	6995.01
559.59	6980.1
559.953	7022.13
560.316	7057.39
560.679	7038.85
561.041	7047.89
561.404	7134.45
561.767	7176.25
562.129	7107.78
562.492	7201.56
562.854	7206.08
563.217	7229.36
563.579	7244.05
563.941	7215.35
564.304	7276.81
564.666	7318.85
565.028	7322.24
565.39	7387.55
565.753	7423.7
566.115	7357.94
566.477	7418.96
566.839	7405.85
567.201	7487.66
567.563	7428.9
567.925	7562.46
568.287	7513.19
568.648	7587.77
569.01	7572.4
569.372	7704.15
569.734	7651.04
570.095	7671.15
570.457	7748.89
570.819	7822.79
571.18	7814.2
571.542	7887.87
571.903	7822.11
572.265	7944.82
572.626	8013.29
572.987	8017.36
573.349	8064.59
573.71	8096.23
574.071	8099.84
574.432	8166.96
574.794	8297.58
575.155	8302.32
575.516	8305.49
575.877	8438.14
576.238	8487.4
576.599	8532.15
576.96	8582.99
577.32	8672.26
577.681	8774.18
578.042	8836.77
578.403	8933.72
578.763	9018.24
579.124	9070.44
579.485	9168.06
579.845	9304.11
580.206	9384.33
580.566	9511.56
580.927	9647.37
581.287	9767.6
581.648	9905.67
582.008	10108.6
582.368	10220.69
582.728	10382.95
583.089	10509.27
583.449	10593.11
583.809	10836.04
584.169	11014.34
584.529	11150.84
584.889	11481.68
585.249	11535.69
585.609	11766.87
585.969	12010.48
586.329	12191.71
586.688	12472.61
587.048	12673.73
587.408	12879.6
587.768	13105.14
588.127	13364.11
588.487	13599.36
588.846	13974.27
589.206	14012
589.565	14399.79
589.925	14668.48
590.284	14894.47
590.643	15292.87
591.003	15506.43
591.362	15838.85
591.721	16096.7
592.08	16385.95
592.44	16679.96
592.799	17010.57
593.158	17251.92
593.517	17517.9
593.876	17890.77
594.235	18145
594.593	18429.29
594.952	18813.91
595.311	18969.16
595.67	19461.58
596.029	19907.67
596.387	20012.52
596.746	20377.49
597.104	20636.24
597.463	20998.94
597.822	21364.58
598.18	21513.95
598.538	21727.96
598.897	22202.52
599.255	22441.84
599.613	23056.96
599.972	23052.67
600.33	23479.78
600.688	23693.56
601.046	24169.93
601.404	24411.28
601.762	24645.62
602.12	25087.42
602.478	25278.37
602.836	25588.88
603.194	25797.68
603.552	26044.68
603.91	26220.05
604.268	26624.78
604.625	26779.35
604.983	27204.43
605.341	27342.5
605.698	27641.48
606.056	28011.64
606.413	28258.86
606.771	28469.03
607.128	28892.07
607.485	28918.05
607.843	29156.47
608.2	29522.33
608.557	29798.93
608.914	29934.3
609.272	30209.54
609.629	30439.37
609.986	30826.03
610.343	30905.8
610.7	31269.4
611.057	31425.11
611.414	31521.37
611.771	31728.37
612.127	32107.35
612.484	32205.2
612.841	32495.13
613.198	32533.55
613.554	32811.28
613.911	32989.13
614.267	33171.5
614.624	33323.59
614.98	33421.21
615.337	33929.9
615.693	33881.76
616.05	34110.23
616.406	34252.38
616.762	34277.23
617.118	34484.46
617.475	34630.22
617.831	34840.84
618.187	35038.12
618.543	35250.99
618.899	35554.71
619.255	35476.3
619.611	35526.24
619.967	35757.2
620.323	36144.76
620.678	36035.61
621.034	36134.81
621.39	36079.67
621.746	36172.33
622.101	36702.71
622.457	36576.61
622.812	36758.98
623.168	36818.18
623.523	36908.58
623.879	37141.11
624.234	36901.57
624.589	37226.76
624.945	37321.22
625.3	37461.78
625.655	37568.45
626.01	37711.27
626.365	37763.02
626.72	37783.36
627.075	37803.24
627.43	37860.42
627.785	37728.89
628.14	38060.19
628.495	37935.44
628.85	38155.32
629.205	38016.35
629.559	38245.72
629.914	38117.36
630.269	38273.74
630.623	38004.59
630.978	38143.12
631.332	38280.52
631.687	38393.06
632.041	38445.03
632.396	38557.35
632.75	38280.52
633.104	38385.37
633.459	38185.38
633.813	38376.56
634.167	38434.64
634.521	38459.05
634.875	38485.71
635.229	38457.69
635.583	38287.75
635.937	38372.72
636.291	38298.82
636.645	38351.48
636.999	38471.02
637.352	38533.17
637.706	38407.3
638.06	38568.87
638.413	38372.72
638.767	38294.3
639.121	38532.04
639.474	38341.08
639.828	38372.49
640.181	38449.1
640.534	38421.76
640.888	38341.76
641.241	38286.17
641.594	38503.79
641.947	38341.76
642.301	38332.49
642.654	38379.95
643.007	38415.88
643.36	38306.96
643.713	38221.09
644.066	38452.72
644.419	38163.23
644.771	37976.8
645.124	37645.06
645.477	37642.34
645.83	37404.16
646.182	37248.46
646.535	37000.78
646.888	37271.28
647.24	37117.84
647.593	37271.51
647.945	37210.26
648.298	37061.57
648.65	37091.62
649.002	36958.52
649.355	37030.83
649.707	37093.43
650.059	37232.86
650.411	37599.18
650.763	37704.94
651.115	38024.71
651.467	38007.53
651.819	37984.93
652.171	37823.36
652.523	37857.03
652.875	37797.59
653.227	37746.75
653.578	37824.71
653.93	37806.86
654.282	37785.62
654.633	37679.18
654.985	37662.91
655.337	37695.9
655.688	37736.58
656.039	37744.94
656.391	37397.15
656.742	37554.44
657.094	37656.13
657.445	37746.97
657.796	37577.49
658.147	37565.06
658.498	37570.71
658.849	37655.68
659.2	37684.83
659.551	37554.66
659.902	37651.83
660.253	37508.34
660.604	37705.62
660.955	37516.25
661.306	37702.91
661.656	37541.1
662.007	37583.36
662.358	37549.46
662.708	37528
663.059	37540.2
663.409	37375.01
663.76	37568.67
664.11	37657.48
664.461	37539.97
664.811	37479.18
665.161	37478.96
665.511	37386.31
665.862	37455.23
666.212	37479.86
666.562	37588.79
666.912	37426.08
667.262	37454.33
667.612	37402.35
667.962	37402.35
668.312	37404.84
668.662	37482.57
669.011	37470.14
669.361	37398.06
669.711	37397.83
670.06	37363.93
670.41	37442.35
670.76	37236.93
671.109	37293.2
671.459	37185.18
671.808	37148.35
672.157	37529.13
672.507	37064.51
672.856	37156.25
673.205	37113.32
673.554	37384.95
673.904	37148.57
674.253	37381.33
674.602	37236.93
674.951	36730.28
675.3	36488.93
675.649	37063.83
675.998	37066.54
676.346	37066.09
676.695	37143.15
677.044	36893.21
677.393	37061.12
677.741	37115.13
678.09	36967.33
678.438	36879.65
678.787	36977.05
679.135	36951.06
679.484	36655.02
679.832	36943.38
680.181	36668.58
680.529	36765.53
680.877	36681.24
681.225	36601.24
681.573	36772.08
681.922	36569.15
682.27	36516.05
682.618	36568.93
682.966	36455.93
683.314	36489.61
683.661	36382.94
684.009	36304.75
684.357	36163.51
684.705	36077.64
685.053	36148.82
685.4	36243.28
685.748	35867.25
686.095	35930.3
686.443	35784.31
686.79	35742.51
687.138	35828.83
687.485	35828.61
687.832	35700.93
688.18	35622.06
688.527	35474.04
688.874	35414.83
689.221	35397.88
689.568	35291.9
689.915	35265.91
690.262	35254.16
690.609	35146.14
690.956	35065.69
691.303	34925.13
691.65	34824.34
691.997	34876.31
692.344	34617.79
692.69	34569.66
693.037	34670.22
693.383	34459.15
693.73	34541.41
694.077	34254.41
694.423	34300.74
694.769	34400.85
695.116	34143
695.462	33959.5
695.808	34000.86
696.155	33967.41
696.501	33873.18
696.847	33669.34
697.193	33522.45
697.539	33566.52
697.885	33348.45
698.231	33386.18
698.577	33349.8
698.923	33271.16
699.269	33070.49
699.614	33032.97
699.96	32938.06
700.306	32949.13
700.651	32808.8
700.997	32727.9
701.342	32575.81
701.688	32573.78
702.033	32487.68
702.379	32452.2
702.724	32471.41
703.069	32471.63
703.415	31899.44
703.76	32274.8
704.105	32126.33
704.45	32033
704.795	31862.61
705.14	31867.58
705.485	31806.34
705.83	31586.46
706.175	31590.98
706.52	31566.35
706.865	31545.78
707.209	31486.35
707.554	31417.2
707.899	31355.96
708.243	31198.9
708.588	31246.81
708.932	30980.15
709.277	31008.17
709.621	31016.08
709.966	30799.13
710.31	30788.29
710.654	30520.72
710.998	30703.99
711.342	30668.74
711.687	30554.39
712.031	30518.92
712.375	30342.42
712.719	30418.13
713.063	30476.43
713.407	30409.31
713.75	30237.57
714.094	30166.61
714.438	30122.77
714.782	30038.02
715.125	29916.67
715.469	29948.31
715.812	29783.79
716.156	29695.66
716.499	29758.26
716.843	29724.59
717.186	29450.02
717.53	29731.59
717.873	29692.72
718.216	29593.52
718.559	29399.85
718.902	29284.15
719.246	29284.15
719.589	29155.79
719.932	29206.18
720.275	29069.91
720.617	29180.42
720.96	28993.31
721.303	28911.73
721.646	28987.2
721.989	28748.79
722.331	28944.27
722.674	28896.13
723.016	28801.22
723.359	28741.33
723.701	28700.88
724.044	28495.47
724.386	28494.34
724.729	28662.69
725.071	28532.3
725.413	28523.49
725.755	28483.71
726.097	28339.76
726.439	28220.9
726.782	28217.51
727.124	28419.31
727.465	28149.71
727.807	28169.37
728.149	28127.57
728.491	28053.22
728.833	28128.24
729.175	27968.93
729.516	27900
729.858	27811.42
730.199	27804.86
730.541	27839.89
730.882	27757.18
731.224	27841.7
731.565	27645.77
731.906	27677.86
732.248	27639.44
732.589	27484.87
732.93	27394.03
733.271	27354.03
733.612	27464.76
733.953	27448.26
734.294	27287.59
734.635	27230.19
734.976	27310.86
735.317	27131.89
735.658	27157.65
735.999	27173.92
736.339	27166.01
736.68	27170.53
737.021	27111.32
737.361	27008.27
737.702	27085.11
738.042	27070.19
738.383	26914.72
738.723	26919.01
739.063	26831.78
739.404	26954.71
739.744	26754.49
740.084	26709.07
740.424	26774.15
740.764	26604.89
741.104	26716.08
741.444	26543.65
741.784	26489.42
742.124	26446.93
742.464	26466.37
742.804	26454.84
743.143	26279.48
743.483	26302.3
743.823	26285.81
744.162	26242.87
744.502	26203.1
744.841	26081.74
745.181	26202.87
745.52	26178.46
745.86	26091.69
746.199	26035.42
746.538	26051.69
746.877	26111.35
747.216	25981.41
747.556	25920.62
747.895	25861.86
748.234	25760.4
748.573	25701.41
748.911	25716.1
749.25	25640.85
749.589	25591.59
749.928	25618.03
750.267	25575.32
750.605	25468.65
750.944	25414.19
751.283	25348.2
751.621	25443.12
751.96	25291.48
752.298	25319.96
752.636	25201.09
752.975	25107.53
753.313	25052.17
753.651	25146.85
753.989	24911.83
754.327	24960.64
754.666	24802
755.004	24810.36
755.342	24815.79
755.679	24778.28
756.017	24715
756.355	24641.1
756.693	24533.08
757.031	24604.27
757.368	24449.24
757.706	24441.11
758.044	24386.42
758.381	24418.51
758.719	24260.1
759.056	24209.02
759.394	24194.56
759.731	23960.44
760.068	24090.61
760.405	23909.15
760.743	23865.53
761.08	23898.3
761.417	23778.98
761.754	23622.37
762.091	23588.7
762.428	23506.22
762.765	23377.86
763.102	23558.65
763.438	23247.02
763.775	23118.43
764.112	23170.41
764.449	23322.95
764.785	23124.31
765.122	22984.65
765.458	22954.59
765.795	22757.99
766.131	22716.18
766.467	22680.48
766.804	22607.26
767.14	22521.61
767.476	22478.67
767.812	22464.44
768.148	22414.95
768.485	22349.19
768.821	22090.44
769.157	22159.13
769.492	22140.15
769.828	22031.91
770.164	21841.4
770.5	21833.49
770.836	21840.27
771.171	21625.36
771.507	21632.14
771.842	21404.8
772.178	21525.03
772.513	21442.77
772.849	21291.36
773.184	21179.95
773.519	21270.12
773.855	21041.65
774.19	21002.33
774.525	21007.75
774.86	20915.55
775.195	20894.99
775.53	20912.16
775.865	20748.78
776.2	20541.32
776.535	20400.99
776.87	20507.43
777.205	20340.2
777.539	20315.12
777.874	20273.31
778.209	20123.48
778.543	20151.05
778.878	19948.8
779.212	19985.86
779.547	19902.92
779.881	19828.35
780.215	19666.09
780.55	19719.2
780.884	19685.53
781.218	19565.53
781.552	19530.96
781.886	19524.85
782.22	19365.08
782.554	19250.06
782.888	19088.71
783.222	19082.61
783.556	18902.05
783.889	18924.42
784.223	18806.91
784.557	18798.32
784.89	18779.79
785.224	18716.97
785.557	18614.14
785.891	18481.94
786.224	18467.03
786.558	18389.52
786.891	18383.87
787.224	18194.27
787.557	18201.95
787.891	18109.75
788.224	18156.53
788.557	18118.34
788.89	18073.14
789.223	17959.25
789.556	17841.73
789.888	17900.94
790.221	17708.63
790.554	17641.29
790.887	17571.23
791.219	17505.92
791.552	17507.51
791.884	17406.49
792.217	17418.92
792.549	17320.84
792.882	17178.25
793.214	17124.69
793.546	17189.32
793.879	16986.39
794.211	16957.46
794.543	17095.09
794.875	16895.54
795.207	17000.17
795.539	16835.66
795.871	16781.2
796.203	16692.61
796.535	16653.52
796.867	16500.07
797.198	16405.16
797.53	16488.1
797.862	16351.6
798.193	16446.52
798.525	16328.1
798.856	16333.75
799.188	16075.45
799.519	16129.69
799.85	16009.69
800.182	16135.79
800.513	16050.82
800.844	15835.69
801.175	15932.18
801.506	15797.27
801.837	15784.84
802.168	15786.87
802.499	15697.16
802.83	15628.23
803.161	15658.97
803.491	15587.33
803.822	15603.38
804.153	15415.36
804.483	15376.49
804.814	15296.04
805.145	15308.47
805.475	15305.76
805.805	15215.14
806.136	15273.21
806.466	15282.48
806.796	15166.78
807.126	15028.93
807.457	15009.27
807.787	15005.2
808.117	14962.94
808.447	14890.85
808.777	14929.49
809.107	14836.16
809.436	14811.31
809.766	14845.2
810.096	14767.46
810.426	14636.62
810.755	14612.67
811.085	14675.04
811.414	14630.75
811.744	14457.42
812.073	14388.04
812.403	14484.99
812.732	14321.83
813.061	14359.11
813.39	14294.48
813.719	14184.43
814.049	14303.07
814.378	14169.06
814.707	14167.71
815.036	14117.54
815.365	14073.92
815.693	13943.31
816.022	14014.94
816.351	13960.71
816.68	13855.17
817.008	13880.71
817.337	13753.48
817.665	13785.8
817.994	13743.31
818.322	13694.95
818.651	13694.72
818.979	13651.56
819.307	13733.14
819.636	13589.64
819.964	13552.81
820.292	13567.72
820.62	13623.99
820.948	13626.93
821.276	13532.02
821.604	13535.41
821.932	13511.23
822.259	13538.57
822.587	13548.51
822.915	13535.86
823.243	13430.32
823.57	13487.95
823.898	13468.29
824.225	13320.95
824.553	13393.04
824.88	13361.85
825.207	13456.99
825.535	13435.52
825.862	13525.01
826.189	13361.17
826.516	13509.19
826.843	13475.75
827.17	13497.44
827.497	13470.55
827.824	13481.85
828.151	13481.4
828.478	13432.58
828.805	13475.97
829.131	13469.65
829.458	13334.28
829.785	13327.28
830.111	13341.97
830.438	13490.21
830.764	13432.13
831.09	13365.02
831.417	13304.23
831.743	13362.08
832.069	13377.22
832.395	13228.3
832.722	13365.69
833.048	13317.33
833.374	13237.34
833.7	13232.82
834.026	13208.41
834.351	13319.82
834.677	13284.11
835.003	13209.09
835.329	13215.42
835.654	13239.6
835.98	13107.17
836.306	13245.02
836.631	13080.73
836.956	13213.38
837.282	13136.32
837.607	13120.28
837.932	13124.34
838.258	13063.33
838.583	12977.23
838.908	13008.64
839.233	12982.43
839.558	13007.29
839.883	12907.85
840.208	12900.85
840.533	12884.8
840.858	12854.52
841.182	12797.57
841.507	12848.87
841.832	12825.82
842.156	12800.96
842.481	12761.87
842.805	12729.1
843.13	12698.82
843.454	12687.97
843.778	12636.45
844.103	12640.29
844.427	12581.76
844.751	12570.01
845.075	12490.24
845.399	12526.62
845.723	12370.69
846.047	12462.67
846.371	12332.5
846.695	12367.08
847.019	12289.56
847.343	12165.95
847.666	12102.45
847.99	12092.51
848.313	12086.86
848.637	11954.43
848.96	11916.92
849.284	11930.03
849.607	11817.49
849.931	11829.46
850.254	11708.34
850.577	11694.55
850.9	11622.91
851.223	11621.33
851.546	11485.07
851.869	11464.27
852.192	11483.26
852.515	11354.45
852.838	11315.58
853.161	11362.13
853.483	11304.96
853.806	11324.62
854.129	11307.89
854.451	11246.2
854.774	11180.67
855.096	11070.16
855.419	11046.21
855.741	10950.62
856.063	11022.48
856.385	11013.67
856.708	10911.52
857.03	10901.8
857.352	10942.93
857.674	10885.76
857.996	10803.5
858.318	10710.17
858.64	10758.53
858.961	10728.02
859.283	10635.14
859.605	10526.45
859.926	10615.03
860.248	10627.23
860.57	10646.44
860.891	10587.46
861.212	10462.72
861.534	10447.8
861.855	10490.06
862.176	10448.26
862.498	10491.42
862.819	10417.07
863.14	10323.74
863.461	10354.7
863.782	10338.65
864.103	10341.59
864.424	10290.29
864.745	10293.23
865.065	10142.05
865.386	10242.16
865.707	10182.27
866.027	10195.61
866.348	10185.21
866.668	10211.65
866.989	10192.9
867.309	10099.11
867.63	10080.13
867.95	10056.4
868.27	10029.28
868.59	10040.36
868.91	10012.34
869.23	10028.83
869.55	9918.78
869.87	10013.24
870.19	9979.34
870.51	10002.84
870.83	9999.23
871.15	9869.51
871.469	9903.86
871.789	9916.07
872.109	9883.07
872.428	9848.27
872.748	9835.17
873.067	9886.24
873.386	9883.3
873.706	9795.17
874.025	9792.45
874.344	9850.08
874.663	9800.59
874.982	9733.7
875.301	9705.9
875.62	9724.21
875.939	9673.36
876.258	9754.49
876.577	9604.89
876.896	9653.25
877.214	9615.96
877.533	9653.25
877.852	9575.51
878.17	9576.41
878.489	9633.81
878.807	9588.17
879.125	9566.47
879.444	9514.95
879.762	9521.73
880.08	9563.76
880.398	9437.89
880.716	9466.36
881.034	9344.33
881.352	9504.78
881.67	9429.98
881.988	9396.98
882.306	9286.7
882.624	9313.37
882.941	9263.43
883.259	9189.31
883.577	9215.75
883.894	9240.38
884.212	9194.73
884.529	9222.98
884.846	9133.94
885.164	9102.98
885.481	9113.15
885.798	9091
886.115	9029.08
886.432	9020.5
886.75	9006.49
887.067	9020.95
887.383	8985.47
887.7	8980.5
888.017	8891.46
888.334	8975.75
888.651	8878.35
888.967	8847.17
889.284	8877.45
889.6	8782.76
889.917	8701.64
890.233	8737.79
890.55	8759.26
890.866	8780.05
891.182	8714.97
891.498	8720.84
891.815	8651.47
892.131	8680.17
892.447	8615.99
892.763	8573.05
893.079	8590.45
893.395	8548.19
893.71	8507.06
894.026	8479.49
894.342	8477.91
894.657	8471.59
894.973	8379.84
895.289	8387.52
895.604	8381.42
895.92	8360.63
896.235	8284.92
896.55	8301.19
896.865	8270.69
897.181	8220.52
897.496	8225.04
897.811	8224.81
898.126	8112.27
898.441	8165.38
898.756	8135.77
899.071	8071.82
899.386	8094.42
899.7	7948.21
900.015	8001.99
900.33	7943.92
900.644	7908.66
900.959	7824.37
901.273	7864.6
901.588	7847.87
901.902	7797.25
902.216	7792.06
902.531	7683.81
902.845	7667.99
903.159	7657.82
903.473	7629.12
903.787	7623.92
904.101	7504.83
904.415	7538.73
904.729	7513.87
905.042	7517.49
905.356	7457.15
905.67	7420.09
905.984	7449.69
906.297	7436.36
906.611	7377.6
906.924	7409.92
907.237	7332.41
907.551	7296.47
907.864	7313.42
908.177	7228.23
908.491	7253.09
908.804	7198.17
909.117	7144.61
909.43	7164.73
909.743	7048.57
910.056	7078.4
910.368	7055.35
910.681	6995.47
910.994	6962.92
911.307	6899.88
911.619	6863.94
911.932	6966.77
912.244	6840.44
912.557	6844.06
912.869	6843.38
913.181	6808.13
913.494	6780.1
913.806	6734.91
914.118	6712.31
914.43	6667.79
914.742	6647.9
915.054	6650.62
915.366	6623.27
915.678	6589.83
915.99	6558.64
916.302	6512.31
916.613	6476.84
916.925	6503.28
917.236	6436.16
917.548	6372.21
917.859	6410.62
918.171	6418.98
918.482	6367.01
918.794	6297.63
919.105	6284.07
919.416	6297.41
919.727	6224.19
920.038	6183.28
920.349	6120.01
920.66	6184.87
920.971	6112.1
921.282	6116.84
921.593	6078.43
921.903	6007.02
922.214	6004.76
922.525	5996.62
922.835	5961.82
923.146	5945.1
923.456	5931.31
923.767	5925.66
924.077	5898.55
924.387	5817.64
924.697	5852.22
925.008	5740.58
925.318	5772
925.628	5748.27
925.938	5790.98
926.248	5683.64
926.558	5635.5
926.867	5687.25
927.177	5623.75
927.487	5606.8
927.796	5580.81
928.106	5555.28
928.416	5531.1
928.725	5500.82
929.034	5453.13
929.344	5460.82
929.653	5458.56
929.962	5409.29
930.271	5466.92
930.581	5323.42
930.89	5303.08
931.199	5337.66
931.508	5320.48
931.817	5309.63
932.125	5295.85
932.434	5258.79
932.743	5201.61
933.051	5197.09
933.36	5150.54
933.669	5137.44
933.977	5151.45
934.286	5098.11
934.594	5097.66
934.902	5071
935.21	5010.89
935.519	5011.56
935.827	4990.32
936.135	4949.87
936.443	4914.62
936.751	4923.88
937.059	4887.05
937.367	4877.78
937.674	4849.31
937.982	4843.43
938.29	4839.14
938.597	4805.24
938.905	4760.5
939.213	4742.42
939.52	4710.55
939.827	4734.73
940.135	4648.86
940.442	4703.77
940.749	4730.44
941.056	4642.76
941.363	4600.73
941.67	4585.36
941.977	4601.18
942.284	4551.24
942.591	4535.42
942.898	4548.75
943.205	4501.97
943.511	4513.5
943.818	4479.6
944.125	4424.23
944.431	4433.95
944.738	4412.48
945.044	4402.99
945.35	4365.48
945.657	4321.19
945.963	4322.32
946.269	4339.72
946.575	4306.95
946.881	4255.42
947.187	4268.53
947.493	4268.76
947.799	4207.74
948.105	4232.83
948.41	4148.31
948.716	4122.1
949.022	4142.21
949.327	4149.44
949.633	4111.25
949.938	4124.81
950.244	4071.25
950.549	4099.04
950.854	4048.88
951.16	4057.01
951.465	4018.82
951.77	4009.1
952.075	3989.44
952.38	3959.84
952.685	3966.84
952.99	3947.64
953.294	3943.79
953.599	3906.96
953.904	3892.72
954.209	3879.62
954.513	3856.57
954.818	3811.14
955.122	3791.48
955.426	3829.9
955.731	3812.27
956.035	3724.14
956.339	3735.21
956.643	3757.58
956.948	3734.31
957.252	3682.78
957.556	3662.45
957.86	3683.01
958.163	3642.33
958.467	3655.67
958.771	3651.82
959.075	3626.97
959.378	3592.17
959.682	3593.52
959.985	3546.52
960.289	3558.27
960.592	3505.84
960.896	3519.62
961.199	3488.21
961.502	3491.83
961.805	3464.94
962.108	3417.48
962.411	3438.95
962.714	3421.55
963.017	3406.41
963.32	3422
963.623	3383.36
963.926	3362.34
964.228	3334.09
964.531	3366.63
964.833	3295.68
965.136	3300.42
965.438	3285.05
965.741	3259.29
966.043	3273.98
966.345	3243.93
966.648	3229.46
966.95	3230.37
967.252	3169.8
967.554	3231.04
967.856	3189.24
968.158	3166.64
968.46	3137.26
968.761	3154.21
969.063	3130.03
969.365	3092.07
969.666	3103.14
969.968	3081.9
970.269	3090.48
970.571	3065.63
970.872	3014.1
971.174	3048.22
971.475	2980.66
971.776	3033.08
972.077	2984.27
972.378	3027.66
972.679	2970.26
972.98	2958.28
973.281	2975.46
973.582	2945.85
973.883	2890.94
974.183	2897.95
974.484	2899.98
974.785	2848.91
975.085	2849.13
975.386	2868.57
975.686	2815.46
975.986	2795.12
976.287	2837.16
976.587	2792.64
976.887	2752.87
977.187	2792.41
977.487	2753.09
977.787	2727.56
978.087	2771.62
978.387	2734.56
978.687	2738.85
978.987	2708.35
979.286	2665.41
979.586	2681.45
979.885	2695.47
980.185	2669.93
980.484	2709.7
980.784	2618.63
981.083	2665.64
981.382	2648.24
981.682	2608.01
981.981	2598.75
982.28	2604.39
982.579	2583.83
982.878	2581.57
983.177	2555.36
983.475	2530.05
983.774	2539.31
984.073	2556.26
984.372	2501.8
984.67	2524.4
984.969	2503.61
985.267	2442.14
985.566	2455.7
985.864	2447.56
986.162	2446.21
986.461	2425.19
986.759	2438.07
987.057	2385.87
987.355	2362.59
987.653	2405.76
987.951	2382.93
988.249	2381.35
988.547	2358.53
988.844	2352.65
989.142	2348.81
989.44	2310.62
989.737	2318.98
990.035	2321.01
990.332	2294.57
990.63	2280.34
990.927	2262.48
991.224	2274.01
991.521	2273.33
991.819	2240.56
992.116	2230.62
992.413	2219.32
992.71	2209.83
993.006	2191.98
993.303	2191.75
993.6	2187
993.897	2161.69
994.193	2154.46
994.49	2158.53
994.787	2144.07
995.083	2140
995.379	2132.09
995.676	2122.6
995.972	2095.03
996.268	2064.07
996.565	2080.34
996.861	2078.98
997.157	2042.83
997.453	2074.01
997.749	2015.71
998.044	2023.85
998.34	2034.24
998.636	1997.41
998.932	2003.96
999.227	1978.87
999.523	1973.68
999.818	1958.08
1000.114	1961.47
1000.409	1937.29
1000.704	1923.96
1001	1922.83
1001.295	1911.98
1001.59	1928.71
1001.885	1899.1
1002.18	1929.84
1002.475	1865.21
1002.77	1859.33
1003.065	1832.66
1003.359	1857.97
1003.654	1839.22
1003.949	1838.31
1004.243	1825.66
1004.538	1815.71
1004.832	1797.64
1005.127	1787.47
1005.421	1808.94
1005.715	1767.58
1006.009	1775.26
1006.304	1754.47
1006.598	1746.79
1006.892	1760.35
1007.186	1713.34
1007.48	1724.64
1007.773	1700.92
1008.067	1691.65
1008.361	1682.61
1008.655	1705.66
1008.948	1672.67
1009.242	1682.39
1009.535	1632.22
1009.829	1633.57
1010.122	1625.66
1010.415	1606.23
1010.708	1642.39
1011.001	1590.64
1011.295	1582.95
1011.588	1613.46
1011.881	1552.67
1012.173	1566.91
1012.466	1592.9
1012.759	1588.15
1013.052	1533.69
1013.344	1556.29
1013.637	1503.41
1013.93	1536.4
1014.222	1519
1014.514	1501.15
1014.807	1473.58
1015.099	1479.68
1015.391	1494.82
1015.683	1463.86
1015.976	1447.14
1016.268	1456.18
1016.56	1419.57
1016.851	1420.92
1017.143	1432.22
1017.435	1414.14
1017.727	1388.83
1018.018	1397.19
1018.31	1401.26
1018.602	1401.49
1018.893	1371.21
1019.185	1368.5
1019.476	1347.25
1019.767	1361.49
1020.058	1356.74
1020.35	1321.26
1020.641	1305.67
1020.932	1344.31
1021.223	1280.14
1021.514	1296.41
1021.804	1298.21
1022.095	1291.66
1022.386	1262.96
1022.677	1281.72
1022.967	1250.76
1023.258	1225
1023.548	1239.01
1023.839	1245.33
1024.129	1235.39
1024.419	1224.32
1024.709	1198.1
1025	1218.22
1025.29	1196.75
1025.58	1190.87
1025.87	1151.33
1026.16	1160.14
1026.449	1183.42
1026.739	1173.7
1027.029	1133.92
1027.319	1149.74
1027.608	1154.49
1027.898	1143.87
1028.187	1145
1028.477	1090.08
1028.766	1107.94
1029.055	1098.22
1029.344	1073.81
1029.634	1073.59
1029.923	1066.13
1030.212	1078.56
1030.501	1072.23
1030.79	1069.75
1031.078	1033.14
1031.367	1050.54
1031.656	1060.03
1031.945	1047.83
1032.233	1027.94
1032.522	1044.66
1032.81	1025.45
1033.099	1024.55
1033.387	1015.74
1033.675	972.12
1033.963	999.24
1034.251	999.01
1034.54	969.86
1034.828	962.63
1035.116	978.45
1035.403	933.7
1035.691	949.75
1035.979	954.27
1036.267	929.41
1036.554	943.2
1036.842	940.26
1037.129	913.59
1037.417	899.35
1037.704	919.47
1037.992	934.16
1038.279	922.41
1038.566	911.78
1038.853	911.78
1039.14	911.78
