Data from hue_290_FLMS001491_00091.txt Node
Date: Tue Feb 07 15:53:44 GMT 2017
User: dcchb
Spectrometer: FLMS00149
Trigger mode: 0
Integration Time (sec): 2.000000E-2
Scans to average: 10
Electric dark correction enabled: true
Nonlinearity correction enabled: false
Boxcar width: 0
XAxis mode: Wavelengths
Number of Pixels in Spectrum: 2048
>>>>>Begin Spectral Data<<<<<
341.393	-3.91
341.776	-3.91
342.16	-3.91
342.543	-61.76
342.927	-54.98
343.31	-74.19
343.693	-47.75
344.077	-75.1
344.46	-48.43
344.843	-37.81
345.226	-26.74
345.61	-24.02
345.993	-26.06
346.376	-20.86
346.759	-4.14
347.142	13.26
347.525	37.44
347.908	51.68
348.291	77.44
348.674	102.07
349.057	103.2
349.44	118.57
349.823	145.24
350.206	167.38
350.588	206.25
350.971	215.29
351.354	214.39
351.737	230.21
352.119	248.74
352.502	247.61
352.884	261.84
353.267	276.76
353.65	277.66
354.032	291.22
354.414	289.41
354.797	302.97
355.179	331.45
355.562	302.97
355.944	328.73
356.326	308.17
356.709	330.99
357.091	321.05
357.473	317.89
357.855	316.08
358.238	344.78
358.62	345.46
359.002	328.73
359.384	333.71
359.766	322.86
360.148	339.58
360.53	337.77
360.912	351.11
361.294	331.9
361.676	331.45
362.057	334.38
362.439	325.12
362.821	337.77
363.203	343.65
363.584	339.58
363.966	312.92
364.348	333.25
364.729	310.43
365.111	319.69
365.493	311.11
365.874	294.61
366.256	302.97
366.637	318.57
367.019	311.56
367.4	309.75
367.781	316.31
368.163	296.64
368.544	322.41
368.925	313.82
369.306	321.28
369.688	320.15
370.069	322.86
370.45	305.23
370.831	324.21
371.212	306.59
371.593	322.18
371.974	302.97
372.355	309.3
372.736	307.49
373.117	320.82
373.498	321.95
373.879	310.2
374.26	302.52
374.641	310.2
375.021	305.91
375.402	323.08
375.783	307.49
376.163	336.87
376.544	328.28
376.925	339.13
377.305	345.23
377.686	331.67
378.066	324.67
378.447	327.38
378.827	353.37
379.208	333.71
379.588	316.08
379.968	308.17
380.349	334.16
380.729	326.93
381.109	331.22
381.489	343.88
381.87	311.11
382.25	335.97
382.63	340.26
383.01	345.01
383.39	347.49
383.77	332.58
384.15	326.47
384.53	362.41
384.91	365.57
385.29	336.42
385.67	345.68
386.049	361.05
386.429	357.21
386.809	356.08
387.189	352.69
387.568	338.23
387.948	340.49
388.328	366.25
388.707	354.04
389.087	349.07
389.466	364.44
389.846	342.07
390.225	371.22
390.605	373.7
390.984	376.64
391.363	368.96
391.743	370.09
392.122	379.35
392.501	388.39
392.881	381.16
393.26	393.37
393.639	379.35
394.018	391.56
394.397	383.42
394.776	363.54
395.155	395.17
395.534	416.19
395.913	382.07
396.292	401.27
396.671	408.28
397.05	406.47
397.429	399.69
397.808	395.17
398.186	414.83
398.565	419.58
398.944	431.1
399.323	410.31
399.701	417.77
400.08	420.94
400.458	423.65
400.837	417.77
401.215	425.23
401.594	418.22
401.972	442.18
402.351	433.14
402.729	431.78
403.107	434.04
403.486	438.11
403.864	437.88
404.242	463.87
404.62	444.66
404.999	447.83
405.377	448.96
405.755	441.5
406.133	471.56
406.511	460.03
406.889	458.9
407.267	476.3
407.645	492.8
408.023	496.87
408.401	480.82
408.779	492.12
409.156	503.19
409.534	508.84
409.912	512.23
410.29	528.05
410.667	525.11
411.045	540.25
411.422	524.44
411.8	555.17
412.178	547.71
412.555	558.78
412.933	581.16
413.31	573.7
413.687	563.76
414.065	602.17
414.442	583.87
414.819	578.9
415.197	635.39
415.574	636.3
415.951	612.79
416.328	633.81
416.705	647.82
417.082	654.83
417.46	657.31
417.837	658.67
418.214	671.55
418.591	670.87
418.967	675.39
419.344	723.75
419.721	680.82
420.098	677.88
420.475	712.68
420.852	726.92
421.228	719.91
421.605	762.85
421.982	753.13
422.358	766.91
422.735	780.02
423.111	774.6
423.488	797.2
423.864	791.55
424.241	800.59
424.617	816.18
424.994	831.09
425.37	852.11
425.746	849.85
426.123	845.78
426.499	860.25
426.875	890.98
427.251	904.09
427.627	911.09
428.003	904.09
428.379	907.93
428.756	918.32
429.132	934.37
429.507	939.34
429.883	970.98
430.259	995.38
430.635	991.77
431.011	984.54
431.387	998.77
431.763	1011.65
432.138	1062.5
432.514	1067.92
432.89	1051.43
433.265	1078.77
433.641	1084.87
434.016	1126.68
434.392	1101.82
434.767	1128.71
435.143	1137.3
435.518	1133.23
435.894	1159.67
436.269	1190.18
436.644	1201.25
437.02	1230.86
437.395	1218.2
437.77	1233.34
438.145	1259.56
438.52	1258.43
438.895	1251.65
439.271	1269.27
439.646	1288.03
440.021	1305.43
440.395	1313.79
440.77	1296.84
441.145	1302.72
441.52	1343.4
441.895	1348.14
442.27	1357.18
442.645	1364.19
443.019	1378.2
443.394	1385.66
443.769	1403.28
444.143	1396.95
444.518	1388.14
444.892	1406.9
445.267	1425.43
445.641	1413.45
446.016	1426.56
446.39	1427.24
446.764	1415.71
447.139	1429.5
447.513	1464.75
447.887	1451.64
448.262	1468.59
448.636	1481.92
449.01	1478.31
449.384	1501.58
449.758	1531.19
450.132	1527.12
450.506	1508.59
450.88	1547.23
451.254	1530.28
451.628	1534.58
452.002	1575.93
452.376	1556.5
452.75	1550.17
453.123	1578.87
453.497	1603.73
453.871	1611.86
454.244	1654.58
454.618	1632.65
454.992	1645.76
455.365	1673.11
455.739	1683.73
456.112	1680.79
456.486	1707
456.859	1741.13
457.232	1749.26
457.606	1749.26
457.979	1773.22
458.352	1798.53
458.725	1776.61
459.099	1786.55
459.472	1837.85
459.845	1844.85
460.218	1875.59
460.591	1850.95
460.964	1864.74
461.337	1902.25
461.71	1922.59
462.083	1966.43
462.456	1961.46
462.829	1920.1
463.201	1963.95
463.574	1976.6
463.947	1995.13
464.32	2048.69
464.692	2029.93
465.065	2052.98
465.438	2111.06
465.81	2149.48
466.183	2111.74
466.555	2159.65
466.928	2156.71
467.3	2156.26
467.672	2140.66
468.045	2214.33
468.417	2226.54
468.789	2214.33
469.161	2247.33
469.534	2302.02
469.906	2293.2
470.278	2296.14
470.65	2348.12
471.022	2373.2
471.394	2406.19
471.766	2434.22
472.138	2469.69
472.51	2459.98
472.882	2519.41
473.253	2544.72
473.625	2536.13
473.997	2568.9
474.369	2646.87
474.74	2632.63
475.112	2670.37
475.484	2679.18
475.855	2732.74
476.227	2735.68
476.598	2760.53
476.97	2815
477.341	2854.77
477.713	2907.2
478.084	2927.76
478.455	3009.34
478.827	2969.12
479.198	3064.93
479.569	3081.43
479.94	3113.97
480.311	3142.9
480.682	3217.25
481.053	3270.35
481.424	3246.62
481.795	3295.21
482.166	3336.34
482.537	3345.15
482.908	3419.5
483.279	3457.47
483.65	3446.62
484.021	3533.85
484.391	3542.89
484.762	3576.56
485.133	3614.98
485.503	3643.68
485.874	3699.27
486.244	3705.59
486.615	3746.95
486.985	3825.59
487.356	3883.67
487.726	3871.92
488.097	3966.38
488.467	3971.8
488.837	4013.84
489.207	4000.05
489.578	4052.25
489.948	4085.7
490.318	4164.57
490.688	4142.87
491.058	4271.68
491.428	4234.62
491.798	4272.36
492.168	4337.67
492.538	4334.5
492.908	4459.47
493.278	4482.07
493.648	4463.77
494.017	4524.56
494.387	4497.89
494.757	4541.73
495.126	4604.55
495.496	4597.55
495.866	4595.06
496.235	4608.62
496.605	4647.26
496.974	4663.08
497.344	4718
497.713	4772.91
498.082	4720.94
498.452	4787.83
498.821	4838.22
499.19	4817.88
499.559	4891.33
499.928	4905.11
500.298	4951.89
500.667	4937.88
501.036	4937.43
501.405	5004.09
501.774	5017.42
502.143	5045.9
502.512	5010.19
502.88	5061.49
503.249	5026.01
503.618	5081.83
503.987	5122.73
504.356	5141.26
504.724	5144.43
505.093	5122.96
505.462	5156.18
505.83	5227.14
506.199	5265.1
506.567	5310.07
506.936	5257.19
507.304	5341.26
507.672	5354.59
508.041	5329.28
508.409	5375.16
508.777	5415.15
509.145	5417.64
509.514	5392.78
509.882	5398.43
510.25	5433.68
510.618	5474.59
510.986	5479.56
511.354	5504.19
511.722	5553.23
512.09	5588.03
512.458	5600.91
512.826	5569.05
513.193	5662.61
513.561	5653.79
513.929	5658.76
514.297	5716.39
514.664	5703.28
515.032	5705.99
515.4	5770.17
515.767	5768.82
516.135	5797.29
516.502	5736.05
516.869	5787.12
517.237	5826.67
517.604	5829.61
517.972	5856.27
518.339	5858.31
518.706	5851.3
519.073	5873.67
519.44	5927.23
519.808	5939.89
520.175	5981.47
520.542	5990.96
520.909	6007.23
521.276	5989.15
521.643	6039.32
522.009	6047.23
522.376	6111.18
522.743	6121.35
523.11	6174.68
523.477	6234.12
523.843	6220.1
524.21	6301.46
524.577	6275.02
524.943	6323.38
525.31	6324.96
525.676	6359.76
526.043	6382.81
526.409	6416.71
526.776	6463.26
527.142	6462.58
527.508	6486.09
527.874	6517.5
528.241	6566.08
528.607	6598.4
528.973	6677.95
529.339	6621.9
529.705	6675.23
530.071	6739.64
530.437	6750.71
530.803	6787.55
531.169	6823.93
531.535	6804.04
531.901	6854.89
532.267	6839.98
532.632	6914.1
532.998	6886.98
533.364	6928.33
533.73	6923.59
534.095	6962.01
534.461	6994.77
534.826	7049.01
535.192	7026.64
535.557	7040.65
535.923	7049.91
536.288	7119.06
536.653	7126.52
537.019	7097.37
537.384	7202
537.749	7212.62
538.114	7175.79
538.479	7184.6
538.845	7300.08
539.21	7158.61
539.575	7250.13
539.94	7331.49
540.305	7306.86
540.67	7323.58
541.034	7324.26
541.399	7318.61
541.764	7403.35
542.129	7367.65
542.494	7452.61
542.858	7454.2
543.223	7487.42
543.587	7534.19
543.952	7501.88
544.316	7564.93
544.681	7575.55
545.045	7612.61
545.41	7618.26
545.774	7595.21
546.138	7591.14
546.503	7662.1
546.867	7650.35
547.231	7705.26
547.595	7725.6
547.959	7770.12
548.324	7756.79
548.688	7782.78
549.052	7785.71
549.416	7820.97
549.779	7837.46
550.143	7866.62
550.507	7873.62
550.871	7896.67
551.235	7894.64
551.599	7962.66
551.962	7972.6
552.326	7956.78
552.689	8012.83
553.053	7942.55
553.417	7994.07
553.78	8020.51
554.143	7994.75
554.507	8086.27
554.87	8093.95
555.234	8200.84
555.597	8117.23
555.96	8075.42
556.323	8148.64
556.686	8153.84
557.05	8241.07
557.413	8276.1
557.776	8223.22
558.139	8286.49
558.502	8292.14
558.865	8291.01
559.228	8329.43
559.59	8347.05
559.953	8373.72
560.316	8433.61
560.679	8412.59
561.041	8453.49
561.404	8513.15
561.767	8566.71
562.129	8484.68
562.492	8644.45
562.854	8550.67
563.217	8544.56
563.579	8607.16
563.941	8649.87
564.304	8672.7
564.666	8711.34
565.028	8783.43
565.39	8774.61
565.753	8829.98
566.115	8850.32
566.477	8905.01
566.839	8846.48
567.201	8869.98
567.563	8941.16
567.925	8992.91
568.287	8980.03
568.648	8953.14
569.01	9022.07
569.372	9156.98
569.734	9089.63
570.095	9194.49
570.457	9265.22
570.819	9259.35
571.18	9217.31
571.542	9296.41
571.903	9288.72
572.265	9370.53
572.626	9381.38
572.987	9356.52
573.349	9478.55
573.71	9469.51
574.071	9485.56
574.432	9578.89
574.794	9673.35
575.155	9647.59
575.516	9590.41
575.877	9721.03
576.238	9808.94
576.599	9863.62
576.96	9865.88
577.32	9921.48
577.681	9969.16
578.042	10053.9
578.403	10085.99
578.763	10142.04
579.124	10203.95
579.485	10321.24
579.845	10408.02
580.206	10448.24
580.566	10520.1
580.927	10575.7
581.287	10663.38
581.648	10740.21
582.008	10839.87
582.368	10941.79
582.728	11065.18
583.089	11017.94
583.449	11207.32
583.809	11187.43
584.169	11415
584.529	11440.08
584.889	11697.7
585.249	11543.81
585.609	11736.12
585.969	11915.77
586.329	11989.44
586.688	12099.95
587.048	12216.33
587.408	12307.85
587.768	12389.66
588.127	12502.65
588.487	12689.99
588.846	12820.61
589.206	12916.88
589.565	13152.35
589.925	13273.7
590.284	13302.4
590.643	13505.79
591.003	13584.88
591.362	13794.37
591.721	13848.15
592.08	14126.56
592.44	14211.76
592.799	14313
593.158	14485.2
593.517	14601.81
593.876	14721.35
594.235	14880.67
594.593	14990.5
594.952	15149.14
595.311	15265.97
595.67	15437.94
596.029	15576.92
596.387	15751.83
596.746	15858.95
597.104	15978.27
597.463	16085.16
597.822	16242.67
598.18	16371.7
598.538	16445.37
598.897	16710.9
599.255	16608.76
599.613	16955.42
599.972	16951.8
600.33	17177.33
600.688	17159.7
601.046	17309.76
601.404	17471.79
601.762	17533.03
602.12	17766.02
602.478	17982.51
602.836	17966.91
603.194	17972.79
603.552	18181.37
603.91	18218.66
604.268	18336.4
604.625	18375.49
604.983	18531.65
605.341	18554.02
605.698	18793.33
606.056	18810.28
606.413	18837.63
606.771	18964.18
607.128	19044.85
607.485	19125.75
607.843	19210.05
608.2	19372.3
608.557	19421.11
608.914	19469.47
609.272	19709.69
609.629	19651.62
609.986	19802.8
610.343	19815.23
610.7	19975.22
611.057	20077.14
611.414	20075.56
611.771	20212.05
612.127	20326.63
612.484	20252.05
612.841	20498.83
613.198	20478.94
613.554	20465.38
613.911	20655.21
614.267	20713.96
614.624	20678.93
614.98	20856.56
615.337	20881.19
615.693	20984.46
616.05	20888.87
616.406	21216.55
616.762	21158.02
617.118	21207.96
617.475	21225.81
617.831	21368.41
618.187	21312.82
618.543	21486.6
618.899	21474.84
619.255	21550.78
619.611	21484.34
619.967	21591.45
620.323	21692.47
620.678	21696.08
621.034	21628.97
621.39	21693.6
621.746	21722.07
622.101	22002.29
622.457	21755.29
622.812	21920.26
623.168	21914.16
623.523	21953.93
623.879	22100.59
624.234	21871.22
624.589	22088.16
624.945	22070.99
625.3	22076.64
625.655	22153.02
626.01	22211.1
626.365	22097.65
626.72	22163.87
627.075	22125.45
627.43	22207.93
627.785	22233.24
628.14	22202.28
628.495	22240.7
628.85	22265.78
629.205	22242.06
629.559	22291.32
629.914	22173.13
630.269	22220.81
630.623	22125.45
630.978	22152.34
631.332	22198.22
631.687	22323.18
632.041	22225.11
632.396	22179.91
632.75	22198.67
633.104	22219.01
633.459	22106.92
633.813	22108.95
634.167	22082.51
634.521	21973.36
634.875	22115.96
635.229	22132
635.583	21954.61
635.937	22035.28
636.291	22045.45
636.645	22053.36
636.999	22028.5
637.352	22088.61
637.706	21922.74
638.06	22134.26
638.413	21999.58
638.767	21981.05
639.121	21995.06
639.474	21791.45
639.828	21971.1
640.181	21913.93
640.534	21944.21
640.888	21900.82
641.241	21780.15
641.594	21870.09
641.947	21873.93
642.301	21841.61
642.654	21775.18
643.007	21908.96
643.36	21918
643.713	21816.3
644.066	21791.9
644.419	21841.16
644.771	21670.55
645.124	21466.94
645.477	21389.42
645.83	21203.21
646.182	21209.09
646.535	21219.48
646.888	21240.27
647.24	21033.05
647.593	21282.31
647.945	21122.09
648.298	21137.23
648.65	21061.97
649.002	21132.71
649.355	21137.23
649.707	21162.31
650.059	21281.86
650.411	21541.74
650.763	21596.2
651.115	21787.61
651.467	21746.93
651.819	21682.75
652.171	21594.16
652.523	21630.55
652.875	21566.14
653.227	21554.62
653.578	21706.25
653.93	21719.58
654.282	21450.44
654.633	21514.17
654.985	21573.6
655.337	21685.01
655.688	21674.39
656.039	21628.74
656.391	21669.42
656.742	21565.92
657.094	21625.35
657.445	21703.54
657.796	21624.45
658.147	21659.7
658.498	21576.09
658.849	21787.61
659.2	21601.85
659.551	21618.34
659.902	21695.4
660.253	21660.83
660.604	21749.64
660.955	21583.54
661.306	21670.32
661.656	21616.99
662.007	21700.15
662.358	21640.26
662.708	21701.28
663.059	21761.39
663.409	21522.98
663.76	21751.9
664.11	21692.47
664.461	21706.7
664.811	21746.7
665.161	21800.94
665.511	21678
665.862	21674.16
666.212	21731.56
666.562	21814.72
666.912	21845.91
667.262	21686.14
667.612	21761.39
667.962	21683.43
668.312	21721.84
668.662	21808.17
669.011	21803.42
669.361	21674.39
669.711	21671.9
670.06	21692.47
670.41	21663.54
670.76	21674.84
671.109	21804.55
671.459	21708.51
671.808	21679.36
672.157	21709.19
672.507	21503.54
672.856	21601.85
673.205	21604.33
673.554	21637.33
673.904	21526.14
674.253	21568.63
674.602	21574.28
674.951	21272.59
675.3	21222.2
675.649	21506.26
675.998	21407.05
676.346	21521.62
676.695	21619.25
677.044	21301.29
677.393	21443.43
677.741	21537.44
678.09	21379.93
678.438	21274.4
678.787	21397.11
679.135	21394.17
679.484	21182.42
679.832	21269.65
680.181	21151.92
680.529	21210.67
680.877	20980.85
681.225	21162.54
681.573	21247.28
681.922	21084.8
682.27	21040.73
682.618	20950.11
682.966	20832.38
683.314	20975.2
683.661	20866.27
684.009	20831.02
684.357	20664.92
684.705	20724.13
685.053	20805.03
685.4	20707.41
685.748	20609.78
686.095	20599.84
686.443	20481.65
686.79	20525.49
687.138	20538.6
687.485	20553.29
687.832	20423.57
688.18	20472.61
688.527	20339.06
688.874	20271.94
689.221	20189.46
689.568	20087.76
689.915	20044.15
690.262	20088.89
690.609	19963.25
690.956	19966.18
691.303	19833.53
691.65	19761.44
691.997	19674.89
692.344	19687.55
692.69	19592.18
693.037	19666.98
693.383	19403.04
693.73	19625.85
694.077	19339.99
694.423	19352.19
694.769	19454.79
695.116	19316.94
695.462	19155.58
695.808	19206.88
696.155	19223.6
696.501	19062.93
696.847	18988.36
697.193	18892.77
697.539	18913.56
697.885	18783.62
698.231	18683.73
698.577	18706.33
698.923	18610.29
699.269	18556.73
699.614	18497.07
699.96	18416.39
700.306	18469.95
700.651	18286.45
700.997	18322.16
701.342	18211.43
701.688	18222.73
702.033	18144.09
702.379	18010.3
702.724	18006.01
703.069	18067.48
703.415	17814.15
703.76	17872.45
704.105	17888.05
704.45	17805.11
704.795	17700.48
705.14	17550.2
705.485	17581.16
705.83	17566.47
706.175	17504.55
706.52	17405.57
706.865	17385.46
707.209	17325.8
707.554	17192.47
707.899	17224.11
708.243	17057.33
708.588	17079.25
708.932	17004
709.277	17050.1
709.621	17015.3
709.966	16806.04
710.31	16886.72
710.654	16738.47
710.998	16797.91
711.342	16814.4
711.687	16708.42
712.031	16681.75
712.375	16593.84
712.719	16663.9
713.063	16669.32
713.407	16585.71
713.75	16574.63
714.094	16445.15
714.438	16455.99
714.782	16472.72
715.125	16349.33
715.469	16407.86
715.812	16256
716.156	16220.97
716.499	16299.39
716.843	16262.78
717.186	16190.69
717.53	16160.18
717.873	16155.89
718.216	16204.25
718.559	16079.28
718.902	15972.16
719.246	16099.85
719.589	16008.77
719.932	15929.68
720.275	16015.78
720.617	15853.98
720.96	15930.13
721.303	15936.69
721.646	15962.22
721.989	15802.68
722.331	15882.9
722.674	15813.52
723.016	15833.64
723.359	15770.36
723.701	15757.93
724.044	15714.09
724.386	15599.75
724.729	15723.13
725.071	15676.58
725.413	15618.5
725.755	15644.49
726.097	15539.63
726.439	15499.63
726.782	15522.46
727.124	15649.46
727.465	15463.7
727.807	15558.16
728.149	15499.63
728.491	15420.31
728.833	15538.28
729.175	15369.92
729.516	15467.77
729.858	15444.72
730.199	15370.6
730.541	15355.91
730.882	15414.89
731.224	15419.86
731.565	15410.15
731.906	15373.08
732.248	15348.45
732.589	15298.28
732.93	15286.31
733.271	15297.83
733.612	15328.57
733.953	15373.76
734.294	15305.52
734.635	15264.39
734.976	15245.63
735.317	15230.04
735.658	15250.15
735.999	15190.72
736.339	15337.61
736.68	15358.85
737.021	15237.27
737.361	15280.21
737.702	15371.28
738.042	15327.89
738.383	15320.88
738.723	15304.16
739.063	15348.45
739.404	15340.54
739.744	15289.24
740.084	15260.09
740.424	15300.09
740.764	15326.76
741.104	15470.94
741.444	15308.91
741.784	15214.67
742.124	15334.44
742.464	15450.37
742.804	15434.33
743.143	15349.58
743.483	15480.65
743.823	15376.93
744.162	15441.33
744.502	15408.11
744.841	15461.9
745.181	15540.76
745.52	15498.73
745.86	15606.98
746.199	15664.15
746.538	15656.47
746.877	15771.72
747.216	15890.81
747.556	15737.82
747.895	15831.83
748.234	15856.46
748.573	15948.89
748.911	15884.26
749.25	16090.13
749.589	16128.09
749.928	16190.92
750.267	16293.51
750.605	16331.25
750.944	16407.41
751.283	16405.15
751.621	16491.47
751.96	16531.02
752.298	16635.2
752.636	16740.05
752.975	16775.08
753.313	16786.61
753.651	17009.88
753.989	17069.99
754.327	17169.2
754.666	17226.6
755.004	17349.76
755.342	17487.61
755.679	17464.55
756.017	17604.21
756.355	17735.73
756.693	17750.2
757.031	17931.21
757.368	17983.19
757.706	18105.44
758.044	18151.77
758.381	18240.13
758.719	18359.45
759.056	18582.04
759.394	18580.23
759.731	18496.84
760.068	18654.13
760.405	18818.64
760.743	18862.94
761.08	19105.64
761.417	19085.08
761.754	19160.56
762.091	19340.44
762.428	19335.69
762.765	19349.03
763.102	19553.31
763.438	19655.23
763.775	19602.35
764.112	19654.33
764.449	19820.43
764.785	19990.36
765.122	19930.93
765.458	19857.71
765.795	19863.81
766.131	20049.8
766.467	20172.28
766.804	20116.91
767.14	20085.05
767.476	20178.83
767.812	20225.84
768.148	20330.02
768.485	20316.46
768.821	20162.56
769.157	20285.05
769.492	20433.74
769.828	20435.1
770.164	20406.85
770.5	20427.64
770.836	20530.24
771.171	20385.83
771.507	20334.76
771.842	20385.38
772.178	20409.34
772.513	20467.41
772.849	20450.47
773.184	20449.79
773.519	20383.8
773.855	20493.18
774.19	20363.91
774.525	20380.18
774.86	20431.03
775.195	20372.95
775.53	20316.46
775.865	20283.69
776.2	20245.05
776.535	20194.65
776.87	20201.43
777.205	20152.39
777.539	20158.95
777.874	20160.3
778.209	20160.3
778.543	20078.05
778.878	19949.24
779.212	20013.87
779.547	19987.43
779.881	20049.57
780.215	19874.89
780.55	19974.55
780.884	19806.19
781.218	19819.07
781.552	19897.03
781.886	19668.34
782.22	19585.4
782.554	19563.93
782.888	19412.98
783.222	19373.66
783.556	19314.9
783.889	19335.01
784.223	19212.31
784.557	19307.67
784.89	19261.57
785.224	19182.93
785.557	19170.5
785.891	18995.81
786.224	19064.51
786.558	19058.19
786.891	18817.51
787.224	18781.13
787.557	18832.88
787.891	18847.34
788.224	18737.52
788.557	18718.99
788.89	18598.76
789.223	18621.13
789.556	18544.3
789.888	18453.91
790.221	18382.95
790.554	18288.26
790.887	18258.21
791.219	18262.05
791.552	18209.85
791.884	18088.27
792.217	18191.09
792.549	18036.29
792.882	17862.51
793.214	17823.42
793.546	17944.99
793.879	17773.02
794.211	17661.84
794.543	17728.5
794.875	17758.56
795.207	17742.06
795.539	17647.37
795.871	17715.85
796.203	17420.26
796.535	17514.5
796.867	17438.11
797.198	17324.67
797.53	17325.35
797.862	17215.75
798.193	17198.8
798.525	17148.86
798.856	17111.8
799.188	16996.32
799.519	16962.42
799.85	16766.72
800.182	16920.61
800.513	16926.04
800.844	16700.73
801.175	16771.24
801.506	16824.8
801.837	16668.64
802.168	16621.64
802.499	16620.96
802.83	16545.03
803.161	16396.79
803.491	16379.39
803.822	16477.46
804.153	16351.14
804.483	16237.24
804.814	16223.68
805.145	16225.27
805.475	16217.81
805.805	16058.26
806.136	16078.38
806.466	16053.97
806.796	16070.02
807.126	15843.13
807.457	15956.57
807.787	15864.82
808.117	15819.4
808.447	15776.24
808.777	15854.65
809.107	15665.28
809.436	15712.28
809.766	15674.32
810.096	15630.7
810.426	15479.3
810.755	15557.03
811.085	15519.97
811.414	15497.15
811.744	15269.13
812.073	15356.36
812.403	15407.43
812.732	15256.7
813.061	15242.24
813.39	15216.93
813.719	15171.96
814.049	15200.21
814.378	15125.86
814.707	15056.71
815.036	15013.55
815.365	15031.85
815.693	14845.41
816.022	14900.78
816.351	14864.85
816.68	14745.3
817.008	14831.86
817.337	14685.19
817.665	14709.6
817.994	14690.16
818.322	14710.28
818.651	14589.83
818.979	14526.33
819.307	14647.91
819.636	14521.58
819.964	14588.92
820.292	14603.84
820.62	14402.71
820.948	14443.39
821.276	14465.76
821.604	14496.72
821.932	14451.3
822.259	14528.59
822.587	14341.47
822.915	14351.64
823.243	14390.06
823.57	14332.66
823.898	14354.81
824.225	14382.83
824.553	14265.77
824.88	14300.8
825.207	14325.43
825.535	14327.24
825.862	14367.69
826.189	14265.32
826.516	14315.71
826.843	14420.12
827.17	14323.62
827.497	14439.78
827.824	14369.5
828.151	14418.76
828.478	14388.25
828.805	14437.74
829.131	14341.25
829.458	14296.28
829.785	14228.26
830.111	14386.9
830.438	14332.21
830.764	14337.18
831.09	14385.77
831.417	14180.12
831.743	14393.45
832.069	14410.4
832.395	14293.56
832.722	14275.94
833.048	14351.87
833.374	14256.96
833.7	14122.04
834.026	14196.39
834.351	14188.71
834.677	14097.19
835.003	14075.72
835.329	14220.57
835.654	14157.07
835.98	13994.36
836.306	14070.52
836.631	14130.63
836.956	14169.95
837.282	14140.8
837.607	14044.31
837.932	13980.35
838.258	14056.96
838.583	13986
838.908	13901.48
839.233	13996.85
839.558	13885.44
839.883	13878.66
840.208	13816.97
840.533	13893.12
840.858	13865.78
841.182	13753.01
841.507	13853.35
841.832	13714.6
842.156	13675.28
842.481	13765.44
842.805	13657.88
843.13	13639.57
843.454	13580.36
843.778	13517.77
844.103	13553.92
844.427	13485.68
844.751	13502.63
845.075	13475.28
845.399	13413.81
845.723	13259.02
846.047	13335.62
846.371	13237.77
846.695	13238
847.019	13050.43
847.343	12960.72
847.666	13012.24
847.99	12946.93
848.313	12976.31
848.637	12791.68
848.96	12822.64
849.284	12840.95
849.607	12646.83
849.931	12654.51
850.254	12587.85
850.577	12454.29
850.9	12493.39
851.223	12495.42
851.546	12412.71
851.869	12350.79
852.192	12331.13
852.515	12236.67
852.838	12216.33
853.161	12195.54
853.483	12097.24
853.806	12104.02
854.129	11978.6
854.451	11993.96
854.774	11957.13
855.096	11996.22
855.419	11918.26
855.741	11856.11
856.063	11788.32
856.385	11783.57
856.708	11790.81
857.03	11695.67
857.352	11712.39
857.674	11596.23
857.996	11621.77
858.318	11530.93
858.64	11537.48
858.961	11529.57
859.283	11395.79
859.605	11414.32
859.926	11399.4
860.248	11377.94
860.57	11358.73
860.891	11355.11
861.212	11304.26
861.534	11278.73
861.855	11217.04
862.176	11286.19
862.498	11227.66
862.819	11183.82
863.14	11095.46
863.461	11166.87
863.782	11052.75
864.103	11099.52
864.424	11050.03
864.745	11051.39
865.065	11021.11
865.386	10951.05
865.707	10979.3
866.027	10928.68
866.348	10935.91
866.668	10938.85
866.989	10864.05
867.309	10789.7
867.63	10870.83
867.95	10889.81
868.27	10866.76
868.59	10808.01
868.91	10829.48
869.23	10714.45
869.55	10665.19
869.87	10821.79
870.19	10756.93
870.51	10751.74
870.83	10782.7
871.15	10687.78
871.469	10764.39
871.789	10640.33
872.109	10669.93
872.428	10638.52
872.748	10622.93
873.067	10628.8
873.386	10569.59
873.706	10542.03
874.025	10504.74
874.344	10434.91
874.663	10499.99
874.982	10414.8
875.301	10441.24
875.62	10477.17
875.939	10381.58
876.258	10404.85
876.577	10343.39
876.896	10416.6
877.214	10370.96
877.533	10306.55
877.852	10405.08
878.17	10309.94
878.489	10383.61
878.807	10253.45
879.125	10246.89
879.444	10194.01
879.762	10264.07
880.08	10169.83
880.398	10118.99
880.716	10117.86
881.034	10114.47
881.352	10165.31
881.67	10056.39
881.988	9983.17
882.306	10007.58
882.624	10018.65
882.941	9946.33
883.259	9938.2
883.577	9911.76
883.894	9878.99
884.212	9881.93
884.529	9802.61
884.846	9844.19
885.164	9840.35
885.481	9850.07
885.798	9801.25
886.115	9733.91
886.432	9766.45
886.75	9692.33
887.067	9679.67
887.383	9647.81
887.7	9688.26
888.017	9584.31
888.334	9647.59
888.651	9585.44
888.967	9589.73
889.284	9542.96
889.6	9517.42
889.917	9473.58
890.233	9436.97
890.55	9363.75
890.866	9412.34
891.182	9410.3
891.498	9363.3
891.815	9307.48
892.131	9239.23
892.447	9204.89
892.763	9234.26
893.079	9209.18
893.395	9115.4
893.71	9133.02
894.026	9095.51
894.342	9049.18
894.657	9041.27
894.973	9002.86
895.289	9041.95
895.604	8911.33
895.92	8954.04
896.235	8899.58
896.55	8908.62
896.865	8871.79
897.181	8835.4
897.496	8852.35
897.811	8771.22
898.126	8737.1
898.441	8680.15
898.756	8645.35
899.071	8604.45
899.386	8619.36
899.7	8495.3
900.015	8533.94
900.33	8446.94
900.644	8419.37
900.959	8444.45
901.273	8474.73
901.588	8380.95
901.902	8412.59
902.216	8289.65
902.531	8265.02
902.845	8281.52
903.159	8180.28
903.473	8154.52
903.787	8232.26
904.101	8110.68
904.415	8114.07
904.729	8024.13
905.042	7991.58
905.356	8069.55
905.67	8020.06
905.984	7943.22
906.297	7945.48
906.611	7875.65
906.924	7895.54
907.237	7855.54
907.551	7867.07
907.864	7818.25
908.177	7840.18
908.491	7737.81
908.804	7752.04
909.117	7660.29
909.43	7622.78
909.743	7638.82
910.056	7581.42
910.368	7527.42
910.681	7527.19
910.994	7502.33
911.307	7445.16
911.619	7397.25
911.932	7404.03
912.244	7357.48
912.557	7347.31
912.869	7291.26
913.181	7230.93
913.494	7221.89
913.806	7170.36
914.118	7147.99
914.43	7103.7
914.742	7116.35
915.054	7070.7
915.366	7025.06
915.678	7032.06
915.99	7025.51
916.302	6924.04
916.613	6896.47
916.925	6937.15
917.236	6896.25
917.548	6830.71
917.859	6889.47
918.171	6823.03
918.482	6799.75
918.794	6749.13
919.105	6774.67
919.416	6649.25
919.727	6666.87
920.038	6652.18
920.349	6691.73
920.66	6555.24
920.971	6556.59
921.282	6534.45
921.593	6498.74
921.903	6441.57
922.214	6431.17
922.525	6394.79
922.835	6444.28
923.146	6341.01
923.456	6312.31
923.767	6290.84
924.077	6233.44
924.387	6233.44
924.697	6236.6
925.008	6216.94
925.318	6199.99
925.628	6176.49
925.938	6120.67
926.248	6089.94
926.558	6078.64
926.867	6077.74
927.177	6107.57
927.487	5992.77
927.796	5910.73
928.106	5834.13
928.416	5925.42
928.725	5902.6
929.034	5824.41
929.344	5901.47
929.653	5837.74
929.962	5783.28
930.271	5730.85
930.581	5710.97
930.89	5766.78
931.199	5686.56
931.508	5656.05
931.817	5618.31
932.125	5624.41
932.434	5635.71
932.743	5597.3
933.051	5507.13
933.36	5491.76
933.669	5510.07
933.977	5469.84
934.286	5449.05
934.594	5448.83
934.902	5421.03
935.21	5378.55
935.519	5407.92
935.827	5366.57
936.135	5366.34
936.443	5249.06
936.751	5303.52
937.059	5267.14
937.367	5269.85
937.674	5209.28
937.982	5212.22
938.29	5188.95
938.597	5175.84
938.905	5115.73
939.213	5099.23
939.52	5091.32
939.827	5066.01
940.135	5033.02
940.442	5066.69
940.749	5044.77
941.056	5011.78
941.363	4950.76
941.67	4953.25
941.977	4849.75
942.284	4860.37
942.591	4868.95
942.898	4787.83
943.205	4801.16
943.511	4787.6
943.818	4793.48
944.125	4733.59
944.431	4710.31
944.738	4741.05
945.044	4676.19
945.35	4654.04
945.657	4668.28
945.963	4636.64
946.269	4629.19
946.575	4616.08
946.881	4544.44
947.187	4528.17
947.493	4523.43
947.799	4489.98
948.105	4440.94
948.41	4437.33
948.716	4448.17
949.022	4436.65
949.327	4431.9
949.633	4412.24
949.938	4418.12
950.244	4404.56
950.549	4340.15
950.854	4345.13
951.16	4279.82
951.465	4260.83
951.77	4300.16
952.075	4236.65
952.38	4217.45
952.685	4233.94
952.99	4137.9
953.294	4137.67
953.599	4189.88
953.904	4129.99
954.209	4122.08
954.513	4087.96
954.818	4096.32
955.122	4075.3
955.426	4040.05
955.731	4030.11
956.035	4018.58
956.339	3985.36
956.643	4000.5
956.948	3909.43
957.252	3940.16
957.556	3913.95
957.86	3908.75
958.163	3897.23
958.467	3893.61
958.771	3866.04
959.075	3847.29
959.378	3813.16
959.682	3826.72
959.985	3775.65
960.289	3778.36
960.592	3742.66
960.896	3734.52
961.199	3745.82
961.502	3727.74
961.805	3720.51
962.108	3665.14
962.411	3667.63
962.714	3622.88
963.017	3649.78
963.32	3630.12
963.623	3602.55
963.926	3613.17
964.228	3553.73
964.531	3592.15
964.833	3563.45
965.136	3528.2
965.438	3519.84
965.741	3487.75
966.043	3456.79
966.345	3459.5
966.648	3430.35
966.95	3412.04
967.252	3415.21
967.554	3365.94
967.856	3412.04
968.158	3411.59
968.46	3339.28
968.761	3335.89
969.063	3329.79
969.365	3308.99
969.666	3315.77
969.968	3308.54
970.269	3280.97
970.571	3280.07
970.872	3239.39
971.174	3226.74
971.475	3185.16
971.776	3200.3
972.077	3209.56
972.378	3189
972.679	3158.04
972.98	3163.69
973.281	3140.86
973.582	3127.3
973.883	3087.98
974.183	3134.76
974.484	3079.4
974.785	3067.65
975.085	3043.69
975.386	3093.18
975.686	3010.7
975.986	3016.12
976.287	2967.99
976.587	2983.58
976.887	2930.7
977.187	2973.64
977.487	2991.72
977.787	2938.84
978.087	2896.8
978.387	2892.96
978.687	2901.77
978.987	2882.11
979.286	2872.62
979.586	2846.41
979.885	2847.31
980.185	2817.71
980.484	2837.37
980.784	2813.87
981.083	2756.24
981.382	2789.23
981.682	2780.87
981.981	2741.55
982.28	2747.2
982.579	2727.77
982.878	2666.75
983.177	2716.47
983.475	2691.61
983.774	2719.41
984.073	2651.84
984.372	2636.02
984.67	2610.71
984.969	2643.93
985.267	2615.68
985.566	2595.12
985.864	2569.13
986.162	2637.6
986.461	2558.73
986.759	2597.83
987.057	2575.91
987.355	2549.69
987.653	2517.15
987.951	2501.56
988.249	2490.03
988.547	2462.24
988.844	2464.72
989.142	2480.32
989.44	2476.25
989.737	2415.46
990.035	2466.53
990.332	2408
990.63	2384.27
990.927	2390.15
991.224	2395.8
991.521	2384.05
991.819	2398.28
992.116	2397.61
992.413	2337.95
992.71	2353.31
993.006	2349.25
993.303	2319.87
993.6	2285.07
993.897	2319.64
994.193	2281.9
994.49	2274.67
994.787	2262.69
995.083	2225.41
995.379	2231.28
995.676	2223.6
995.972	2205.75
996.268	2204.84
996.565	2243.94
996.861	2185.41
997.157	2156.93
997.453	2167.33
997.749	2179.99
998.044	2144.51
998.34	2107.22
998.636	2124.85
998.932	2145.64
999.227	2103.83
999.523	2098.18
999.818	2052.53
1000.114	2060.21
1000.409	2055.92
1000.704	2043.94
1001	2017.73
1001.295	2008.24
1001.59	2022.25
1001.885	1997.84
1002.18	1973.66
1002.475	1980.44
1002.77	1971.4
1003.065	1935.02
1003.359	1941.35
1003.654	1965.3
1003.949	1942.93
1004.243	1878.98
1004.538	1921.23
1004.832	1894.79
1005.127	1866.32
1005.421	1874.23
1005.715	1862.03
1006.009	1864.97
1006.304	1851.86
1006.598	1863.38
1006.892	1810.5
1007.186	1811.18
1007.48	1767.79
1007.773	1795.14
1008.067	1778.19
1008.361	1774.57
1008.655	1772.09
1008.948	1745.87
1009.242	1720.56
1009.535	1749.49
1009.829	1735.03
1010.122	1692.09
1010.415	1707.46
1010.708	1692.31
1011.001	1687.12
1011.295	1685.76
1011.588	1649.38
1011.881	1612.77
1012.173	1627.91
1012.466	1630.85
1012.759	1615.71
1013.052	1643.95
1013.344	1606.67
1013.637	1620
1013.93	1573.22
1014.222	1610.06
1014.514	1556.27
1014.807	1536.84
1015.099	1563.05
1015.391	1540.23
1015.683	1534.8
1015.976	1538.65
1016.268	1519.21
1016.56	1516.05
1016.851	1495.26
1017.143	1509.04
1017.435	1501.13
1017.727	1463.17
1018.018	1460.46
1018.31	1445.32
1018.602	1454.58
1018.893	1423.39
1019.185	1429.95
1019.476	1412.77
1019.767	1405.09
1020.058	1374.81
1020.35	1394.24
1020.641	1368.48
1020.932	1359.67
1021.223	1361.25
1021.514	1355.6
1021.804	1337.75
1022.095	1363.96
1022.386	1324.87
1022.677	1318.76
1022.967	1312.44
1023.258	1286.45
1023.548	1288.48
1023.839	1290.97
1024.129	1280.57
1024.419	1270.86
1024.709	1252.78
1025	1248.03
1025.29	1225.43
1025.58	1234.47
1025.87	1227.02
1026.16	1248.71
1026.449	1219.11
1026.739	1208.71
1027.029	1202.84
1027.319	1175.94
1027.608	1189.73
1027.898	1180.92
1028.187	1166.45
1028.477	1150.41
1028.766	1165.77
1029.055	1121.03
1029.344	1131.43
1029.634	1134.59
1029.923	1120.58
1030.212	1123.97
1030.501	1126
1030.79	1102.05
1031.078	1087.36
1031.367	1099.34
1031.656	1078.77
1031.945	1076.06
1032.233	1058.43
1032.522	1070.18
1032.81	1069.51
1033.099	1031.31
1033.387	1053.91
1033.675	1026.34
1033.963	1036.51
1034.251	1022.28
1034.54	1039.22
1034.828	999.9
1035.116	1010.98
1035.403	1011.43
1035.691	1005.33
1035.979	1010.75
1036.267	972.33
1036.554	991.99
1036.842	969.17
1037.129	969.17
1037.417	942.96
1037.704	962.84
1037.992	935.95
1038.279	941.15
1038.566	937.31
1038.853	937.31
1039.14	937.31
