Data from hue_300_FLMS001491_00088.txt Node
Date: Tue Feb 07 15:51:20 GMT 2017
User: dcchb
Spectrometer: FLMS00149
Trigger mode: 0
Integration Time (sec): 2.000000E-2
Scans to average: 10
Electric dark correction enabled: true
Nonlinearity correction enabled: false
Boxcar width: 0
XAxis mode: Wavelengths
Number of Pixels in Spectrum: 2048
>>>>>Begin Spectral Data<<<<<
341.393	-27.75
341.776	-27.75
342.16	-27.75
342.543	-50.35
342.927	-68.43
343.31	-48.54
343.693	-85.38
344.077	-67.07
344.46	-58.94
344.843	-54.87
345.226	-60.75
345.61	-34.31
345.993	-25.49
346.376	-2.67
346.759	23.09
347.142	35.07
347.525	57.67
347.908	45.92
348.291	65.8
348.674	98.8
349.057	111.68
349.44	115.29
349.823	132.47
350.206	177.44
350.588	210.66
350.971	231
351.354	240.94
351.737	233.03
352.119	256.98
352.502	263.99
352.884	275.74
353.267	284.55
353.65	271.22
354.032	293.14
354.414	310.54
354.797	319.81
355.179	329.07
355.562	335.4
355.944	322.52
356.326	327.49
356.709	350.32
357.091	375.63
357.473	355.06
357.855	321.16
358.238	356.87
358.62	335.63
359.002	358.45
359.384	357.55
359.766	348.28
360.148	334.27
360.53	343.31
360.912	333.59
361.294	356.42
361.676	347.6
362.057	344.89
362.439	330.2
362.821	322.52
363.203	326.14
363.584	322.07
363.966	339.47
364.348	319.58
364.729	333.37
365.111	323.65
365.493	351.9
365.874	321.39
366.256	334.27
366.637	320.26
367.019	310.99
367.4	316.64
367.781	327.94
368.163	316.87
368.544	322.52
368.925	320.26
369.306	322.07
369.688	315.97
370.069	313.48
370.45	328.62
370.831	315.51
371.212	337.43
371.593	296.76
371.974	323.65
372.355	319.36
372.736	314.38
373.117	326.36
373.498	309.19
373.879	328.85
374.26	340.6
374.641	345.57
375.021	329.07
375.402	313.71
375.783	329.07
376.163	315.51
376.544	327.27
376.925	333.59
377.305	318.68
377.686	343.31
378.066	341.95
378.447	345.8
378.827	337.89
379.208	355.29
379.588	335.85
379.968	349.19
380.349	354.38
380.729	341.28
381.109	348.51
381.489	364.78
381.87	355.97
382.25	344.89
382.63	362.29
383.01	357.32
383.39	358.23
383.77	363.2
384.15	376.76
384.53	369.75
384.91	367.04
385.29	368.39
385.67	343.54
386.049	367.72
386.429	369.98
386.809	368.85
387.189	379.69
387.568	369.07
387.948	391.44
388.328	357.55
388.707	401.39
389.087	381.5
389.466	375.4
389.846	392.8
390.225	382.18
390.605	381.5
390.984	402.52
391.363	384.21
391.743	402.97
392.122	397.32
392.501	394.61
392.881	395.74
393.26	416.53
393.639	414.27
394.018	388.73
394.397	401.61
394.776	414.72
395.155	401.84
395.534	418.34
395.913	445.23
396.292	414.04
396.671	403.2
397.05	413.82
397.429	416.3
397.808	433.7
398.186	422.63
398.565	440.03
398.944	420.14
399.323	434.61
399.701	445
400.08	435.06
400.458	429.18
400.837	437.09
401.215	439.8
401.594	464.89
401.972	451.78
402.351	456.75
402.729	452.91
403.107	465.11
403.486	484.1
403.864	460.6
404.242	485.68
404.62	508.5
404.999	477.09
405.377	514.61
405.755	492.68
406.133	502.4
406.511	485.23
406.889	541.27
407.267	510.76
407.645	523.64
408.023	533.81
408.401	513.48
408.779	521.16
409.156	556.19
409.534	580.14
409.912	574.04
410.29	586.92
410.667	586.92
411.045	596.86
411.422	619.91
411.8	602.29
412.178	633.25
412.555	619.91
412.933	636.86
413.31	656.52
413.687	677.99
414.065	640.48
414.442	674.37
414.819	685.67
415.197	679.12
415.574	717.09
415.951	723.19
416.328	700.36
416.705	723.64
417.082	766.35
417.46	779
417.837	769.97
418.214	790.53
418.591	764.32
418.967	789.63
419.344	800.25
419.721	819.91
420.098	818.1
420.475	851.32
420.852	839.79
421.228	858.1
421.605	861.71
421.982	873.47
422.358	868.27
422.735	880.7
423.111	903.07
423.488	922.28
423.864	931.32
424.241	937.87
424.617	950.53
424.994	944.88
425.37	965.67
425.746	1008.38
426.123	997.3
426.499	1032.56
426.875	1027.13
427.251	1020.81
427.627	1063.74
428.003	1051.31
428.379	1092.44
428.756	1082.5
429.132	1087.02
429.507	1129.28
429.883	1113.23
430.259	1137.87
430.635	1164.08
431.011	1157.07
431.387	1176.28
431.763	1185.32
432.138	1203.17
432.514	1230.29
432.89	1256.28
433.265	1257.41
433.641	1259.44
434.016	1268.71
434.392	1302.61
434.767	1337.86
435.143	1323.17
435.518	1326.11
435.894	1362.72
436.269	1345.77
436.644	1402.27
437.02	1395.03
437.395	1403.4
437.77	1458.31
438.145	1446.33
438.52	1407.24
438.895	1467.57
439.271	1497.86
439.646	1511.87
440.021	1499.21
440.395	1512.32
440.77	1510.74
441.145	1536.73
441.52	1512.32
441.895	1528.82
442.27	1551.87
442.645	1538.53
443.019	1558.65
443.394	1597.97
443.769	1583.73
444.143	1562.49
444.518	1617.17
444.892	1604.75
445.267	1621.92
445.641	1629.6
446.016	1592.32
446.39	1615.14
446.764	1644.07
447.139	1629.6
447.513	1679.09
447.887	1671.64
448.262	1651.98
448.636	1661.02
449.01	1686.1
449.384	1697.17
449.758	1677.74
450.132	1740.11
450.506	1739.43
450.88	1736.04
451.254	1722.48
451.628	1742.37
452.002	1749.15
452.376	1758.87
452.75	1776.04
453.123	1748.47
453.497	1824.85
453.871	1812.2
454.244	1841.58
454.618	1847.23
454.992	1867.56
455.365	1877.28
455.739	1880.44
456.112	1887.9
456.486	1909.82
456.859	1921.35
457.232	1948.92
457.606	1963.38
457.979	1983.72
458.352	1999.31
458.725	2045.41
459.099	2017.62
459.472	2072.76
459.845	2057.16
460.218	2083.6
460.591	2092.87
460.964	2114.11
461.337	2098.74
461.71	2139.2
462.083	2168.57
462.456	2183.04
462.829	2170.15
463.201	2185.97
463.574	2198.85
463.947	2217.61
464.32	2270.72
464.692	2270.27
465.065	2270.49
465.438	2307.78
465.81	2324.28
466.183	2352.07
466.555	2372.64
466.928	2392.07
467.3	2387.32
467.672	2405.63
468.045	2488.11
468.417	2472.75
468.789	2463.93
469.161	2470.03
469.534	2524.5
469.906	2552.07
470.278	2574.21
470.65	2595.45
471.022	2684.94
471.394	2661.44
471.766	2637.26
472.138	2654.44
472.51	2760.87
472.882	2769.69
473.253	2799.52
473.625	2824.37
473.997	2856.24
474.369	2886.52
474.74	2872.51
475.112	2950.93
475.484	2992.51
475.855	3040.41
476.227	3053.3
476.598	3103.69
476.97	3088.77
477.341	3143.01
477.713	3173.07
478.084	3193.18
478.455	3250.8
478.827	3265.04
479.198	3336.45
479.569	3299.84
479.94	3395.43
480.311	3426.62
480.682	3458.93
481.053	3530.35
481.424	3560.17
481.795	3547.29
482.166	3602.89
482.537	3646.73
482.908	3703.67
483.279	3725.82
483.65	3797.68
484.021	3897.12
484.391	3883.1
484.762	3865.7
485.133	3908.19
485.503	3944.12
485.874	4017.79
486.244	4021.18
486.615	4086.04
486.985	4102.76
487.356	4171.23
487.726	4221.17
488.097	4240.61
488.467	4297.1
488.837	4374.16
489.207	4379.81
489.578	4413.71
489.948	4471.11
490.318	4505.91
490.688	4536.65
491.058	4548.62
491.428	4606.47
491.798	4621.39
492.168	4727.15
492.538	4697.32
492.908	4750.88
493.278	4781.61
493.648	4831.1
494.017	4856.64
494.387	4909.29
494.757	4860.03
495.126	4930.99
495.496	4984.32
495.866	4970.76
496.235	4963.08
496.605	5032.9
496.974	5067.25
497.344	5117.2
497.713	5067.03
498.082	5126.91
498.452	5150.64
498.821	5175.5
499.19	5186.57
499.559	5255.27
499.928	5281.94
500.298	5283.07
500.667	5335.04
501.036	5294.59
501.405	5341.6
501.774	5348.6
502.143	5378.43
502.512	5403.06
502.88	5467.92
503.249	5432.44
503.618	5485.1
503.987	5495.94
504.356	5514.93
504.724	5569.39
505.093	5529.16
505.462	5583.62
505.83	5638.99
506.199	5615.71
506.567	5689.84
506.936	5688.03
507.304	5766.67
507.672	5723.51
508.041	5733.9
508.409	5761.92
508.777	5774.13
509.145	5842.6
509.514	5893.45
509.882	5889.61
510.25	5815.71
510.618	5892.77
510.986	5957.4
511.354	5954.46
511.722	6001.01
512.09	5972.77
512.458	6008.7
512.826	6053.89
513.193	6029.04
513.561	6027.45
513.929	6095.25
514.297	6147.9
514.664	6153.55
515.032	6181.35
515.4	6166.66
515.767	6261.8
516.135	6217.05
516.502	6194
516.869	6310.84
517.237	6311.97
517.604	6280.56
517.972	6339.08
518.339	6322.36
518.706	6335.47
519.073	6390.83
519.44	6400.78
519.808	6423.6
520.175	6401.23
520.542	6470.83
520.909	6536.37
521.276	6456.14
521.643	6537.05
522.009	6579.98
522.376	6593.32
522.743	6676.48
523.11	6705.18
523.477	6763.48
523.843	6747.21
524.21	6856.81
524.577	6843.48
524.943	6860.65
525.31	6889.8
525.676	6922.12
526.043	6952.85
526.409	7012.29
526.776	7020.2
527.142	7046.41
527.508	7042.8
527.874	7144.26
528.241	7165.05
528.607	7119.4
528.973	7207.31
529.339	7212.73
529.705	7306.74
530.071	7294.99
530.437	7383.58
530.803	7290.92
531.169	7461.09
531.535	7446.85
531.901	7434.65
532.267	7517.36
532.632	7583.12
532.998	7514.42
533.364	7621.99
533.73	7645.04
534.095	7731.82
534.461	7713.74
534.826	7751.7
535.192	7767.07
535.557	7800.29
535.923	7846.39
536.288	7863.11
536.653	7933.62
537.019	7891.13
537.384	7957.57
537.749	7945.37
538.114	8084.8
538.479	8037.35
538.845	8042.32
539.21	8024.46
539.575	8117.8
539.94	8128.19
540.305	8210.67
540.67	8161.41
541.034	8170.45
541.399	8351.24
541.764	8277.79
542.129	8231.24
542.494	8347.39
542.858	8374.51
543.223	8434.17
543.587	8459.71
543.952	8431.69
544.316	8576.77
544.681	8461.29
545.045	8565.24
545.41	8578.8
545.774	8669.19
546.138	8587.61
546.503	8658.57
546.867	8718.68
547.231	8820.83
547.595	8777.66
547.959	8837.32
548.324	8859.02
548.688	8899.02
549.052	9012.01
549.416	8964.33
549.779	8979.47
550.143	8916.64
550.507	9047.71
550.871	9110.76
551.235	9053.82
551.599	9131.78
551.962	9115.51
552.326	9187.37
552.689	9225.34
553.053	9191.89
553.417	9209.52
553.78	9288.39
554.143	9342.4
554.507	9314.37
554.87	9309.85
555.234	9447.03
555.597	9374.49
555.96	9392.11
556.323	9473.47
556.686	9500.13
557.05	9571.09
557.413	9551.43
557.776	9563.63
558.139	9620.58
558.502	9652.9
558.865	9687.7
559.228	9685.44
559.59	9712.78
559.953	9681.37
560.316	9802.95
560.679	9893.12
561.041	9844.76
561.404	9861.03
561.767	9872.1
562.129	9916.62
562.492	10033.22
562.854	10100.34
563.217	10072.77
563.579	10092.88
563.941	10125.43
564.304	10144.18
564.666	10160.23
565.028	10185.99
565.39	10213.33
565.753	10282.48
566.115	10371.52
566.477	10319.09
566.839	10356.61
567.201	10493.1
567.563	10490.84
567.925	10462.14
568.287	10524.06
568.648	10637.5
569.01	10608.8
569.372	10691.96
569.734	10692.42
570.095	10729.25
570.457	10813.32
570.819	10860.32
571.18	10907.55
571.542	10949.81
571.903	10913.88
572.265	11072.29
572.626	11124.72
572.987	11084.95
573.349	11171.27
573.71	11237.04
574.071	11304.83
574.432	11390.48
574.794	11460.53
575.155	11538.72
575.516	11539.17
575.877	11678.61
576.238	11807.87
576.599	11927.64
576.96	11938.49
577.32	12035.21
577.681	12135.99
578.042	12299.15
578.403	12358.36
578.763	12507.51
579.124	12603.33
579.485	12835.41
579.845	12914.73
580.206	13073.37
580.566	13139.58
580.927	13244.21
581.287	13510.65
581.648	13604.88
582.008	13754.93
582.368	13944.08
582.728	14156.73
583.089	14296.84
583.449	14473.79
583.809	14742.93
584.169	14972.98
584.529	15174.56
584.889	15540.42
585.249	15662
585.609	15852.28
585.969	16221.54
586.329	16342.21
586.688	16694.74
587.048	17046.83
587.408	17066.94
587.768	17421.96
588.127	17728.39
588.487	17996.86
588.846	18373.34
589.206	18600.01
589.565	18981.01
589.925	19323.83
590.284	19519.98
590.643	19880.2
591.003	20259.4
591.362	20629.56
591.721	20969.43
592.08	21286.26
592.44	21555.41
592.799	21881.27
593.158	22246.92
593.517	22621.59
593.876	22930.96
594.235	23273.55
594.593	23655.01
594.952	23998.06
595.311	24206.19
595.67	24690.92
596.029	25165.48
596.387	25374.52
596.746	25833.49
597.104	26101.28
597.463	26416.75
597.822	26847.25
598.18	27005.21
598.538	27367.68
598.897	27908.46
599.255	27900.33
599.613	28703.02
599.972	28740.08
600.33	29233.85
600.688	29402.43
601.046	29947.05
601.404	30098.23
601.762	30386.81
602.12	30926.01
602.478	31103.18
602.836	31365.55
603.194	31561.47
603.552	31930.05
603.91	32041.69
604.268	32556.47
604.625	32758.5
604.983	33045.28
605.341	33199.62
605.698	33664.69
606.056	33963.44
606.413	34170.9
606.771	34577.21
607.128	34858.56
607.485	34830.99
607.843	35249.29
608.2	35488.15
608.557	35926.56
608.914	36011.07
609.272	36317.05
609.629	36615.12
609.986	37005.62
610.343	36856.25
610.7	37468.21
611.057	37547.53
611.414	37663.01
611.771	37831.36
612.127	38275.42
612.484	38322.2
612.841	38660.49
613.198	38768.74
613.554	38809.42
613.911	39286.02
614.267	39340.93
614.624	39483.75
614.98	39642.16
615.337	39977.52
615.693	40216.84
616.05	40067.69
616.406	40472.65
616.762	40504.06
617.118	40782.25
617.475	40909.93
617.831	41133.65
618.187	41228.34
618.543	41413.42
618.899	41664.48
619.255	41839.85
619.611	41798.94
619.967	42098.14
620.323	42198.48
620.678	42179.5
621.034	42357.12
621.39	42335.2
621.746	42455.88
622.101	43023.09
622.457	42808.86
622.812	42894.28
623.168	43055.41
623.523	43206.59
623.879	43482.51
624.234	43108.74
624.589	43383.08
624.945	43530.2
625.3	43446.81
625.655	43578.11
626.01	43698.33
626.365	43712.79
626.72	43846.35
627.075	43822.17
627.43	43887.25
627.785	43872.56
628.14	44024.42
628.495	44181.03
628.85	44120.46
629.205	44089.5
629.559	44214.25
629.914	44186.23
630.269	44223.96
630.623	44238.88
630.978	44180.8
631.332	44437.74
631.687	44427.57
632.041	44481.13
632.396	44418.99
632.75	44365.2
633.104	44342.83
633.459	44224.64
633.813	44300.8
634.167	44234.59
634.521	44310.06
634.875	44500.12
635.229	44509.15
635.583	44201.82
635.937	44302.38
636.291	44214.47
636.645	44285.66
636.999	44290.4
637.352	44448.37
637.706	44173.57
638.06	44403.17
638.413	44381.93
638.767	44287.24
639.121	44339.67
639.474	44194.36
639.828	44194.36
640.181	44077.75
640.534	44303.06
640.888	44154.81
641.241	44057.19
641.594	44143.29
641.947	44250.86
642.301	44219.9
642.654	44261.93
643.007	44184.87
643.36	44064.19
643.713	44095.83
644.066	44268.71
644.419	44187.13
644.771	43644.32
645.124	43341.05
645.477	43462.85
645.83	43145.35
646.182	42914.62
646.535	42903.1
646.888	42979.03
647.24	42822.87
647.593	42996.65
647.945	42989.87
648.298	42786.94
648.65	42655.42
649.002	42602.54
649.355	42881.4
649.707	42767.51
650.059	42979.25
650.411	43305.8
650.763	43539.24
651.115	43833.69
651.467	43682.28
651.819	43692.68
652.171	43711.89
652.523	43564.55
652.875	43613.58
653.227	43373.14
653.578	43776.97
653.93	43670.98
654.282	43469.86
654.633	43409.52
654.985	43563.19
655.337	43587.6
655.688	43508.95
656.039	43649.29
656.391	43315.06
656.742	43413.14
657.094	43280.26
657.445	43629.18
657.796	43382.63
658.147	43346.25
658.498	43358.68
658.849	43312.12
659.2	43245.01
659.551	43230.77
659.902	43460.37
660.253	43421.95
660.604	43358
660.955	43205.46
661.306	43285.23
661.656	43187.61
662.007	43263.99
662.358	43274.84
662.708	43272.8
663.059	43148.06
663.409	43031.23
663.76	43379.47
664.11	43313.25
664.461	43296.53
664.811	43324.33
665.161	43323.65
665.511	43198.68
665.862	43214.27
666.212	43383.53
666.562	43211.11
666.912	43316.42
667.262	43240.49
667.612	43207.04
667.962	43224.44
668.312	43146.7
668.662	43268.06
669.011	43141.28
669.361	43172.24
669.711	43160.72
670.06	43036.2
670.41	43000.27
670.76	42922.53
671.109	43098.12
671.459	42921.4
671.808	43012.02
672.157	43133.82
672.507	42825.13
672.856	42837.33
673.205	42872.81
673.554	43126.37
673.904	42889.54
674.253	43013.83
674.602	42867.16
674.951	42381.98
675.3	41976.79
675.649	42688.41
675.998	42659.94
676.346	42676.43
676.695	42799.37
677.044	42429.44
677.393	42547.4
677.741	42526.61
678.09	42515.76
678.438	42434.63
678.787	42552.6
679.135	42588.08
679.484	42125.94
679.832	42329.78
680.181	42177.92
680.529	42432.6
680.877	42120.74
681.225	42168.2
681.573	42384.69
681.922	42022.44
682.27	41939.05
682.618	41921.2
682.966	41918.71
683.314	41974.76
683.661	41869.68
684.009	41772.5
684.357	41699.06
684.705	41527.09
685.053	41699.06
685.4	41497.93
685.748	41370.25
686.095	41399.86
686.443	41102.01
686.79	41141.56
687.138	41310.14
687.485	41210.26
687.832	41037.38
688.18	41042.35
688.527	40899.98
688.874	40916.71
689.221	40868.12
689.568	40679.42
689.915	40558.98
690.262	40700.22
690.609	40419.09
690.956	40183.39
691.303	40421.13
691.65	40069.72
691.997	40182.94
692.344	39916.28
692.69	39944.98
693.037	39965.55
693.383	39540.7
693.73	39727.36
694.077	39479.23
694.423	39462.06
694.769	39336.64
695.116	39348.39
695.462	39198.79
695.808	39078.11
696.155	39252.57
696.501	38865.46
696.847	38822.75
697.193	38591.12
697.539	38667.73
697.885	38425.92
698.231	38384.57
698.577	38322.2
698.923	38351.35
699.269	38102.09
699.614	37973.73
699.96	37772.16
700.306	37910.91
700.651	37698.49
700.997	37703.01
701.342	37576.23
701.688	37456.23
702.033	37356.8
702.379	37331.26
702.724	37210.14
703.069	37266.18
703.415	36851.5
703.76	36920.2
704.105	37003.14
704.45	36967.21
704.795	36603.6
705.14	36445.41
705.485	36418.52
705.83	36352.98
706.175	36397.05
706.52	36244.51
706.865	36186.66
707.209	36059.66
707.554	35970.85
707.899	35967.91
708.243	35756.39
708.588	35747.35
708.932	35563.63
709.277	35532.22
709.621	35612.67
709.966	35340.13
710.31	35417.19
710.654	35033.47
710.998	35192.11
711.342	35211.09
711.687	35150.76
712.031	34908.05
712.375	34837.77
712.719	34932.01
713.063	34823.53
713.407	34949.86
713.75	34580.83
714.094	34597.1
714.438	34518.91
714.782	34559.81
715.125	34489.31
715.469	34433.04
715.812	34211.57
716.156	34140.39
716.499	34062.2
716.843	34168.64
717.186	33906.04
717.53	34114.63
717.873	34050.45
718.216	34000.28
718.559	33729.55
718.902	33646.62
719.246	33497.69
719.589	33546.5
719.932	33500.18
720.275	33371.82
720.617	33414.31
720.96	33304.48
721.303	33366.4
721.646	33427.86
721.989	33140.19
722.331	33217.47
722.674	33141.09
723.016	33167.98
723.359	33156.91
723.701	33086.18
724.044	32887.99
724.386	32600.77
724.729	32938.16
725.071	32779.75
725.413	32657.49
725.755	32661.1
726.097	32602.57
726.439	32435.57
726.782	32457.04
727.124	32471.5
727.465	32429.92
727.807	32428.79
728.149	32315.8
728.491	32173.66
728.833	32256.37
729.175	32160.1
729.516	32167.56
729.858	32099.31
730.199	32053.21
730.541	31988.58
730.882	31913.78
731.224	32062.7
731.565	31785.65
731.906	31816.38
732.248	31892.31
732.589	31568.7
732.93	31495.03
733.271	31714.01
733.612	31546.78
733.953	31582.94
734.294	31462.94
734.635	31377.3
734.976	31343.63
735.317	31371.65
735.658	31293.46
735.999	31181.14
736.339	31262.27
736.68	31184.99
737.021	31121.71
737.361	31057.08
737.702	31153.35
738.042	30922.17
738.383	30983.41
738.723	30893.69
739.063	31042.84
739.404	30996.97
739.744	30806.46
740.084	30723.75
740.424	30792.45
740.764	30647.15
741.104	30927.36
741.444	30638.11
741.784	30508.39
742.124	30567.37
742.464	30556.3
742.804	30511.33
743.143	30404.44
743.483	30502.52
743.823	30381.16
744.162	30279.92
744.502	30347.49
744.841	30161.51
745.181	30283.99
745.52	30319.92
745.86	30276.31
746.199	30119.25
746.538	30140.72
746.877	30058.01
747.216	30190.89
747.556	30072.02
747.895	29978.69
748.234	30015.75
748.573	29925.81
748.911	29854.4
749.25	29968.07
749.589	29740.5
749.928	29768.3
750.267	29828.64
750.605	29795.64
750.944	29657.57
751.283	29736.21
751.621	29816.89
751.96	29609.66
752.298	29531.92
752.636	29593.84
752.975	29379.61
753.313	29356.11
753.651	29585.48
753.989	29298.48
754.327	29328.99
754.666	29132.16
755.004	29185.72
755.342	29114.98
755.679	29189.56
756.017	29085.15
756.355	29013.06
756.693	29041.31
757.031	28980.52
757.368	28928.77
757.706	28894.42
758.044	28821.43
758.381	28840.87
758.719	28611.95
759.056	28712.51
759.394	28567.43
759.731	28457.15
760.068	28382.8
760.405	28353.2
760.743	28279.52
761.08	28333.53
761.417	28223.71
761.754	28226.64
762.091	28078.4
762.428	28009.48
762.765	27891.51
763.102	28044.5
763.438	27830.5
763.775	27752.31
764.112	27770.61
764.449	27792.98
764.785	27542.6
765.122	27429.38
765.458	27457.4
765.795	27347.8
766.131	27234.58
766.467	27089.05
766.804	27071.42
767.14	26950.52
767.476	26904.42
767.812	26859.45
768.148	26842.27
768.485	26669.17
768.821	26571.77
769.157	26554.37
769.492	26428.05
769.828	26505.56
770.164	26199.81
770.5	26119.13
770.836	26192.8
771.171	26054.5
771.507	25915.29
771.842	25823.54
772.178	25675.3
772.513	25726.82
772.849	25582.42
773.184	25623.78
773.519	25503.1
773.855	25349.43
774.19	25280.06
774.525	25159.38
774.86	25172.94
775.195	25169.55
775.53	25019.27
775.865	24888.2
776.2	24689.34
776.535	24555.78
776.87	24677.13
777.205	24554.65
777.539	24320.08
777.874	24387.42
778.209	24298.16
778.543	24107.21
778.878	24059.97
779.212	24038.28
779.547	23856.14
779.881	23862.92
780.215	23814.33
780.55	23857.04
780.884	23531.63
781.218	23505.64
781.552	23568.91
781.886	23323.5
782.22	23284.18
782.554	23227.68
782.888	22987.01
783.222	22968.03
783.556	22880.57
783.889	22841.7
784.223	22652.1
784.557	22669.73
784.89	22589.5
785.224	22587.02
785.557	22433.58
785.891	22325.33
786.224	22142.51
786.558	22380.02
786.891	22098.22
787.224	21911.78
787.557	21896.64
787.891	21867.04
788.224	21839.92
788.557	21801.5
788.89	21788.17
789.223	21705.46
789.556	21510.44
789.888	21413.72
790.221	21365.58
790.554	21124.68
790.887	21161.52
791.219	21126.04
791.552	21006.04
791.884	20965.14
792.217	20968.53
792.549	20827.52
792.882	20738.71
793.214	20651.93
793.546	20610.35
793.879	20598.14
794.211	20411.48
794.543	20472.95
794.875	20367.64
795.207	20444.02
795.539	20300.98
795.871	20274.54
796.203	20093.3
796.535	19851.05
796.867	19877.03
797.198	19824.38
797.53	19958.39
797.862	19742.57
798.193	19740.99
798.525	19602.24
798.856	19752.07
799.188	19508.46
799.519	19333.09
799.85	19359.08
800.182	19319.31
800.513	19330.83
800.844	19122.03
801.175	19229.37
801.506	19141.23
801.837	19059.88
802.168	18944.18
802.499	18914.35
802.83	18907.34
803.161	18778.31
803.491	18840.22
803.822	18763.16
804.153	18588.25
804.483	18454.7
804.814	18478.43
805.145	18425.09
805.475	18452.66
805.805	18350.75
806.136	18329.96
806.466	18378.99
806.796	18258.32
807.126	18175.61
807.457	18090.64
807.787	18094.48
808.117	18023.75
808.447	17877.99
808.777	18012.45
809.107	17845.67
809.436	17921.83
809.766	17837.77
810.096	17790.99
810.426	17637.54
810.755	17646.13
811.085	17590.54
811.414	17649.97
811.744	17459.92
812.073	17460.83
812.403	17463.09
812.732	17355.29
813.061	17306.93
813.39	17199.36
813.719	17106.03
814.049	17276.2
814.378	17199.36
814.707	17067.16
815.036	17089.99
815.365	16942.87
815.693	16810.22
816.022	16921.41
816.351	16900.39
816.68	16682.09
817.008	16810.22
817.337	16496.33
817.665	16588.98
817.994	16546.05
818.322	16656.1
818.651	16492.94
818.979	16506.73
819.307	16552.83
819.636	16426.5
819.964	16318.03
820.292	16397.13
820.62	16414.3
820.948	16228.54
821.276	16351.25
821.604	16362.1
821.932	16348.54
822.259	16241.88
822.587	16236.23
822.915	16215.44
823.243	16229.67
823.57	16182.22
823.898	16163.01
824.225	16180.86
824.553	16156.45
824.88	16196.23
825.207	16224.93
825.535	16175.21
825.862	16257.02
826.189	16164.14
826.516	16149.45
826.843	16230.12
827.17	16190.13
827.497	16190.58
827.824	16207.07
828.151	16167.75
828.478	16120.97
828.805	16266.51
829.131	16163.46
829.458	16121.2
829.785	16135.89
830.111	16090.24
830.438	16158.26
830.764	16127.3
831.09	16183.12
831.417	16109.45
831.743	16140.63
832.069	16089.79
832.395	16037.81
832.722	16020.19
833.048	16035.55
833.374	16105.16
833.7	15919.62
834.026	15988.1
834.351	16053.18
834.677	15997.81
835.003	15919.17
835.329	15959.17
835.654	15845.95
835.98	15831.26
836.306	15862.9
836.631	15758.5
836.956	15841.43
837.282	15840.53
837.607	15770.93
837.932	15855.44
838.258	15774.32
838.583	15720.31
838.908	15607.54
839.233	15603.93
839.558	15615.23
839.883	15565.96
840.208	15481.22
840.533	15508.79
840.858	15480.99
841.182	15445.96
841.507	15503.36
841.832	15355.57
842.156	15365.29
842.481	15429.69
842.805	15248
843.13	15191.73
843.454	15237.16
843.778	15174.56
844.103	15171.39
844.427	15165.07
844.751	15031.29
845.075	15019.76
845.399	15023.15
845.723	14889.59
846.047	14917.84
846.371	14790.16
846.695	14762.82
847.019	14716.04
847.343	14683.72
847.666	14548.13
847.99	14534.8
848.313	14492.77
848.637	14349.04
848.96	14445.54
849.284	14303.17
849.607	14298.42
849.931	14156.51
850.254	13995.61
850.577	14022.27
850.9	13947.47
851.223	13944.99
851.546	13877.42
851.869	13783.18
852.192	13829.51
852.515	13633.13
852.838	13670.42
853.161	13696.18
853.483	13588.61
853.806	13523.98
854.129	13522.17
854.451	13453.93
854.774	13436.07
855.096	13373.25
855.419	13362.18
855.741	13356.75
856.063	13181.84
856.385	13176.42
856.708	13179.36
857.03	13112.69
857.352	13111.34
857.674	12998.57
857.996	12956.76
858.318	12916.76
858.64	12886.26
858.961	12867.27
859.283	12887.16
859.605	12789.08
859.926	12800.38
860.248	12740.95
860.57	12754.28
860.891	12705.25
861.212	12639.26
861.534	12632.48
861.855	12558.58
862.176	12545.02
862.498	12577.79
862.819	12538.7
863.14	12502.54
863.461	12557
863.782	12422.54
864.103	12401.98
864.424	12416.44
864.745	12378.02
865.065	12307.06
865.386	12242.66
865.707	12215.54
866.027	12307.06
866.348	12179.84
866.668	12237.46
866.989	12166.95
867.309	12140.97
867.63	12127.63
867.95	12126.96
868.27	12067.07
868.59	12046.05
868.91	12045.6
869.23	12074.53
869.55	11931.48
869.87	12045.83
870.19	11940.07
870.51	12013.29
870.83	11950.46
871.15	11852.61
871.469	11951.37
871.789	11902.78
872.109	11886.74
872.428	11772.61
872.748	11830.92
873.067	11830.24
873.386	11786.85
873.706	11803.8
874.025	11700.53
874.344	11779.17
874.663	11709.56
874.982	11679.96
875.301	11704.37
875.62	11571.49
875.939	11606.06
876.258	11629.34
876.577	11570.13
876.896	11591.38
877.214	11498.27
877.533	11534.65
877.852	11528.78
878.17	11556.57
878.489	11536.01
878.807	11452.62
879.125	11427.31
879.444	11445.84
879.762	11382.79
880.08	11394.09
880.398	11264.15
880.716	11323.59
881.034	11292.85
881.352	11380.08
881.67	11251.5
881.988	11290.37
882.306	11194.1
882.624	11175.57
882.941	11242.46
883.259	11076.81
883.577	11048.34
883.894	11134.89
884.212	11023.03
884.529	11094.67
884.846	11047.21
885.164	10915.91
885.481	10945.74
885.798	10969.92
886.115	10872.52
886.432	10888.12
886.75	10861.9
887.067	10861.45
887.383	10781.68
887.7	10840.89
888.017	10742.81
888.334	10773.77
888.651	10732.19
888.967	10663.94
889.284	10652.19
889.6	10581.46
889.917	10511.4
890.233	10548.69
890.55	10531.97
890.866	10434.12
891.182	10399.32
891.498	10406.32
891.815	10348.24
892.131	10369.94
892.447	10315.48
892.763	10271.86
893.079	10247
893.395	10201.13
893.71	10262.37
894.026	10174.01
894.342	10180.34
894.657	10012.21
894.973	10057.41
895.289	10063.73
895.604	10059.66
895.92	9964.3
896.235	9855.6
896.55	9910.52
896.865	9857.64
897.181	9837.98
897.496	9884.75
897.811	9758.43
898.126	9697.19
898.441	9704.19
898.756	9663.07
899.071	9623.74
899.386	9584.88
899.7	9526.57
900.015	9471.43
900.33	9434.37
900.644	9516.18
900.959	9517.76
901.273	9381.49
901.588	9318.89
901.902	9346.69
902.216	9245.9
902.531	9259.46
902.845	9278.44
903.159	9177.43
903.473	9117.09
903.787	9108.05
904.101	9057.88
904.415	9150.08
904.729	8988.96
905.042	8943.31
905.356	8959.13
905.67	8956.64
905.984	8949.64
906.297	8905.57
906.611	8843.65
906.924	8808.85
907.237	8785.8
907.551	8845.46
907.864	8676.2
908.177	8667.39
908.491	8672.58
908.804	8594.84
909.117	8486.6
909.43	8507.16
909.743	8434.17
910.056	8512.13
910.368	8378.13
910.681	8416.54
910.994	8380.61
911.307	8327.96
911.619	8261.29
911.932	8273.5
912.244	8252.71
912.557	8150.11
912.869	8144.91
913.181	8141.07
913.494	8129.55
913.806	8097.23
914.118	7992.15
914.43	7990.34
914.742	7972.49
915.054	7939.72
915.366	7887.07
915.678	7881.87
915.99	7875.54
916.302	7752.15
916.613	7775.88
916.925	7783.57
917.236	7758.26
917.548	7617.47
917.859	7640.97
918.171	7609.33
918.482	7556.23
918.794	7561.43
919.105	7538.6
919.416	7429.45
919.727	7449.56
920.038	7408.66
920.349	7403.01
920.66	7351.04
920.971	7305.39
921.282	7304.71
921.593	7238.72
921.903	7181.32
922.214	7166.63
922.525	7182.45
922.835	7098.16
923.146	7068.11
923.456	7034.21
923.767	6975.45
924.077	7010.71
924.387	6961.44
924.697	6928.9
925.008	6880.09
925.318	6814.1
925.628	6849.13
925.938	6802.35
926.248	6741.79
926.558	6653.2
926.867	6736.81
927.177	6717.38
927.487	6662.92
927.796	6626.08
928.106	6600.77
928.416	6603.03
928.725	6528.46
929.034	6551.51
929.344	6506.76
929.653	6495.24
929.962	6419.31
930.271	6416.6
930.581	6375.24
930.89	6336.15
931.199	6270.61
931.508	6324.85
931.817	6295.92
932.125	6233.1
932.434	6238.3
932.743	6187.45
933.051	6160.78
933.36	6133.89
933.669	6116.04
933.977	6085.31
934.286	6075.59
934.594	6050.5
934.902	5992.2
935.21	5923.73
935.519	6000.34
935.827	5952.43
936.135	5926.21
936.443	5849.15
936.751	5865.42
937.059	5832.43
937.367	5757.86
937.674	5807.8
937.982	5762.15
938.29	5711.76
938.597	5747.69
938.905	5683.96
939.213	5646.67
939.52	5606.67
939.827	5659.1
940.135	5603.51
940.442	5533
940.749	5546.56
941.056	5551.08
941.363	5473.8
941.67	5531.65
941.977	5509.5
942.284	5418.2
942.591	5378.43
942.898	5391.31
943.205	5310.86
943.511	5294.59
943.818	5329.85
944.125	5314.7
944.431	5283.29
944.738	5210.53
945.044	5236.51
945.35	5179.57
945.657	5152.45
945.963	5081.94
946.269	5093.69
946.575	5104.09
946.881	5026.58
947.187	5064.77
947.493	5015.96
947.799	5012.34
948.105	4983.41
948.41	4948.16
948.716	4912.46
949.022	4957.2
949.327	4867.71
949.633	4868.39
949.938	4845.34
950.244	4885.11
950.549	4811.67
950.854	4769.86
951.16	4780.93
951.465	4740.26
951.77	4687.83
952.075	4650.99
952.38	4706.13
952.685	4675.17
952.99	4610.99
953.294	4653.48
953.599	4565.12
953.904	4537.32
954.209	4548.17
954.513	4534.84
954.818	4547.72
955.122	4481.73
955.426	4464.11
955.731	4474.5
956.035	4451
956.339	4392.02
956.643	4404.22
956.948	4359.02
957.252	4329.19
957.556	4377.33
957.86	4346.37
958.163	4338.46
958.467	4251
958.771	4231.12
959.075	4268.63
959.378	4231.8
959.682	4208.97
959.985	4198.58
960.289	4180.5
960.592	4144.11
960.896	4119.26
961.199	4114.74
961.502	4126.04
961.805	4085.81
962.108	4042.2
962.411	4062.76
962.714	4061.4
963.017	4009.65
963.32	4001.52
963.623	3973.5
963.926	3997.68
964.228	3943.22
964.531	3958.36
964.833	3891.69
965.136	3855.53
965.438	3846.27
965.741	3851.01
966.043	3844.69
966.345	3862.54
966.648	3761.75
966.95	3808.53
967.252	3727.18
967.554	3742.54
967.856	3746.61
968.158	3709.78
968.46	3673.17
968.761	3711.81
969.063	3697.12
969.365	3612.15
969.666	3607.63
969.968	3600.17
970.269	3596.56
970.571	3616.44
970.872	3594.98
971.174	3515.66
971.475	3577.12
971.776	3526.28
972.077	3556.56
972.378	3480.63
972.679	3520.85
972.98	3450.8
973.281	3478.14
973.582	3419.61
973.883	3418.48
974.183	3419.84
974.484	3419.61
974.785	3353.85
975.085	3363.8
975.386	3345.04
975.686	3349.56
975.986	3328.77
976.287	3290.58
976.587	3259.39
976.887	3277.02
977.187	3283.35
977.487	3264.36
977.787	3240.64
978.087	3237.92
978.387	3190.01
978.687	3187.98
978.987	3177.59
979.286	3136.23
979.586	3131.26
979.885	3141.88
980.185	3121.77
980.484	3079.51
980.784	3091.94
981.083	3087.87
981.382	3073.86
981.682	3076.12
981.981	3014.2
982.28	3006.74
982.579	3015.78
982.878	3001.77
983.177	2983.69
983.475	2989.12
983.774	2935.56
984.073	2959.51
984.372	2941.21
984.67	2881.55
984.969	2888.78
985.267	2894.66
985.566	2870.7
985.864	2858.72
986.162	2833.19
986.461	2816.24
986.759	2824.37
987.057	2788.44
987.355	2776.69
987.653	2764.72
987.951	2752.74
988.249	2754.32
988.547	2722.68
988.844	2709.35
989.142	2732.85
989.44	2689.01
989.737	2682.91
990.035	2629.13
990.332	2656.92
990.63	2649.24
990.927	2635.45
991.224	2603.14
991.521	2594.55
991.819	2623.7
992.116	2563.14
992.413	2563.36
992.71	2561.33
993.006	2534.89
993.303	2537.83
993.6	2543.7
993.897	2530.37
994.193	2512.97
994.49	2512.07
994.787	2460.32
995.083	2459.19
995.379	2439.3
995.676	2443.59
995.972	2426.87
996.268	2421
996.565	2369.47
996.861	2387.78
997.157	2382.13
997.453	2369.25
997.749	2326.31
998.044	2307.33
998.34	2364.73
998.636	2302.58
998.932	2323.15
999.227	2313.2
999.523	2286.31
999.818	2283.6
1000.114	2263.03
1000.409	2212.87
1000.704	2235.01
1001	2216.03
1001.295	2202.02
1001.59	2211.51
1001.885	2209.25
1002.18	2164.05
1002.475	2198.18
1002.77	2125.86
1003.065	2124.73
1003.359	2147.1
1003.654	2143.26
1003.949	2123.6
1004.243	2083.15
1004.538	2071.63
1004.832	2038.41
1005.127	2060.78
1005.421	2037.95
1005.715	2003.61
1006.009	2011.74
1006.304	2025.07
1006.598	1995.92
1006.892	1978.97
1007.186	1954.57
1007.48	1961.57
1007.773	1936.71
1008.067	1927.22
1008.361	1906.88
1008.655	1930.39
1008.948	1945.08
1009.242	1897.62
1009.535	1898.75
1009.829	1890.16
1010.122	1859.65
1010.415	1811.75
1010.708	1845.64
1011.001	1847
1011.295	1816.72
1011.588	1800
1011.881	1790.5
1012.173	1820.11
1012.466	1785.53
1012.759	1793.22
1013.052	1780.79
1013.344	1773.78
1013.637	1730.62
1013.93	1739.21
1014.222	1705.08
1014.514	1717.29
1014.807	1692.2
1015.099	1705.31
1015.391	1678.87
1015.683	1681.58
1015.976	1626.67
1016.268	1657.17
1016.56	1633.9
1016.851	1625.54
1017.143	1647.23
1017.435	1616.27
1017.727	1575.14
1018.018	1607.23
1018.31	1571.98
1018.602	1571.3
1018.893	1569.72
1019.185	1541.24
1019.476	1550.74
1019.767	1537.63
1020.058	1532.43
1020.35	1524.52
1020.641	1483.85
1020.932	1503.96
1021.223	1480.23
1021.514	1458.31
1021.804	1447.24
1022.095	1446.56
1022.386	1447.69
1022.677	1418.31
1022.967	1400.91
1023.258	1393.68
1023.548	1383.06
1023.839	1424.64
1024.129	1392.32
1024.419	1371.53
1024.709	1354.58
1025	1343.51
1025.29	1340.57
1025.58	1344.64
1025.87	1327.69
1026.16	1303.96
1026.449	1305.54
1026.739	1303.06
1027.029	1314.81
1027.319	1267.81
1027.608	1280.01
1027.898	1270.74
1028.187	1262.61
1028.477	1240.46
1028.766	1211.54
1029.055	1242.95
1029.344	1234.81
1029.634	1230.07
1029.923	1211.31
1030.212	1231.87
1030.501	1181.03
1030.79	1166.79
1031.078	1169.28
1031.367	1182.84
1031.656	1157.3
1031.945	1156.17
1032.233	1166.11
1032.522	1133.12
1032.81	1144.65
1033.099	1140.58
1033.387	1113.69
1033.675	1129.28
1033.963	1092.89
1034.251	1125.66
1034.54	1094.02
1034.828	1091.77
1035.116	1086.57
1035.403	1074.14
1035.691	1083.63
1035.979	1053.57
1036.267	1041.37
1036.554	1066.46
1036.842	1018.55
1037.129	1023.52
1037.417	1016.29
1037.704	1001.6
1037.992	1011.54
1038.279	1026.91
1038.566	982.62
1038.853	982.62
1039.14	982.62
