Data from hue_320_FLMS001491_3.txt Node
Date: Mon Feb 06 15:46:36 GMT 2017
User: dcchb
Spectrometer: FLMS00149
Trigger mode: 0
Integration Time (sec): 2.000000E-2
Scans to average: 10
Electric dark correction enabled: true
Nonlinearity correction enabled: false
Boxcar width: 0
XAxis mode: Wavelengths
Number of Pixels in Spectrum: 2048
>>>>>Begin Spectral Data<<<<<
341.393	-26.34
341.776	-26.34
342.16	-26.34
342.543	-41.93
342.927	-74.93
343.31	-72.89
343.693	-72.67
344.077	-57.07
344.46	-68.6
344.843	-55.72
345.226	-49.39
345.61	-10.52
345.993	-15.49
346.376	15.24
346.759	12.3
347.142	19.31
347.525	23.6
347.908	66.99
348.291	62.47
348.674	92.75
349.057	109.7
349.44	126.2
349.823	144.5
350.206	174.11
350.588	191.28
350.971	192.18
351.354	225.63
351.737	248.91
352.119	249.36
352.502	259.53
352.884	271.73
353.267	293.42
353.65	285.97
354.032	309.7
354.414	299.07
354.797	301.79
355.179	296.59
355.562	338.85
355.944	330.49
356.326	338.85
356.709	345.85
357.091	356.47
357.473	337.27
357.855	329.36
358.238	362.58
358.62	356.25
359.002	331.62
359.384	353.54
359.766	329.36
360.148	342.24
360.53	338.62
360.912	348.79
361.294	316.93
361.676	324.61
362.057	340.88
362.439	319.86
362.821	347.21
363.203	350.15
363.584	330.71
363.966	324.84
364.348	309.7
364.729	326.42
365.111	307.44
365.493	305.63
365.874	315.12
366.256	319.19
366.637	323.25
367.019	297.72
367.4	303.59
367.781	323.93
368.163	315.12
368.544	306.98
368.925	335.23
369.306	315.34
369.688	300.43
370.069	311.73
370.45	314.67
370.831	317.38
371.212	297.72
371.593	308.34
371.974	302.69
372.355	305.63
372.736	317.38
373.117	306.53
373.498	322.8
373.879	313.99
374.26	311.28
374.641	318.06
375.021	315.34
375.402	329.13
375.783	335.01
376.163	334.1
376.544	330.94
376.925	332.29
377.305	341.56
377.686	324.61
378.066	325.97
378.447	337.04
378.827	351.73
379.208	310.15
379.588	334.33
379.968	352.41
380.349	353.54
380.729	336.36
381.109	343.37
381.489	329.58
381.87	329.36
382.25	325.06
382.63	320.09
383.01	338.17
383.39	327.55
383.77	334.55
384.15	355.34
384.53	344.95
384.91	346.53
385.29	372.29
385.67	338.17
386.049	351.95
386.429	339.3
386.809	354.21
387.189	347.43
387.568	372.74
387.948	365.51
388.328	333.65
388.707	353.31
389.087	346.76
389.466	342.46
389.846	356.02
390.225	371.16
390.605	379.75
390.984	355.12
391.363	355.34
391.743	395.12
392.122	370.03
392.501	366.42
392.881	377.49
393.26	383.82
393.639	383.82
394.018	384.04
394.397	396.25
394.776	376.81
395.155	390.15
395.534	381.33
395.913	401.67
396.292	385.85
396.671	379.75
397.05	392.18
397.429	390.6
397.808	375.68
398.186	398.51
398.565	389.47
398.944	396.92
399.323	402.12
399.701	411.16
400.08	415.68
400.458	407.09
400.837	408.68
401.215	400.77
401.594	433.99
401.972	418.62
402.351	429.01
402.729	429.01
403.107	439.86
403.486	422.69
403.864	424.72
404.242	430.14
404.62	421.33
404.999	456.58
405.377	450.48
405.755	439.41
406.133	454.55
406.511	443.7
406.889	444.83
407.267	421.56
407.645	468.11
408.023	468.56
408.401	460.2
408.779	464.95
409.156	468.79
409.534	468.56
409.912	497.71
410.29	495.23
410.667	496.36
411.045	499.75
411.422	511.95
411.8	510.59
412.178	509.92
412.555	523.93
412.933	528.22
413.31	559.63
413.687	551.27
414.065	551.27
414.442	554.66
414.819	567.09
415.197	560.76
415.574	573.42
415.951	588.78
416.328	602.12
416.705	589.01
417.082	610.48
417.46	588.11
417.837	607.54
418.214	629.23
418.591	643.7
418.967	615.68
419.344	651.38
419.721	659.29
420.098	648.67
420.475	661.78
420.852	677.14
421.228	662
421.605	701.78
421.982	691.61
422.358	704.04
422.735	713.07
423.111	705.84
423.488	733.41
423.864	723.24
424.241	741.55
424.617	717.37
424.994	752.17
425.37	746.07
425.746	737.48
426.123	756.01
426.499	770.7
426.875	796.24
427.251	768.21
427.627	798.95
428.003	802.34
428.379	816.12
428.756	828.33
429.132	824.48
429.507	842.11
429.883	832.62
430.259	863.13
430.635	872.17
431.011	863.58
431.387	874.2
431.763	896.57
432.138	899.06
432.514	920.07
432.89	901.77
433.265	952.62
433.641	943.12
434.016	935.22
434.392	956.91
434.767	973.63
435.143	978.38
435.518	1015.89
435.894	999.85
436.269	1015.21
436.644	1008.21
437.02	1034.87
437.395	1024.03
437.77	1034.2
438.145	1076.23
438.52	1068.09
438.895	1080.75
439.271	1089.79
439.646	1146.74
440.021	1113.52
440.395	1119.62
440.77	1116.91
441.145	1128.66
441.52	1139.5
441.895	1133.4
442.27	1129.79
442.645	1151.71
443.019	1178.37
443.394	1142.67
443.769	1175.21
444.143	1137.02
444.518	1173.4
444.892	1181.31
445.267	1204.59
445.641	1184.25
446.016	1167.98
446.39	1207.3
446.764	1194.64
447.139	1212.04
447.513	1209.33
447.887	1201.65
448.262	1225.38
448.636	1215.21
449.01	1234.64
449.384	1215.89
449.758	1228.77
450.132	1273.74
450.506	1263.34
450.88	1292.49
451.254	1273.29
451.628	1273.29
452.002	1290.69
452.376	1277.81
452.75	1302.89
453.123	1280.52
453.497	1317.58
453.871	1309.67
454.244	1312.61
454.618	1345.37
454.992	1358.93
455.365	1372.27
455.739	1403
456.112	1347.41
456.486	1356.9
456.859	1398.25
457.232	1415.88
457.606	1419.5
457.979	1391.02
458.352	1439.61
458.725	1452.04
459.099	1481.87
459.472	1468.31
459.845	1506.73
460.218	1493.17
460.591	1514.41
460.964	1491.59
461.337	1558.48
461.71	1542.43
462.083	1562.77
462.456	1575.88
462.829	1581.98
463.201	1611.58
463.574	1578.59
463.947	1620.85
464.32	1635.31
464.692	1654.07
465.065	1661.52
465.438	1710.34
465.81	1718.02
466.183	1705.59
466.555	1710.79
466.928	1734.52
467.3	1732.26
467.672	1760.96
468.045	1780.17
468.417	1782.42
468.789	1793.27
469.161	1818.36
469.534	1811.58
469.906	1868.75
470.278	1892.93
470.65	1868.98
471.022	1906.49
471.394	1937
471.766	1939.26
472.138	1958.69
472.51	1982.42
472.882	2007.5
473.253	2016.54
473.625	2047.28
473.997	2067.84
474.369	2080.04
474.74	2105.58
475.112	2140.16
475.484	2163.88
475.855	2194.62
476.227	2174.73
476.598	2233.94
476.97	2258.57
477.341	2300.15
477.713	2329.53
478.084	2349.64
478.455	2397.1
478.827	2389.87
479.198	2414.95
479.569	2472.35
479.94	2479.13
480.311	2508.96
480.682	2534.72
481.053	2563.87
481.424	2600.48
481.795	2637.77
482.166	2626.02
482.537	2673.93
482.908	2741.04
483.279	2723.42
483.65	2798.67
484.021	2797.54
484.391	2833.92
484.762	2851.32
485.133	2915.28
485.503	2885.9
485.874	2966.35
486.244	2956.41
486.615	3018.32
486.985	3038.66
487.356	3103.75
487.726	3081.15
488.097	3146.23
488.467	3152.33
488.837	3193.46
489.207	3241.14
489.578	3266.91
489.948	3282.95
490.318	3365.43
490.688	3332.89
491.058	3409.27
491.428	3426.9
491.798	3429.84
492.168	3496.73
492.538	3544.41
492.908	3557.97
493.278	3558.42
493.648	3554.13
494.017	3644.3
494.387	3628.7
494.757	3668.93
495.126	3681.58
495.496	3701.02
495.866	3752.99
496.235	3723.16
496.605	3787.12
496.974	3764.07
497.344	3790.06
497.713	3847.68
498.082	3873.67
498.452	3930.62
498.821	3883.16
499.19	3902.82
499.559	3885.87
499.928	3933.1
500.298	3967.9
500.667	3985.3
501.036	3998.19
501.405	4054.68
501.774	4087.68
502.143	4086.55
502.512	4051.07
502.88	4136.26
503.249	4161.8
503.618	4123.15
503.987	4100.56
504.356	4151.63
504.724	4147.33
505.093	4170.84
505.462	4208.12
505.83	4204.51
506.199	4203.83
506.567	4247.44
506.936	4275.69
507.304	4296.48
507.672	4303.49
508.041	4316.37
508.409	4340.55
508.777	4343.26
509.145	4397.05
509.514	4390.27
509.882	4428.91
510.25	4405.41
510.618	4439.98
510.986	4435.69
511.354	4467.33
511.722	4465.07
512.09	4509.58
512.458	4475.01
512.826	4512.52
513.193	4568.57
513.561	4561.11
513.929	4593.42
514.297	4623.48
514.664	4586.87
515.032	4602.01
515.4	4597.72
515.767	4661.9
516.135	4642.46
516.502	4623.71
516.869	4684.5
517.237	4728.11
517.604	4657.83
517.972	4748.45
518.339	4757.04
518.706	4773.98
519.073	4764.04
519.44	4788
519.808	4779.18
520.175	4733.99
520.542	4834.55
520.909	4815.11
521.276	4872.29
521.643	4829.8
522.009	4899.18
522.376	4917.94
522.743	4897.37
523.11	4964.71
523.477	4987.76
523.843	5042.9
524.21	5072.51
524.577	5068.89
524.943	5107.08
525.31	5122.22
525.676	5109.12
526.043	5152.51
526.409	5152.73
526.776	5224.14
527.142	5252.39
527.508	5250.58
527.874	5274.54
528.241	5294.42
528.607	5329.45
528.973	5337.81
529.339	5362.44
529.705	5405.61
530.071	5413.52
530.437	5431.59
530.803	5498.71
531.169	5489.9
531.535	5516.34
531.901	5562.21
532.267	5615.77
532.632	5600.4
532.998	5580.74
533.364	5588.43
533.73	5628.2
534.095	5719.72
534.461	5745.94
534.826	5741.42
535.192	5771.92
535.557	5809.66
535.923	5787.52
536.288	5815.31
536.653	5841.3
537.019	5885.37
537.384	5903.22
537.749	5919.04
538.114	5925.37
538.479	5888.98
538.845	5987.51
539.21	5998.81
539.575	6000.85
539.94	6018.02
540.305	6032.48
540.67	6061.18
541.034	6122.65
541.399	6172.59
541.764	6168.52
542.129	6192.03
542.494	6164.91
542.858	6230.44
543.223	6247.17
543.587	6272.7
543.952	6278.58
544.316	6351.34
544.681	6346.82
545.045	6348.41
545.41	6346.15
545.774	6446.71
546.138	6388.18
546.503	6435.64
546.867	6417.11
547.231	6473.6
547.595	6560.38
547.959	6561.28
548.324	6573.49
548.688	6617.33
549.052	6658.91
549.416	6641.05
549.779	6658.45
550.143	6684.22
550.507	6726.93
550.871	6693.48
551.235	6746.36
551.599	6771.9
551.962	6804.44
552.326	6825.68
552.689	6832.24
553.053	6866.36
553.417	6894.38
553.78	6923.08
554.143	6914.04
554.507	6938.9
554.87	6939.13
555.234	7027.48
555.597	6969.63
555.96	6999.46
556.323	7037.88
556.686	7050.99
557.05	7164.88
557.413	7116.3
557.776	7155.39
558.139	7150.42
558.502	7186.12
558.865	7182.28
559.228	7210.76
559.59	7222.51
559.953	7267.25
560.316	7353.58
560.679	7340.92
561.041	7332.11
561.404	7372.33
561.767	7404.88
562.129	7402.84
562.492	7497.75
562.854	7515.83
563.217	7477.19
563.579	7497.98
563.941	7576.85
564.304	7542.27
564.666	7615.94
565.028	7662.95
565.39	7696.62
565.753	7676.51
566.115	7683.74
566.477	7755.83
566.839	7746.79
567.201	7794.7
567.563	7811.87
567.925	7799.44
568.287	7843.73
568.648	7887.12
569.01	7898.2
569.372	8014.8
569.734	7981.81
570.095	8010.28
570.457	8120.56
570.819	8088.47
571.18	8063.16
571.542	8118.76
571.903	8179.54
572.265	8288.02
572.626	8316.94
572.987	8283.72
573.349	8374.57
573.71	8478.75
574.071	8489.14
574.432	8534.34
574.794	8605.07
575.155	8631.28
575.516	8573.21
575.877	8723.49
576.238	8830.6
576.599	8873.09
576.96	8950.82
577.32	9053.42
577.681	9089.58
578.042	9186.98
578.403	9303.58
578.763	9367.76
579.124	9444.6
579.485	9554.88
579.845	9698.37
580.206	9781.54
580.566	9841.2
580.927	10001.64
581.287	10149.44
581.648	10180.4
582.008	10432.82
582.368	10559.82
582.728	10769.53
583.089	10896.54
583.449	10996.65
583.809	11207.26
584.169	11409.29
584.529	11543.3
584.889	11803.4
585.249	12017.64
585.609	12106.22
585.969	12402.48
586.329	12540.33
586.688	12745.07
587.048	12997.5
587.408	13258.73
587.768	13484.04
588.127	13835.22
588.487	13978.04
588.846	14418.48
589.206	14545.48
589.565	14852.59
589.925	15166.03
590.284	15501.39
590.643	15793.58
591.003	16083.97
591.362	16364.87
591.721	16632.88
592.08	16937.96
592.44	17323.49
592.799	17524.84
593.158	17857.48
593.517	18169.56
593.876	18541.98
594.235	18711.02
594.593	19117.79
594.952	19341.06
595.311	19709.86
595.67	20149.4
596.029	20575.83
596.387	20853.34
596.746	21281.8
597.104	21424.17
597.463	21684.27
597.822	22213.07
598.18	22271.38
598.538	22652.84
598.897	23131.47
599.255	23298.02
599.613	23902.52
599.972	23977.32
600.33	24440.81
600.688	24526.01
601.046	25057.52
601.404	25394.46
601.762	25582.25
602.12	26013.43
602.478	26489.12
602.836	26547.42
603.194	26777.02
603.552	27118.48
603.91	27355.99
604.268	27711.23
604.625	28037.78
604.983	28323.2
605.341	28518.67
605.698	28773.58
606.056	29201.14
606.413	29364.52
606.771	29876.15
607.128	30085.64
607.485	30094.45
607.843	30449.47
608.2	30883.35
608.557	31162.22
608.914	31303.91
609.272	31717.46
609.629	31808.75
609.986	32146.37
610.343	32212.36
610.7	32608.51
611.057	32798.78
611.414	33163.07
611.771	33297.98
612.127	33473.34
612.484	33592.21
612.841	33945.65
613.198	33973.89
613.554	34286.88
613.911	34661.33
614.267	34621.56
614.624	34978.61
614.98	35113.98
615.337	35526.17
615.693	35429.22
616.05	35806.84
616.406	35952.6
616.762	35976.1
617.118	36194.4
617.475	36282.53
617.831	36516.43
618.187	36655.63
618.543	36844.78
618.899	37059.46
619.255	37297.65
619.611	37338.33
619.967	37554.37
620.323	37735.15
620.678	37735.83
621.034	37825.54
621.39	37794.59
621.746	37858.54
622.101	38504.62
622.457	38352.54
622.812	38446.55
623.168	38532.42
623.523	38636.15
623.879	38983.25
624.234	38870.94
624.589	38979.64
624.945	39123.59
625.3	39117.04
625.655	39251.95
626.01	39352.28
626.365	39523.35
626.72	39411.04
627.075	39618.49
627.43	39644.48
627.785	39604.26
628.14	39816.68
628.495	39828.66
628.85	39846.96
629.205	39845.83
629.559	40088.08
629.914	39951.59
630.269	40039.72
630.623	39892.16
630.978	39900.07
631.332	40137.8
631.687	40384.12
632.041	40315.65
632.396	40215.76
632.75	40067.29
633.104	40408.98
633.459	40155.43
633.813	40130.8
634.167	40284.01
634.521	40205.82
634.875	40400.62
635.229	40379.83
635.583	40160.85
635.937	40238.59
636.291	40216.44
636.645	40363.56
636.999	40175.31
637.352	40299.38
637.706	40222.77
638.06	40353.16
638.413	40261.64
638.767	40174.18
639.121	40331.92
639.474	40176.67
639.828	40220.06
640.181	40192.04
640.534	40141.19
640.888	40225.48
641.241	40087.63
641.594	40161.3
641.947	40217.35
642.301	40101.19
642.654	40168.76
643.007	40321.98
643.36	40168.08
643.713	40126.5
644.066	40341.64
644.419	39990.01
644.771	39830.69
645.124	39539.85
645.477	39410.59
645.83	39227.99
646.182	39147.54
646.535	38962.69
646.888	39133.31
647.24	38921.34
647.593	39239.29
647.945	39169.69
648.298	38914.33
648.65	38863.03
649.002	38811.06
649.355	39003.82
649.707	38851.73
650.059	38935.8
650.411	39508.21
650.763	39463.92
651.115	39948.2
651.467	39622.56
651.819	39767.64
652.171	39778.26
652.523	39721.09
652.875	39583.46
653.227	39545.05
653.578	39752.73
653.93	39720.86
654.282	39546.86
654.633	39513.18
654.985	39566.52
655.337	39699.62
655.688	39622.56
656.039	39660.98
656.391	39354.54
656.742	39419.18
657.094	39474.09
657.445	39566.74
657.796	39418.5
658.147	39503.92
658.498	39398.84
658.849	39394.09
659.2	39459.63
659.551	39304.15
659.902	39470.93
660.253	39418.5
660.604	39452.62
660.955	39297.82
661.306	39390.02
661.656	39294.21
662.007	39223.25
662.358	39316.81
662.708	39345.05
663.059	39269.8
663.409	39100.77
663.76	39261.21
664.11	39315.22
664.461	39334.88
664.811	39216.24
665.161	39197.26
665.511	39153.87
665.862	39421.66
666.212	39259.18
666.562	39398.16
666.912	39298.73
667.262	39229.8
667.612	39148.67
667.962	39352.96
668.312	39219.86
668.662	39230.03
669.011	39259.41
669.361	39185.51
669.711	39067.32
670.06	39081.33
670.41	39033.65
670.76	38868
671.109	39174.44
671.459	39149.8
671.808	39157.94
672.157	39082.69
672.507	38928.34
672.856	38886.53
673.205	39019.64
673.554	39081.56
673.904	38918.17
674.253	39075.68
674.602	39055.12
674.951	38352.31
675.3	38209.94
675.649	38803.37
675.998	38823.71
676.346	38817.38
676.695	38907.32
677.044	38597.73
677.393	38754.56
677.741	38872.52
678.09	38695.8
678.438	38542.59
678.787	38716.59
679.135	38629.82
679.484	38465.98
679.832	38656.48
680.181	38216.27
680.529	38457.84
680.877	38345.31
681.225	38306.21
681.573	38450.39
681.922	38293.56
682.27	38069.61
682.618	38215.82
682.966	38054.24
683.314	38135.82
683.661	38096.05
684.009	37920.23
684.357	37854.7
684.705	37829.39
685.053	37730.41
685.4	37759.33
685.748	37529.28
686.095	37530.19
686.443	37445.67
686.79	37329.06
687.138	37485.67
687.485	37530.19
687.832	37287.03
688.18	37413.58
688.527	37115.96
688.874	37273.47
689.221	37171.1
689.568	37101.95
689.915	36800.94
690.262	36880.71
690.609	36866.93
690.956	36572.24
691.303	36608.63
691.65	36502.19
691.997	36470.78
692.344	36254.29
692.69	36214.51
693.037	36337.9
693.383	35877.35
693.73	36021.98
694.077	35939.27
694.423	36036.89
694.769	35706.73
695.116	35680.74
695.462	35629.67
695.808	35490.24
696.155	35669.22
696.501	35369.34
696.847	35584.7
697.193	35116.24
697.539	35369.56
697.885	35055.9
698.231	34863.14
698.577	34917.37
698.923	34920.08
699.269	34609.13
699.614	34461.57
699.96	34504.73
700.306	34446.2
700.651	34357.84
700.997	34223.15
701.342	34172.99
701.688	34166.21
702.033	33982.71
702.379	33996.95
702.724	33956.49
703.069	33903.61
703.415	33616.62
703.76	33551.76
704.105	33608.93
704.45	33469.28
704.795	33237.64
705.14	33276.51
705.485	33215.72
705.83	33083.75
706.175	33142.73
706.52	32984.54
706.865	32835.62
707.209	32909.52
707.554	32706.36
707.899	32844.43
708.243	32590.43
708.588	32516.98
708.932	32468.4
709.277	32319.48
709.621	32381.39
709.966	32136.2
710.31	32229.99
710.654	31984.57
710.998	32067.96
711.342	32001.07
711.687	31954.29
712.031	31827.28
712.375	31754.97
712.719	31793.61
713.063	31787.06
713.407	31877.68
713.75	31573.73
714.094	31651.24
714.438	31598.59
714.782	31406.96
715.125	31330.35
715.469	31253.97
715.812	31136.68
716.156	31019.17
716.499	31168.77
716.843	31067.3
717.186	30902.11
717.53	31109.56
717.873	31051.26
718.216	30905.27
718.559	30775.11
718.902	30522.69
719.246	30767.43
719.589	30617.15
719.932	30477.04
720.275	30516.81
720.617	30423.03
720.96	30304.84
721.303	30364.05
721.646	30325.63
721.989	30160.66
722.331	30399.07
722.674	30122.02
723.016	30071.17
723.359	30048.35
723.701	30112.75
724.044	29939.65
724.386	29730.39
724.729	29867.56
725.071	29669.15
725.413	29784.17
725.755	29782.14
726.097	29643.84
726.439	29442.94
726.782	29437.74
727.124	29570.39
727.465	29428.25
727.807	29376.5
728.149	29278.88
728.491	29240.23
728.833	29310.74
729.175	29116.17
729.516	29140.35
729.858	29189.39
730.199	29144.19
730.541	29083.85
730.882	28898.55
731.224	29018.09
731.565	28824.43
731.906	28865.78
732.248	28876.18
732.589	28601.83
732.93	28706.01
733.271	28727.71
733.612	28659.46
733.953	28730.87
734.294	28464.66
734.635	28448.16
734.976	28572
735.317	28444.1
735.658	28388.73
735.999	28339.47
736.339	28282.29
736.68	28314.16
737.021	28299.69
737.361	28204.56
737.702	28277.55
738.042	28106.25
738.383	28141.73
738.723	28161.39
739.063	28008.63
739.404	28035.52
739.744	28009.98
740.084	28016.99
740.424	28012.47
740.764	27887.73
741.104	27805.47
741.444	27686.83
741.784	27723.89
742.124	27692.93
742.464	27667.62
742.804	27687.51
743.143	27593.5
743.483	27584.91
743.823	27455.87
744.162	27373.62
744.502	27476.21
744.841	27324.8
745.181	27361.41
745.52	27306.27
745.86	27294.07
746.199	27050.46
746.538	27139.5
746.877	27218.59
747.216	27210
747.556	27081.87
747.895	27046.85
748.234	26873.06
748.573	26960.52
748.911	26864.03
749.25	26885.72
749.589	26709.23
749.928	26738.83
750.267	26801.2
750.605	26663.58
750.944	26631.94
751.283	26548.1
751.621	26670.58
751.96	26390.82
752.298	26493.64
752.636	26441.21
752.975	26268.11
753.313	26248.22
753.651	26394.21
753.989	26110.82
754.327	26157.83
754.666	25979.75
755.004	26019.75
755.342	26032.18
755.679	25956.48
756.017	25838.97
756.355	25959.19
756.693	25763.26
757.031	25776.37
757.368	25607.79
757.706	25564.85
758.044	25421.13
758.381	25653.66
758.719	25399.88
759.056	25494.12
759.394	25356.27
759.731	25179.1
760.068	25173.67
760.405	25042.6
760.743	24984.53
761.08	24980.46
761.417	24832.67
761.754	24748.6
762.091	24697.08
762.428	24667.02
762.765	24483.3
763.102	24602.39
763.438	24588.15
763.775	24302.74
764.112	24479.91
764.449	24324.88
764.785	24192.91
765.122	24124.89
765.458	23993.82
765.795	23958.79
766.131	23963.08
766.467	23786.14
766.804	23734.84
767.14	23709.76
767.476	23666.6
767.812	23478.13
768.148	23497.79
768.485	23236.55
768.821	23321.97
769.157	23224.12
769.492	23146.38
769.828	23075.65
770.164	22902.32
770.5	22819.84
770.836	22801.76
771.171	22638.6
771.507	22647.41
771.842	22407.19
772.178	22570.13
772.513	22457.81
772.849	22390.47
773.184	22265.5
773.519	22281.32
773.855	22127.43
774.19	22034.77
774.525	22008.56
774.86	21896.92
775.195	21885.85
775.53	21819.86
775.865	21685.4
776.2	21380.78
776.535	21485.18
776.87	21420.1
777.205	21352.08
777.539	21240.44
777.874	21285.87
778.209	21004.07
778.543	21064.86
778.878	20915.26
779.212	20835.94
779.547	20720.46
779.881	20819.44
780.215	20583.74
780.55	20624.42
780.884	20523.85
781.218	20500.58
781.552	20419
781.886	20295.16
782.22	20120.93
782.554	20146.91
782.888	20056.07
783.222	19883.64
783.556	19829.63
783.889	19786.7
784.223	19736.3
784.557	19605.46
784.89	19657.44
785.224	19561.84
785.557	19431.23
785.891	19406.59
786.224	19366.6
786.558	19273.94
786.891	19139.71
787.224	19043.89
787.557	19008.19
787.891	19013.84
788.224	18982.42
788.557	19009.99
788.89	18851.58
789.223	18922.31
789.556	18710.34
789.888	18717.12
790.221	18618.14
790.554	18468.54
790.887	18463.12
791.219	18338.83
791.552	18346.96
791.884	18244.36
792.217	18101.09
792.549	18226.74
792.882	17998.72
793.214	17862
793.546	17970.93
793.879	17758.5
794.211	17754.66
794.543	17871.04
794.875	17794.21
795.207	17726.64
795.539	17576.81
795.871	17547.43
796.203	17470.15
796.535	17375.24
796.867	17407.32
797.198	17357.38
797.53	17274.45
797.862	17166.43
798.193	17184.96
798.525	17049.37
798.856	17112.64
799.188	16926.43
799.519	16869.03
799.85	16825.65
800.182	16771.64
800.513	16867.68
800.844	16642.15
801.175	16707.91
801.506	16687.57
801.837	16499.33
802.168	16544.52
802.499	16498.87
802.83	16345.66
803.161	16387.69
803.491	16336.84
803.822	16314.02
804.153	16203.29
804.483	16159.22
804.814	16036.06
805.145	16014.82
805.475	16041.71
805.805	16000.36
806.136	15988.61
806.466	15871.55
806.796	15904.09
807.126	15749.97
807.457	15644.89
807.787	15655.96
808.117	15600.82
808.447	15555.17
808.777	15541.39
809.107	15546.13
809.436	15439.24
809.766	15375.06
810.096	15364.44
810.426	15317.89
810.755	15320.83
811.085	15307.49
811.414	15268.17
811.744	15098.68
812.073	15145.69
812.403	15075.18
812.732	14932.36
813.061	15046.26
813.39	14991.12
813.719	14904.11
814.049	14920.16
814.378	14875.41
814.707	14822.31
815.036	14779.15
815.365	14698.24
815.693	14641.97
816.022	14660.05
816.351	14579.38
816.68	14580.51
817.008	14510.68
817.337	14406.73
817.665	14452.15
817.994	14410.34
818.322	14460.06
818.651	14315.88
818.979	14330.12
819.307	14371.92
819.636	14234.07
819.964	14149.11
820.292	14225.94
820.62	14233.62
820.948	14190.46
821.276	14223.68
821.604	14140.52
821.932	14201.99
822.259	14137.81
822.587	14209.67
822.915	14168.99
823.243	14171.48
823.57	14075.89
823.898	14122.44
824.225	13974.42
824.553	14046.06
824.88	14046.96
825.207	14083.57
825.535	14026.62
825.862	14069.79
826.189	13907.53
826.516	14026.17
826.843	14097.58
827.17	14121.31
827.497	14120.18
827.824	14079.05
828.151	14025.04
828.478	14059.16
828.805	14186.62
829.131	14013.74
829.458	14001.76
829.785	13962.9
830.111	13995.44
830.438	14131.7
830.764	13983.69
831.09	14039.28
831.417	14007.64
831.743	14065.49
832.069	13994.08
832.395	13926.06
832.722	13929.9
833.048	13923.35
833.374	13909.79
833.7	13833.18
834.026	13917.02
834.351	13809.23
834.677	13938.94
835.003	13962.44
835.329	13850.81
835.654	13819.17
835.98	13816.01
836.306	13798.38
836.631	13689.46
836.956	13760.87
837.282	13795.89
837.607	13726.74
837.932	13630.25
838.258	13553.87
838.583	13600.19
838.908	13598.16
839.233	13579.63
839.558	13556.35
839.883	13532.62
840.208	13460.99
840.533	13498.73
840.858	13569.69
841.182	13505.05
841.507	13390.48
841.832	13354.1
842.156	13340.77
842.481	13332.4
842.805	13298.51
843.13	13359.97
843.454	13238.85
843.778	13214.44
844.103	13138.51
844.427	13122.01
844.751	13154.1
845.075	13073.43
845.399	13114.33
845.723	13011.51
846.047	13023.71
846.371	12910.72
846.695	12856.94
847.019	12874.11
847.343	12764.51
847.666	12678.64
847.99	12587.56
848.313	12596.83
848.637	12565.64
848.96	12493.1
849.284	12526.32
849.607	12432.77
849.931	12353.45
850.254	12267.35
850.577	12170.85
850.9	12127.01
851.223	12170.4
851.546	12089.72
851.869	12002.5
852.192	12042.95
852.515	11943.97
852.838	11853.8
853.161	11935.83
853.483	11767.47
853.806	11826.91
854.129	11816.96
854.451	11701.03
854.774	11588.49
855.096	11609.96
855.419	11571.09
855.741	11554.37
856.063	11453.13
856.385	11457.65
856.708	11445.45
857.03	11381.72
857.352	11345.11
857.674	11283.42
857.996	11355.96
858.318	11290.65
858.64	11264.44
858.961	11185.34
859.283	11109.19
859.605	11131.11
859.926	11169.3
860.248	11108.73
860.57	11090.43
860.891	11061.95
861.212	11054.95
861.534	11000.71
861.855	10935.4
862.176	11051.79
862.498	10972.01
862.819	10940.38
863.14	10891.79
863.461	10832.13
863.782	10828.97
864.103	10847.5
864.424	10753.94
864.745	10837.78
865.065	10670.78
865.386	10713.04
865.707	10714.62
866.027	10709.42
866.348	10717.56
866.668	10677.11
866.989	10605.47
867.309	10567.73
867.63	10621.97
867.95	10531.35
868.27	10478.24
868.59	10552.59
868.91	10534.29
869.23	10520.27
869.55	10453.16
869.87	10494.96
870.19	10427.17
870.51	10436.43
870.83	10423.33
871.15	10351.69
871.469	10351.69
871.789	10370.45
872.109	10386.94
872.428	10228.08
872.748	10313.05
873.067	10323.44
873.386	10283.9
873.706	10231.47
874.025	10195.31
874.344	10228.08
874.663	10214.29
874.982	10170
875.301	10210.23
875.62	10124.13
875.939	10125.03
876.258	10149.21
876.577	10128.87
876.896	10066.5
877.214	10036.22
877.533	10068.76
877.852	10048.65
878.17	10037.58
878.489	10028.31
878.807	10057.01
879.125	10025.82
879.444	9903.57
879.762	9990.12
880.08	9865.15
880.398	9900.4
880.716	9798.71
881.034	9768.88
881.352	9855.66
881.67	9821.99
881.988	9810.24
882.306	9768.88
882.624	9728.66
882.941	9719.62
883.259	9708.09
883.577	9639.62
883.894	9618.83
884.212	9619.05
884.529	9656.12
884.846	9589.9
885.164	9580.19
885.481	9633.29
885.798	9613.41
886.115	9436.01
886.432	9464.93
886.75	9442.79
887.067	9430.36
887.383	9432.39
887.7	9415.9
888.017	9363.69
888.334	9409.79
888.651	9352.62
888.967	9298.39
889.284	9224.04
889.6	9245.51
889.917	9238.73
890.233	9239.63
890.55	9141.78
890.866	9183.36
891.182	9111.05
891.498	9145.17
891.815	9068.11
892.131	9049.58
892.447	8995.57
892.763	8981.33
893.079	8982.24
893.395	8936.81
893.71	8892.97
894.026	8846.87
894.342	8836.7
894.657	8832.41
894.973	8777.72
895.289	8772.98
895.604	8825.4
895.92	8674.67
896.235	8635.13
896.55	8671.74
896.865	8623.37
897.181	8560.78
897.496	8602.81
897.811	8514.68
898.126	8517.39
898.441	8464.96
898.756	8465.19
899.071	8451.63
899.386	8418.63
899.7	8329.6
900.015	8318.75
900.33	8294.34
900.644	8248.47
900.959	8291.41
901.273	8250.28
901.588	8183.16
901.902	8154.23
902.216	8144.74
902.531	8082.6
902.845	8098.64
903.159	8079.66
903.473	8004.63
903.787	7908.59
904.101	7915.82
904.415	7946.56
904.729	7897.29
905.042	7845.99
905.356	7827.46
905.67	7778.43
905.984	7787.46
906.297	7774.81
906.611	7726.22
906.924	7688.71
907.237	7652.1
907.551	7611.65
907.864	7637.86
908.177	7610.75
908.491	7542.5
908.804	7523.52
909.117	7484.2
909.43	7393.35
909.743	7385.89
910.056	7443.74
910.368	7342.28
910.681	7306.12
910.994	7304.77
911.307	7256.86
911.619	7232.68
911.932	7249.17
912.244	7143.41
912.557	7207.82
912.869	7120.82
913.181	7101.83
913.494	7070.65
913.806	7033.13
914.118	7017.32
914.43	6929.63
914.742	6988.84
915.054	6947.71
915.366	6883.31
915.678	6843.08
915.99	6865.23
916.302	6764.89
916.613	6735.29
916.925	6713.14
917.236	6761.73
917.548	6654.39
917.859	6685.12
918.171	6628.4
918.482	6570.32
918.794	6569.19
919.105	6544.33
919.416	6524.45
919.727	6499.14
920.038	6456.2
920.349	6436.09
920.66	6427.27
920.971	6366.26
921.282	6369.87
921.593	6352.7
921.903	6275.41
922.214	6216.43
922.525	6265.7
922.835	6222.76
923.146	6135.76
923.456	6179.82
923.767	6118.36
924.077	6194.06
924.387	6119.94
924.697	6082.42
925.008	6025.93
925.318	6090.56
925.628	6005.82
925.938	6003.33
926.248	5998.59
926.558	5902.09
926.867	5918.81
927.177	5896.44
927.487	5874.52
927.796	5818.48
928.106	5799.27
928.416	5780.51
928.725	5770.12
929.034	5667.75
929.344	5731.93
929.653	5678.59
929.962	5639.27
930.271	5572.16
930.581	5587.07
930.89	5577.13
931.199	5601.76
931.508	5562.44
931.817	5538.71
932.125	5475.89
932.434	5492.38
932.743	5424.81
933.051	5368.55
933.36	5381.65
933.669	5380.97
933.977	5323.12
934.286	5310.02
934.594	5317.25
934.902	5272.95
935.21	5238.15
935.519	5206.06
935.827	5207.42
936.135	5195.89
936.443	5113.64
936.751	5111.15
937.059	5141.66
937.367	5086.52
937.674	5047.2
937.982	5101.43
938.29	5056.69
938.597	5051.04
938.905	4994.32
939.213	4982.79
939.52	4933.08
939.827	4949.57
940.135	4916.81
940.442	4868.9
940.749	4892.17
941.056	4876.35
941.363	4802.01
941.67	4790.71
941.977	4741.9
942.284	4781.67
942.591	4758.62
942.898	4691.95
943.205	4704.61
943.511	4708
943.818	4718.84
944.125	4607.21
944.431	4627.32
944.738	4638.85
945.044	4583.26
945.35	4567.66
945.657	4571.5
945.963	4510.71
946.269	4503.71
946.575	4461.68
946.881	4478.85
947.187	4473.43
947.493	4425.52
947.799	4421.68
948.105	4392.53
948.41	4357.95
948.716	4404.5
949.022	4358.63
949.327	4291.74
949.633	4311.85
949.938	4277.95
950.244	4245.18
950.549	4229.14
950.854	4279.76
951.16	4235.02
951.465	4164.28
951.77	4112.31
952.075	4170.16
952.38	4138.52
952.685	4153.21
952.99	4109.82
953.294	4080.22
953.599	4097.17
953.904	4019.2
954.209	4052.2
954.513	4008.58
954.818	3993.89
955.122	3985.98
955.426	3945.53
955.731	3914.35
956.035	3931.29
956.339	3961.8
956.643	3881.58
956.948	3865.99
957.252	3831.64
957.556	3869.6
957.86	3824.18
958.163	3798.42
958.467	3809.26
958.771	3818.76
959.075	3727.23
959.378	3746.44
959.682	3741.92
959.985	3732.2
960.289	3686.56
960.592	3702.15
960.896	3638.2
961.199	3656.27
961.502	3649.95
961.805	3651.53
962.108	3548.93
962.411	3610.17
962.714	3550.06
963.017	3582.6
963.32	3577.86
963.623	3489.27
963.926	3480.46
964.228	3507.8
964.531	3461.25
964.833	3468.93
965.136	3429.16
965.438	3446.56
965.741	3451.76
966.043	3381.03
966.345	3400.91
966.648	3392.33
966.95	3369.95
967.252	3327.24
967.554	3324.08
967.856	3300.13
968.158	3337.41
968.46	3293.12
968.761	3278.66
969.063	3266.23
969.365	3301.26
969.666	3248.38
969.968	3210.41
970.269	3210.41
970.571	3202.95
970.872	3178.55
971.174	3145.1
971.475	3130.41
971.776	3150.07
972.077	3121.37
972.378	3135.61
972.679	3122.73
972.98	3066.91
973.281	3035.5
973.582	3045.89
973.883	3066.91
974.183	3046.57
974.484	3004.77
974.785	2985.78
975.085	2967.25
975.386	2983.07
975.686	2960.92
975.986	2950.76
976.287	2959.8
976.587	2899.46
976.887	2896.07
977.187	2879.12
977.487	2900.81
977.787	2831.66
978.087	2871.44
978.387	2830.98
978.687	2833.47
978.987	2852
979.286	2840.25
979.586	2814.04
979.885	2763.87
980.185	2770.42
980.484	2758.67
980.784	2747.6
981.083	2751.44
981.382	2730.87
981.682	2685.23
981.981	2718.45
982.28	2678.67
982.579	2671.22
982.878	2664.44
983.177	2619.92
983.475	2624.89
983.774	2664.44
984.073	2610.43
984.372	2625.11
984.67	2590.99
984.969	2579.01
985.267	2573.82
985.566	2543.99
985.864	2537.89
986.162	2580.14
986.461	2535.4
986.759	2522.07
987.057	2498.56
987.355	2471.22
987.653	2479.81
987.951	2499.92
988.249	2459.47
988.547	2478
988.844	2463.76
989.142	2408.85
989.44	2422.18
989.737	2408.4
990.035	2386.93
990.332	2398
990.63	2348.29
990.927	2372.92
991.224	2355.74
991.521	2356.65
991.819	2367.49
992.116	2298.57
992.413	2333.82
992.71	2308.06
993.006	2282.3
993.303	2275.07
993.6	2279.36
993.897	2276.42
994.193	2274.39
994.49	2231.68
994.787	2200.04
995.083	2194.62
995.379	2195.97
995.676	2190.55
995.972	2196.2
996.268	2179.93
996.565	2159.14
996.861	2161.4
997.157	2149.87
997.453	2100.61
997.749	2107.16
998.044	2091.34
998.34	2100.16
998.636	2084.11
998.932	2105.81
999.227	2053.38
999.523	2080.72
999.818	2066.71
1000.114	2014.06
1000.409	2006.6
1000.704	1991.01
1001	2041.18
1001.295	1958.69
1001.59	1965.24
1001.885	1985.81
1002.18	1969.99
1002.475	1919.14
1002.77	1957.56
1003.065	1935.42
1003.359	1923.44
1003.654	1920.05
1003.949	1929.54
1004.243	1902.2
1004.538	1876.66
1004.832	1876.89
1005.127	1878.69
1005.421	1859.71
1005.715	1857.68
1006.009	1876.21
1006.304	1818.81
1006.598	1804.57
1006.892	1803.22
1007.186	1788.07
1007.48	1797.34
1007.773	1783.33
1008.067	1765.25
1008.361	1739.26
1008.655	1739.49
1008.948	1732.71
1009.242	1716.21
1009.535	1698.59
1009.829	1693.61
1010.122	1684.35
1010.415	1650.45
1010.708	1653.16
1011.001	1677.12
1011.295	1694.52
1011.588	1646.84
1011.881	1628.53
1012.173	1617.68
1012.466	1605.03
1012.759	1633.5
1013.052	1613.62
1013.344	1580.17
1013.637	1581.3
1013.93	1567.29
1014.222	1579.49
1014.514	1556.22
1014.807	1551.24
1015.099	1519.83
1015.391	1531.13
1015.683	1520.28
1015.976	1510.57
1016.268	1508.31
1016.56	1483.45
1016.851	1489.33
1017.143	1476.67
1017.435	1476.44
1017.727	1467.18
1018.018	1441.19
1018.31	1457.24
1018.602	1429.89
1018.893	1419.27
1019.185	1414.52
1019.476	1428.54
1019.767	1401.87
1020.058	1370.46
1020.35	1365.94
1020.641	1362.77
1020.932	1363.23
1021.223	1370.46
1021.514	1359.84
1021.804	1342.44
1022.095	1343.34
1022.386	1306.73
1022.677	1300.4
1022.967	1288.65
1023.258	1298.37
1023.548	1303.79
1023.839	1261.08
1024.129	1252.27
1024.419	1257.01
1024.709	1276.9
1025	1269.22
1025.29	1241.65
1025.58	1234.42
1025.87	1203.91
1026.16	1225.83
1026.449	1214.08
1026.739	1202.33
1027.029	1204.14
1027.319	1189.9
1027.608	1153.74
1027.898	1172.5
1028.187	1140.63
1028.477	1126.17
1028.766	1161.65
1029.055	1146.06
1029.344	1120.3
1029.634	1145.83
1029.923	1114.65
1030.212	1094.53
1030.501	1081.88
1030.79	1107.87
1031.078	1083.23
1031.367	1110.13
1031.656	1072.84
1031.945	1068.77
1032.233	1061.31
1032.522	1044.82
1032.81	1052.05
1033.099	1055.89
1033.387	1022.67
1033.675	1021.09
1033.963	1022.44
1034.251	999.17
1034.54	1000.98
1034.828	1023.12
1035.116	1004.59
1035.403	989.23
1035.691	963.92
1035.979	986.06
1036.267	977.7
1036.554	996.91
1036.842	978.6
1037.129	956.68
1037.417	937.7
1037.704	933.86
1037.992	918.49
1038.279	931.37
1038.566	933.63
1038.853	933.63
1039.14	933.63
