Data from hue_70_FLMS001491_33.txt Node
Date: Mon Feb 06 15:20:45 GMT 2017
User: dcchb
Spectrometer: FLMS00149
Trigger mode: 0
Integration Time (sec): 2.000000E-2
Scans to average: 10
Electric dark correction enabled: true
Nonlinearity correction enabled: false
Boxcar width: 0
XAxis mode: Wavelengths
Number of Pixels in Spectrum: 2048
>>>>>Begin Spectral Data<<<<<
341.393	-0.97
341.776	-0.97
342.16	-0.97
342.543	-48.43
342.927	-64.7
343.31	-59.96
343.693	-74.87
344.077	-66.96
344.46	-66.74
344.843	-67.19
345.226	-36.68
345.61	-16.12
345.993	-12.73
346.376	-8.43
346.759	-13.63
347.142	23.66
347.525	40.83
347.908	53.26
348.291	74.5
348.674	111.34
349.057	119.7
349.44	123.77
349.823	142.98
350.206	159.47
350.588	205.8
350.971	216.19
351.354	215.06
351.737	232.92
352.119	268.85
352.502	258.68
352.884	265.01
353.267	286.25
353.65	282.18
354.032	283.09
354.414	321.73
354.797	330.77
355.179	322.63
355.562	313.14
355.944	336.87
356.326	331.45
356.709	341.62
357.091	315.63
357.473	360.37
357.855	345.91
358.238	332.8
358.62	335.97
359.002	330.77
359.384	340.94
359.766	353.59
360.148	341.39
360.53	323.54
360.912	354.72
361.294	340.49
361.676	344.78
362.057	344.55
362.439	322.41
362.821	316.31
363.203	338.45
363.584	333.03
363.966	329.64
364.348	312.69
364.729	325.34
365.111	323.76
365.493	317.44
365.874	307.49
366.256	316.76
366.637	322.41
367.019	325.12
367.4	320.82
367.781	320.15
368.163	317.44
368.544	307.72
368.925	319.47
369.306	327.15
369.688	310.2
370.069	296.19
370.45	306.81
370.831	315.18
371.212	301.62
371.593	317.21
371.974	298.23
372.355	304.1
372.736	325.57
373.117	321.5
373.498	313.37
373.879	329.86
374.26	301.39
374.641	311.33
375.021	315.18
375.402	303.88
375.783	316.98
376.163	316.98
376.544	325.12
376.925	321.5
377.305	314.05
377.686	320.82
378.066	333.03
378.447	307.72
378.827	321.05
379.208	341.39
379.588	330.99
379.968	329.64
380.349	331.67
380.729	343.42
381.109	322.18
381.489	333.03
381.87	346.13
382.25	330.77
382.63	348.39
383.01	349.75
383.39	347.49
383.77	336.64
384.15	330.32
384.53	337.77
384.91	366.7
385.29	340.49
385.67	339.81
386.049	356.98
386.429	342.07
386.809	342.29
387.189	356.53
387.568	350.65
387.948	330.77
388.328	345.46
388.707	351.56
389.087	363.76
389.466	352.91
389.846	345.01
390.225	341.84
390.605	362.18
390.984	353.14
391.363	361.73
391.743	350.43
392.122	340.49
392.501	382.97
392.881	361.95
393.26	363.76
393.639	364.67
394.018	360.6
394.397	360.6
394.776	353.37
395.155	386.36
395.534	370.77
395.913	371.67
396.292	384.55
396.671	355.63
397.05	380.26
397.429	362.63
397.808	362.86
398.186	385
398.565	385.46
398.944	349.75
399.323	363.54
399.701	384.33
400.08	376.19
400.458	383.87
400.837	387.49
401.215	373.7
401.594	368.73
401.972	380.03
402.351	384.78
402.729	383.42
403.107	392.01
403.486	382.97
403.864	390.43
404.242	369.64
404.62	392.91
404.999	398.11
405.377	395.17
405.755	409.86
406.133	425.45
406.511	408.96
406.889	403.53
407.267	413.25
407.645	423.42
408.023	416.19
408.401	418
408.779	434.95
409.156	418.22
409.534	420.71
409.912	431.1
410.29	423.87
410.667	428.39
411.045	423.42
411.422	447.83
411.8	435.4
412.178	455.06
412.555	448.28
412.933	448.05
413.31	439.92
413.687	453.7
414.065	445.57
414.442	454.61
414.819	448.73
415.197	445.79
415.574	471.56
415.951	477.43
416.328	475.17
416.705	456.41
417.082	467.26
417.46	475.4
417.837	496.41
418.214	502.06
418.591	498.9
418.967	486.02
419.344	473.36
419.721	489.63
420.098	488.05
420.475	501.84
420.852	494.15
421.228	474.72
421.605	493.48
421.982	508.16
422.358	501.16
422.735	503.42
423.111	493.25
423.488	501.61
423.864	513.81
424.241	514.72
424.617	519.01
424.994	532.8
425.37	531.44
425.746	531.89
426.123	534.15
426.499	525.79
426.875	515.85
427.251	532.57
427.627	540.03
428.003	558.56
428.379	548.16
428.756	574.15
429.132	566.92
429.507	585.22
429.883	573.02
430.259	575.06
430.635	581.61
431.011	581.38
431.387	582.74
431.763	566.47
432.138	603.53
432.514	592.91
432.89	619.12
433.265	612.57
433.641	616.18
434.016	631.78
434.392	632.91
434.767	643.08
435.143	634.49
435.518	651.66
435.894	634.94
436.269	652.57
436.644	664.32
437.02	652.12
437.395	645.79
437.77	660.48
438.145	666.13
438.52	671.78
438.895	663.64
439.271	678.78
439.646	673.58
440.021	688.72
440.395	676.3
440.77	685.11
441.145	685.56
441.52	698.89
441.895	710.42
442.27	702.96
442.645	727.82
443.019	715.39
443.394	740.47
443.769	728.05
444.143	727.37
444.518	732.34
444.892	744.54
445.267	719.23
445.641	721.94
446.016	737.99
446.39	740.47
446.764	761.94
447.139	740.02
447.513	764.43
447.887	748.16
448.262	765.56
448.636	755.16
449.01	780.47
449.384	792
449.758	780.25
450.132	792
450.506	796.74
450.88	793.81
451.254	790.64
451.628	806.01
452.002	835.61
452.376	827.93
452.75	839.91
453.123	836.52
453.497	840.36
453.871	847.59
454.244	869.51
454.618	866.12
454.992	880.81
455.365	875.84
455.739	886.46
456.112	903.41
456.486	885.33
456.859	924.2
457.232	911.54
457.606	927.36
457.979	957.64
458.352	939.57
458.725	992.45
459.099	977.3
459.472	970.98
459.845	978.89
460.218	1008.26
460.591	1020.47
460.964	1026.57
461.337	1031.09
461.71	1042.16
462.083	1063.63
462.456	1103.4
462.829	1073.12
463.201	1091.43
463.574	1097.08
463.947	1091.65
464.32	1139.56
464.692	1142.27
465.065	1173.23
465.438	1190.63
465.81	1178.43
466.183	1191.99
466.555	1202.38
466.928	1272.89
467.3	1261.82
467.672	1225.66
468.045	1289.16
468.417	1316.05
468.789	1349.5
469.161	1332.32
469.534	1376.62
469.906	1407.12
470.278	1414.81
470.65	1439.67
471.022	1473.79
471.394	1505.43
471.766	1526.44
472.138	1528.25
472.51	1563.28
472.882	1644.41
473.253	1656.38
473.625	1665.65
473.997	1747.91
474.369	1776.15
474.74	1799.88
475.112	1827.9
475.484	1851.63
475.855	1907.22
476.227	1918.3
476.598	1977.5
476.97	2073.77
477.341	2107.9
477.713	2144.73
478.084	2188.8
478.455	2266.08
478.827	2322.13
479.198	2408.45
479.569	2432.86
479.94	2520.32
480.311	2575.23
480.682	2623.36
481.053	2750.37
481.424	2842.34
481.795	2874.88
482.166	2974.54
482.537	3036.46
482.908	3147.64
483.279	3203.23
483.65	3320.75
484.021	3430.8
484.391	3496.56
484.762	3592.6
485.133	3713.28
485.503	3805.93
485.874	3894.29
486.244	3995.76
486.615	4125.24
486.985	4214.51
487.356	4325.47
487.726	4421.28
488.097	4626.25
488.467	4696.53
488.837	4816.07
489.207	4984.43
489.578	5070.76
489.948	5217.42
490.318	5349.17
490.688	5431.2
491.058	5586.68
491.428	5752.77
491.798	5905.54
492.168	6051.75
492.538	6159.09
492.908	6262.82
493.278	6419.42
493.648	6533.54
494.017	6618.06
494.387	6791.84
494.757	6933.08
495.126	7107.99
495.496	7181.66
495.866	7341.43
496.235	7551.14
496.605	7619.84
496.974	7808.54
497.344	7881.3
497.713	8059.6
498.082	8183.44
498.452	8351.12
498.821	8441.29
499.19	8545.47
499.559	8701.4
499.928	8807.38
500.298	8917.89
500.667	9084.66
501.036	9214.6
501.405	9332.11
501.774	9412.11
502.143	9570.53
502.512	9702.95
502.88	9835.83
503.249	9889.16
503.618	10012.77
503.987	10112.21
504.356	10248.7
504.724	10379.77
505.093	10519.43
505.462	10545.64
505.83	10746.09
506.199	10835.35
506.567	10931.62
506.936	11049.58
507.304	11217.49
507.672	11320.08
508.041	11403.25
508.409	11551.94
508.777	11629.68
509.145	11744.93
509.514	11820.18
509.882	12014.08
510.25	12005.94
510.618	12192.15
510.986	12201.19
511.354	12412.94
511.722	12555.53
512.09	12739.03
512.458	12665.81
512.826	12844.56
513.193	12853.15
513.561	12968.85
513.929	13082.07
514.297	13196.19
514.664	13376.07
515.032	13337.88
515.4	13522.74
515.767	13600.93
516.135	13667.37
516.502	13669.4
516.869	13905.78
517.237	13947.36
517.604	13973.35
517.972	14162.27
518.339	14180.35
518.706	14225.32
519.073	14308.03
519.44	14524.29
519.808	14533.11
520.175	14618.08
520.542	14778.3
520.909	14762.93
521.276	14926.54
521.643	15016.03
522.009	15107.78
522.376	15216.48
522.743	15349.81
523.11	15485.85
523.477	15565.17
523.843	15655.56
524.21	15762
524.577	15864.37
524.943	15935.33
525.31	15969.23
525.676	16148.21
526.043	16309.11
526.409	16283.34
526.776	16455.54
527.142	16423.45
527.508	16571.47
527.874	16764.01
528.241	16787.51
528.607	16741.41
528.973	17010.1
529.339	16826.61
529.705	17059.14
530.071	17183.88
530.437	17176.88
530.803	17320.6
531.169	17342.3
531.535	17332.81
531.901	17421.39
532.267	17457.78
532.632	17546.81
532.998	17584.78
533.364	17720.14
533.73	17682.85
534.095	17733.02
534.461	17819.35
534.826	17949.97
535.192	17925.56
535.557	18040.58
535.923	17995.84
536.288	18079.45
536.653	18166.91
537.019	18018.44
537.384	18176.17
537.749	18182.28
538.114	18178.43
538.479	18253.23
538.845	18271.54
539.21	18266.12
539.575	18312.44
539.94	18348.6
540.305	18412.1
540.67	18413
541.034	18422.5
541.399	18465.88
541.764	18476.96
542.129	18558.76
542.494	18587.01
542.858	18656.39
543.223	18592.66
543.587	18655.71
543.952	18635.37
544.316	18681.92
544.681	18714.92
545.045	18770.28
545.41	18785.2
545.774	18813.67
546.138	18812.32
546.503	18803.95
546.867	18828.81
547.231	19028.36
547.595	18957.85
547.959	18898.42
548.324	18963.27
548.688	18987
549.052	18968.92
549.416	18921.69
549.779	19010.95
550.143	18979.77
550.507	19113.33
550.871	19215.92
551.235	19069.03
551.599	19245.75
551.962	19135.7
552.326	19300.21
552.689	19270.61
553.053	19229.25
553.417	19261.34
553.78	19434.9
554.143	19338.86
554.507	19457.04
554.87	19449.81
555.234	19629.92
555.597	19481
555.96	19575.69
556.323	19610.04
556.686	19549.7
557.05	19628.57
557.413	19732.52
557.776	19650.71
558.139	19801.67
558.502	19830.14
558.865	19895.45
559.228	19904.94
559.59	20082.34
559.953	19997.14
560.316	20127.31
560.679	20213.86
561.041	20306.51
561.404	20296.57
561.767	20366.4
562.129	20309
562.492	20419.51
562.854	20456.11
563.217	20517.13
563.579	20524.81
563.941	20728.88
564.304	20706.5
564.666	20790.12
565.028	20791.47
565.39	20837.12
565.753	20953.5
566.115	21050.9
566.477	21125.93
566.839	21097.23
567.201	21225.13
567.563	21202.31
567.925	21311.69
568.287	21423.77
568.648	21393.94
569.01	21546.48
569.372	21497.67
569.734	21468.74
570.095	21668.06
570.457	21728.4
570.819	21791.45
571.18	21833.03
571.542	21847.72
571.903	21852.46
572.265	21905.12
572.626	22046.13
572.987	22121.38
573.349	22012.68
573.71	22144.88
574.071	22259.01
574.432	22146.47
574.794	22238.67
575.155	22325.67
575.516	22329.06
575.877	22412.45
576.238	22468.49
576.599	22416.74
576.96	22430.53
577.32	22553.46
577.681	22545.33
578.042	22593.46
578.403	22496.51
578.763	22463.75
579.124	22691.99
579.485	22746.22
579.845	22774.7
580.206	22620.8
580.566	22751.65
580.927	22739.44
581.287	22823.96
581.648	22713.91
582.008	22870.29
582.368	22749.84
582.728	22765.88
583.089	22819.22
583.449	22804.98
583.809	22806.11
584.169	22834.81
584.529	22847.01
584.889	22896.73
585.249	22846.11
585.609	22769.05
585.969	22873.45
586.329	22843.85
586.688	22920.91
587.048	22982.15
587.408	22867.58
587.768	22919.78
588.127	22790.74
588.487	22814.47
588.846	22967.24
589.206	22836.84
589.565	22791.19
589.925	22844.53
590.284	22860.57
590.643	22960.91
591.003	22875.03
591.362	22964.07
591.721	22882.72
592.08	22957.52
592.44	22890.4
592.799	23025.76
593.158	22860.12
593.517	22955.71
593.876	23073.22
594.235	22867.35
594.593	22833.91
594.952	22882.04
595.311	22875.26
595.67	22947.57
596.029	23065.54
596.387	23128.81
596.746	23027.8
597.104	23061.7
597.463	22887.92
597.822	23029.83
598.18	22944.86
598.538	22898.76
598.897	22997.74
599.255	22908.48
599.613	23293.55
599.972	22990.06
600.33	23124.52
600.688	22987.8
601.046	23170.85
601.404	23170.39
601.762	23099.21
602.12	23166.55
602.478	23193.9
602.836	23211.75
603.194	23069.15
603.552	23209.26
603.91	23157.51
604.268	23304.85
604.625	23126.55
604.983	23325.87
605.341	23227.57
605.698	23233.67
606.056	23371.97
606.413	23335.14
606.771	23414.23
607.128	23376.49
607.485	23424.4
607.843	23317.51
608.2	23502.36
608.557	23545.52
608.914	23493.77
609.272	23481.8
609.629	23646.31
609.986	23711.4
610.343	23561.12
610.7	23743.71
611.057	23760.66
611.414	23698.06
611.771	23778.51
612.127	23815.35
612.484	23849.02
612.841	23836.14
613.198	23816.03
613.554	23893.31
613.911	23961.56
614.267	24006.76
614.624	23964.5
614.98	24043.36
615.337	24105.06
615.693	24016.25
616.05	24035
616.406	24183.93
616.762	24110.71
617.118	24212.17
617.475	24114.78
617.831	24182.34
618.187	24166.53
618.543	24180.54
618.899	24431.15
619.255	24357.93
619.611	24346.63
619.967	24460.98
620.323	24470.92
620.678	24376.69
621.034	24270.03
621.39	24335.33
621.746	24394.32
622.101	24579.85
622.457	24297.14
622.812	24445.61
623.168	24579.62
623.523	24565.61
623.879	24547.98
624.234	24360.87
624.589	24572.16
624.945	24549.11
625.3	24650.81
625.655	24512.28
626.01	24597.02
626.365	24580.98
626.72	24634.31
627.075	24575.1
627.43	24594.54
627.785	24553.63
628.14	24528.78
628.495	24614.42
628.85	24542.56
629.205	24470.02
629.559	24699.62
629.914	24534.43
630.269	24539.4
630.623	24522.67
630.978	24383.47
631.332	24654.42
631.687	24570.58
632.041	24508.89
632.396	24613.97
632.75	24361.77
633.104	24500.08
633.459	24372.17
633.813	24335.79
634.167	24383.92
634.521	24363.81
634.875	24356.8
635.229	24343.47
635.583	24143.93
635.937	24191.84
636.291	24244.04
636.645	24179.18
636.999	24169.92
637.352	24278.16
637.706	24137.83
638.06	24230.25
638.413	24164.27
638.767	23989.13
639.121	24126.3
639.474	23949.36
639.828	23988.9
640.181	23998.39
640.534	24046.98
640.888	23908
641.241	23843.6
641.594	24023.7
641.947	24028.9
642.301	23926.08
642.654	23903.48
643.007	23937.38
643.36	23837.49
643.713	23810.6
644.066	23865.74
644.419	23800.21
644.771	23625.97
645.124	23487.22
645.477	23390.05
645.83	23308.7
646.182	23184.18
646.535	23086.1
646.888	23179.66
647.24	23011.3
647.593	23099.89
647.945	23153.9
648.298	22917.52
648.65	22993
649.002	22920.46
649.355	22927.24
649.707	22973.79
650.059	23102.15
650.411	23324.29
650.763	23372.87
651.115	23623.04
651.467	23452.42
651.819	23532.87
652.171	23423.04
652.523	23353.89
652.875	23416.71
653.227	23279.32
653.578	23542.59
653.93	23399.99
654.282	23354.34
654.633	23323.16
654.985	23328.13
655.337	23401.35
655.688	23388.92
656.039	23440.67
656.391	23254.01
656.742	23319.99
657.094	23292.88
657.445	23503.04
657.796	23359.54
658.147	23395.92
658.498	23259.2
658.849	23407.68
659.2	23259.88
659.551	23258.75
659.902	23402.25
660.253	23265.53
660.604	23345.53
660.955	23287.23
661.306	23348.92
661.656	23237.06
662.007	23321.12
662.358	23261.69
662.708	23349.15
663.059	23376.26
663.409	23197.96
663.76	23378.52
664.11	23308.02
664.461	23356.15
664.811	23328.36
665.161	23344.63
665.511	23200.22
665.862	23359.09
666.212	23406.77
666.562	23303.27
666.912	23249.26
667.262	23269.15
667.612	23341.46
667.962	23297.4
668.312	23275.02
668.662	23405.87
669.011	23334.01
669.361	23247
669.711	23167.91
670.06	23217.17
670.41	23184.18
670.76	23176.5
671.109	23306.21
671.459	23207.23
671.808	23233.44
672.157	23195.48
672.507	22996.61
672.856	23133.56
673.205	23110.51
673.554	23176.04
673.904	23163.16
674.253	23220.79
674.602	23152.99
674.951	22741.48
675.3	22618.54
675.649	23023.05
675.998	22979.89
676.346	23082.26
676.695	23021.02
677.044	22910.29
677.393	22921.81
677.741	22929.04
678.09	22989.83
678.438	22917.97
678.787	22877.29
679.135	22868.25
679.484	22735.83
679.832	22836.62
680.181	22713.68
680.529	22709.16
680.877	22685.21
681.225	22651.31
681.573	22727.02
681.922	22692.44
682.27	22572.67
682.618	22590.3
682.966	22471.65
683.314	22505.1
683.661	22430.98
684.009	22409.51
684.357	22314.37
684.705	22273.92
685.053	22306.46
685.4	22239.34
685.748	22102.63
686.095	22150.31
686.443	22092.46
686.79	21952.57
687.138	22011.33
687.485	21996.41
687.832	21931.33
688.18	21916.42
688.527	21680.04
688.874	21777.21
689.221	21740.37
689.568	21640.72
689.915	21543.54
690.262	21587.61
690.609	21419.48
690.956	21419.93
691.303	21360.27
691.65	21217.45
691.997	21365.02
692.344	21207.06
692.69	21167.51
693.037	21170.67
693.383	21015.2
693.73	21186.26
694.077	20942.88
694.423	20963.22
694.769	20873.05
695.116	20803
695.462	20747.63
695.808	20680.74
696.155	20731.81
696.501	20545.15
696.847	20466.28
697.193	20355.33
697.539	20428.09
697.885	20331.82
698.231	20226.74
698.577	20175.67
698.923	20093.19
699.269	20122.11
699.614	19875.56
699.96	19905.17
700.306	19899.52
700.651	19743.37
700.997	19677.6
701.342	19723.25
701.688	19686.42
702.033	19519.19
702.379	19570.26
702.724	19485.52
703.069	19514.67
703.415	19309.25
703.76	19260.44
704.105	19326.65
704.45	19235.58
704.795	19145.87
705.14	18990.84
705.485	19053.44
705.83	18930.96
706.175	18957.17
706.52	18853.9
706.865	18829.26
707.209	18906.78
707.554	18721.92
707.899	18785.42
708.243	18673.34
708.588	18587.01
708.932	18479.67
709.277	18526.22
709.621	18518.76
709.966	18383.63
710.31	18426.56
710.654	18233.8
710.998	18302.27
711.342	18319.22
711.687	18213.01
712.031	18138.44
712.375	18045.1
712.719	18115.39
713.063	18099.11
713.407	18009.85
713.75	17971.89
714.094	17971.43
714.438	17860.93
714.782	17895.05
715.125	17720.37
715.469	17892.57
715.812	17742.74
716.156	17662.29
716.499	17681.27
716.843	17603.99
717.186	17590.2
717.53	17641.05
717.873	17561.95
718.216	17533.03
718.559	17552.69
718.902	17397.89
719.246	17397.66
719.589	17340.04
719.932	17363.54
720.275	17276.54
720.617	17237.67
720.96	17245.35
721.303	17324.22
721.646	17309.3
721.989	17177.78
722.331	17244.45
722.674	17137.56
723.016	17210.1
723.359	17040.16
723.701	17105.92
724.044	16990.22
724.386	16960.61
724.729	17011.91
725.071	17018.92
725.413	16932.14
725.755	17021.4
726.097	16804.01
726.439	16748.64
726.782	16847.4
727.124	16846.49
727.465	16845.81
727.807	16785.7
728.149	16741.64
728.491	16746.16
728.833	16663.45
729.175	16676.1
729.516	16753.84
729.858	16619.15
730.199	16630.23
730.541	16673.84
730.882	16580.51
731.224	16700.73
731.565	16589.32
731.906	16544.81
732.248	16601.3
732.589	16580.28
732.93	16443.11
733.271	16510
733.612	16630
733.953	16468.87
734.294	16452.6
734.635	16429.1
734.976	16541.64
735.317	16359.73
735.658	16339.61
735.999	16441.98
736.339	16447.86
736.68	16468.87
737.021	16444.47
737.361	16341.87
737.702	16422.1
738.042	16413.74
738.383	16360.63
738.723	16423.68
739.063	16392.94
739.404	16447.63
739.744	16352.27
740.084	16404.24
740.424	16446.73
740.764	16307.52
741.104	16392.04
741.444	16242.44
741.784	16277.24
742.124	16327.18
742.464	16387.97
742.804	16305.04
743.143	16314.3
743.483	16304.59
743.823	16213.06
744.162	16329.67
744.502	16390.01
744.841	16297.35
745.181	16478.59
745.52	16290.35
745.86	16399.95
746.199	16370.12
746.538	16455.32
746.877	16493.51
747.216	16504.13
747.556	16452.6
747.895	16525.82
748.234	16527.18
748.573	16562.43
748.911	16559.27
749.25	16636.1
749.589	16632.71
749.928	16632.03
750.267	16761.07
750.605	16674.75
750.944	16878.58
751.283	16848.75
751.621	16827.28
751.96	16848.53
752.298	17022.76
752.636	17007.39
752.975	16940.05
753.313	16931.69
753.651	17168.97
753.989	17164.9
754.327	17228.63
754.666	17166.48
755.004	17397.21
755.342	17325.58
755.679	17363.77
756.017	17483.54
756.355	17569.41
756.693	17587.49
757.031	17717.88
757.368	17737.09
757.706	17794.72
758.044	17732.12
758.381	17978.67
758.719	17810.31
759.056	18081.26
759.394	18106.12
759.731	17995.61
760.068	18078.55
760.405	18172.56
760.743	18149.96
761.08	18283.74
761.417	18271.54
761.754	18329.62
762.091	18412.55
762.428	18370.29
762.765	18425.21
763.102	18446.45
763.438	18530.29
763.775	18485.32
764.112	18586.79
764.449	18650.74
764.785	18729.61
765.122	18552.66
765.458	18559.44
765.795	18706.78
766.131	18649.38
766.467	18555.37
766.804	18668.14
767.14	18654.58
767.476	18748.59
767.812	18600.8
768.148	18717.63
768.485	18689.83
768.821	18612.55
769.157	18656.61
769.492	18709.72
769.828	18768.25
770.164	18650.74
770.5	18618.87
770.836	18676.73
771.171	18602.15
771.507	18633.56
771.842	18553.57
772.178	18527.35
772.513	18634.47
772.849	18562.38
773.184	18486.22
773.519	18518.99
773.855	18524.87
774.19	18375.49
774.525	18360.12
774.86	18424.3
775.195	18350.86
775.53	18389.5
775.865	18232.44
776.2	18176.4
776.535	18083.75
776.87	18103.63
777.205	18054.14
777.539	17992.9
777.874	18022.73
778.209	17917.65
778.543	17882.4
778.878	17765.34
779.212	17837.2
779.547	17753.13
779.881	17737.99
780.215	17726.92
780.55	17696.41
780.884	17578.68
781.218	17574.38
781.552	17572.57
781.886	17505.01
782.22	17368.06
782.554	17357.67
782.888	17334.84
783.222	17140.72
783.556	17107.5
783.889	17116.77
784.223	16996.77
784.557	17024.57
784.89	16997.67
785.224	16948.41
785.557	16801.07
785.891	16790.45
786.224	16728.08
786.558	16773.05
786.891	16623.9
787.224	16652.15
787.557	16571.02
787.891	16623.67
788.224	16537.35
788.557	16520.17
788.89	16540.29
789.223	16422.32
789.556	16268.88
789.888	16284.25
790.221	16192.95
790.554	16137.58
790.887	16143.23
791.219	15999.06
791.552	16146.4
791.884	16045.16
792.217	15910.02
792.549	15842
792.882	15757.26
793.214	15830.93
793.546	15710.7
793.879	15520.2
794.211	15470.71
794.543	15617.82
794.875	15584.38
795.207	15521.78
795.539	15447.88
795.871	15487.43
796.203	15246.99
796.535	15268.68
796.867	15234.11
797.198	15224.84
797.53	15126.31
797.862	14962.25
798.193	15055.13
798.525	15031.62
798.856	15070.72
799.188	14830.95
799.519	14802.93
799.85	14757.06
800.182	14749.15
800.513	14740.56
800.844	14606.55
801.175	14699.2
801.506	14670.05
801.837	14615.59
802.168	14511.86
802.499	14544.86
802.83	14425.54
803.161	14383.28
803.491	14393.9
803.822	14406.33
804.153	14273
804.483	14225.32
804.814	14140.8
805.145	14125.66
805.475	14112.55
805.805	14011.31
806.136	14105.1
806.466	14007.92
806.796	13968.15
807.126	13828.49
807.457	13839.34
807.787	13835.72
808.117	13914.37
808.447	13736.97
808.777	13798.66
809.107	13719.57
809.436	13651.1
809.766	13677.99
810.096	13585.56
810.426	13593.7
810.755	13602.51
811.085	13529.97
811.414	13480.48
811.744	13425.34
812.073	13376.3
812.403	13385.57
812.732	13275.96
813.061	13297.21
813.39	13201.39
813.719	13246.13
814.049	13232.12
814.378	13193.48
814.707	13060.15
815.036	13132.01
815.365	13051.56
815.693	13013.82
816.022	12959.81
816.351	12915.97
816.68	12891.12
817.008	12906.93
817.337	12830.78
817.665	12737.45
817.994	12783.1
818.322	12816.99
818.651	12752.14
818.979	12653.38
819.307	12709.88
819.636	12708.07
819.964	12592.59
820.292	12631.24
820.62	12596.66
820.948	12612.71
821.276	12675.98
821.604	12573.61
821.932	12537
822.259	12590.33
822.587	12556.21
822.915	12555.98
823.243	12584.23
823.57	12506.95
823.898	12556.89
824.225	12461.75
824.553	12477.34
824.88	12470.34
825.207	12497
825.535	12494.97
825.862	12581.29
826.189	12429.21
826.516	12573.38
826.843	12579.03
827.17	12532.93
827.497	12562.99
827.824	12508.98
828.151	12600.73
828.478	12498.36
828.805	12562.08
829.131	12462.43
829.458	12456.1
829.785	12395.54
830.111	12493.39
830.438	12527.51
830.764	12451.81
831.09	12529.09
831.417	12410.22
831.743	12538.36
832.069	12538.36
832.395	12420.17
832.722	12475.76
833.048	12377.46
833.374	12357.8
833.7	12340.85
834.026	12349.21
834.351	12377.46
834.677	12303.56
835.003	12335.65
835.329	12341.98
835.654	12350.57
835.98	12292.04
836.306	12297.69
836.631	12191.7
836.956	12245.94
837.282	12225.6
837.607	12173.39
837.932	12147.41
838.258	12181.08
838.583	12256.78
838.908	12086.84
839.233	12082.32
839.558	12062.66
839.883	12075.09
840.208	12016.56
840.533	12039.61
840.858	11985.15
841.182	12014.08
841.507	12004.59
841.832	11879.39
842.156	11823.12
842.481	11869
842.805	11974.53
843.13	11845.49
843.454	11930.69
843.778	11760.07
844.103	11755.78
844.427	11733.41
844.751	11695.89
845.075	11661.32
845.399	11721.66
845.723	11575.67
846.047	11596.69
846.371	11519.17
846.695	11545.84
847.019	11360.76
847.343	11390.36
847.666	11239.18
847.99	11255.9
848.313	11243.02
848.637	11152.18
848.96	11087.77
849.284	11084.84
849.607	11015.46
849.931	11056.81
850.254	10933.43
850.577	10886.87
850.9	10869.25
851.223	10848.01
851.546	10749.93
851.869	10696.82
852.192	10813.43
852.515	10683.72
852.838	10600.1
853.161	10606.88
853.483	10519.2
853.806	10534.12
854.129	10470.39
854.451	10438.75
854.774	10398.3
855.096	10347
855.419	10365.98
855.741	10348.13
856.063	10293.67
856.385	10254.8
856.708	10247.34
857.03	10164.63
857.352	10130.06
857.674	10182.26
857.996	10046.9
858.318	10025.65
858.64	10015.71
858.961	9981.59
859.283	9929.61
859.605	9885.77
859.926	9958.31
860.248	9946.56
860.57	9815.49
860.891	9858.88
861.212	9860.24
861.534	9818.65
861.855	9819.33
862.176	9790.63
862.498	9717.41
862.819	9788.82
863.14	9709.28
863.461	9634.7
863.782	9549.73
864.103	9646.23
864.424	9613.91
864.745	9691.2
865.065	9537.31
865.386	9566.46
865.707	9578.43
866.027	9507.02
866.348	9494.82
866.668	9537.76
866.989	9456.86
867.309	9462.28
867.63	9448.72
867.95	9501.37
868.27	9373.02
868.59	9395.61
868.91	9348.84
869.23	9339.57
869.55	9389.74
869.87	9359.23
870.19	9342.28
870.51	9351.77
870.83	9338.21
871.15	9251.66
871.469	9270.42
871.789	9313.81
872.109	9235.62
872.428	9185.9
872.748	9297.31
873.067	9260.02
873.386	9146.81
873.706	9230.2
874.025	9208.5
874.344	9148.84
874.663	9141.16
874.982	9037.43
875.301	9046.92
875.62	9120.14
875.939	9070.88
876.258	9081.05
876.577	9022.29
876.896	9019.13
877.214	9016.87
877.533	8998.79
877.852	8961.5
878.17	8929.86
878.489	8978.9
878.807	8926.02
879.125	8922.63
879.444	8893.93
879.762	8925.8
880.08	8842.41
880.398	8812.35
880.716	8841.28
881.034	8739.36
881.352	8824.1
881.67	8716.31
881.988	8742.3
882.306	8804.22
882.624	8714.28
882.941	8643.09
883.259	8643.77
883.577	8608.06
883.894	8605.8
884.212	8596.54
884.529	8648.52
884.846	8601.29
885.164	8543.89
885.481	8502.53
885.798	8546.6
886.115	8431.57
886.432	8454.62
886.75	8480.16
887.067	8460.27
887.383	8397.45
887.7	8397.22
888.017	8292.82
888.334	8403.1
888.651	8382.08
888.967	8308.41
889.284	8260.73
889.6	8281.29
889.917	8173.73
890.233	8263.44
890.55	8173.5
890.866	8251.92
891.182	8155.2
891.498	8133.5
891.815	8102.99
892.131	8109.09
892.447	8035.65
892.763	7972.83
893.079	8020.06
893.395	8037.91
893.71	7960.17
894.026	7975.31
894.342	7950.91
894.657	7878.14
894.973	7894.86
895.289	7819.84
895.604	7804.47
895.92	7788.2
896.235	7728.31
896.55	7743.23
896.865	7699.39
897.181	7719.73
897.496	7658.49
897.811	7627.07
898.126	7573.52
898.441	7595.21
898.756	7569.9
899.071	7471.15
899.386	7492.16
899.7	7419.17
900.015	7404.25
900.33	7393.41
900.644	7399.28
900.959	7351.83
901.273	7335.33
901.588	7324.03
901.902	7257.82
902.216	7222.56
902.531	7202.68
902.845	7250.59
903.159	7197.93
903.473	7139.63
903.787	7151.38
904.101	7085.17
904.415	7101.21
904.729	7055.79
905.042	7056.92
905.356	6991.61
905.67	7012.63
905.984	6935.34
906.297	6957.26
906.611	6890.6
906.924	6843.37
907.237	6902.8
907.551	6817.15
907.864	6832.07
908.177	6775.34
908.491	6752.29
908.804	6752.97
909.117	6630.26
909.43	6637.49
909.743	6651.28
910.056	6590.49
910.368	6588.68
910.681	6548.01
910.994	6566.54
911.307	6481.79
911.619	6460.32
911.932	6400.67
912.244	6416.94
912.557	6326.99
912.869	6337.62
913.181	6355.24
913.494	6338.07
913.806	6286.77
914.118	6253.78
914.43	6228.92
914.742	6201.12
915.054	6187.56
915.366	6161.12
915.678	6133.33
915.99	6094.91
916.302	6091.29
916.613	6086.77
916.925	6035.7
917.236	6024.4
917.548	6026.89
917.859	5996.83
918.171	5953.22
918.482	5916.38
918.794	5896.95
919.105	5862.83
919.416	5811.08
919.727	5814.92
920.038	5779.21
920.349	5728.14
920.66	5770.63
920.971	5691.08
921.282	5693.79
921.593	5692.89
921.903	5649.95
922.214	5618.99
922.525	5623.06
922.835	5589.16
923.146	5550.52
923.456	5558.43
923.767	5539.9
924.077	5466.23
924.387	5460.58
924.697	5472.55
925.008	5415.83
925.318	5418.54
925.628	5332.44
925.938	5301.71
926.248	5359.11
926.558	5291.09
926.867	5287.7
927.177	5277.08
927.487	5206.8
927.796	5207.7
928.106	5211.77
928.416	5195.05
928.725	5196.4
929.034	5103.98
929.344	5182.62
929.653	5129.74
929.962	5092.68
930.271	5055.39
930.581	5043.64
930.89	4984.66
931.199	4989.63
931.508	4966.8
931.817	4969.74
932.125	4964.09
932.434	4909.4
932.743	4878.45
933.051	4868.05
933.36	4848.16
933.669	4808.62
933.977	4796.64
934.286	4840.48
934.594	4816.75
934.902	4774.49
935.21	4746.7
935.519	4742.18
935.827	4714.38
936.135	4708.05
936.443	4607.72
936.751	4642.29
937.059	4620.82
937.367	4574.72
937.674	4579.92
937.982	4574.72
938.29	4541.96
938.597	4548.74
938.905	4500.6
939.213	4460.6
939.52	4449.3
939.827	4451.34
940.135	4414.28
940.442	4417.89
940.749	4413.15
941.056	4404.56
941.363	4337.67
941.67	4313.71
941.977	4264.22
942.284	4272.59
942.591	4287.05
942.898	4281.85
943.205	4257.9
943.511	4213.6
943.818	4190.78
944.125	4153.72
944.431	4195.3
944.738	4171.35
945.044	4162.08
945.35	4102.19
945.657	4066.94
945.963	4073.72
946.269	4057.45
946.575	4038.02
946.881	4011.12
947.187	3961.41
947.493	3991.24
947.799	3988.98
948.105	3956.44
948.41	3904.23
948.716	3913.95
949.022	3872.14
949.327	3925.48
949.633	3863.56
949.938	3877.79
950.244	3813.16
950.549	3827.63
950.854	3820.85
951.16	3802.77
951.465	3779.94
951.77	3794.18
952.075	3759.6
952.38	3757.8
952.685	3723.67
952.99	3713.5
953.294	3706.27
953.599	3649.55
953.904	3650.91
954.209	3627.4
954.513	3622.66
954.818	3596.44
955.122	3590.8
955.426	3614.07
955.731	3572.72
956.035	3527.29
956.339	3498.59
956.643	3550.12
956.948	3451.14
957.252	3481.87
957.556	3498.82
957.86	3445.49
958.163	3415.88
958.467	3419.73
958.771	3413.62
959.075	3423.79
959.378	3360.97
959.682	3393.51
959.985	3381.31
960.289	3344.7
960.592	3296.11
960.896	3292.5
961.199	3283.01
961.502	3291.59
961.805	3299.05
962.108	3238.94
962.411	3229.67
962.714	3198.04
963.017	3180.41
963.32	3202.78
963.623	3175.89
963.926	3144.48
964.228	3113.97
964.531	3148.77
964.833	3139.06
965.136	3126.4
965.438	3127.08
965.741	3088.21
966.043	3077.59
966.345	3043.01
966.648	3016.12
966.95	3068.55
967.252	2985.61
967.554	3013.18
967.856	3021.77
968.158	2957.37
968.46	2976.12
968.761	2968.89
969.063	2997.14
969.365	2919.63
969.666	2910.59
969.968	2871.27
970.269	2861.1
970.571	2901.55
970.872	2895.67
971.174	2872.4
971.475	2850.7
971.776	2869.91
972.077	2818.61
972.378	2803.02
972.679	2791.95
972.98	2810.02
973.281	2785.84
973.582	2806.41
973.883	2733.19
974.183	2734.77
974.484	2763.25
974.785	2750.14
975.085	2706.98
975.386	2715.11
975.686	2674.89
975.986	2716.02
976.287	2664.94
976.587	2635.79
976.887	2648.45
977.187	2614.32
977.487	2647.32
977.787	2592.63
978.087	2592.86
978.387	2590.37
978.687	2589.01
978.987	2563.93
979.286	2554.44
979.586	2554.21
979.885	2499.98
980.185	2535.23
980.484	2506.3
980.784	2483.71
981.083	2482.12
981.382	2478.96
981.682	2483.93
981.981	2488.45
982.28	2434.22
982.579	2433.54
982.878	2420.88
983.177	2411.62
983.475	2436.48
983.774	2376.59
984.073	2362.35
984.372	2339.75
984.67	2341.11
984.969	2335.91
985.267	2358.06
985.566	2317.38
985.864	2306.76
986.162	2296.59
986.461	2306.76
986.759	2262.92
987.057	2272.19
987.355	2243.26
987.653	2216.37
987.951	2257.05
988.249	2217.72
988.547	2229.7
988.844	2170.95
989.142	2199.19
989.44	2172.98
989.737	2208.91
990.035	2182.92
990.332	2154.67
990.63	2184.96
990.927	2174.11
991.224	2171.17
991.521	2157.61
991.819	2125.52
992.116	2114.68
992.413	2109.25
992.71	2121.68
993.006	2086.65
993.303	2093.21
993.6	2043.04
993.897	2061.34
994.193	2004.17
994.49	2061.34
994.787	2020.67
995.083	2024.28
995.379	2023.83
995.676	1989.71
995.972	1999.88
996.268	1959.88
996.565	1936.83
996.861	1948.35
997.157	1960.78
997.453	1971.85
997.749	1946.09
998.044	1921.23
998.34	1932.99
998.636	1908.35
998.932	1890.73
999.227	1855.25
999.523	1878.98
999.818	1864.29
1000.114	1838.75
1000.409	1851.41
1000.704	1835.59
1001	1833.55
1001.295	1798.98
1001.59	1812.31
1001.885	1792.65
1002.18	1802.82
1002.475	1758.3
1002.77	1767.11
1003.065	1770.5
1003.359	1747.45
1003.654	1778.19
1003.949	1708.36
1004.243	1719.43
1004.538	1704.74
1004.832	1682.82
1005.127	1707.91
1005.421	1674.01
1005.715	1665.2
1006.009	1666.1
1006.304	1667.68
1006.598	1633.78
1006.892	1654.8
1007.186	1640.11
1007.48	1612.99
1007.773	1629.49
1008.067	1626.55
1008.361	1603.05
1008.655	1582.71
1008.948	1575.48
1009.242	1561.47
1009.535	1568.7
1009.829	1543.17
1010.122	1553.79
1010.415	1537.06
1010.708	1530.06
1011.001	1516.73
1011.295	1528.02
1011.588	1505.43
1011.881	1507.46
1012.173	1505.2
1012.466	1495.48
1012.759	1476.73
1013.052	1470.63
1013.344	1462.26
1013.637	1432.89
1013.93	1439.21
1014.222	1416.16
1014.514	1444.64
1014.807	1432.89
1015.099	1415.49
1015.391	1413.45
1015.683	1383.17
1015.976	1347.92
1016.268	1373
1016.56	1354.24
1016.851	1363.28
1017.143	1357.41
1017.435	1340.69
1017.727	1339.78
1018.018	1333.23
1018.31	1300.23
1018.602	1313.34
1018.893	1317.63
1019.185	1299.56
1019.476	1276.73
1019.767	1277.18
1020.058	1268.37
1020.35	1255.04
1020.641	1258.43
1020.932	1240.35
1021.223	1250.74
1021.514	1231.99
1021.804	1222.27
1022.095	1215.04
1022.386	1230.18
1022.677	1211.2
1022.967	1217.3
1023.258	1167.13
1023.548	1174.59
1023.839	1183.85
1024.129	1184.31
1024.419	1144.76
1024.709	1156.06
1025	1144.76
1025.29	1147.92
1025.58	1127.13
1025.87	1123.74
1026.16	1132.55
1026.449	1117.87
1026.739	1092.56
1027.029	1100.47
1027.319	1095.27
1027.608	1090.52
1027.898	1088.26
1028.187	1068.15
1028.477	1067.25
1028.766	1037.87
1029.055	1063.86
1029.344	1057.75
1029.634	1039.45
1029.923	1038.32
1030.212	1043.74
1030.501	1014.37
1030.79	1034.7
1031.078	1001.48
1031.367	1012.78
1031.656	1008.94
1031.945	1021.15
1032.233	983.86
1032.522	981.82
1032.81	956.29
1033.099	953.8
1033.387	976.85
1033.675	964.2
1033.963	919.68
1034.251	940.7
1034.54	940.7
1034.828	914.71
1035.116	915.16
1035.403	926.01
1035.691	912.22
1035.979	907.48
1036.267	912.9
1036.554	896.85
1036.842	909.28
1037.129	878.32
1037.417	882.62
1037.704	882.62
1037.992	893.69
1038.279	865.44
1038.566	862.51
1038.853	862.51
1039.14	862.51
