Data from hue_310_FLMS001491_74.txt Node
Date: Mon Feb 06 15:50:08 GMT 2017
User: dcchb
Spectrometer: FLMS00149
Trigger mode: 0
Integration Time (sec): 2.000000E-2
Scans to average: 10
Electric dark correction enabled: true
Nonlinearity correction enabled: false
Boxcar width: 0
XAxis mode: Wavelengths
Number of Pixels in Spectrum: 2048
>>>>>Begin Spectral Data<<<<<
341.393	-5.04
341.776	-5.04
342.16	-5.04
342.543	-64.48
342.927	-52.27
343.31	-75.55
343.693	-59.96
344.077	-69.22
344.46	-72.16
344.843	-50.46
345.226	-48.88
345.61	-23.35
345.993	-12.95
346.376	-7.3
346.759	8.29
347.142	38.57
347.525	34.5
347.908	72.7
348.291	82.64
348.674	69.53
349.057	113.6
349.44	140.94
349.823	145.46
350.206	159.93
350.588	197.44
350.971	204.9
351.354	211.22
351.737	229.08
352.119	260.71
352.502	283.54
352.884	261.84
353.267	267.04
353.65	290.54
354.032	305.46
354.414	309.07
354.797	323.08
355.179	312.69
355.562	332.58
355.944	316.08
356.326	321.95
356.709	319.24
357.091	333.25
357.473	363.08
357.855	335.29
358.238	338.9
358.62	334.16
359.002	339.36
359.384	352.24
359.766	346.81
360.148	349.3
360.53	344.55
360.912	322.18
361.294	354.04
361.676	316.31
362.057	325.12
362.439	337.77
362.821	351.11
363.203	340.26
363.584	327.15
363.966	359.24
364.348	332.8
364.729	317.89
365.111	336.42
365.493	328.06
365.874	302.29
366.256	310.66
366.637	302.97
367.019	322.63
367.4	292.8
367.781	306.59
368.163	326.25
368.544	322.63
368.925	287.38
369.306	293.03
369.688	326.02
370.069	310.2
370.45	322.41
370.831	309.53
371.212	303.65
371.593	297.55
371.974	300.71
372.355	309.07
372.736	313.37
373.117	312.01
373.498	310.66
373.879	324.21
374.26	324.21
374.641	330.77
375.021	302.97
375.402	307.27
375.783	326.47
376.163	342.52
376.544	348.39
376.925	327.6
377.305	335.51
377.686	326.47
378.066	354.5
378.447	350.43
378.827	316.31
379.208	320.15
379.588	321.5
379.968	338
380.349	323.76
380.729	340.71
381.109	333.48
381.489	339.36
381.87	326.93
382.25	324.44
382.63	341.62
383.01	337.32
383.39	335.29
383.77	351.78
384.15	343.2
384.53	338.68
384.91	354.72
385.29	339.58
385.67	340.03
386.049	377.55
386.429	374.38
386.809	353.82
387.189	337.77
387.568	366.93
387.948	373.25
388.328	368.28
388.707	360.6
389.087	373.93
389.466	350.65
389.846	371.67
390.225	363.08
390.605	375.06
390.984	375.06
391.363	369.19
391.743	355.63
392.122	367.15
392.501	364.67
392.881	394.27
393.26	377.55
393.639	389.52
394.018	383.2
394.397	382.97
394.776	395.4
395.155	402.4
395.534	378.22
395.913	383.87
396.292	377.77
396.671	393.37
397.05	381.84
397.429	389.3
397.808	391.78
398.186	413.25
398.565	410.31
398.944	395.85
399.323	402.86
399.701	406.47
400.08	415.29
400.458	403.31
400.837	413.93
401.215	440.82
401.594	399.47
401.972	439.24
402.351	412.35
402.729	443.76
403.107	436.53
403.486	443.53
403.864	448.51
404.242	435.4
404.62	423.2
404.999	419.58
405.377	456.64
405.755	443.08
406.133	449.86
406.511	447.15
406.889	464.78
407.267	469.07
407.645	461.84
408.023	474.27
408.401	474.49
408.779	477.2
409.156	519.46
409.534	483.31
409.912	491.44
410.29	502.97
410.667	502.52
411.045	530.08
411.422	525.57
411.8	526.47
412.178	553.36
412.555	542.97
412.933	553.14
413.31	551.33
413.687	568.05
414.065	571.21
414.442	555.85
414.819	592.91
415.197	590.2
415.574	598.11
415.951	619.35
416.328	597.88
416.705	618.22
417.082	639.46
417.46	629.97
417.837	671.78
418.214	645.11
418.591	679.91
418.967	674.04
419.344	690.31
419.721	699.12
420.098	685.56
420.475	722.85
420.852	716.07
421.228	703.19
421.605	704.32
421.982	743.19
422.358	734.37
422.735	742.51
423.111	743.41
423.488	759.23
423.864	781.6
424.241	777.99
424.617	784.54
424.994	815.5
425.37	815.05
425.746	779.57
426.123	830.42
426.499	849.4
426.875	834.48
427.251	847.82
427.627	857.31
428.003	870.64
428.379	878.32
428.756	894.37
429.132	879.68
429.507	893.47
429.883	924.2
430.259	940.92
430.635	909.74
431.011	947.48
431.387	953.35
431.763	968.04
432.138	984.54
432.514	993.58
432.89	973.46
433.265	995.16
433.641	1029.05
434.016	1032.22
434.392	1029.51
434.767	1065.21
435.143	1061.37
435.518	1081.26
435.894	1083.06
436.269	1119.45
436.644	1117.41
437.02	1124.42
437.395	1125.78
437.77	1157.19
438.145	1149.28
438.52	1163.51
438.895	1158.77
439.271	1181.14
439.646	1201.48
440.021	1219.33
440.395	1194.47
440.77	1228.82
441.145	1228.82
441.52	1230.86
441.895	1239.44
442.27	1241.03
442.645	1260.91
443.019	1271.31
443.394	1257.07
443.769	1303.17
444.143	1262.5
444.518	1286.45
444.892	1269.5
445.267	1288.26
445.641	1288.03
446.016	1288.48
446.39	1291.19
446.764	1320.8
447.139	1293.68
447.513	1351.08
447.887	1338.2
448.262	1324.64
448.636	1321.7
449.01	1333.91
449.384	1360.35
449.758	1375.03
450.132	1344.3
450.506	1368.03
450.88	1376.84
451.254	1377.29
451.628	1399.89
452.002	1374.58
452.376	1401.7
452.75	1428.14
453.123	1436.05
453.497	1434.02
453.871	1445.99
454.244	1486.44
454.618	1455.03
454.992	1475.37
455.365	1445.54
455.739	1520.12
456.112	1516.95
456.486	1502.94
456.859	1528.48
457.232	1544.07
457.606	1531.19
457.979	1565.99
458.352	1578.64
458.725	1593.56
459.099	1619.77
459.472	1599.44
459.845	1581.58
460.218	1665.42
460.591	1678.08
460.964	1657.06
461.337	1671.3
461.71	1706.33
462.083	1710.84
462.456	1709.04
462.829	1715.36
463.201	1754.46
463.574	1750.17
463.947	1753.56
464.32	1805.53
464.692	1802.37
465.065	1819.32
465.438	1829.94
465.81	1844.63
466.183	1848.92
466.555	1883.5
466.928	1896.38
467.3	1912.65
467.672	1909.03
468.045	1905.19
468.417	1923.95
468.789	1952.42
469.161	1984.51
469.534	2009.37
469.906	2017.28
470.278	2045.07
470.65	2045.3
471.022	2089.37
471.394	2105.41
471.766	2112.42
472.138	2119.42
472.51	2142.7
472.882	2203.04
473.253	2176.37
473.625	2202.36
473.997	2243.71
474.369	2266.31
474.74	2258.18
475.112	2299.3
475.484	2335.69
475.855	2381.11
476.227	2368.91
476.598	2411.17
476.97	2457.72
477.341	2490.03
477.713	2537.72
478.084	2486.42
478.455	2577.49
478.827	2574.1
479.198	2595.34
479.569	2640.09
479.94	2660.88
480.311	2694.32
480.682	2718.28
481.053	2761.66
481.424	2794.43
481.795	2811.61
482.166	2867.65
482.537	2905.62
482.908	2941.55
483.279	2931.83
483.65	2981.32
484.021	3038.49
484.391	3027.65
484.762	3054.76
485.133	3057.25
485.503	3097.25
485.874	3181.31
486.244	3200.98
486.615	3244.82
486.985	3264.7
487.356	3300.18
487.726	3320.75
488.097	3377.02
488.467	3366.17
488.837	3434.87
489.207	3456.56
489.578	3494.75
489.948	3529.1
490.318	3593.73
490.688	3541.98
491.058	3596.9
491.428	3652.71
491.798	3665.6
492.168	3706.72
492.538	3722.32
492.908	3773.16
493.278	3794.41
493.648	3794.18
494.017	3867.85
494.387	3845.7
494.757	3877.57
495.126	3901.07
495.496	3889.32
495.866	3927.51
496.235	3946.72
496.605	3997.56
496.974	4066.94
497.344	4018.81
497.713	4031.69
498.082	4091.35
498.452	4107.62
498.821	4150.55
499.19	4124.11
499.559	4129.31
499.928	4182.64
500.298	4180.16
500.667	4213.15
501.036	4217.22
501.405	4243.43
501.774	4269.65
502.143	4287.95
502.512	4264
502.88	4304.67
503.249	4343.54
503.618	4322.75
503.987	4379.25
504.356	4391.68
504.724	4419.47
505.093	4383.32
505.462	4487.72
505.83	4420.83
506.199	4464.44
506.567	4523.88
506.936	4509.64
507.304	4560.04
507.672	4543.54
508.041	4547.15
508.409	4555.74
508.777	4584.44
509.145	4638.23
509.514	4661.95
509.882	4641.62
510.25	4645
510.618	4717.77
510.986	4724.55
511.354	4704.89
511.722	4742.4
512.09	4812.91
512.458	4803.64
512.826	4818.33
513.193	4815.62
513.561	4862.4
513.929	4876.64
514.297	4898.56
514.664	4888.39
515.032	4871.44
515.4	4917.54
515.767	4897.65
516.135	4952.12
516.502	4879.12
516.869	4991.66
517.237	4972.23
517.604	4999.57
517.972	5055.84
518.339	5053.36
518.706	5017.42
519.073	5035.05
519.44	5086.58
519.808	5085.22
520.175	5103.75
520.542	5119.12
520.909	5161.83
521.276	5108.95
521.643	5198.44
522.009	5217.42
522.376	5212.22
522.743	5237.98
523.11	5274.59
523.477	5302.39
523.843	5299.45
524.21	5345.1
524.577	5383.29
524.943	5420.8
525.31	5457.19
525.676	5500.58
526.043	5472.78
526.409	5498.77
526.776	5542.61
527.142	5571.76
527.508	5592.78
527.874	5628.71
528.241	5617.86
528.607	5706.9
528.973	5682.27
529.339	5697.63
529.705	5754.58
530.071	5795.48
530.437	5836.39
530.803	5809.72
531.169	5873.9
531.535	5848.14
531.901	5901.7
532.267	5950.96
532.632	5998.87
532.998	6008.13
533.364	5996.61
533.73	6043.84
534.095	6097.4
534.461	6114.12
534.826	6114.12
535.192	6122.71
535.557	6191.86
535.923	6175.81
536.288	6204.51
536.653	6270.27
537.019	6247.67
537.384	6292.42
537.749	6310.95
538.114	6318.63
538.479	6335.58
538.845	6389.82
539.21	6352.98
539.575	6402.47
539.94	6428.91
540.305	6447.44
540.67	6451.51
541.034	6488.57
541.399	6520.89
541.764	6567.21
542.129	6566.76
542.494	6638.4
542.858	6654.9
543.223	6655.57
543.587	6765.4
543.952	6731.73
544.316	6708.45
544.681	6749.81
545.045	6849.47
545.41	6833.87
545.774	6864.83
546.138	6892.4
546.503	6915.23
546.867	6903.02
547.231	6964.72
547.595	6945.28
547.959	7015.11
548.324	7028.45
548.688	7016.92
549.052	7008.11
549.416	7083.81
549.779	7094.43
550.143	7114.77
550.507	7168.1
550.871	7231.38
551.235	7159.29
551.599	7243.58
551.962	7299.17
552.326	7264.37
552.689	7275.44
553.053	7260.08
553.417	7289
553.78	7441.32
554.143	7403.58
554.507	7419.85
554.87	7503.23
555.234	7512.5
555.597	7477.02
555.96	7498.04
556.323	7552.73
556.686	7539.84
557.05	7577.36
557.413	7600.41
557.776	7541.2
558.139	7655.32
558.502	7674.98
558.865	7689.67
559.228	7746.39
559.59	7735.32
559.953	7744.81
560.316	7879.72
560.679	7828.2
561.041	7912.26
561.404	7880.63
561.767	7962.66
562.129	7927.63
562.492	7983.67
562.854	7964.01
563.217	8013.73
563.579	8029.32
563.941	8100.28
564.304	8103.22
564.666	8106.38
565.028	8142.77
565.39	8136.44
565.753	8194.06
566.115	8258.92
566.477	8292.14
566.839	8279.71
567.201	8315.42
567.563	8311.8
567.925	8415.53
568.287	8378.01
568.648	8423.89
569.01	8506.6
569.372	8483.77
569.734	8485.81
570.095	8632.02
570.457	8643.32
570.819	8635.18
571.18	8660.27
571.542	8761.73
571.903	8719.02
572.265	8794.73
572.626	8884.89
572.987	8894.61
573.349	8973.93
573.71	9041.95
574.071	8971.9
574.432	9105.9
574.794	9151.1
575.155	9283.3
575.516	9297.09
575.877	9276.75
576.238	9373.92
576.599	9466.35
576.96	9465.22
577.32	9597.42
577.681	9676.96
578.042	9877.41
578.403	9839.67
578.763	9878.31
579.124	9969.16
579.485	10123.96
579.845	10348.81
580.206	10351.52
580.566	10449.6
580.927	10585.19
581.287	10663.38
581.648	10815.24
582.008	11028.79
582.368	11123.7
582.728	11322.8
583.089	11425.17
583.449	11527.31
583.809	11696.8
584.169	11894.53
584.529	12004.36
584.889	12307.85
585.249	12485.25
585.609	12520.28
585.969	12985.8
586.329	13021.06
586.688	13247.72
587.048	13519.12
587.408	13653.81
587.768	13955.27
588.127	14165.88
588.487	14374.47
588.846	14775.13
589.206	14842.93
589.565	15188.68
589.925	15511.61
590.284	15742.57
590.643	16072.28
591.003	16356.56
591.362	16603.33
591.721	16897.79
592.08	17186.6
592.44	17477.21
592.799	17749.07
593.158	18044.2
593.517	18344.08
593.876	18680.12
594.235	18840.79
594.593	19158.07
594.952	19482.81
595.311	19813.19
595.67	20004.15
596.029	20448.66
596.387	20802.32
596.746	21154.18
597.104	21345.36
597.463	21585.58
597.822	22033.47
598.18	22226.46
598.538	22513.24
598.897	22960.91
599.255	23037.74
599.613	23594.56
599.972	23707.55
600.33	24126.98
600.688	24392.28
601.046	24767.41
601.404	25094.86
601.762	25423.44
602.12	25696.2
602.478	25968.96
602.836	26132.58
603.194	26314.94
603.552	26716.52
603.91	26872.44
604.268	27176.84
604.625	27353.56
604.983	27699.99
605.341	27896.15
605.698	28252.07
606.056	28602.79
606.413	28773.18
606.771	29092.05
607.128	29294.07
607.485	29370.23
607.843	29609.09
608.2	30065.58
608.557	30272.13
608.914	30457.43
609.272	30816.52
609.629	31009.96
609.986	31206.79
610.343	31465.32
610.7	31815.14
611.057	31933.1
611.414	32045.19
611.771	32312.3
612.127	32546.87
612.484	32748.22
612.841	32969.46
613.198	33106.63
613.554	33238.38
613.911	33591.14
614.267	33729.44
614.624	33903.9
614.98	34054.4
615.337	34272.02
615.693	34344.34
616.05	34556.76
616.406	34858
616.762	34863.19
617.118	35124.66
617.475	35050.08
617.831	35344.08
618.187	35672.89
618.543	35717.18
618.899	36099.77
619.255	35989.04
619.611	35984.52
619.967	36247.11
620.323	36467.45
620.678	36519.65
621.034	36360.33
621.39	36595.35
621.746	36642.81
622.101	37221.55
622.457	36966.42
622.812	37194.43
623.168	37156.69
623.523	37440.98
623.879	37507.87
624.234	37374.09
624.589	37587.19
624.945	37867.18
625.3	37862.89
625.655	37894.98
626.01	37873.28
626.365	38152.15
626.72	38084.8
627.075	38146.05
627.43	38181.75
627.785	38252.03
628.14	38400.05
628.495	38430.56
628.85	38542.42
629.205	38443.66
629.559	38692.92
629.914	38546.03
630.269	38637.56
630.623	38600.27
630.978	38558.24
631.332	38762.3
631.687	38795.52
632.041	38688.63
632.396	38736.31
632.75	38868.96
633.104	38875.07
633.459	38746.48
633.813	38821.28
634.167	38818.8
634.521	38873.03
634.875	38825.35
635.229	39006.59
635.583	38817.89
635.937	38794.84
636.291	38952.35
636.645	38880.04
636.999	38771.11
637.352	39032.35
637.706	38769.53
638.06	38884.33
638.413	38913.71
638.767	38909.64
639.121	38746.03
639.474	38721.62
639.828	38748.97
640.181	39019.69
640.534	38984.44
640.888	38849.3
641.241	38672.58
641.594	38731.79
641.947	38823.54
642.301	38769.53
642.654	38762.75
643.007	38903.09
643.36	38724.33
643.713	38653.15
644.066	38871.68
644.419	38721.4
644.771	38510.33
645.124	38080.28
645.477	38121.64
645.83	37814.75
646.182	37749.22
646.535	37634.19
646.888	37613.86
647.24	37457.93
647.593	37652.95
647.945	37543.12
648.298	37431.94
648.65	37326.86
649.002	37314.65
649.355	37560.52
649.707	37470.58
650.059	37641.65
650.411	38090
650.763	38117.8
651.115	38388.98
651.467	38203.44
651.819	38246.38
652.171	38278.47
652.523	38230.34
652.875	38054.07
653.227	38088.42
653.578	38249.32
653.93	38217
654.282	38188.53
654.633	38072.83
654.985	38052.94
655.337	38100.85
655.688	38090.45
656.039	38207.06
656.391	37916.9
656.742	37941.76
657.094	37986.05
657.445	38255.65
657.796	38042.09
658.147	37961.64
658.498	37998.03
658.849	38002.32
659.2	37995.31
659.551	37800.29
659.902	38136.1
660.253	37942.66
660.604	38046.16
660.955	37923.23
661.306	38049.55
661.656	37814.3
662.007	37867.18
662.358	37951.25
662.708	37879.16
663.059	37788.77
663.409	37697.47
663.76	37868.76
664.11	37971.36
664.461	37929.78
664.811	37730.01
665.161	37885.71
665.511	37730.46
665.862	37805.94
666.212	37889.1
666.562	37965.48
666.912	37894.3
667.262	37836
667.612	37745.83
667.962	37894.3
668.312	37788.77
668.662	37856.11
669.011	37708.54
669.361	37715.55
669.711	37669.45
670.06	37623.57
670.41	37626.28
670.76	37613.18
671.109	37768.2
671.459	37755.77
671.808	37702.89
672.157	37675.77
672.507	37598.94
672.856	37384.48
673.205	37563.24
673.554	37672.61
673.904	37473.97
674.253	37694.76
674.602	37528.21
674.951	37026.98
675.3	36936.36
675.649	37527.98
675.998	37447.31
676.346	37502.22
676.695	37599.84
677.044	37175.45
677.393	37335.44
677.741	37373.86
678.09	37327.99
678.438	37249.35
678.787	37365.73
679.135	37325.28
679.484	37086.64
679.832	37265.62
680.181	37063.81
680.529	37206.41
680.877	37025.85
681.225	36983.82
681.573	37200.31
681.922	36953.99
682.27	36779.3
682.618	36778.17
682.966	36837.83
683.314	36886.87
683.661	36748.34
684.009	36688.68
684.357	36549.93
684.705	36446.65
685.053	36438.75
685.4	36473.09
685.748	36353.1
686.095	36221.12
686.443	36189.71
686.79	36003.5
687.138	36147.23
687.485	36146.1
687.832	35917.86
688.18	36130.96
688.527	35860.91
688.874	35929.38
689.221	35716.28
689.568	35718.31
689.915	35642.16
690.262	35636.51
690.609	35489.62
690.956	35469.73
691.303	35377.53
691.65	35270.87
691.997	35229.96
692.344	34999.01
692.69	35087.37
693.037	34970.76
693.383	34766.02
693.73	34886.92
694.077	34716.76
694.423	34665.01
694.769	34597.66
695.116	34500.49
695.462	34437.22
695.808	34279.71
696.155	34362.87
696.501	34001.97
696.847	34177.79
697.193	33859.15
697.539	33982.99
697.885	33793.62
698.231	33805.14
698.577	33740.29
698.923	33601.31
699.269	33429.56
699.614	33249
699.96	33224.59
700.306	33252.84
700.651	33156.35
700.997	33162.67
701.342	33001.32
701.688	32929.69
702.033	32805.17
702.379	32858.73
702.724	32644.72
703.069	32870.03
703.415	32429.13
703.76	32421.45
704.105	32312.75
704.45	32378.06
704.795	32239.76
705.14	32173.09
705.485	32109.37
705.83	31993.89
706.175	32038.41
706.52	31927.45
706.865	31729.26
707.209	31755.93
707.554	31719.1
707.899	31719.32
708.243	31620.79
708.588	31620.79
708.932	31339.44
709.277	31198.43
709.621	31375.38
709.966	31098.09
710.31	31152.33
710.654	30922.28
710.998	31051.99
711.342	30986.69
711.687	31022.84
712.031	30706.01
712.375	30665.79
712.719	30673.02
713.063	30758.67
713.407	30640.93
713.75	30451.56
714.094	30551.67
714.438	30412.92
714.782	30341.28
715.125	30159.59
715.469	30232.35
715.812	30131.57
716.156	29950.55
716.499	30021.51
716.843	29987.16
717.186	29783.55
717.53	29942.19
717.873	29904.23
718.216	29762.99
718.559	29649.77
718.902	29559.6
719.246	29497.68
719.589	29485.03
719.932	29360.06
720.275	29401.64
720.617	29369.33
720.96	29280.97
721.303	29381.76
721.646	29261.98
721.989	29165.04
722.331	29277.8
722.674	29067.87
723.016	29048.88
723.359	29113.29
723.701	29094.53
724.044	28963.91
724.386	28697.25
724.729	28938.15
725.071	28786.74
725.413	28798.95
725.755	28722.56
726.097	28659.06
726.439	28536.35
726.782	28552.85
727.124	28641.21
727.465	28455
727.807	28344.72
728.149	28393.76
728.491	28337.26
728.833	28378.84
729.175	28323.48
729.516	28304.95
729.858	28129.36
730.199	28271.05
730.541	28107.21
730.882	28088.23
731.224	28098.17
731.565	27935.92
731.906	27996.71
732.248	27930.04
732.589	27789.03
732.93	27725.75
733.271	27778.18
733.612	27707.9
733.953	27729.82
734.294	27542.93
734.635	27385.65
734.976	27570.28
735.317	27435.37
735.658	27561.92
735.999	27368.48
736.339	27336.39
736.68	27434.91
737.021	27329.61
737.361	27358.31
737.702	27311.75
738.042	27190.85
738.383	27238.08
738.723	27222.04
739.063	27034.25
739.404	27067.47
739.744	27050.97
740.084	26844.42
740.424	26950.86
740.764	26826.79
741.104	27025.89
741.444	26775.72
741.784	26650.75
742.124	26805.1
742.464	26629.74
742.804	26554.26
743.143	26491.44
743.483	26614.6
743.823	26421.83
744.162	26562.39
744.502	26623.86
744.841	26400.82
745.181	26577.99
745.52	26413.7
745.86	26355.39
746.199	26365.11
746.538	26181.16
746.877	26295.06
747.216	26266.13
747.556	26195.85
747.895	26216.19
748.234	26014.16
748.573	25999.02
748.911	25897.78
749.25	25928.06
749.589	25928.06
749.928	25843.77
750.267	25880.6
750.605	25757.44
750.944	25700.72
751.283	25601.52
751.621	25663.89
751.96	25538.47
752.298	25572.36
752.636	25455.31
752.975	25344.8
753.313	25186.39
753.651	25411.69
753.989	25185.48
754.327	25244.69
754.666	25089.44
755.004	24975.77
755.342	25066.61
755.679	25094.18
756.017	24888.99
756.355	24969.89
756.693	24846.96
757.031	24898.71
757.368	24691.94
757.706	24645.61
758.044	24615.1
758.381	24649
758.719	24615.1
759.056	24524.48
759.394	24393.41
759.731	24213.3
760.068	24292.4
760.405	24101.22
760.743	24064.38
761.08	24111.16
761.417	23934.44
761.754	23978.06
762.091	23966.76
762.428	23812.18
762.765	23596.15
763.102	23719.76
763.438	23607.44
763.775	23527.9
764.112	23576.26
764.449	23492.42
764.785	23372.42
765.122	23225.76
765.458	23148.02
765.795	23097.63
766.131	23065.31
766.467	22922.49
766.804	22821.25
767.14	22843.62
767.476	22748.03
767.812	22579.45
768.148	22686.56
768.485	22586.45
768.821	22440.02
769.157	22398.44
769.492	22316.86
769.828	22319.12
770.164	22131.78
770.5	22059.69
770.836	21985.79
771.171	21944.66
771.507	21854.95
771.842	21767.27
772.178	21666.7
772.513	21579.25
772.849	21577.22
773.184	21512.58
773.519	21447.05
773.855	21285.7
774.19	21287.28
774.525	21187.39
774.86	21220.61
775.195	21145.59
775.53	20951.02
775.865	20899.94
776.2	20668.09
776.535	20559.61
776.87	20637.8
777.205	20620.18
777.539	20368.66
777.874	20431.03
778.209	20224.71
778.543	20341.54
778.878	20143.58
779.212	20175.44
779.547	20027.43
779.881	20099.74
780.215	19904.26
780.55	19931.16
780.884	19824.27
781.218	19753.53
781.552	19743.82
781.886	19707.21
782.22	19508.57
782.554	19405.29
782.888	19293.43
783.222	19202.81
783.556	19197.39
783.889	19152.42
784.223	18976.15
784.557	18974.35
784.89	18998.07
785.224	18829.49
785.557	18682.38
785.891	18660.23
786.224	18728.48
786.558	18679.66
786.891	18535.49
787.224	18489.39
787.557	18350.18
787.891	18330.75
788.224	18286.68
788.557	18208.04
788.89	18220.24
789.223	18248.04
789.556	17945.22
789.888	17959.23
790.221	17871.78
790.554	17737.99
790.887	17768.95
791.219	17756.75
791.552	17620.48
791.884	17576.64
792.217	17604.66
792.549	17492.58
792.882	17337.78
793.214	17339.36
793.546	17289.64
793.879	17277.22
794.211	17034.06
794.543	17168.74
794.875	17026.83
795.207	17142.08
795.539	16975.53
795.871	17020.27
796.203	16848.53
796.535	16854.4
796.867	16723.78
797.198	16712.94
797.53	16623.45
797.862	16557.46
798.193	16602.43
798.525	16373.96
798.856	16445.6
799.188	16298.03
799.519	16307.52
799.85	16197.02
800.182	16237.92
800.513	16129.67
800.844	15998.6
801.175	16028.89
801.506	15922
801.837	15940.98
802.168	15948.89
802.499	15985.05
802.83	15848.78
803.161	15718.16
803.491	15662.12
803.822	15734.66
804.153	15725.62
804.483	15515.45
804.814	15510.48
805.145	15425.51
805.475	15449.24
805.805	15346.42
806.136	15359.75
806.466	15298.28
806.796	15310.26
807.126	15205.41
807.457	15146.2
807.787	15117.05
808.117	15047.67
808.447	14908.24
808.777	15016.71
809.107	15000.44
809.436	14892.19
809.766	14929.93
810.096	14873.66
810.426	14853.55
810.755	14808.81
811.085	14835.92
811.414	14640.22
811.744	14580.56
812.073	14614.23
812.403	14519.32
812.732	14495.59
813.061	14391.87
813.39	14429.15
813.719	14383.73
814.049	14376.95
814.378	14282.27
814.707	14283.62
815.036	14298.54
815.365	14256.28
815.693	14010.18
816.022	14132.89
816.351	14054.48
816.68	13974.93
817.008	14033.91
817.337	13963.63
817.665	13849.73
817.994	13915.95
818.322	13865.1
818.651	13874.82
818.979	13769.51
819.307	13799.11
819.636	13781.94
819.964	13665.11
820.292	13676.86
820.62	13670.76
820.948	13686.58
821.276	13671.43
821.604	13579.69
821.932	13602.51
822.259	13621.49
822.587	13661.27
822.915	13642.51
823.243	13535.17
823.57	13554.15
823.898	13652
824.225	13520.93
824.553	13626.24
824.88	13522.74
825.207	13581.04
825.535	13602.28
825.862	13530.65
826.189	13560.25
826.516	13496.52
826.843	13664.88
827.17	13586.46
827.497	13531.1
827.824	13496.98
828.151	13595.28
828.478	13592.79
828.805	13599.35
829.131	13573.81
829.458	13507.6
829.785	13453.81
830.111	13487.26
830.438	13549.4
830.764	13629.4
831.09	13531.78
831.417	13438.45
831.743	13460.59
832.069	13545.79
832.395	13514.6
832.722	13527.26
833.048	13467.82
833.374	13491.55
833.7	13393.02
834.026	13418.33
834.351	13340.6
834.677	13385.57
835.003	13414.94
835.329	13393.7
835.654	13413.14
835.98	13275.74
836.306	13340.37
836.631	13315.06
836.956	13286.81
837.282	13305.57
837.607	13226.47
837.932	13124.78
838.258	13172.69
838.583	13171.79
838.908	13044.78
839.233	13163.43
839.558	13006.82
839.883	13106.7
840.208	12947.16
840.533	13058.57
840.858	12964.11
841.182	12984.67
841.507	12983.09
841.832	12833.72
842.156	12905.13
842.481	12900.16
842.805	12784.23
843.13	12808.18
843.454	12772.93
843.778	12663.55
844.103	12715.3
844.427	12565.93
844.751	12668.52
845.075	12660.61
845.399	12636.43
845.723	12538.81
846.047	12512.14
846.371	12466.72
846.695	12475.53
847.019	12273.96
847.343	12357.8
847.666	12183.79
847.99	12170.68
848.313	12165.94
848.637	12058.37
848.96	12030.12
849.284	12056.56
849.607	11886.85
849.931	11907.64
850.254	11877.81
850.577	11748.1
850.9	11696.35
851.223	11746.74
851.546	11657.02
851.869	11574.77
852.192	11550.36
852.515	11448.67
852.838	11395.34
853.161	11444.37
853.483	11365.73
853.806	11318.05
854.129	11367.31
854.451	11279.18
854.774	11344.04
855.096	11204.38
855.419	11109.47
855.741	11187.21
856.063	11116.93
856.385	11100.2
856.708	10972.52
857.03	11007.55
857.352	10971.17
857.674	10961.9
857.996	10879.87
858.318	10791.96
858.64	10811.17
858.961	10828.57
859.283	10811.62
859.605	10754
859.926	10768.01
860.248	10715.35
860.57	10628.12
860.891	10622.02
861.212	10589.71
861.534	10596.03
861.855	10545.87
862.176	10577.5
862.498	10577.5
862.819	10604.4
863.14	10499.31
863.461	10415.7
863.782	10364.85
864.103	10505.87
864.424	10468.58
864.745	10396.72
865.065	10350.62
865.386	10309.94
865.707	10247.57
866.027	10327.57
866.348	10239.43
866.668	10267.91
866.989	10176.38
867.309	10159.21
867.63	10214.12
867.95	10179.1
868.27	10167.8
868.59	10154.24
868.91	10185.2
869.23	10068.82
869.55	10048.48
869.87	10121.02
870.19	10074.69
870.51	10112.21
870.83	10093.68
871.15	9980.46
871.469	10059.33
871.789	10098.87
872.109	10038.31
872.428	9947.69
872.748	9973.45
873.067	9954.02
873.386	9947.69
873.706	9932.32
874.025	9895.94
874.344	9785.66
874.663	9883.51
874.982	9808.49
875.301	9851.87
875.62	9779.33
875.939	9791.08
876.258	9777.75
876.577	9701.37
876.896	9706.79
877.214	9706.79
877.533	9692.78
877.852	9710.63
878.17	9673.12
878.489	9634.93
878.807	9642.84
879.125	9683.74
879.444	9648.49
879.762	9549.73
880.08	9555.16
880.398	9587.02
880.716	9576.63
881.034	9484.2
881.352	9526.68
881.67	9487.59
881.988	9538.89
882.306	9418.21
882.624	9349.97
882.941	9404.2
883.259	9353.36
883.577	9361.72
883.894	9277.2
884.212	9338.44
884.529	9267.93
884.846	9275.39
885.164	9239.23
885.481	9169.41
885.798	9233.13
886.115	9100.03
886.432	9179.8
886.75	9086.24
887.067	9125.79
887.383	9062.29
887.7	9083.31
888.017	9014.38
888.334	8985.68
888.651	8934.84
888.967	8938.45
889.284	8937.1
889.6	8876.31
889.917	8844.89
890.233	8904.33
890.55	8821.39
890.866	8820.04
891.182	8802.41
891.498	8747.5
891.815	8772.13
892.131	8714.5
892.447	8740.04
892.763	8658.91
893.079	8618.01
893.395	8595.86
893.71	8582.3
894.026	8600.83
894.342	8549.31
894.657	8515.19
894.973	8423.44
895.289	8492.14
895.604	8426.6
895.92	8385.25
896.235	8343.89
896.55	8372.82
896.865	8346.38
897.181	8239.94
897.496	8289.2
897.811	8234.29
898.126	8240.39
898.441	8231.35
898.756	8167.4
899.071	8106.61
899.386	8130.56
899.7	8004.92
900.015	8043.33
900.33	7992.04
900.644	8013.05
900.959	7970.34
901.273	7955.88
901.588	7927.63
901.902	7832.27
902.216	7844.92
902.531	7794.07
902.845	7809.22
903.159	7742.55
903.473	7675.21
903.787	7624.14
904.101	7639.5
904.415	7625.49
904.729	7566.28
905.042	7578.94
905.356	7551.82
905.67	7515.66
905.984	7530.13
906.297	7480.41
906.611	7406.51
906.924	7397.7
907.237	7428.21
907.551	7413.07
907.864	7315.67
908.177	7274.77
908.491	7366.97
908.804	7283.58
909.117	7183.7
909.43	7141.21
909.743	7164.94
910.056	7124.04
910.368	7007.65
910.681	7048.56
910.994	6995.45
911.307	7020.31
911.619	6995.45
911.932	7003.59
912.244	6979.18
912.557	6907.77
912.869	6858.05
913.181	6812.41
913.494	6807.21
913.806	6769.47
914.118	6789.13
914.43	6744.38
914.742	6692.86
915.054	6648.12
915.366	6691.73
915.678	6600.43
915.99	6649.02
916.302	6491.28
916.613	6568.12
916.925	6515.01
917.236	6508.01
917.548	6483.6
917.859	6485.86
918.171	6365.86
918.482	6378.74
918.794	6351.4
919.105	6304.85
919.416	6269.14
919.727	6283.15
920.038	6222.14
920.349	6250.84
920.66	6209.03
920.971	6183.04
921.282	6182.82
921.593	6103.5
921.903	6034.12
922.214	6057.85
922.525	6090.39
922.835	6035.02
923.146	6017.17
923.456	5985.53
923.767	5951.19
924.077	5973.11
924.387	5918.42
924.697	5900.11
925.008	5860.79
925.318	5842.49
925.628	5827.8
925.938	5831.64
926.248	5769.95
926.558	5737.18
926.867	5725.88
927.177	5675.49
927.487	5647.69
927.796	5666.45
928.106	5631.19
928.416	5631.19
928.725	5557.98
929.034	5562.04
929.344	5559.56
929.653	5545.55
929.962	5462.84
930.271	5456.06
930.581	5398.88
930.89	5451.31
931.199	5355.49
931.508	5366.57
931.817	5350.52
932.125	5303.29
932.434	5313.24
932.743	5261.94
933.051	5259.23
933.36	5228.94
933.669	5179.45
933.977	5159.12
934.286	5139.68
934.594	5164.31
934.902	5121.6
935.21	5073.92
935.519	5042.51
935.827	5049.74
936.135	4991.66
936.443	4985.79
936.751	4968.16
937.059	4999.57
937.367	4947.37
937.674	4908.05
937.982	4933.81
938.29	4859.24
938.597	4890.65
938.905	4818.56
939.213	4818.33
939.52	4787.6
939.827	4838.9
940.135	4802.74
940.442	4764.32
940.749	4746.7
941.056	4755.74
941.363	4635.97
941.67	4672.35
941.977	4656.76
942.284	4601.62
942.591	4619.92
942.898	4590.54
943.205	4565.01
943.511	4551.45
943.818	4536.08
944.125	4519.58
944.431	4500.6
944.738	4479.13
945.044	4417.89
945.35	4391.45
945.657	4441.39
945.963	4367.5
946.269	4309.42
946.575	4332.02
946.881	4335.41
947.187	4354.84
947.493	4287.27
947.799	4276.88
948.105	4236.2
948.41	4218.35
948.716	4214.96
949.022	4235.3
949.327	4176.99
949.633	4119.82
949.938	4128.18
950.244	4164.57
950.549	4120.72
950.854	4093.16
951.16	4079.6
951.465	4072.14
951.77	4010.22
952.075	3996.43
952.38	3981.52
952.685	4001.41
952.99	3964.34
953.294	3937.45
953.599	3932.93
953.904	3921.86
954.209	3860.17
954.513	3905.59
954.818	3874.86
955.122	3856.33
955.426	3812.26
955.731	3802.32
956.035	3831.92
956.339	3790.34
956.643	3777.91
956.948	3773.16
957.252	3734.52
957.556	3740.62
957.86	3675.76
958.163	3695.88
958.467	3699.49
958.771	3635.54
959.075	3623.11
959.378	3619.04
959.682	3613.39
959.985	3610.46
960.289	3623.56
960.592	3558.71
960.896	3568.2
961.199	3546.73
961.502	3533.4
961.805	3477.58
962.108	3493.4
962.411	3530.46
962.714	3464.25
963.017	3462.21
963.32	3433.96
963.623	3411.37
963.926	3432.38
964.228	3407.98
964.531	3379.5
964.833	3387.18
965.136	3333.18
965.438	3306.06
965.741	3302.89
966.043	3344.47
966.345	3317.81
966.648	3288.43
966.95	3270.35
967.252	3241.88
967.554	3188.77
967.856	3213.4
968.158	3198.94
968.46	3181.99
968.761	3147.87
969.063	3130.47
969.365	3139.96
969.666	3135.67
969.968	3127.3
970.269	3106.74
970.571	3047.08
970.872	3108.32
971.174	3038.27
971.475	3036.69
971.776	3039.62
972.077	3049.11
972.378	2980.42
972.679	2979.74
972.98	2960.3
973.281	3017.7
973.582	3002.79
973.883	2961.21
974.183	2956.01
974.484	2940.87
974.785	2877.59
975.085	2894.32
975.386	2906.97
975.686	2865.62
975.986	2856.8
976.287	2859.97
976.587	2838.72
976.887	2813.64
977.187	2820.19
977.487	2809.35
977.787	2814.09
978.087	2738.39
978.387	2753.3
978.687	2758.73
978.987	2744.49
979.286	2719.63
979.586	2736.35
979.885	2715.56
980.185	2657.49
980.484	2695.9
980.784	2661.78
981.083	2671.5
981.382	2657.03
981.682	2621.56
981.981	2619.97
982.28	2636.47
982.579	2598.28
982.878	2629.46
983.177	2576.36
983.475	2593.99
983.774	2578.84
984.073	2591.5
984.372	2531.84
984.67	2509.69
984.969	2532.29
985.267	2532.52
985.566	2514.89
985.864	2493.65
986.162	2481.45
986.461	2447.32
986.759	2462.01
987.057	2424.05
987.355	2404.84
987.653	2413.43
987.951	2418.4
988.249	2408
988.547	2391.73
988.844	2367.1
989.142	2392.86
989.44	2352.86
989.737	2358.74
990.035	2344.5
990.332	2303.15
990.63	2315.12
990.927	2299.76
991.224	2282.36
991.521	2282.81
991.819	2274.45
992.116	2257.27
992.413	2245.07
992.71	2228.12
993.006	2230.61
993.303	2206.88
993.6	2168.91
993.897	2184.28
994.193	2190.38
994.49	2196.26
994.787	2142.25
995.083	2145.41
995.379	2104.51
995.676	2128.91
995.972	2135.92
996.268	2107.22
996.565	2085.3
996.861	2106.54
997.157	2096.37
997.453	2083.49
997.749	2035.13
998.044	2046.66
998.34	2009.82
998.636	2001.46
998.932	1991.97
999.227	2012.31
999.523	2026.99
999.818	2014.57
1000.114	1976.37
1000.409	1978.86
1000.704	1977.96
1001	1948.58
1001.295	1938.41
1001.59	1930.95
1001.885	1919.88
1002.18	1891.63
1002.475	1880.56
1002.77	1895.92
1003.065	1832.88
1003.359	1881.01
1003.654	1886.43
1003.949	1871.97
1004.243	1810.5
1004.538	1824.06
1004.832	1814.57
1005.127	1836.04
1005.421	1798.75
1005.715	1799.88
1006.009	1780.9
1006.304	1758.53
1006.598	1757.85
1006.892	1757.85
1007.186	1752.65
1007.48	1738.41
1007.773	1705.42
1008.067	1704.74
1008.361	1685.53
1008.655	1712.2
1008.948	1675.59
1009.242	1689.38
1009.535	1660.9
1009.829	1656.38
1010.122	1653.67
1010.415	1644.86
1010.708	1636.95
1011.001	1620.23
1011.295	1621.58
1011.588	1596.05
1011.881	1575.48
1012.173	1554.01
1012.466	1580
1012.759	1553.79
1013.052	1565.54
1013.344	1555.14
1013.637	1572.77
1013.93	1547.91
1014.222	1538.87
1014.514	1529.83
1014.807	1501.81
1015.099	1511.3
1015.391	1478.53
1015.683	1484.86
1015.976	1458.65
1016.268	1457.29
1016.56	1462.49
1016.851	1441.02
1017.143	1424.98
1017.435	1417.75
1017.727	1436.05
1018.018	1403.51
1018.31	1416.84
1018.602	1405.32
1018.893	1397.18
1019.185	1403.73
1019.476	1357.41
1019.767	1339.56
1020.058	1353.11
1020.35	1335.49
1020.641	1326.45
1020.932	1335.49
1021.223	1296.17
1021.514	1307.01
1021.804	1308.6
1022.095	1303.62
1022.386	1296.39
1022.677	1265.43
1022.967	1258.88
1023.258	1261.37
1023.548	1280.12
1023.839	1243.29
1024.129	1254.13
1024.419	1218.2
1024.709	1229.28
1025	1203.51
1025.29	1203.51
1025.58	1198.99
1025.87	1190.41
1026.16	1201.48
1026.449	1183.63
1026.739	1168.94
1027.029	1186.34
1027.319	1128.04
1027.608	1153.8
1027.898	1142.05
1028.187	1107.02
1028.477	1113.8
1028.766	1115.61
1029.055	1099.79
1029.344	1099.11
1029.634	1093.46
1029.923	1075.38
1030.212	1068.6
1030.501	1086
1030.79	1071.09
1031.078	1065.66
1031.367	1058.43
1031.656	1053.69
1031.945	1038.55
1032.233	1040.81
1032.522	1025.21
1032.81	1033.12
1033.099	1018.43
1033.387	1007.59
1033.675	997.42
1033.963	985.89
1034.251	997.42
1034.54	974.14
1034.828	993.12
1035.116	972.79
1035.403	972.56
1035.691	993.12
1035.979	955.84
1036.267	973.92
1036.554	941.15
1036.842	926.68
1037.129	935.72
1037.417	916.74
1037.704	896.18
1037.992	914.93
1038.279	932.79
1038.566	879
1038.853	879
1039.14	879
