Data from hue_00_FLMS001491_14.txt Node
Date: Mon Feb 06 15:29:20 GMT 2017
User: dcchb
Spectrometer: FLMS00149
Trigger mode: 0
Integration Time (sec): 2.000000E-2
Scans to average: 10
Electric dark correction enabled: true
Nonlinearity correction enabled: false
Boxcar width: 0
XAxis mode: Wavelengths
Number of Pixels in Spectrum: 2048
>>>>>Begin Spectral Data<<<<<
341.393	-11.62
341.776	-11.62
342.16	-11.62
342.543	-65.18
342.927	-69.93
343.31	-77.38
343.693	-75.8
344.077	-65.63
344.46	-52.98
344.843	-56.82
345.226	-26.76
345.61	-20.66
345.993	-21.12
346.376	-2.36
346.759	-10.72
347.142	24.08
347.525	51.65
347.908	60.24
348.291	59.56
348.674	90.29
349.057	124.42
349.44	122.16
349.823	145.89
350.206	156.96
350.588	206.45
350.971	195.6
351.354	208.71
351.737	232.44
352.119	238.99
352.502	259.33
352.884	254.58
353.267	275.83
353.65	282.15
354.032	296.84
354.414	302.49
354.797	310.63
355.179	316.05
355.562	315.15
355.944	311.76
356.326	330.06
356.709	340.68
357.091	351.98
357.473	338.65
357.855	336.62
358.238	337.29
358.62	355.82
359.002	331.19
359.384	336.84
359.766	329.84
360.148	350.17
360.53	324.19
360.912	325.99
361.294	356.28
361.676	313.57
362.057	335.26
362.439	325.32
362.821	324.64
363.203	336.39
363.584	323.51
363.966	325.09
364.348	315.83
364.729	311.98
365.111	304.53
365.493	305.2
365.874	320.12
366.256	311.08
366.637	320.34
367.019	295.26
367.4	315.6
367.781	309.72
368.163	323.96
368.544	329.16
368.925	314.24
369.306	314.02
369.688	315.37
370.069	301.81
370.45	312.21
370.831	303.62
371.212	316.73
371.593	308.59
371.974	299.33
372.355	304.75
372.736	319.44
373.117	319.44
373.498	306.79
373.879	309.05
374.26	321.93
374.641	302.27
375.021	305.43
375.402	309.27
375.783	325.09
376.163	304.07
376.544	325.32
376.925	316.95
377.305	328.25
377.686	321.93
378.066	323.51
378.447	303.62
378.827	311.98
379.208	312.44
379.588	307.46
379.968	317.41
380.349	329.84
380.729	325.77
381.109	336.39
381.489	323.51
381.87	331.19
382.25	340.91
382.63	328.93
383.01	329.16
383.39	333.68
383.77	339.1
384.15	341.59
384.53	335.94
384.91	341.14
385.29	318.31
385.67	354.24
386.049	361.93
386.429	335.71
386.809	330.74
387.189	355.37
387.568	333.9
387.948	359.21
388.328	334.58
388.707	358.31
389.087	355.15
389.466	349.5
389.846	352.21
390.225	363.06
390.605	325.99
390.984	342.27
391.363	348.37
391.743	349.04
392.122	333
392.501	341.59
392.881	369.83
393.26	369.61
393.639	354.69
394.018	373.22
394.397	350.4
394.776	344.3
395.155	384.75
395.534	357.86
395.913	377.07
396.292	365.77
396.671	352.66
397.05	369.38
397.429	371.64
397.808	371.64
398.186	366.9
398.565	391.76
398.944	369.83
399.323	376.16
399.701	389.04
400.08	379.33
400.458	364.19
400.837	396.95
401.215	381.13
401.594	371.19
401.972	391.08
402.351	386.78
402.729	373.68
403.107	373.9
403.486	393.56
403.864	386.78
404.242	400.34
404.62	385.65
404.999	405.77
405.377	403.28
405.755	401.02
406.133	416.39
406.511	428.36
406.889	405.31
407.267	429.04
407.645	418.42
408.023	403.28
408.401	401.47
408.779	426.56
409.156	426.56
409.534	446.22
409.912	421.58
410.29	448.48
410.667	441.02
411.045	450.06
411.422	444.86
411.8	435.37
412.178	442.15
412.555	432.43
412.933	452.77
413.31	462.49
413.687	451.41
414.065	457.97
414.442	455.48
414.819	464.07
415.197	455.48
415.574	482.37
415.951	472.43
416.328	470.4
416.705	489.61
417.082	498.19
417.46	477.18
417.837	479.21
418.214	495.03
418.591	521.02
418.967	492.54
419.344	489.61
419.721	489.15
420.098	525.09
420.475	486.67
420.852	510.62
421.228	501.58
421.605	511.75
421.982	517.63
422.358	533.22
422.735	527.8
423.111	529.38
423.488	525.99
423.864	524.63
424.241	535.93
424.617	538.42
424.994	529.83
425.37	555.14
425.746	558.3
426.123	556.95
426.499	559.21
426.875	584.52
427.251	549.94
427.627	588.59
428.003	596.5
428.379	586.78
428.756	580.68
429.132	609.15
429.507	587.68
429.883	591.52
430.259	615.03
430.635	603.05
431.011	610.51
431.387	630.62
431.763	631.07
432.138	601.24
432.514	620
432.89	638.08
433.265	636.27
433.641	658.41
434.016	638.75
434.392	635.14
434.767	653.22
435.143	680.79
435.518	670.62
435.894	706.1
436.269	695.93
436.644	683.72
437.02	683.27
437.395	691.18
437.77	720.11
438.145	697.06
438.52	725.98
438.895	719.66
439.271	712.88
439.646	728.02
440.021	749.03
440.395	732.54
440.77	723.05
441.145	749.71
441.52	756.94
441.895	730.05
442.27	769.6
442.645	755.59
443.019	747
443.394	738.64
443.769	771.41
444.143	758.07
444.518	771.86
444.892	787.45
445.267	779.54
445.641	780.9
446.016	770.5
446.39	787.68
446.764	781.58
447.139	794.68
447.513	815.92
447.887	834.68
448.262	814.57
448.636	820.22
449.01	833.1
449.384	833.33
449.758	839.88
450.132	830.16
450.506	825.42
450.88	813.67
451.254	843.27
451.628	850.05
452.002	869.26
452.376	860.44
452.75	849.6
453.123	881.69
453.497	887.56
453.871	903.15
454.244	907.9
454.618	909.03
454.992	920.1
455.365	941.35
455.739	942.7
456.112	946.77
456.486	951.51
456.859	935.92
457.232	975.24
457.606	949.48
457.979	987.9
458.352	964.4
458.725	983.38
459.099	991.74
459.472	1014.34
459.845	1005.98
460.218	1025.18
460.591	1031.96
460.964	1046.88
461.337	1069.7
461.71	1064.05
462.083	1081
462.456	1074
462.829	1049.82
463.201	1113.09
463.574	1106.09
463.947	1116.71
464.32	1135.01
464.692	1139.31
465.065	1166.2
465.438	1161.23
465.81	1202.13
466.183	1206.42
466.555	1230.38
466.928	1260.66
467.3	1215.24
467.672	1268.57
468.045	1271.96
468.417	1274.22
468.789	1300.43
469.161	1297.49
469.534	1297.49
469.906	1317.61
470.278	1357.15
470.65	1378.85
471.022	1411.84
471.394	1438.28
471.766	1416.59
472.138	1451.39
472.51	1473.31
472.882	1493.2
473.253	1509.92
473.625	1531.39
473.997	1538.62
474.369	1549.46
474.74	1564.83
475.112	1602.57
475.484	1627.43
475.855	1638.28
476.227	1672.4
476.598	1720.99
476.97	1730.03
477.341	1749.01
477.713	1787.42
478.084	1802.11
478.455	1873.07
478.827	1867.2
479.198	1939.74
479.569	1929.79
479.94	2019.74
480.311	2000.75
480.682	2031.03
481.053	2085.27
481.424	2115.1
481.795	2160.3
482.166	2193.29
482.537	2233.97
482.908	2253.18
483.279	2266.06
483.65	2335.21
484.021	2364.13
484.391	2427.86
484.762	2418.14
485.133	2471.93
485.503	2488.42
485.874	2549.21
486.244	2579.72
486.615	2626.27
486.985	2661.07
487.356	2712.6
487.726	2764.57
488.097	2803.44
488.467	2814.97
488.837	2852.93
489.207	2883.67
489.578	2930.22
489.948	2971.8
490.318	3032.82
490.688	3030.56
491.058	3072.36
491.428	3134.51
491.798	3163.43
492.168	3221.06
492.538	3206.37
492.908	3291.57
493.278	3312.81
493.648	3308.97
494.017	3383.54
494.387	3425.8
494.757	3473.48
495.126	3519.36
495.496	3485.69
495.866	3509.19
496.235	3571.11
496.605	3619.69
496.974	3612.46
497.344	3656.75
497.713	3652.91
498.082	3679.58
498.452	3693.59
498.821	3756.86
499.19	3787.82
499.559	3817.88
499.928	3848.61
500.298	3859.46
500.667	3887.93
501.036	3868.73
501.405	3923.64
501.774	3904.66
502.143	3955.05
502.512	4000.02
502.88	3995.95
503.249	4046.35
503.618	4005.22
503.987	4105.33
504.356	4111.43
504.724	4091.09
505.093	4126.35
505.462	4152.11
505.83	4171.99
506.199	4198.66
506.567	4263.29
506.936	4237.76
507.304	4276.85
507.672	4290.64
508.041	4302.39
508.409	4359.11
508.777	4389.16
509.145	4379.9
509.514	4375.15
509.882	4464.19
510.25	4396.4
510.618	4467.81
510.986	4470.52
511.354	4503.96
511.722	4495.6
512.09	4558.65
512.458	4522.49
512.826	4582.61
513.193	4555.26
513.561	4605.66
513.929	4609.27
514.297	4686.56
514.664	4666.67
515.032	4721.58
515.4	4670.74
515.767	4765.88
516.135	4771.53
516.502	4754.35
516.869	4828.93
517.237	4828.7
517.604	4821.02
517.972	4823.5
518.339	4857.17
518.706	4843.84
519.073	4837.97
519.44	4875.93
519.808	4958.87
520.175	4905.31
520.542	4991.18
520.909	5013.55
521.276	4986.89
521.643	5064.85
522.009	5039.99
522.376	5113.44
522.743	5153.44
523.11	5150.5
523.477	5173.32
523.843	5178.07
524.21	5200.67
524.577	5279.08
524.943	5287.45
525.31	5274.79
525.676	5352.53
526.043	5386.65
526.409	5384.39
526.776	5433.88
527.142	5424.62
527.508	5468.23
527.874	5505.29
528.241	5568.34
528.607	5541.22
528.973	5607.21
529.339	5604.73
529.705	5673.2
530.071	5667.55
530.437	5684.95
530.803	5703.93
531.169	5757.49
531.535	5782.35
531.901	5804.95
532.267	5755.91
532.632	5868.45
532.998	5861.67
533.364	5865.28
533.73	5909.35
534.095	5964.94
534.461	6002.91
534.826	6004.49
535.192	6033.41
535.557	6061.21
535.923	6049.23
536.288	6080.87
536.653	6117.25
537.019	6170.59
537.384	6176.46
537.749	6179.85
538.114	6211.26
538.479	6190.02
538.845	6265.27
539.21	6227.76
539.575	6328.32
539.94	6339.62
540.305	6425.04
540.67	6358.15
541.034	6410.13
541.399	6410.81
541.764	6442.67
542.129	6441.31
542.494	6511.82
542.858	6536.23
543.223	6533.06
543.587	6521.09
543.952	6622.33
544.316	6646.28
544.681	6617.81
545.045	6657.35
545.41	6708.43
545.774	6750.01
546.138	6722.66
546.503	6752.94
546.867	6807.18
547.231	6851.25
547.595	6853.28
547.959	6863.45
548.324	6879.27
548.688	6884.92
549.052	6960.4
549.416	6986.84
549.779	6939.15
550.143	6996.1
550.507	7012.15
550.871	7009.66
551.235	7098.25
551.599	7116.1
551.962	7088.98
552.326	7117.45
552.689	7159.26
553.053	7160.84
553.417	7182.09
553.78	7288.75
554.143	7261.18
554.507	7274.74
554.87	7293.27
555.234	7363.78
555.597	7290.33
555.96	7389.09
556.323	7348.63
556.686	7359.03
557.05	7450.55
557.413	7481.06
557.776	7434.96
558.139	7500.95
558.502	7544.79
558.865	7530.78
559.228	7621.62
559.59	7629.31
559.953	7669.76
560.316	7652.58
560.679	7711.79
561.041	7729.64
561.404	7767.15
561.767	7873.14
562.129	7810.54
562.492	7915.85
562.854	7942.07
563.217	7897.77
563.579	7897.09
563.941	7939.81
564.304	8014.15
564.666	8079.91
565.028	8080.82
565.39	8032.01
565.753	8109.74
566.115	8097.32
566.477	8183.87
566.839	8151.33
567.201	8190.19
567.563	8265.67
567.925	8290.3
568.287	8328.72
568.648	8320.59
569.01	8392.45
569.372	8377.99
569.734	8363.75
570.095	8477.64
570.457	8526
570.819	8534.82
571.18	8534.14
571.542	8589.51
571.903	8589.28
572.265	8705.21
572.626	8744.98
572.987	8703.63
573.349	8834.47
573.71	8874.92
574.071	8872.44
574.432	8965.77
574.794	9075.14
575.155	9066.33
575.516	9051.19
575.877	9181.58
576.238	9220
576.599	9323.05
576.96	9335.47
577.32	9444.85
577.681	9515.58
578.042	9555.36
578.403	9675.13
578.763	9677.39
579.124	9798.29
579.485	9867.21
579.845	9966.64
580.206	10041.67
580.566	10171.16
580.927	10307.65
581.287	10400.31
581.648	10452.96
582.008	10640.98
582.368	10752.16
582.728	10880.74
583.089	11009.1
583.449	11179.95
583.809	11358.25
584.169	11378.36
584.529	11579.71
584.889	11838.69
585.249	11885.69
585.609	12066.25
585.969	12338.11
586.329	12366.13
586.688	12660.13
587.048	12812.22
587.408	13036.17
587.768	13181.7
588.127	13443.62
588.487	13550.28
588.846	13915.92
589.206	14043.83
589.565	14239.98
589.925	14464.15
590.284	14703.7
590.643	14959.51
591.003	15314.75
591.362	15548.42
591.721	15650.11
592.08	15907.51
592.44	16211
592.799	16500.94
593.158	16787.71
593.517	16974.37
593.876	17323.06
594.235	17464.53
594.593	17704.52
594.952	18001.91
595.311	18207.33
595.67	18541.11
596.029	18862
596.387	19186.74
596.746	19413.63
597.104	19534.98
597.463	19973.39
597.822	20204.34
598.18	20365.24
598.538	20631
598.897	21021.5
599.255	21092.45
599.613	21680.01
599.972	21765.66
600.33	22086.78
600.688	22195.48
601.046	22514.11
601.404	22848.34
601.762	23121.33
602.12	23496.68
602.478	23610.58
602.836	23910.91
603.194	23989.78
603.552	24295.99
603.91	24404.46
604.268	24789.98
604.625	25075.85
604.983	25275.85
605.341	25391.32
605.698	25771.43
606.056	26067.24
606.413	26137.29
606.771	26464.06
607.128	26724.4
607.485	26611.86
607.843	26950.6
608.2	27356.7
608.557	27497.48
608.914	27663.13
609.272	27932.95
609.629	28185.83
609.986	28523.67
610.343	28545.14
610.7	28922.76
611.057	28964.34
611.414	29021.06
611.771	29382.86
612.127	29525.9
612.484	29672.79
612.841	29988.04
613.198	29957.98
613.554	30209.95
613.911	30541.7
614.267	30561.36
614.624	30651.75
614.98	30875.7
615.337	31137.39
615.693	31350.04
616.05	31271.62
616.406	31589.13
616.762	31595.45
617.118	31749.8
617.475	31917.48
617.831	32121.32
618.187	32188.89
618.543	32432.49
618.899	32736.89
619.255	32617.12
619.611	32726.5
619.967	32966.27
620.323	33097.11
620.678	33096.66
621.034	33004.91
621.39	33182.31
621.746	33395.86
622.101	33787.71
622.457	33461.62
622.812	33747.49
623.168	33790.2
623.523	33867.71
623.879	34172.34
624.234	34093.92
624.589	34062.96
624.945	34223.41
625.3	34281.03
625.655	34395.83
626.01	34370.52
626.365	34511.54
626.72	34489.62
627.075	34549.05
627.43	34690.51
627.785	34586.56
628.14	34774.81
628.495	34880.11
628.85	34852.77
629.205	34788.59
629.559	35147.68
629.914	34815.48
630.269	34887.8
630.623	34961.47
630.978	34821.13
631.332	35196.72
631.687	35231.29
632.041	35025.19
632.396	35246.21
632.75	35083.95
633.104	35302.7
633.459	35147.45
633.813	35073.33
634.167	35050.05
634.521	35158.3
634.875	35256.6
635.229	35301.8
635.583	35057.51
635.937	35164.63
636.291	35096.38
636.645	35356.03
636.999	35187.22
637.352	35123.72
637.706	35149.26
638.06	35215.7
638.413	35332.98
638.767	35191.74
639.121	35219.77
639.474	34965.08
639.828	35140.67
640.181	35117.62
640.534	35152.2
640.888	35081.69
641.241	35043.05
641.594	35172.76
641.947	35173.89
642.301	35036.04
642.654	35079.2
643.007	35169.82
643.36	35139.54
643.713	35019.55
644.066	35114.46
644.419	34928.7
644.771	34826.78
645.124	34485.77
645.477	34408.94
645.83	34168.72
646.182	34144.31
646.535	33969.86
646.888	34103.19
647.24	33947.71
647.593	34098.67
647.945	34081.49
648.298	33993.36
648.65	33896.41
649.002	33846.02
649.355	34033.36
649.707	33833.36
650.059	33986.35
650.411	34462.95
650.763	34505.43
651.115	34740.91
651.467	34603.96
651.819	34730.29
652.171	34582.04
652.523	34545.43
652.875	34567.35
653.227	34550.18
653.578	34706.56
653.93	34447.81
654.282	34417.08
654.633	34476.51
654.985	34471.54
655.337	34488.71
655.688	34469.73
656.039	34645.54
656.391	34412.1
656.742	34450.75
657.094	34493.46
657.445	34604.64
657.796	34450.07
658.147	34336.17
658.498	34363.97
658.849	34350.64
659.2	34407.81
659.551	34325.78
659.902	34399.9
660.253	34355.16
660.604	34547.24
660.955	34269.28
661.306	34351.99
661.656	34187.02
662.007	34380.92
662.358	34204.88
662.708	34362.84
663.059	34361.94
663.409	34240.58
663.76	34361.71
664.11	34270.19
664.461	34330.52
664.811	34316.29
665.161	34299.79
665.511	34239.9
665.862	34292.11
666.212	34302.73
666.562	34307.02
666.912	34373.23
667.262	34260.7
667.612	34351.77
667.962	34282.39
668.312	34220.7
668.662	34475.15
669.011	34398.77
669.361	34234.71
669.711	34228.83
670.06	34120.59
670.41	34077.88
670.76	34066.12
671.109	34212.56
671.459	34165.78
671.808	34045.33
672.157	34193.13
672.507	33939.8
672.856	33899.12
673.205	33921.27
673.554	34172.56
673.904	33928.95
674.253	34145.44
674.602	33971.89
674.951	33563.54
675.3	33326.26
675.649	33908.39
675.998	33881.95
676.346	33940.03
676.695	33968.73
677.044	33706.36
677.393	33842.85
677.741	33884.66
678.09	33791.78
678.438	33688.73
678.787	33820.93
679.135	33784.78
679.484	33668.85
679.832	33680.6
680.181	33552.24
680.529	33524.9
680.877	33555.18
681.225	33469.53
681.573	33599.24
681.922	33460.94
682.27	33325.35
682.618	33439.02
682.966	33215.3
683.314	33384.33
683.661	33137.56
684.009	32991.8
684.357	33040.84
684.705	32997.45
685.053	32879.71
685.4	32944.35
685.748	32811.02
686.095	32928.98
686.443	32641.53
686.79	32568.08
687.138	32621.64
687.485	32634.98
687.832	32595.2
688.18	32600.63
688.527	32323.12
688.874	32513.17
689.221	32369.22
689.568	32267.08
689.915	32134.88
690.262	32234.99
690.609	32065.05
690.956	31977.82
691.303	31941.89
691.65	31855.33
691.997	31828.44
692.344	31799.07
692.69	31731.72
693.037	31732.4
693.383	31494.21
693.73	31578.51
694.077	31323.15
694.423	31339.19
694.769	31232.75
695.116	31145.3
695.462	31321.79
695.808	30925.19
696.155	31059.2
696.501	30850.16
696.847	30874.34
697.193	30700.79
697.539	30726.55
697.885	30450.4
698.231	30547.57
698.577	30370.18
698.923	30404.07
699.269	30228.03
699.614	30155.04
699.96	30091.09
700.306	30102.61
700.651	29901.49
700.997	29865.33
701.342	29817.65
701.688	29836.4
702.033	29588.5
702.379	29663.98
702.724	29590.08
703.069	29679.12
703.415	29084.33
703.76	29234.39
704.105	29299.02
704.45	29253.82
704.795	29090.44
705.14	28965.92
705.485	29049.76
705.83	28881.63
706.175	28896.77
706.52	28767.05
706.865	28649.32
707.209	28661.97
707.554	28461.53
707.899	28521.64
708.243	28510.56
708.588	28408.65
708.932	28214.3
709.277	28203.23
709.621	28154.19
709.966	27947.87
710.31	28131.82
710.654	27871.71
710.998	27973.4
711.342	27849.79
711.687	27825.38
712.031	27771.6
712.375	27648.89
712.719	27665.84
713.063	27566.63
713.407	27646.41
713.75	27556.01
714.094	27538.61
714.438	27373.42
714.782	27455
715.125	27276.7
715.469	27286.42
715.812	27221.56
716.156	27033.09
716.499	27036.25
716.843	27065.18
717.186	26955.8
717.53	26971.4
717.873	26969.36
718.216	26887.56
718.559	26822.7
718.902	26648.92
719.246	26587.22
719.589	26586.77
719.932	26488.24
720.275	26504.29
720.617	26503.16
720.96	26499.09
721.303	26433.78
721.646	26427.91
721.989	26218.65
722.331	26250.06
722.674	26250.06
723.016	26246.89
723.359	26224.75
723.701	26181.13
724.044	26015.94
724.386	25836.28
724.729	25988.6
725.071	25868.15
725.413	25918.54
725.755	25965.09
726.097	25764.87
726.439	25675.38
726.782	25663.41
727.124	25731.88
727.465	25598.78
727.807	25575.27
728.149	25595.39
728.491	25434.03
728.833	25618.89
729.175	25440.14
729.516	25401.72
729.858	25444.66
730.199	25427.03
730.541	25276.98
730.882	25335.51
731.224	25341.61
731.565	25069.75
731.906	25244.89
732.248	25162.4
732.589	25067.04
732.93	24992.46
733.271	24974.39
733.612	24951.56
733.953	25081.5
734.294	24955.63
734.635	24894.39
734.976	24819.59
735.317	24696.88
735.658	24751.11
735.999	24781.62
736.339	24660.95
736.68	24853.94
737.021	24631.12
737.361	24561.97
737.702	24733.94
738.042	24549.99
738.383	24523.1
738.723	24566.71
739.063	24516.32
739.404	24450.78
739.744	24420.95
740.084	24274.29
740.424	24372.59
740.764	24272.03
741.104	24348.19
741.444	24179.83
741.784	24138.93
742.124	24202.2
742.464	24179.15
742.804	24134.86
743.143	24041.53
743.483	24088.99
743.823	23890.35
744.162	23930.12
744.502	23975.99
744.841	23868.43
745.181	24012.83
745.52	23836.56
745.86	23916.79
746.199	23920.4
746.538	23755.66
746.877	23841.76
747.216	23806.73
747.556	23712.72
747.895	23693.06
748.234	23571.26
748.573	23612.39
748.911	23577.59
749.25	23526.51
749.589	23374.43
749.928	23399.96
750.267	23439.51
750.605	23439.28
750.944	23397.25
751.283	23284.49
751.621	23303.7
751.96	23184.15
752.298	23168.11
752.636	23209.01
752.975	22975.57
753.313	22982.57
753.651	23202.45
753.989	22989.35
754.327	22898.51
754.666	22762.69
755.004	22892.63
755.342	22848.79
755.679	22727.21
756.017	22581.68
756.355	22692.64
756.693	22624.17
757.031	22567.9
757.368	22484.06
757.706	22406.09
758.044	22419.65
758.381	22453.32
758.719	22320.44
759.056	22292.42
759.394	22235.25
759.731	22059.89
760.068	22125.87
760.405	21947.35
760.743	22014.69
761.08	22068.47
761.417	21924.3
761.754	21700.35
762.091	21802.04
762.428	21747.35
762.765	21515.95
763.102	21694.25
763.438	21533.12
763.775	21395.04
764.112	21377.19
764.449	21496.29
764.785	21324.99
765.122	21167.71
765.458	21090.65
765.795	21057.65
766.131	21118.44
766.467	20979.69
766.804	20862.18
767.14	20815.17
767.476	20895.17
767.812	20750.32
768.148	20744.89
768.485	20569.53
768.821	20551.45
769.157	20423.32
769.492	20395.75
769.828	20390.78
770.164	20229.65
770.5	20187.39
770.836	20085.93
771.171	20155.3
771.507	19922.09
771.842	19821.75
772.178	19823.79
772.513	19705.6
772.849	19698.37
773.184	19639.61
773.519	19611.81
773.855	19541.08
774.19	19433.97
774.525	19375.44
774.86	19365.04
775.195	19387.41
775.53	19181.77
775.865	19165.05
776.2	19030.14
776.535	18798.5
776.87	18878.05
777.205	18771.38
777.539	18804.38
777.874	18783.36
778.209	18694.1
778.543	18515.57
778.878	18510.37
779.212	18469.92
779.547	18277.84
779.881	18378.4
780.215	18251.85
780.55	18276.93
780.884	18191.97
781.218	18071.06
781.552	18119.88
781.886	17941.35
782.22	17949.71
782.554	17796.27
782.888	17524.41
783.222	17615.26
783.556	17512.21
783.889	17486.67
784.223	17357.41
784.557	17333.68
784.89	17352.44
785.224	17207.13
785.557	17167.59
785.891	17094.82
786.224	17139.56
786.558	17033.8
786.891	16936.18
787.224	16869.29
787.557	16835.62
787.891	16791.55
788.224	16841.94
788.557	16737.77
788.89	16719.01
789.223	16676.52
789.556	16510.65
789.888	16388.85
790.221	16440.6
790.554	16276.76
790.887	16356.99
791.219	16183.88
791.552	16199.25
791.884	16108.63
792.217	16144.34
792.549	16071.79
792.882	15926.26
793.214	15843.33
793.546	15916.32
793.879	15764.23
794.211	15628.64
794.543	15690.11
794.875	15574.63
795.207	15614.18
795.539	15590.45
795.871	15623.45
796.203	15472.04
796.535	15374.19
796.867	15349.55
797.198	15332.83
797.53	15244.92
797.862	15206.28
798.193	15140.75
798.525	15086.74
798.856	15077.47
799.188	14933.75
799.519	14917.93
799.85	14782.56
800.182	14841.09
800.513	14873.86
800.844	14590.03
801.175	14730.36
801.506	14827.76
801.837	14553.19
802.168	14616.01
802.499	14572.4
802.83	14555.9
803.161	14432.29
803.491	14418.05
803.822	14432.97
804.153	14304.84
804.483	14186.87
804.814	14240.2
805.145	14157.95
805.475	14104.16
805.805	14070.27
806.136	14117.27
806.466	14006.99
806.796	13947.56
807.126	13918.63
807.457	13836.15
807.787	13903.72
808.117	13837.96
808.447	13746.66
808.777	13832.53
809.107	13710.28
809.436	13633.67
809.766	13675.25
810.096	13613.33
810.426	13550.73
810.755	13566.1
811.085	13550.96
811.414	13455.59
811.744	13398.42
812.073	13419.21
812.403	13364.3
812.732	13255.82
813.061	13304.18
813.39	13212.89
813.719	13164.98
814.049	13242.94
814.378	13164.3
814.707	13075.49
815.036	13089.5
815.365	13001.14
815.693	12970.63
816.022	12904.42
816.351	12900.35
816.68	12769.51
817.008	12910.52
817.337	12746.23
817.665	12703.75
817.994	12774.71
818.322	12684.09
818.651	12683.86
818.979	12598.21
819.307	12634.6
819.636	12560.25
819.964	12559.57
820.292	12581.72
820.62	12494.71
820.948	12526.8
821.276	12634.6
821.604	12553.7
821.932	12588.72
822.259	12438.9
822.587	12474.83
822.915	12486.58
823.243	12537.42
823.57	12476.64
823.898	12506.46
824.225	12483.19
824.553	12426.02
824.88	12436.18
825.207	12515.28
825.535	12499.46
825.862	12522.74
826.189	12362.06
826.516	12442.51
826.843	12526.58
827.17	12419.01
827.497	12466.69
827.824	12477.09
828.151	12490.87
828.478	12451.78
828.805	12459.23
829.131	12533.13
829.458	12439.12
829.785	12304.66
830.111	12294.95
830.438	12454.04
830.764	12430.53
831.09	12432.34
831.417	12322.51
831.743	12400.71
832.069	12384.21
832.395	12281.84
832.722	12395.51
833.048	12327.26
833.374	12301.72
833.7	12358.67
834.026	12374.72
834.351	12324.32
834.677	12344.89
835.003	12340.82
835.329	12261.05
835.654	12290.43
835.98	12153.71
836.306	12225.57
836.631	12146.25
836.956	12153.03
837.282	12192.8
837.607	12090.66
837.932	12077.32
838.258	12084.78
838.583	12057.66
838.908	12115.06
839.233	12050.21
839.558	11985.35
839.883	11974.28
840.208	11965.91
840.533	11963.2
840.858	11920.49
841.182	11882.3
841.507	11891.34
841.832	11822.42
842.156	11784.68
842.481	11895.41
842.805	11706.26
843.13	11801.85
843.454	11770.89
843.778	11668.97
844.103	11625.36
844.427	11595.08
844.751	11653.61
845.075	11492.93
845.399	11614.29
845.723	11481.86
846.047	11418.81
846.371	11382.65
846.695	11442.09
847.019	11310.79
847.343	11266.95
847.666	11193.05
847.99	11162.77
848.313	11187.18
848.637	11096.78
848.96	11150.12
849.284	11042.1
849.607	10942.21
849.931	10969.78
850.254	10918.71
850.577	10875.1
850.9	10727.75
851.223	10665.38
851.546	10619.96
851.869	10543.13
852.192	10647.08
852.515	10523.47
852.838	10552.62
853.161	10499.74
853.483	10509.46
853.806	10420.19
854.129	10435.56
854.451	10342.91
854.774	10313.53
855.096	10334.54
855.419	10269.01
855.741	10255.68
856.063	10164.83
856.385	10162.57
856.708	10102.01
857.03	10053.2
857.352	10053.65
857.674	10031.73
857.996	10053.87
858.318	9984.27
858.64	9985.63
858.961	9935.01
859.283	9963.48
859.605	9855.01
859.926	9914.89
860.248	9810.04
860.57	9751.28
860.891	9806.87
861.212	9739.53
861.534	9738.85
861.855	9743.6
862.176	9678.74
862.498	9723.94
862.819	9693.43
863.14	9610.5
863.461	9570.27
863.782	9539.76
864.103	9556.49
864.424	9487.79
864.745	9580.21
865.065	9515.13
865.386	9526.88
865.707	9393.78
866.027	9500.89
866.348	9443.04
866.668	9452.08
866.989	9375.02
867.309	9365.08
867.63	9317.62
867.95	9382.93
868.27	9302.03
868.59	9352.88
868.91	9391.97
869.23	9248.02
869.55	9198.08
869.87	9333.67
870.19	9243.73
870.51	9215.7
870.83	9256.38
871.15	9209.6
871.469	9162.6
871.789	9256.61
872.109	9135.03
872.428	9161.24
872.748	9141.81
873.067	9109.72
873.386	9158.53
873.706	9118.53
874.025	9053.22
874.344	9057.29
874.663	9109.27
874.982	9029.27
875.301	8986.78
875.62	8959.44
875.939	9001.92
876.258	8981.36
876.577	8929.84
876.896	8928.25
877.214	8908.59
877.533	8844.19
877.852	8910.18
878.17	8906.79
878.489	8924.86
878.807	8876.96
879.125	8810.74
879.444	8869.05
879.762	8795.83
880.08	8896.16
880.398	8811.19
880.716	8794.7
881.034	8706.34
881.352	8708.15
881.67	8656.85
881.988	8673.35
882.306	8694.14
882.624	8686.23
882.941	8586.79
883.259	8601.48
883.577	8563.74
883.894	8585.21
884.212	8544.54
884.529	8589.96
884.846	8548.15
885.164	8518.32
885.481	8481.94
885.798	8417.31
886.115	8363.97
886.432	8460.7
886.75	8331.43
887.067	8351.09
887.383	8411.66
887.7	8329.17
888.017	8285.11
888.334	8273.81
888.651	8249.85
888.967	8202.4
889.284	8173.02
889.6	8220.93
889.917	8143.87
890.233	8157.65
890.55	8097.99
890.866	8118.11
891.182	8093.02
891.498	8054.6
891.815	8006.24
892.131	7955.62
892.447	8030.2
892.763	8037.2
893.079	7952.69
893.395	7896.87
893.71	7880.15
894.026	7835.63
894.342	7825.23
894.657	7841.28
894.973	7778
895.289	7814.16
895.604	7808.06
895.92	7689.87
896.235	7679.47
896.55	7697.55
896.865	7665.24
897.181	7626.14
897.496	7570.1
897.811	7559.7
898.126	7584.56
898.441	7497.78
898.756	7527.39
899.071	7486.03
899.386	7497.33
899.7	7417.11
900.015	7403.55
900.33	7381.63
900.644	7300.5
900.959	7323.32
901.273	7304.57
901.588	7215.76
901.902	7243.55
902.216	7205.59
902.531	7151.35
902.845	7133.05
903.159	7106.83
903.473	7093.95
903.787	7067.74
904.101	7018.25
904.415	7018.25
904.729	7018.02
905.042	6947.74
905.356	6982.99
905.67	6943
905.984	6897.57
906.297	6872.26
906.611	6828.42
906.924	6829.1
907.237	6804.92
907.551	6780.06
907.864	6772.15
908.177	6748.65
908.491	6720.63
908.804	6725.6
909.117	6684.7
909.43	6619.84
909.743	6584.13
910.056	6556.56
910.368	6593.4
910.681	6495.55
910.994	6541.42
911.307	6463.91
911.619	6393.63
911.932	6392.73
912.244	6384.14
912.557	6394.08
912.869	6319.96
913.181	6314.09
913.494	6309.34
913.806	6268.21
914.118	6253.52
914.43	6179.85
914.742	6192.05
915.054	6138.95
915.366	6109.57
915.678	6098.95
915.99	6090.14
916.302	6034.77
916.613	6003.59
916.925	6022.34
917.236	5989.35
917.548	5923.59
917.859	5960.87
918.171	5936.02
918.482	5884.94
918.794	5867.54
919.105	5868.22
919.416	5805.62
919.727	5799.75
920.038	5781.67
920.349	5740.77
920.66	5717.72
920.971	5732.86
921.282	5713.2
921.593	5614.22
921.903	5607.89
922.214	5602.01
922.525	5588.23
922.835	5563.37
923.146	5481.34
923.456	5481.56
923.767	5477.95
924.077	5484.95
924.387	5435.01
924.697	5420.55
925.008	5389.82
925.318	5364.28
925.628	5372.42
925.938	5362.25
926.248	5285.19
926.558	5285.86
926.867	5267.56
927.177	5256.26
927.487	5218.75
927.796	5140.33
928.106	5216.26
928.416	5114.57
928.725	5092.2
929.034	5142.14
929.344	5117.51
929.653	5096.72
929.962	5045.87
930.271	5044.51
930.581	5024.18
930.89	4965.87
931.199	4958.19
931.508	4890.39
931.817	4893.78
932.125	4881.58
932.434	4868.47
932.743	4871.41
933.051	4880.45
933.36	4817.4
933.669	4766.78
933.977	4763.84
934.286	4769.49
934.594	4711.19
934.902	4716.16
935.21	4685.43
935.519	4670.06
935.827	4666.67
936.135	4650.63
936.443	4610.63
936.751	4587.13
937.059	4651.08
937.367	4510.97
937.674	4537.86
937.982	4544.19
938.29	4514.36
938.597	4489.73
938.905	4415.15
939.213	4421.93
939.52	4417.86
939.827	4419.22
940.135	4385.1
940.442	4366.79
940.749	4356.17
941.056	4378.77
941.363	4337.19
941.67	4296.74
941.977	4290.64
942.284	4255.38
942.591	4202.73
942.898	4192.56
943.205	4203.63
943.511	4195.72
943.818	4196.17
944.125	4152.11
944.431	4152.79
944.738	4096.97
945.044	4077.53
945.35	4118.21
945.657	4070.3
945.963	4072.56
946.269	4019.46
946.575	4010.87
946.881	4024.2
947.187	3990.53
947.493	3988.5
947.799	3966.12
948.105	3933.36
948.41	3914.83
948.716	3878.44
949.022	3850.87
949.327	3877.54
949.633	3839.12
949.938	3857.43
950.244	3830.76
950.549	3808.84
950.854	3748.73
951.16	3774.04
951.465	3802.29
951.77	3746.92
952.075	3720.48
952.38	3714.38
952.685	3756.86
952.99	3679.8
953.294	3664.44
953.599	3675.06
953.904	3636.19
954.209	3608.85
954.513	3588.96
954.818	3589.86
955.122	3575.17
955.426	3543.99
955.731	3520.71
956.035	3536.53
956.339	3495.63
956.643	3496.76
956.948	3468.74
957.252	3451.79
957.556	3444.33
957.86	3415.4
958.163	3423.54
958.467	3391.68
958.771	3394.16
959.075	3390.09
959.378	3384.44
959.682	3355.52
959.985	3316.88
960.289	3280.49
960.592	3281.62
960.896	3291.79
961.199	3275.3
961.502	3270.32
961.805	3256.31
962.108	3183.09
962.411	3210.89
962.714	3176.77
963.017	3195.52
963.32	3215.86
963.623	3142.19
963.926	3135.86
964.228	3138.58
964.531	3084.79
964.833	3081.85
965.136	3101.74
965.438	3108.75
965.741	3067.17
966.043	3073.94
966.345	3079.59
966.648	3002.08
966.95	3011.12
967.252	2975.64
967.554	3016.77
967.856	2998.24
968.158	2963.67
968.46	2958.92
968.761	2965.47
969.063	2910.56
969.365	2890.45
969.666	2907.4
969.968	2882.76
970.269	2857.68
970.571	2857.45
970.872	2863.78
971.174	2856.1
971.475	2832.82
971.776	2818.36
972.077	2806.38
972.378	2776.78
972.679	2761.41
972.98	2766.38
973.281	2730.45
973.582	2737.23
973.883	2736.78
974.183	2735.65
974.484	2711.69
974.785	2705.82
975.085	2706.5
975.386	2686.84
975.686	2646.16
975.986	2645.26
976.287	2638.93
976.587	2635.31
976.887	2618.59
977.187	2627.63
977.487	2599.83
977.787	2591.92
978.087	2574.75
978.387	2565.71
978.687	2526.16
978.987	2540.63
979.286	2504.02
979.586	2515.54
979.885	2495.2
980.185	2498.82
980.484	2515.99
980.784	2492.49
981.083	2457.24
981.382	2416.11
981.682	2451.36
981.981	2437.58
982.28	2441.64
982.579	2396.67
982.878	2386.05
983.177	2385.6
983.475	2380.18
983.774	2339.5
984.073	2370.01
984.372	2350.35
984.67	2334.08
984.969	2348.77
985.267	2304.93
985.566	2285.04
985.864	2293.63
986.162	2283.23
986.461	2258.82
986.759	2288.65
987.057	2256.34
987.355	2244.59
987.653	2264.47
987.951	2206.17
988.249	2217.02
988.547	2197.81
988.844	2194.19
989.142	2203.91
989.44	2174.53
989.737	2169.11
990.035	2174.76
990.332	2150.13
990.63	2177.92
990.927	2105.83
991.224	2096.8
991.521	2132.95
991.819	2132.73
992.116	2091.15
992.413	2114.87
992.71	2066.06
993.006	2052.95
993.303	2055.21
993.6	2034.65
993.897	2064.93
994.193	2051.37
994.49	2043.46
994.787	2024.48
995.083	2004.82
995.379	2021.09
995.676	1974.76
995.972	1986.29
996.268	1977.25
996.565	1951.94
996.861	1936.8
997.157	1947.87
997.453	1938.38
997.749	1911.04
998.044	1866.52
998.34	1888.67
998.636	1885.5
998.932	1884.37
999.227	1858.38
999.523	1871.04
999.818	1845.05
1000.114	1833.53
1000.409	1847.99
1000.704	1796.92
1001	1808.22
1001.295	1818.61
1001.59	1811.15
1001.885	1804.15
1002.18	1763.24
1002.475	1760.98
1002.77	1777.71
1003.065	1735.45
1003.359	1780.65
1003.654	1751.04
1003.949	1728.9
1004.243	1736.58
1004.538	1714.88
1004.832	1695.45
1005.127	1692.51
1005.421	1687.54
1005.715	1690.93
1006.009	1663.81
1006.304	1652.97
1006.598	1651.61
1006.892	1648.9
1007.186	1602.57
1007.48	1627.65
1007.773	1602.34
1008.067	1604.38
1008.361	1571.61
1008.655	1598.96
1008.948	1571.61
1009.242	1558.73
1009.535	1578.62
1009.829	1564.61
1010.122	1533.19
1010.415	1512.18
1010.708	1523.02
1011.001	1510.6
1011.295	1482.57
1011.588	1497.26
1011.881	1493.2
1012.173	1483.03
1012.466	1445.29
1012.759	1485.51
1013.052	1460.88
1013.344	1475.79
1013.637	1459.3
1013.93	1460.88
1014.222	1435.57
1014.514	1400.77
1014.807	1408
1015.099	1372.97
1015.391	1391.05
1015.683	1396.47
1015.976	1401.67
1016.268	1342.69
1016.56	1384.72
1016.851	1345.63
1017.143	1333.88
1017.435	1341.11
1017.727	1325.06
1018.018	1304.05
1018.31	1295.69
1018.602	1308.12
1018.893	1290.94
1019.185	1313.99
1019.476	1276.03
1019.767	1273.54
1020.058	1271.51
1020.35	1241.22
1020.641	1244.84
1020.932	1260.43
1021.223	1204.16
1021.514	1205.29
1021.804	1213.43
1022.095	1196.71
1022.386	1209.36
1022.677	1215.91
1022.967	1200.1
1023.258	1190.6
1023.548	1176.37
1023.839	1154.67
1024.129	1165.52
1024.419	1171.17
1024.709	1146.99
1025	1138.85
1025.29	1120.55
1025.58	1120.32
1025.87	1134.56
1026.16	1101.34
1026.449	1115.58
1026.739	1097.5
1027.029	1098.18
1027.319	1085.52
1027.608	1093.88
1027.898	1086.88
1028.187	1080.78
1028.477	1048.46
1028.766	1080.78
1029.055	1066.54
1029.344	1058.86
1029.634	1025.86
1029.923	1024.05
1030.212	1006.43
1030.501	1018.63
1030.79	995.13
1031.078	990.84
1031.367	993.55
1031.656	978.18
1031.945	970.5
1032.233	993.77
1032.522	962.14
1032.81	948.58
1033.099	947.9
1033.387	963.27
1033.675	931.85
1033.963	939.76
1034.251	925.75
1034.54	944.06
1034.828	949.03
1035.116	919.65
1035.403	915.13
1035.691	883.72
1035.979	926.88
1036.267	899.99
1036.554	865.64
1036.842	897.73
1037.129	885.08
1037.417	873.55
1037.704	860.9
1037.992	849.14
1038.279	867.45
1038.566	886.21
1038.853	886.21
1039.14	886.21
