Data from hue_240_FLMS001491_00086.txt Node
Date: Tue Feb 07 16:36:04 GMT 2017
User: dcchb
Spectrometer: FLMS00149
Trigger mode: 0
Integration Time (sec): 2.000000E-2
Scans to average: 10
Electric dark correction enabled: true
Nonlinearity correction enabled: false
Boxcar width: 0
XAxis mode: Wavelengths
Number of Pixels in Spectrum: 2048
>>>>>Begin Spectral Data<<<<<
341.393	-11.44
341.776	-11.44
342.16	-11.44
342.543	-52.8
342.927	-71.55
343.31	-59.12
343.693	-78.78
344.077	-53.93
344.46	-56.18
344.843	-51.44
345.226	-49.63
345.61	-24.55
345.993	-10.31
346.376	-18.67
346.759	11.61
347.142	36.02
347.525	46.41
347.908	43.47
348.291	71.95
348.674	86.41
349.057	106.75
349.44	131.61
349.823	143.58
350.206	170.25
350.588	182.23
350.971	184.71
351.354	223.81
351.737	223.81
352.119	246.18
352.502	275.33
352.884	253.86
353.267	247.08
353.65	283.24
354.032	272.17
354.414	299.29
354.797	311.26
355.179	303.81
355.562	297.25
355.944	309.23
356.326	312.62
356.709	343.8
357.091	323.47
357.473	332.28
357.855	329.57
358.238	324.82
358.62	310.36
359.002	343.13
359.384	318.72
359.766	341.54
360.148	291.15
360.53	309.68
360.912	306.07
361.294	300.42
361.676	318.27
362.057	307.65
362.439	320.3
362.821	328.44
363.203	291.6
363.584	309.68
363.966	334.77
364.348	337.48
364.729	304.48
365.111	310.13
365.493	271.49
365.874	305.84
366.256	314.43
366.637	278.5
367.019	303.13
367.4	297.93
367.781	286.86
368.163	309.23
368.544	306.07
368.925	306.52
369.306	307.65
369.688	313.07
370.069	288.89
370.45	289.12
370.831	305.16
371.212	280.08
371.593	313.07
371.974	303.58
372.355	321.43
372.736	308.1
373.117	300.87
373.498	310.36
373.879	313.3
374.26	299.74
374.641	308.1
375.021	306.29
375.402	324.6
375.783	322.11
376.163	324.37
376.544	324.82
376.925	320.53
377.305	312.62
377.686	286.86
378.066	320.75
378.447	330.02
378.827	323.69
379.208	345.16
379.588	331.6
379.968	318.27
380.349	307.65
380.729	313.07
381.109	330.02
381.489	332.73
381.87	343.8
382.25	333.86
382.63	321.66
383.01	318.72
383.39	337.48
383.77	320.98
384.15	317.36
384.53	318.72
384.91	333.41
385.29	344.26
385.67	345.39
386.049	345.84
386.429	337.48
386.809	346.52
387.189	348.78
387.568	335.9
387.948	321.66
388.328	349.91
388.707	345.84
389.087	339.51
389.466	363.92
389.846	342.9
390.225	352.62
390.605	368.66
390.984	353.3
391.363	346.06
391.743	351.71
392.122	337.93
392.501	364.37
392.881	364.59
393.26	335.22
393.639	367.76
394.018	365.72
394.397	365.5
394.776	354.43
395.155	376.35
395.534	385.84
395.913	362.79
396.292	370.7
396.671	372.73
397.05	377.48
397.429	376.35
397.808	386.52
398.186	380.41
398.565	391.03
398.944	394.42
399.323	380.19
399.701	401.2
400.08	397.14
400.458	402.33
400.837	392.62
401.215	400.75
401.594	407.76
401.972	403.46
402.351	398.04
402.729	389.68
403.107	405.27
403.486	423.35
403.864	413.63
404.242	427.87
404.62	419.28
404.999	424.93
405.377	412.05
405.755	439.17
406.133	422.9
406.511	437.81
406.889	438.72
407.267	426.97
407.645	445.04
408.023	473.52
408.401	455.67
408.779	462.45
409.156	472.39
409.534	493.63
409.912	488.66
410.29	471.03
410.667	487.3
411.045	483.69
411.422	465.16
411.8	494.08
412.178	509.9
412.555	505.38
412.933	523.46
413.31	507.64
413.687	531.6
414.065	543.8
414.442	518.72
414.819	560.52
415.197	526.62
415.574	556.91
415.951	579.05
416.328	560.52
416.705	581.99
417.082	564.36
417.46	571.6
417.837	611.14
418.214	579.96
418.591	614.31
418.967	623.8
419.344	608.43
419.721	607.98
420.098	630.58
420.475	621.99
420.852	634.64
421.228	653.17
421.605	653.17
421.982	673.51
422.358	640.52
422.735	693.17
423.111	679.39
423.488	696.56
423.864	723
424.241	701.99
424.617	723.68
424.994	727.98
425.37	726.62
425.746	719.84
426.123	745.15
426.499	767.75
426.875	760.06
427.251	785.15
427.627	818.14
428.003	797.8
428.379	809.55
428.756	837.12
429.132	809.55
429.507	839.84
429.883	853.4
430.259	854.3
430.635	836.67
431.011	864.47
431.387	871.47
431.763	884.13
432.138	880.97
432.514	930.68
432.89	934.75
433.265	925.71
433.641	925.48
434.016	954.86
434.392	980.85
434.767	999.83
435.143	1006.16
435.518	1002.77
435.894	1038.48
436.269	1047.51
436.644	1055.42
437.02	1038.7
437.395	1078.02
437.77	1085.25
438.145	1137.68
438.52	1150.34
438.895	1134.52
439.271	1144.24
439.646	1178.36
440.021	1172.03
440.395	1194.86
440.77	1197.79
441.145	1210
441.52	1248.41
441.895	1212.48
442.27	1257.68
442.645	1262.88
443.019	1266.27
443.394	1276.66
443.769	1315.08
444.143	1285.7
444.518	1331.35
444.892	1339.48
445.267	1328.19
445.641	1338.58
446.016	1321.63
446.39	1357.34
446.764	1377.68
447.139	1350.56
447.513	1384.68
447.887	1379.48
448.262	1365.92
448.636	1414.74
449.01	1404.79
449.384	1435.08
449.758	1452.02
450.132	1453.83
450.506	1483.66
450.88	1480.72
451.254	1483.89
451.628	1484.34
452.002	1513.94
452.376	1514.17
452.75	1532.7
453.123	1552.13
453.497	1534.96
453.871	1558.01
454.244	1602.98
454.618	1624.67
454.992	1637.78
455.365	1635.3
455.739	1652.7
456.112	1689.08
456.486	1694.96
456.859	1707.38
457.232	1729.3
457.606	1739.25
457.979	1725.46
458.352	1792.81
458.725	1798.23
459.099	1785.57
459.472	1820.38
459.845	1889.07
460.218	1857.89
460.591	1898.34
460.964	1905.12
461.337	1908.06
461.71	1960.71
462.083	1985.12
462.456	1998.45
462.829	2007.04
463.201	2023.31
463.574	2036.87
463.947	2019.01
464.32	2125.45
464.692	2093.59
465.065	2110.76
465.438	2135.17
465.81	2192.12
466.183	2232.79
466.555	2219.46
466.928	2293.58
467.3	2255.84
467.672	2281.61
468.045	2347.14
468.417	2342.17
468.789	2363.64
469.161	2413.35
469.534	2426.24
469.906	2475.05
470.278	2437.08
470.65	2506.23
471.022	2551.66
471.394	2595.04
471.766	2634.59
472.138	2640.69
472.51	2650.86
472.882	2678.21
473.253	2729.5
473.625	2728.83
473.997	2830.29
474.369	2792.33
474.74	2865.77
475.112	2902.38
475.484	2950.97
475.855	2942.15
476.227	3014.02
476.598	3078.42
476.97	3105.77
477.341	3143.28
477.713	3183.28
478.084	3191.19
478.455	3282.48
478.827	3334.69
479.198	3376.04
479.569	3388.24
479.94	3462.14
480.311	3493.78
480.682	3577.17
481.053	3647.67
481.424	3666.2
481.795	3696.03
482.166	3744.39
482.537	3808.8
482.908	3890.6
483.279	3865.07
483.65	3946.2
484.021	4049.24
484.391	4103.48
484.762	4084.5
485.133	4100.77
485.503	4165.85
485.874	4229.58
486.244	4307.32
486.615	4379.63
486.985	4410.82
487.356	4454.66
487.726	4507.99
488.097	4567.65
488.467	4588.21
488.837	4688.78
489.207	4698.04
489.578	4790.69
489.948	4815.78
490.318	4868.21
490.688	4866.17
491.058	4917.24
491.428	5000.63
491.798	5011.93
492.168	5126.28
492.538	5151.36
492.908	5181.87
493.278	5222.55
493.648	5195.88
494.017	5279.04
494.387	5325.59
494.757	5340.06
495.126	5419.15
495.496	5434.07
495.866	5472.94
496.235	5471.58
496.605	5546.83
496.974	5564.68
497.344	5594.29
497.713	5585.02
498.082	5686.26
498.452	5727.17
498.821	5712.48
499.19	5717.22
499.559	5839.48
499.928	5844.22
500.298	5842.87
500.667	5916.99
501.036	5883.32
501.405	5883.32
501.774	5916.09
502.143	5939.36
502.512	6000.83
502.88	5999.93
503.249	6019.81
503.618	6017.55
503.987	6047.84
504.356	6074.05
504.724	6126.25
505.093	6171.22
505.462	6116.76
505.83	6183.65
506.199	6178.91
506.567	6276.98
506.936	6229.98
507.304	6276.3
507.672	6296.19
508.041	6310.65
508.409	6394.04
508.777	6371.67
509.145	6415.51
509.514	6375.74
509.882	6474.04
510.25	6501.16
510.618	6474.04
510.986	6501.38
511.354	6547.71
511.722	6614.6
512.09	6596.97
512.458	6606.01
512.826	6600.36
513.193	6639.91
513.561	6620.25
513.929	6659.34
514.297	6700.47
514.664	6682.17
515.032	6704.77
515.4	6785.67
515.767	6733.24
516.135	6800.58
516.502	6730.53
516.869	6850.07
517.237	6846.46
517.604	6779.79
517.972	6856.63
518.339	6945.21
518.706	6847.59
519.073	6889.62
519.44	6944.53
519.808	6936.4
520.175	6920.35
520.542	7022.72
520.909	7026.11
521.276	6978.43
521.643	7004.42
522.009	7047.36
522.376	7051.2
522.743	7049.84
523.11	7110.63
523.477	7125.1
523.843	7171.87
524.21	7256.39
524.577	7209.84
524.943	7237.18
525.31	7219.56
525.676	7275.37
526.043	7288.71
526.409	7318.99
526.776	7361.7
527.142	7295.26
527.508	7333.9
527.874	7375.94
528.241	7387.91
528.607	7400.12
528.973	7406.67
529.339	7355.15
529.705	7445.09
530.071	7463.39
530.437	7475.59
530.803	7448.7
531.169	7498.19
531.535	7485.76
531.901	7477.4
532.267	7480.79
532.632	7538.64
532.998	7512.88
533.364	7531.41
533.73	7419.55
534.095	7523.5
534.461	7525.31
534.826	7563.73
535.192	7511.07
535.557	7596.27
535.923	7496.16
536.288	7520.34
536.653	7568.93
537.019	7438.53
537.384	7507.01
537.749	7556.27
538.114	7497.06
538.479	7480.79
538.845	7490.96
539.21	7452.09
539.575	7445.09
539.94	7421.13
540.305	7496.16
540.67	7474.69
541.034	7441.92
541.399	7525.31
541.764	7408.93
542.129	7415.71
542.494	7430.62
542.858	7450.74
543.223	7462.71
543.587	7453.9
543.952	7416.16
544.316	7422.94
544.681	7420.68
545.045	7427.91
545.41	7436.5
545.774	7413.68
546.138	7368.7
546.503	7356.73
546.867	7335.71
547.231	7376.39
547.595	7358.54
547.959	7421.58
548.324	7395.82
548.688	7314.47
549.052	7387.46
549.416	7385.43
549.779	7256.62
550.143	7311.08
550.507	7360.57
550.871	7370.96
551.235	7249.16
551.599	7314.92
551.962	7348.37
552.326	7253.68
552.689	7381.36
553.053	7307.92
553.417	7262.27
553.78	7362.83
554.143	7304.75
554.507	7300.46
554.87	7327.58
555.234	7366.22
555.597	7300.68
555.96	7286.22
556.323	7285.77
556.686	7302.27
557.05	7325.32
557.413	7301.14
557.776	7352.21
558.139	7382.49
558.502	7418.19
558.865	7352.66
559.228	7406.44
559.59	7378.87
559.953	7390.17
560.316	7399.21
560.679	7410.96
561.041	7466.33
561.404	7481.02
561.767	7440.34
562.129	7430.85
562.492	7529.6
562.854	7451.64
563.217	7506.33
563.579	7509.27
563.941	7515.59
564.304	7536.61
564.666	7573.9
565.028	7564.86
565.39	7560.56
565.753	7612.77
566.115	7628.58
566.477	7614.35
566.839	7627
567.201	7760.78
567.563	7691.63
567.925	7713.33
568.287	7720.11
568.648	7734.57
569.01	7777.28
569.372	7828.13
569.734	7815.47
570.095	7880.78
570.457	7827.9
570.819	7876.49
571.18	7856.15
571.542	7895.02
571.903	7916.94
572.265	7901.8
572.626	7978.63
572.987	7894.11
573.349	7959.2
573.71	8045.52
574.071	7997.16
574.432	8006.65
574.794	8074.22
575.155	8108.57
575.516	8079.87
575.877	8052.3
576.238	8110.61
576.599	8132.3
576.96	8130.27
577.32	8099.76
577.681	8152.64
578.042	8186.08
578.403	8263.14
578.763	8273.31
579.124	8217.95
579.485	8241.45
579.845	8312.41
580.206	8306.31
580.566	8283.71
580.927	8293.43
581.287	8303.6
581.648	8364.16
582.008	8403.48
582.368	8335.23
582.728	8324.61
583.089	8335.01
583.449	8380.88
583.809	8365.74
584.169	8394.67
584.529	8325.29
584.889	8466.98
585.249	8411.61
585.609	8401.67
585.969	8441.67
586.329	8411.84
586.688	8478.96
587.048	8489.58
587.408	8435.12
587.768	8419.52
588.127	8453.42
588.487	8434.44
588.846	8492.97
589.206	8479.41
589.565	8477.6
589.925	8542.01
590.284	8499.75
590.643	8503.59
591.003	8584.49
591.362	8551.72
591.721	8572.97
592.08	8558.96
592.44	8572.97
592.799	8535.91
593.158	8543.81
593.517	8496.13
593.876	8565.28
594.235	8561.44
594.593	8531.39
594.952	8591.95
595.311	8546.53
595.67	8591.72
596.029	8639.41
596.387	8684.83
596.746	8662.68
597.104	8571.38
597.463	8602.57
597.822	8660.87
598.18	8657.48
598.538	8640.08
598.897	8738.39
599.255	8636.69
599.613	8678.05
599.972	8643.25
600.33	8639.86
600.688	8665.17
601.046	8662.68
601.404	8727.54
601.762	8743.36
602.12	8791.27
602.478	8768.22
602.836	8779.51
603.194	8730.7
603.552	8752.17
603.91	8749.69
604.268	8685.51
604.625	8686.86
604.983	8842.56
605.341	8730.25
605.698	8746.52
606.056	8840.76
606.413	8839.17
606.771	8799.18
607.128	8761.44
607.485	8779.51
607.843	8786.52
608.2	8800.31
608.557	8857.48
608.914	8797.59
609.272	8908.33
609.629	8868.1
609.986	8876.91
610.343	8863.58
610.7	8890.7
611.057	8911.94
611.414	8868.33
611.771	8839.63
612.127	8975.22
612.484	8899.51
612.841	8929.79
613.198	8910.58
613.554	8912.39
613.911	9020.86
614.267	8981.54
614.624	8934.77
614.98	8987.65
615.337	9023.58
615.693	9030.36
616.05	9021.77
616.406	9031.03
616.762	9057.7
617.118	8988.32
617.475	9020.64
617.831	9078.49
618.187	9042.56
618.543	9100.86
618.899	9059.96
619.255	9042.33
619.611	9056.57
619.967	9030.81
620.323	9053.86
620.678	9099.28
621.034	9032.62
621.39	9065.38
621.746	9047.76
622.101	9106.29
622.457	9071.71
622.812	9073.07
623.168	9072.39
623.523	9059.51
623.879	9070.81
624.234	9086.63
624.589	9066.29
624.945	9106.74
625.3	9079.62
625.655	9085.95
626.01	9043.46
626.365	9041.43
626.72	9050.69
627.075	9028.77
627.43	9031.26
627.785	8985.39
628.14	9092.95
628.495	9040.07
628.85	9083.24
629.205	9050.02
629.559	9040.75
629.914	8986.06
630.269	9035.33
630.623	8991.03
630.978	8979.74
631.332	8980.19
631.687	8985.61
632.041	8926.18
632.396	8946.29
632.75	9006.63
633.104	8997.59
633.459	8908.55
633.813	8930.02
634.167	8986.74
634.521	8878.5
634.875	8953.75
635.229	8862.9
635.583	8857.48
635.937	8797.59
636.291	8791.94
636.645	8856.58
636.999	8857.25
637.352	8898.61
637.706	8784.94
638.06	8823.13
638.413	8784.49
638.767	8818.84
639.121	8773.64
639.474	8681.44
639.828	8685.28
640.181	8782.68
640.534	8725.51
640.888	8704.94
641.241	8673.08
641.594	8699.29
641.947	8706.3
642.301	8592.63
642.654	8697.94
643.007	8714.88
643.36	8614.32
643.713	8653.64
644.066	8696.35
644.419	8638.95
644.771	8573.87
645.124	8484.38
645.477	8452.97
645.83	8443.03
646.182	8374.33
646.535	8417.49
646.888	8355.8
647.24	8349.24
647.593	8395.57
647.945	8385.4
648.298	8352.63
648.65	8216.59
649.002	8267.66
649.355	8344.72
649.707	8384.95
650.059	8456.81
650.411	8420.65
650.763	8508.34
651.115	8539.97
651.467	8516.02
651.819	8526.87
652.171	8515.79
652.523	8515.34
652.875	8462.69
653.227	8413.65
653.578	8525.74
653.93	8533.87
654.282	8472.4
654.633	8481.22
654.985	8520.76
655.337	8476.47
655.688	8488.68
656.039	8505.85
656.391	8445.06
656.742	8446.64
657.094	8454.78
657.445	8489.13
657.796	8486.87
658.147	8478.05
658.498	8461.78
658.849	8450.03
659.2	8425.63
659.551	8448.22
659.902	8430.37
660.253	8395.12
660.604	8493.42
660.955	8435.57
661.306	8475.79
661.656	8551.95
662.007	8515.57
662.358	8515.34
662.708	8456.81
663.059	8445.51
663.409	8424.95
663.76	8514.66
664.11	8461.56
664.461	8501.56
664.811	8461.78
665.161	8487.77
665.511	8463.14
665.862	8448.9
666.212	8516.7
666.562	8529.35
666.912	8426.08
667.262	8463.59
667.612	8452.97
667.962	8458.85
668.312	8407.55
668.662	8505.85
669.011	8450.26
669.361	8479.64
669.711	8442.8
670.06	8379.75
670.41	8435.8
670.76	8409.36
671.109	8474.44
671.459	8451.84
671.808	8393.76
672.157	8427.21
672.507	8391.73
672.856	8351.5
673.205	8403.93
673.554	8418.17
673.904	8397.6
674.253	8416.36
674.602	8428.56
674.951	8273.54
675.3	8180.66
675.649	8269.02
675.998	8363.71
676.346	8395.8
676.695	8351.96
677.044	8237.38
677.393	8324.61
677.741	8346.98
678.09	8280.09
678.438	8270.15
678.787	8212.07
679.135	8316.02
679.484	8165.07
679.832	8266.76
680.181	8186.54
680.529	8228.79
680.877	8213.43
681.225	8111.28
681.573	8249.81
681.922	8195.8
682.27	8157.61
682.618	8140.66
682.966	8103.6
683.314	8148.57
683.661	8137.05
684.009	8013.43
684.357	8128.91
684.705	7996.03
685.053	8024.05
685.4	8030.16
685.748	8014.56
686.095	8051.17
686.443	7937.28
686.79	7920.55
687.138	7985.19
687.485	7951.06
687.832	7943.15
688.18	7890.5
688.527	7880.1
688.874	7834.68
689.221	7857.28
689.568	7754.46
689.915	7718.07
690.262	7756.94
690.609	7737.28
690.956	7709.71
691.303	7673.1
691.65	7688.24
691.997	7679.2
692.344	7619.32
692.69	7603.27
693.037	7616.83
693.383	7571.86
693.73	7621.13
694.077	7483.5
694.423	7518.08
694.769	7481.02
695.116	7460.91
695.462	7387.46
695.808	7363.73
696.155	7394.24
696.501	7312.43
696.847	7373.22
697.193	7259.55
697.539	7326.9
697.885	7227.01
698.231	7264.53
698.577	7207.8
698.923	7212.78
699.269	7198.31
699.614	7191.53
699.96	7122.16
700.306	7126.68
700.651	7057.07
700.997	7061.59
701.342	7047.36
701.688	6980.69
702.033	6998.77
702.379	6965.78
702.724	6987.47
703.069	6905.67
703.415	6861.6
703.76	6898.21
704.105	6903.41
704.45	6876.29
704.795	6855.05
705.14	6782.73
705.485	6783.41
705.83	6779.12
706.175	6777.99
706.52	6693.02
706.865	6714.26
707.209	6736.18
707.554	6660.47
707.899	6709.29
708.243	6654.6
708.588	6697.31
708.932	6583.19
709.277	6596.07
709.621	6571.66
709.966	6509.07
710.31	6554.94
710.654	6493.02
710.998	6548.84
711.342	6508.61
711.687	6479.91
712.031	6484.21
712.375	6392.91
712.719	6406.24
713.063	6475.17
713.407	6413.48
713.75	6429.07
714.094	6466.36
714.438	6330.09
714.782	6379.8
715.125	6329.41
715.469	6380.93
715.812	6301.61
716.156	6301.16
716.499	6326.7
716.843	6300.26
717.186	6267.04
717.53	6337.09
717.873	6297.77
718.216	6321.73
718.559	6287.83
718.902	6232.01
719.246	6239.47
719.589	6236.76
719.932	6164.44
720.275	6195.63
720.617	6199.7
720.96	6177.78
721.303	6164.22
721.646	6197.66
721.989	6162.41
722.331	6168.96
722.674	6200.6
723.016	6188.62
723.359	6118.34
723.701	6123.09
724.044	6096.2
724.386	6082.18
724.729	6110.43
725.071	6081.73
725.413	6076.54
725.755	6091.22
726.097	6051.9
726.439	6055.29
726.782	6032.92
727.124	6086.25
727.465	6025.92
727.807	6035.18
728.149	5994.96
728.491	6023.2
728.833	6010.55
729.175	6003.77
729.516	5975.97
729.858	5973.49
730.199	6017.78
730.541	5954.73
730.882	6034.73
731.224	6038.57
731.565	5926.93
731.906	5987.27
732.248	6034.28
732.589	5922.64
732.93	5978.91
733.271	5937.78
733.612	5979.59
733.953	5966.03
734.294	5994.05
734.635	5927.16
734.976	5977.78
735.317	5961.96
735.658	5911.34
735.999	5971.45
736.339	5962.19
736.68	5969.87
737.021	5996.54
737.361	5955.18
737.702	6010.32
738.042	5978.23
738.383	5978.91
738.723	5985.46
739.063	5965.8
739.404	6005.8
739.744	6018.23
740.084	5966.71
740.424	5957.22
740.764	5958.57
741.104	6059.59
741.444	5973.04
741.784	5958.57
742.124	6017.55
742.464	6041.06
742.804	6045.58
743.143	5980.04
743.483	6060.49
743.823	6071.11
744.162	6073.37
744.502	6105.46
744.841	6062.52
745.181	6106.36
745.52	6175.52
745.86	6113.6
746.199	6149.08
746.538	6176.42
746.877	6244.21
747.216	6213.48
747.556	6263.42
747.895	6250.09
748.234	6277.43
748.573	6290.77
748.911	6349.75
749.25	6308.62
749.589	6353.82
749.928	6421.38
750.267	6486.92
750.605	6536.41
750.944	6616.41
751.283	6520.37
751.621	6668.61
751.96	6705.67
752.298	6731.66
752.636	6777.31
752.975	6844.2
753.313	6858.66
753.651	6947.02
753.989	6941.37
754.327	7053.91
754.666	7046.91
755.004	7212.32
755.342	7273.11
755.679	7333
756.017	7428.82
756.355	7534.12
756.693	7572.32
757.031	7662.48
757.368	7672.88
757.706	7781.35
758.044	7885.98
758.381	7965.3
758.719	8056.82
759.056	8167.33
759.394	8227.44
759.731	8242.81
760.068	8398.73
760.405	8437.6
760.743	8563.02
761.08	8651.83
761.417	8741.1
761.754	8852.73
762.091	8914.2
762.428	9049.56
762.765	9108.09
763.102	9248.2
763.438	9204.36
763.775	9311.25
764.112	9465.82
764.449	9498.14
764.785	9657.23
765.122	9721.64
765.458	9747.4
765.795	9777.45
766.131	9977
766.467	9948.98
766.804	9996.21
767.14	10109.88
767.476	10178.8
767.812	10248.85
768.148	10273.94
768.485	10397.1
768.821	10402.3
769.157	10489.75
769.492	10550.99
769.828	10707.83
770.164	10590.99
770.5	10660.6
770.836	10779.69
771.171	10772.91
771.507	10790.08
771.842	10821.04
772.178	10907.14
772.513	10862.17
772.849	10923.87
773.184	10996.86
773.519	11014.03
773.855	11063.3
774.19	11129.74
774.525	11076.4
774.86	11165.21
775.195	11232.33
775.53	11267.59
775.865	11211.54
776.2	11162.96
776.535	11131.32
776.87	11189.62
777.205	11084.99
777.539	11216.96
777.874	11247.02
778.209	11255.83
778.543	11263.29
778.878	11265.1
779.212	11276.85
779.547	11223.29
779.881	11296.74
780.215	11234.82
780.55	11242.5
780.884	11248.6
781.218	11311.2
781.552	11190.3
781.886	11240.02
782.22	11247.92
782.554	11170.41
782.888	11150.98
783.222	11146.23
783.556	11146.68
783.889	11143.07
784.223	11082.96
784.557	11017.87
784.89	11129.06
785.224	11095.84
785.557	10997.76
785.891	11077.08
786.224	11080.92
786.558	11056.29
786.891	10995.73
787.224	10911.89
787.557	10969.74
787.891	10948.27
788.224	10894.49
788.557	10925.45
788.89	10959.12
789.223	10918.22
789.556	10859.01
789.888	10844.09
790.221	10830.08
790.554	10781.27
790.887	10747.6
791.219	10742.18
791.552	10741.05
791.884	10755.51
792.217	10679.13
792.549	10670.31
792.882	10561.84
793.214	10576.08
793.546	10667.37
793.879	10595.29
794.211	10505.57
794.543	10492.46
794.875	10524.33
795.207	10546.7
795.539	10465.57
795.871	10542.63
796.203	10403.43
796.535	10408.62
796.867	10364.56
797.198	10341.28
797.53	10234.84
797.862	10316.65
798.193	10246.37
798.525	10197.56
798.856	10189.2
799.188	10141.96
799.519	10169.08
799.85	10088.63
800.182	10125.69
800.513	10103.77
800.844	10010.44
801.175	10105.58
801.506	10087.05
801.837	10022.87
802.168	10007.51
802.499	10004.34
802.83	9943.1
803.161	9866.27
803.491	9863.78
803.822	9919.82
804.153	9850.22
804.483	9780.84
804.814	9771.35
805.145	9769.32
805.475	9703.78
805.805	9767.29
806.136	9719.15
806.466	9704.24
806.796	9621.53
807.126	9591.02
807.457	9603.9
807.787	9536.78
808.117	9541.08
808.447	9580.62
808.777	9537.91
809.107	9518.7
809.436	9474.64
809.766	9511.25
810.096	9398.93
810.426	9464.92
810.755	9457.01
811.085	9430.12
811.414	9376.79
811.744	9319.84
812.073	9353.74
812.403	9264.93
812.732	9253.4
813.061	9287.07
813.39	9200.75
813.719	9164.59
814.049	9281.42
814.378	9141.31
814.707	9150.13
815.036	9187.41
815.365	9118.72
815.693	9061.77
816.022	9107.42
816.351	8993.97
816.68	9001.66
817.008	9110.35
817.337	8979.28
817.665	8951.04
817.994	9030.81
818.322	8976.12
818.651	8924.14
818.979	8891.38
819.307	8913.3
819.636	8920.75
819.964	8904.71
820.292	8923.47
820.62	8926.4
820.948	8871.49
821.276	8902.68
821.604	8800.08
821.932	8881.21
822.259	8887.53
822.587	8884.82
822.915	8891.38
823.243	8898.38
823.57	8813.86
823.898	8790.81
824.225	8806.41
824.553	8794.2
824.88	8836.01
825.207	8819.74
825.535	8845.05
825.862	8818.61
826.189	8845.73
826.516	8863.58
826.843	8870.13
827.17	8791.04
827.497	8899.96
827.824	8855.22
828.151	8901.77
828.478	8865.84
828.805	8896.35
829.131	8793.3
829.458	8838.5
829.785	8800.98
830.111	8783.81
830.438	8949.91
830.764	8850.47
831.09	8897.7
831.417	8841.21
831.743	8877.37
832.069	8867.65
832.395	8789.23
832.722	8827.65
833.048	8804.6
833.374	8821.77
833.7	8807.08
834.026	8781.32
834.351	8831.94
834.677	8807.76
835.003	8784.49
835.329	8765.05
835.654	8724.15
835.98	8664.72
836.306	8787.2
836.631	8681.66
836.956	8706.3
837.282	8723.47
837.607	8711.95
837.932	8687.09
838.258	8693.19
838.583	8701.1
838.908	8633.3
839.233	8608.9
839.558	8614.1
839.883	8575.23
840.208	8561.44
840.533	8592.85
840.858	8541.1
841.182	8552.4
841.507	8546.98
841.832	8535.23
842.156	8581.1
842.481	8473.99
842.805	8508.79
843.13	8436.47
843.454	8356.93
843.778	8417.04
844.103	8421.11
844.427	8355.12
844.751	8367.32
845.075	8346.31
845.399	8311.73
845.723	8291.84
846.047	8286.42
846.371	8218.85
846.695	8156.48
847.019	8125.29
847.343	8153.54
847.666	8095.69
847.99	8079.19
848.313	7991.29
848.637	8044.84
848.96	7931.63
849.284	7971.17
849.607	7882.14
849.931	7864.96
850.254	7831.29
850.577	7800.56
850.9	7749.03
851.223	7775.7
851.546	7701.13
851.869	7691.63
852.192	7723.05
852.515	7703.84
852.838	7620.22
853.161	7626.78
853.483	7572.09
853.806	7549.49
854.129	7553.11
854.451	7494.8
854.774	7461.36
855.096	7424.52
855.419	7483.28
855.741	7405.31
856.063	7359.67
856.385	7383.17
856.708	7335.94
857.03	7344.3
857.352	7309.05
857.674	7300.91
857.996	7268.82
858.318	7186.34
858.64	7201.7
858.961	7179.11
859.283	7193.34
859.605	7170.52
859.926	7161.93
860.248	7113.12
860.57	7094.36
860.891	7114.7
861.212	7088.26
861.534	7052.1
861.855	6984.31
862.176	7042.39
862.498	7036.06
862.819	7064.31
863.14	6984.99
863.461	6993.57
863.782	6986.34
864.103	7027.24
864.424	6919.68
864.745	6930.75
865.065	6944.53
865.386	6880.13
865.707	6852.56
866.027	6917.64
866.348	6843.97
866.668	6913.8
866.989	6824.76
867.309	6755.84
867.63	6814.59
867.95	6785.22
868.27	6711.32
868.59	6765.33
868.91	6754.48
869.23	6750.87
869.55	6693.47
869.87	6734.37
870.19	6721.26
870.51	6700.47
870.83	6759
871.15	6702.51
871.469	6708.83
871.789	6639.91
872.109	6683.75
872.428	6628.84
872.748	6631.77
873.067	6660.47
873.386	6612.79
873.706	6630.19
874.025	6618.89
874.344	6607.37
874.663	6603.07
874.982	6560.59
875.301	6564.66
875.62	6573.47
875.939	6534.6
876.258	6563.75
876.577	6502.51
876.896	6530.31
877.214	6500.93
877.533	6490.08
877.852	6557.43
878.17	6436.3
878.489	6468.39
878.807	6474.26
879.125	6450.76
879.444	6447.37
879.762	6431.55
880.08	6440.37
880.398	6431.78
880.716	6410.09
881.034	6373.25
881.352	6370.54
881.67	6315.4
881.988	6383.19
882.306	6328.28
882.624	6286.7
882.941	6274.5
883.259	6285.12
883.577	6262.07
883.894	6284.44
884.212	6215.06
884.529	6238.79
884.846	6213.71
885.164	6254.84
885.481	6200.6
885.798	6296.87
886.115	6206.48
886.432	6152.01
886.75	6124.9
887.067	6128.29
887.383	6104.11
887.7	6148.4
888.017	6105.91
888.334	6078.79
888.651	6140.26
888.967	6030.21
889.284	6020.04
889.6	6034.05
889.917	5961.28
890.233	6005.58
890.55	5952.7
890.866	5950.66
891.182	5969.65
891.498	5914.28
891.815	5880.38
892.131	5887.84
892.447	5840.61
892.763	5900.04
893.079	5892.36
893.395	5818.91
893.71	5813.94
894.026	5815.98
894.342	5811.01
894.657	5734.62
894.973	5735.3
895.289	5679.48
895.604	5706.6
895.92	5604.23
896.235	5631.58
896.55	5629.77
896.865	5610.11
897.181	5613.95
897.496	5594.51
897.811	5577.57
898.126	5558.13
898.441	5505.02
898.756	5471.81
899.071	5500.05
899.386	5526.27
899.7	5458.7
900.015	5453.5
900.33	5351.81
900.644	5367.85
900.959	5434.97
901.273	5370.57
901.588	5310.91
901.902	5283.79
902.216	5330.11
902.531	5315.2
902.845	5294.41
903.159	5256.44
903.473	5270.91
903.787	5214.86
904.101	5188.2
904.415	5195.88
904.729	5173.73
905.042	5150.91
905.356	5138.48
905.67	5110.01
905.984	5143.23
906.297	5100.52
906.611	5017.35
906.924	5060.29
907.237	5022.33
907.551	5065.71
907.864	5016.9
908.177	4962.89
908.491	4953.17
908.804	4915.44
909.117	4908.2
909.43	4882.44
909.743	4856.23
910.056	4893.97
910.368	4827.98
910.681	4846.96
910.994	4820.75
911.307	4845.61
911.619	4781.88
911.932	4725.16
912.244	4697.81
912.557	4710.02
912.869	4686.06
913.181	4602
913.494	4661.21
913.806	4615.78
914.118	4630.47
914.43	4617.36
914.742	4590.7
915.054	4542.56
915.366	4589.34
915.678	4537.59
915.99	4509.34
916.302	4464.83
916.613	4434.32
916.925	4477.48
917.236	4471.15
917.548	4438.61
917.859	4429.35
918.171	4401.32
918.482	4327.2
918.794	4403.36
919.105	4367.88
919.416	4311.38
919.727	4322.91
920.038	4314.55
920.349	4239.97
920.66	4213.53
920.971	4230.48
921.282	4253.08
921.593	4171.05
921.903	4195.91
922.214	4167.21
922.525	4179.18
922.835	4162.46
923.146	4133.99
923.456	4138.51
923.767	4073.88
924.077	4098.51
924.387	4027.32
924.697	4018.28
925.008	4034.55
925.318	4025.06
925.628	3982.58
925.938	3961.56
926.248	3964.73
926.558	3976.03
926.867	3887.89
927.177	3954.78
927.487	3895.58
927.796	3852.19
928.106	3863.03
928.416	3844.96
928.725	3855.58
929.034	3799.31
929.344	3811.06
929.653	3781.68
929.962	3807.67
930.271	3749.59
930.581	3757.73
930.89	3734.45
931.199	3695.81
931.508	3692.19
931.817	3700.1
932.125	3691.29
932.434	3659.65
932.743	3653.55
933.051	3605.64
933.36	3590.27
933.669	3588.24
933.977	3581.46
934.286	3598.63
934.594	3592.31
934.902	3551.63
935.21	3503.27
935.519	3555.47
935.827	3528.58
936.135	3532.65
936.443	3467.79
936.751	3487.68
937.059	3423.72
937.367	3435.02
937.674	3491.07
937.982	3375.82
938.29	3404.74
938.597	3404.29
938.905	3364.97
939.213	3370.39
939.52	3347.34
939.827	3360.22
940.135	3299.21
940.442	3291.98
940.749	3319.09
941.056	3298.76
941.363	3265.99
941.67	3251.52
941.977	3190.51
942.284	3210.17
942.591	3204.52
942.898	3218.08
943.205	3201.36
943.511	3193.45
943.818	3154.8
944.125	3127.91
944.431	3132.43
944.738	3136.27
945.044	3103.28
945.35	3115.03
945.657	3090.62
945.963	3062.6
946.269	3058.54
946.575	3038.87
946.881	3041.13
947.187	3029.38
947.493	3030.97
947.799	2966.79
948.105	2947.13
948.41	2969.72
948.716	3015.82
949.022	2946.22
949.327	2965.88
949.633	2916.17
949.938	2909.16
950.244	2895.6
950.549	2869.16
950.854	2851.76
951.16	2868.26
951.465	2840.69
951.77	2850.41
952.075	2837.75
952.38	2781.93
952.685	2790.52
952.99	2773.8
953.294	2769.5
953.599	2755.49
953.904	2744.19
954.209	2746
954.513	2718.88
954.818	2716.85
955.122	2714.82
955.426	2739.22
955.731	2691.99
956.035	2669.17
956.339	2665.1
956.643	2674.36
956.948	2640.69
957.252	2641.37
957.556	2628.26
957.86	2624.87
958.163	2625.1
958.467	2594.82
958.771	2579.23
959.075	2587.59
959.378	2553.92
959.682	2526.35
959.985	2542.62
960.289	2541.71
960.592	2502.39
960.896	2532.9
961.199	2485.44
961.502	2495.16
961.805	2499.91
962.108	2447.93
962.411	2481.38
962.714	2432.56
963.017	2456.52
963.32	2453.81
963.623	2440.25
963.926	2428.72
964.228	2400.02
964.531	2404.54
964.833	2393.69
965.136	2343.53
965.438	2361.15
965.741	2353.47
966.043	2318.89
966.345	2315.96
966.648	2325.22
966.95	2334.49
967.252	2294.26
967.554	2289.52
967.856	2270.08
968.158	2270.31
968.46	2273.02
968.761	2263.08
969.063	2266.92
969.365	2235.05
969.666	2227.82
969.968	2227.82
970.269	2224.21
970.571	2259.23
970.872	2203.87
971.174	2204.32
971.475	2165.68
971.776	2187.6
972.077	2162.74
972.378	2159.12
972.679	2138.11
972.98	2134.72
973.281	2136.75
973.582	2140.37
973.883	2111.22
974.183	2099.92
974.484	2107.83
974.785	2125.68
975.085	2093.36
975.386	2082.52
975.686	2057.66
975.986	2059.24
976.287	2041.16
976.587	2031.44
976.887	2030.31
977.187	2022.4
977.487	2001.84
977.787	1990.09
978.087	2003.2
978.387	1960.26
978.687	1987.38
978.987	1946.93
979.286	1946.93
979.586	1953.03
979.885	1921.62
980.185	1938.11
980.484	1906.93
980.784	1943.76
981.083	1931.33
981.382	1907.38
981.682	1891.33
981.981	1898.79
982.28	1897.21
982.579	1888.62
982.878	1870.09
983.177	1848.62
983.475	1858.57
983.774	1854.27
984.073	1856.53
984.372	1828.29
984.67	1814.95
984.969	1840.04
985.267	1827.38
985.566	1823.09
985.864	1789.64
986.162	1780.38
986.461	1767.72
986.759	1774.28
987.057	1749.19
987.355	1741.96
987.653	1764.11
987.951	1746.03
988.249	1758.68
988.547	1731.56
988.844	1704.22
989.142	1722.53
989.44	1699.7
989.737	1696.99
990.035	1689.76
990.332	1700.38
990.63	1699.25
990.927	1691.34
991.224	1698.57
991.521	1665.35
991.819	1643.43
992.116	1637.1
992.413	1629.65
992.71	1609.99
993.006	1631.45
993.303	1624
993.6	1606.37
993.897	1587.84
994.193	1618.35
994.49	1598.23
994.787	1568.86
995.083	1589.2
995.379	1561.85
995.676	1522.76
995.972	1553.26
996.268	1529.08
996.565	1548.29
996.861	1555.07
997.157	1555.3
997.453	1515.75
997.749	1532.7
998.044	1529.99
998.34	1498.35
998.636	1488.41
998.932	1468.52
999.227	1490.22
999.523	1504
999.818	1468.29
1000.114	1453.15
1000.409	1457.9
1000.704	1448.41
1001	1439.14
1001.295	1421.52
1001.59	1403.66
1001.885	1424
1002.18	1400.27
1002.475	1394.62
1002.77	1410.9
1003.065	1382.42
1003.359	1393.95
1003.654	1378.13
1003.949	1392.14
1004.243	1361.18
1004.538	1343.78
1004.832	1355.3
1005.127	1369.99
1005.421	1311.24
1005.715	1332.03
1006.009	1319.6
1006.304	1315.53
1006.598	1304.46
1006.892	1310.78
1007.186	1267.4
1007.48	1320.28
1007.773	1286.6
1008.067	1270.11
1008.361	1253.16
1008.655	1270.11
1008.948	1252.03
1009.242	1224.46
1009.535	1237.79
1009.829	1247.74
1010.122	1238.24
1010.415	1222.88
1010.708	1229.2
1011.001	1227.17
1011.295	1203.44
1011.588	1208.87
1011.881	1199.15
1012.173	1188.53
1012.466	1190.34
1012.759	1165.93
1013.052	1147.63
1013.344	1149.21
1013.637	1143.33
1013.93	1137.68
1014.222	1130.22
1014.514	1120.06
1014.807	1148.76
1015.099	1109.43
1015.391	1138.13
1015.683	1113.5
1015.976	1102.2
1016.268	1112.6
1016.56	1085.48
1016.851	1120.06
1017.143	1072.15
1017.435	1057.46
1017.727	1053.16
1018.018	1062.2
1018.31	1077.12
1018.602	1065.82
1018.893	1050.45
1019.185	1028.53
1019.476	1053.39
1019.767	1031.02
1020.058	1039.15
1020.35	980.85
1020.641	1031.47
1020.932	1019.49
1021.223	1006.39
1021.514	1007.52
1021.804	995.76
1022.095	985.82
1022.386	949.21
1022.677	971.58
1022.967	965.94
1023.258	963.45
1023.548	949.89
1023.839	957.35
1024.129	969.1
1024.419	940.17
1024.709	940.85
1025	928.42
1025.29	950.12
1025.58	912.83
1025.87	931.81
1026.16	909.44
1026.449	911.93
1026.739	915.09
1027.029	888.65
1027.319	887.97
1027.608	885.71
1027.898	894.98
1028.187	854.53
1028.477	895.65
1028.766	875.09
1029.055	869.89
1029.344	853.85
1029.634	836.9
1029.923	828.09
1030.212	835.77
1030.501	849.55
1030.79	854.07
1031.078	826.96
1031.367	800.06
1031.656	808.2
1031.945	813.17
1032.233	785.83
1032.522	788.31
1032.81	792.38
1033.099	795.09
1033.387	789.22
1033.675	779.73
1033.963	790.12
1034.251	771.59
1034.54	782.89
1034.828	782.89
1035.116	798.71
1035.403	777.01
1035.691	745.15
1035.979	759.61
1036.267	749.22
1036.554	731.82
1036.842	733.62
1037.129	716.22
1037.417	742.44
1037.704	740.63
1037.992	717.13
1038.279	726.17
1038.566	708.54
1038.853	708.54
1039.14	708.54
