Data from hue_280_FLMS001491_00042.txt Node
Date: Tue Feb 07 15:55:19 GMT 2017
User: dcchb
Spectrometer: FLMS00149
Trigger mode: 0
Integration Time (sec): 2.000000E-2
Scans to average: 10
Electric dark correction enabled: true
Nonlinearity correction enabled: false
Boxcar width: 0
XAxis mode: Wavelengths
Number of Pixels in Spectrum: 2048
>>>>>Begin Spectral Data<<<<<
341.393	-15.86
341.776	-15.86
342.16	-15.86
342.543	-69.87
342.927	-68.06
343.31	-95.63
343.693	-75.75
344.077	-68.74
344.46	-67.39
344.843	-57.22
345.226	-35.75
345.61	-28.97
345.993	-27.16
346.376	19.17
346.759	24.59
347.142	31.37
347.525	27.08
347.908	66.4
348.291	83.57
348.674	109.56
349.057	94.87
349.44	124.93
349.823	138.49
350.206	164.25
350.588	188.88
350.971	183.46
351.354	218.03
351.737	234.75
352.119	227.07
352.502	259.39
352.884	275.66
353.267	267.3
353.65	288.54
354.032	298.48
354.414	298.71
354.797	300.51
355.179	305.94
355.562	333.06
355.944	329.44
356.326	325.82
356.709	326.73
357.091	313.17
357.473	332.83
357.855	356.56
358.238	321.98
358.62	351.59
359.002	342.1
359.384	336.22
359.766	335.99
360.148	350.68
360.53	343.9
360.912	337.12
361.294	319.95
361.676	322.44
362.057	353.39
362.439	314.07
362.821	345.71
363.203	329.44
363.584	316.79
363.966	317.92
364.348	329.67
364.729	324.24
365.111	311.14
365.493	331.47
365.874	299.16
366.256	317.01
366.637	286.05
367.019	309.55
367.4	321.53
367.781	328.54
368.163	316.79
368.544	328.31
368.925	305.26
369.306	302.77
369.688	325.6
370.069	308.2
370.45	313.85
370.831	318.37
371.212	307.75
371.593	315.66
371.974	306.16
372.355	305.49
372.736	329.44
373.117	319.5
373.498	307.97
373.879	313.85
374.26	313.17
374.641	319.72
375.021	330.34
375.402	310.23
375.783	312.49
376.163	298.03
376.544	332.83
376.925	334.64
377.305	323.56
377.686	321.98
378.066	327.86
378.447	334.41
378.827	315.88
379.208	335.09
379.588	338.71
379.968	326.05
380.349	338.71
380.729	300.74
381.109	322.21
381.489	328.99
381.87	339.38
382.25	339.38
382.63	302.55
383.01	322.89
383.39	332.6
383.77	366.05
384.15	350.91
384.53	333.96
384.91	334.64
385.29	359.5
385.67	333.06
386.049	345.03
386.429	363.56
386.809	354.52
387.189	331.7
387.568	340.97
387.948	360.17
388.328	365.6
388.707	341.87
389.087	370.34
389.466	346.62
389.846	333.06
390.225	349.78
390.605	359.5
390.984	349.78
391.363	369.21
391.743	376.22
392.122	372.38
392.501	366.73
392.881	384.81
393.26	383.22
393.639	369.89
394.018	383
394.397	375.31
394.776	381.19
395.155	386.39
395.534	381.42
395.913	388.87
396.292	364.69
396.671	384.35
397.05	370.8
397.429	370.57
397.808	392.49
398.186	379.16
398.565	413.51
398.944	403.56
399.323	413.73
399.701	415.54
400.08	398.37
400.458	402.88
400.837	412.6
401.215	423.68
401.594	412.38
401.972	394.75
402.351	408.31
402.729	418.48
403.107	431.36
403.486	429.78
403.864	414.86
404.242	430.91
404.62	428.65
404.999	441.98
405.377	414.18
405.755	428.65
406.133	447.63
406.511	454.63
406.889	434.97
407.267	454.18
407.645	490.79
408.023	461.87
408.401	452.83
408.779	476.1
409.156	469.1
409.534	486.5
409.912	495.54
410.29	487.63
410.667	490.11
411.045	517.91
411.422	504.58
411.8	512.49
412.178	514.07
412.555	538.47
412.933	541.41
413.31	530.79
413.687	536.67
414.065	557.46
414.442	555.88
414.819	580.73
415.197	585.03
415.574	580.28
415.951	586.38
416.328	592.48
416.705	620.28
417.082	624.57
417.46	628.87
417.837	620.96
418.214	605.37
418.591	625.7
418.967	639.26
419.344	667.96
419.721	658.02
420.098	658.47
420.475	669.77
420.852	671.35
421.228	689.43
421.605	691.24
421.982	716.55
422.358	692.37
422.735	700.5
423.111	726.27
423.488	735.98
423.864	752.25
424.241	767.85
424.617	761.52
424.994	718.58
425.37	760.16
425.746	763.33
426.123	794.06
426.499	798.13
426.875	817.79
427.251	827.51
427.627	844.23
428.003	818.92
428.379	841.97
428.756	857.56
429.132	868.18
429.507	853.27
429.883	886.26
430.259	918.13
430.635	889.43
431.011	899.82
431.387	924.68
431.763	940.5
432.138	941.85
432.514	981.85
432.89	949.54
433.265	990.67
433.641	1012.59
434.016	1022.08
434.392	1038.35
434.767	1055.52
435.143	1017.33
435.518	1049.65
435.894	1055.98
436.269	1100.95
436.644	1110.66
437.02	1116.31
437.395	1121.51
437.77	1156.76
438.145	1171.9
438.52	1179.14
438.895	1176.2
439.271	1170.32
439.646	1182.75
440.021	1217.33
440.395	1241.73
440.77	1214.84
441.145	1224.11
441.52	1257.1
441.895	1277.44
442.27	1283.54
442.645	1292.13
443.019	1286.93
443.394	1283.99
443.769	1315.86
444.143	1316.31
444.518	1290.55
444.892	1336.19
445.267	1338.23
445.641	1333.26
446.016	1357.44
446.39	1370.09
446.764	1369.41
447.139	1353.82
447.513	1362.63
447.887	1396.76
448.262	1380.49
448.636	1370.09
449.01	1397.66
449.384	1413.03
449.758	1409.86
450.132	1431.78
450.506	1435.4
450.88	1461.61
451.254	1447.83
451.628	1459.58
452.002	1451.67
452.376	1474.04
452.75	1483.31
453.123	1508.84
453.497	1523.53
453.871	1513.59
454.244	1552.69
454.618	1588.16
454.992	1545.45
455.365	1588.84
455.739	1608.05
456.112	1617.54
456.486	1623.64
456.859	1627.03
457.232	1638.11
457.606	1631.33
457.979	1651.21
458.352	1702.96
458.725	1697.54
459.099	1715.62
459.472	1734.15
459.845	1751.32
460.218	1780.48
460.591	1777.76
460.964	1773.92
461.337	1834.49
461.71	1829.97
462.083	1831.1
462.456	1847.37
462.829	1841.49
463.201	1876.97
463.574	1884.43
463.947	1924.2
464.32	1948.38
464.692	1959.91
465.065	1934.14
465.438	1975.5
465.81	1982.96
466.183	2062.28
466.555	2032.9
466.928	2057.3
467.3	2063.63
467.672	2097.76
468.045	2095.5
468.417	2110.64
468.789	2130.98
469.161	2167.81
469.534	2160.35
469.906	2230.41
470.278	2218.66
470.65	2234.48
471.022	2271.08
471.394	2316.28
471.766	2351.76
472.138	2363.51
472.51	2376.17
472.882	2398.31
473.253	2406
473.625	2458.42
473.997	2459.33
474.369	2515.6
474.74	2518.99
475.112	2560.79
475.484	2564.64
475.855	2606.89
476.227	2610.51
476.598	2622.49
476.97	2709.04
477.341	2763.05
477.713	2773.9
478.084	2790.17
478.455	2822.48
478.827	2810.51
479.198	2911.75
479.569	2929.37
479.94	2983.38
480.311	3040.33
480.682	3053.44
481.053	3092.53
481.424	3115.13
481.795	3150.38
482.166	3157.16
482.537	3212.53
482.908	3281
483.279	3285.75
483.65	3281.23
484.021	3392.86
484.391	3376.37
484.762	3415.69
485.133	3437.38
485.503	3489.13
485.874	3533.65
486.244	3558.73
486.615	3620.65
486.985	3624.95
487.356	3676.92
487.726	3669.01
488.097	3766.64
488.467	3724.15
488.837	3840.76
489.207	3854.32
489.578	3874.66
489.948	3917.59
490.318	3909.69
490.688	3970.47
491.058	4007.76
491.428	4050.02
491.798	4071.94
492.168	4099.74
492.538	4135.89
492.908	4145.84
493.278	4195.1
493.648	4187.42
494.017	4278.49
494.387	4336.57
494.757	4301.54
495.126	4358.49
495.496	4362.33
495.866	4395.1
496.235	4456.79
496.605	4482.55
496.974	4445.72
497.344	4464.7
497.713	4496.79
498.082	4491.36
498.452	4548.09
498.821	4580.85
499.19	4621.76
499.559	4624.02
499.928	4628.54
500.298	4674.19
500.667	4644.58
501.036	4662.89
501.405	4747.18
501.774	4739.49
502.143	4741.08
502.512	4778.82
502.88	4750.57
503.249	4790.11
503.618	4829.89
503.987	4836.67
504.356	4867.17
504.724	4853.39
505.093	4908.08
505.462	4856.33
505.83	4937.68
506.199	4911.24
506.567	5005.48
506.936	4963.67
507.304	4988.75
507.672	5009.77
508.041	5007.74
508.409	5079.37
508.777	5095.42
509.145	5106.49
509.514	5067.4
509.882	5116.89
510.25	5082.08
510.618	5136.77
510.986	5119.37
511.354	5160.5
511.722	5175.64
512.09	5221.52
512.458	5263.1
512.826	5270.55
513.193	5242.98
513.561	5222.65
513.929	5323.66
514.297	5333.38
514.664	5335.18
515.032	5365.24
515.4	5354.39
515.767	5376.99
516.135	5442.53
516.502	5342.64
516.869	5419.48
517.237	5454.28
517.604	5428.06
517.972	5456.54
518.339	5465.8
518.706	5437.55
519.073	5477.33
519.44	5450.21
519.808	5488.4
520.175	5491.56
520.542	5576.08
520.909	5534.95
521.276	5535.63
521.643	5583.99
522.009	5622.41
522.376	5685.91
522.743	5674.61
523.11	5707.6
523.477	5723.65
523.843	5750.77
524.21	5788.96
524.577	5741.5
524.943	5817.88
525.31	5830.54
525.676	5844.1
526.043	5825.12
526.409	5888.62
526.776	5919.12
527.142	5925.9
527.508	5944.21
527.874	6022.85
528.241	5960.03
528.607	6019.23
528.973	6016.75
529.339	6039.12
529.705	6060.82
530.071	6117.31
530.437	6092.9
530.803	6159.34
531.169	6153.47
531.535	6157.99
531.901	6161.15
532.267	6160.47
532.632	6228.95
532.998	6200.92
533.364	6236.86
533.73	6276.63
534.095	6315.95
534.461	6266.01
534.826	6324.99
535.192	6375.61
535.557	6344.88
535.923	6327.93
536.288	6402.5
536.653	6410.86
537.019	6306.23
537.384	6398.66
537.749	6473.69
538.114	6448.15
538.479	6408.15
538.845	6408.6
539.21	6460.13
539.575	6416.74
539.94	6499
540.305	6454.93
540.67	6476.4
541.034	6534.25
541.399	6506.68
541.764	6566.56
542.129	6545.32
542.494	6589.16
542.858	6628.71
543.223	6560.01
543.587	6604.98
543.952	6677.3
544.316	6668.26
544.681	6654.92
545.045	6650.86
545.41	6730.18
545.774	6735.37
546.138	6715.94
546.503	6702.38
546.867	6731.76
547.231	6788.93
547.595	6804.98
547.959	6815.82
548.324	6718.43
548.688	6834.81
549.052	6759.78
549.416	6835.94
549.779	6813.79
550.143	6823.73
550.507	6873
550.871	6848.14
551.235	6893.34
551.599	6864.18
551.962	6931.3
552.326	6960.68
552.689	6895.14
553.053	6864.41
553.417	6924.75
553.78	7025.54
554.143	6954.58
554.507	6934.01
554.87	7031.41
555.234	7053.33
555.597	7035.93
555.96	7033.67
556.323	6982.6
556.686	7033.22
557.05	7137.17
557.413	7066.21
557.776	7137.85
558.139	7112.09
558.502	7143.5
558.865	7100.11
559.228	7183.27
559.59	7196.6
559.953	7176.94
560.316	7282.25
560.679	7263.04
561.041	7290.84
561.404	7294.68
561.767	7350.27
562.129	7320.44
562.492	7339.43
562.854	7435.02
563.217	7420.33
563.579	7430.72
563.941	7475.69
564.304	7456.03
564.666	7469.37
565.028	7522.7
565.39	7519.99
565.753	7603.83
566.115	7541
566.477	7589.14
566.839	7625.97
567.201	7650.38
567.563	7675.69
567.925	7740.55
568.287	7768.57
568.648	7777.61
569.01	7740.09
569.372	7810.83
569.734	7828.68
570.095	7871.84
570.457	7873.42
570.819	7879.07
571.18	7925.4
571.542	8003.59
571.903	8006.3
572.265	8001.78
572.626	8041.78
572.987	8039.75
573.349	8081.55
573.71	8151.61
574.071	8143.92
574.432	8185.73
574.794	8294.2
575.155	8263.02
575.516	8201.78
575.877	8319.74
576.238	8303.92
576.599	8369.46
576.96	8377.82
577.32	8440.87
577.681	8474.09
578.042	8554.76
578.403	8512.73
578.763	8553.86
579.124	8597.7
579.485	8698.26
579.845	8731.93
580.206	8687.41
580.566	8766.28
580.927	8760.63
581.287	8860.29
581.648	8877.69
582.008	9017.12
582.368	8955.65
582.728	9029.78
583.089	9047.4
583.449	9105.25
583.809	9207.4
584.169	9238.13
584.529	9241.97
584.889	9382.31
585.249	9298.47
585.609	9421.18
585.969	9421.63
586.329	9441.74
586.688	9470.44
587.048	9535.3
587.408	9584.34
587.768	9665.47
588.127	9691
588.487	9769.19
588.846	9911.56
589.206	9909.3
589.565	9954.5
589.925	10103.19
590.284	10140.03
590.643	10186.81
591.003	10272.46
591.362	10307.26
591.721	10348.39
592.08	10366.01
592.44	10503.18
592.799	10650.3
593.158	10546.57
593.517	10682.16
593.876	10713.57
594.235	10760.13
594.593	10818.88
594.952	10891.87
595.311	10923.51
595.67	11035.6
596.029	11108.82
596.387	11167.8
596.746	11175.26
597.104	11289.38
597.463	11258.19
597.822	11354.91
598.18	11331.64
598.538	11390.17
598.897	11509.71
599.255	11387.91
599.613	11725.75
599.972	11612.99
600.33	11655.24
600.688	11673.1
601.046	11801.23
601.404	11823.15
601.762	11837.16
602.12	11940.89
602.478	11977.95
602.836	11947.67
603.194	11987.44
603.552	12066.08
603.91	12022.92
604.268	12166.42
604.625	12052.3
604.983	12155.57
605.341	12217.72
605.698	12231.95
606.056	12292.52
606.413	12379.07
606.771	12462.45
607.128	12504.49
607.485	12438.05
607.843	12492.28
608.2	12523.47
608.557	12593.52
608.914	12584.03
609.272	12683.01
609.629	12696.8
609.986	12660.19
610.343	12730.47
610.7	12823.12
611.057	12849.56
611.414	12759.62
611.771	12829.9
612.127	12920.97
612.484	12886.85
612.841	12989.9
613.198	12974.08
613.554	12912.61
613.911	12985.15
614.267	13003.68
614.624	13022.21
614.98	13082.33
615.337	13192.83
615.693	13090.91
616.05	13076.45
616.406	13251.81
616.762	13123.91
617.118	13177.69
617.475	13226.28
617.831	13283.22
618.187	13328.19
618.543	13314.86
618.899	13383.33
619.255	13337.46
619.611	13381.53
619.967	13372.49
620.323	13498.81
620.678	13379.72
621.034	13349.21
621.39	13464.69
621.746	13337.46
622.101	13564.8
622.457	13515.08
622.812	13545.14
623.168	13501.52
623.523	13473.28
623.879	13514.4
624.234	13403
624.589	13549.21
624.945	13564.57
625.3	13568.87
625.655	13551.69
626.01	13598.47
626.365	13567.74
626.72	13517.34
627.075	13616.77
627.43	13544.46
627.785	13541.52
628.14	13535.19
628.495	13510.34
628.85	13517.79
629.205	13572.48
629.559	13572.93
629.914	13467.4
630.269	13595.98
630.623	13530
630.978	13452.49
631.332	13581.52
631.687	13557.79
632.041	13452.03
632.396	13585.82
632.75	13500.39
633.104	13578.13
633.459	13512.37
633.813	13423.11
634.167	13476.21
634.521	13392.37
634.875	13498.81
635.229	13400.74
635.583	13374.97
635.937	13339.72
636.291	13329.78
636.645	13316.67
636.999	13313.51
637.352	13398.93
637.706	13292.26
638.06	13404.12
638.413	13262.21
638.767	13280.29
639.121	13366.16
639.474	13266.95
639.828	13214.3
640.181	13245.71
640.534	13348.53
640.888	13170.46
641.241	13181.98
641.594	13185.83
641.947	13294.52
642.301	13228.08
642.654	13232.6
643.007	13264.92
643.36	13235.32
643.713	13207.97
644.066	13283
644.419	13148.31
644.771	13089.56
645.124	12960.75
645.477	12952.61
645.83	12867.42
646.182	12828.09
646.535	12800.53
646.888	12921.88
647.24	12733.18
647.593	12818.83
647.945	12820.86
648.298	12708.32
648.65	12771.37
649.002	12722.11
649.355	12823.35
649.707	12753.07
650.059	12861.31
650.411	12997.13
650.763	12979.5
651.115	13246.84
651.467	13126.39
651.819	13109.44
652.171	13087.98
652.523	13058.82
652.875	13028.09
653.227	13020.86
653.578	13207.29
653.93	13071.25
654.282	12982.67
654.633	13005.27
654.985	13007.75
655.337	13087.98
655.688	13061.76
656.039	13056.56
656.391	12965.72
656.742	13046.85
657.094	13068.54
657.445	13162.55
657.796	13073.74
658.147	13128.2
658.498	13081.42
658.849	13106.28
659.2	13126.62
659.551	13065.38
659.902	13163.45
660.253	13078.03
660.604	13135.21
660.955	13091.14
661.306	13138.14
661.656	13091.59
662.007	13097.92
662.358	13107.64
662.708	13134.98
663.059	13142.89
663.409	13051.14
663.76	13193.06
664.11	13185.15
664.461	13278.03
664.811	13214.07
665.161	13119.61
665.511	13158.48
665.862	13128.43
666.212	13206.39
666.562	13203
666.912	13108.31
667.262	13194.19
667.612	13075.32
667.962	13212.72
668.312	13182.44
668.662	13123.91
669.011	13219.27
669.361	13144.02
669.711	13226.05
670.06	13116
670.41	13191.25
670.76	13068.09
671.109	13115.32
671.459	13165.26
671.808	13101.08
672.157	13130.69
672.507	13071.7
672.856	13010.91
673.205	13065.38
673.554	13065.38
673.904	12997.81
674.253	13143.11
674.602	13067.18
674.951	12877.59
675.3	12872.84
675.649	13037.58
675.998	13040.74
676.346	13027.41
676.695	13047.75
677.044	12886.62
677.393	12930.92
677.741	12996.68
678.09	12933.85
678.438	12836.68
678.787	12994.87
679.135	12950.13
679.484	12757.36
679.832	12828.32
680.181	12812.95
680.529	12858.83
680.877	12806.4
681.225	12741.09
681.573	12867.64
681.922	12683.69
682.27	12638.95
682.618	12731.15
682.966	12682.34
683.314	12744.93
683.661	12643.47
684.009	12677.82
684.357	12590.36
684.705	12586.52
685.053	12557.82
685.4	12506.52
685.748	12442.12
686.095	12443.47
686.443	12427.88
686.79	12350.59
687.138	12440.76
687.485	12420.87
687.832	12249.58
688.18	12364.38
688.527	12314.66
688.874	12248.9
689.221	12240.54
689.568	12157.38
689.915	12119.19
690.262	12013.43
690.609	11984.95
690.956	12002.35
691.303	11978.17
691.65	11997.61
691.997	11957.84
692.344	11812.3
692.69	11789.03
693.037	11855.47
693.383	11671.97
693.73	11760.33
694.077	11662.25
694.423	11662.48
694.769	11650.5
695.116	11541.8
695.462	11579.31
695.808	11553.33
696.155	11580.44
696.501	11425.65
696.847	11424.52
697.193	11330.96
697.539	11346.78
697.885	11279.21
698.231	11218.65
698.577	11186.1
698.923	11161.47
699.269	11150.17
699.614	11032.44
699.96	10992.89
700.306	11033.34
700.651	10865.21
700.997	10943.85
701.342	10864.76
701.688	10895.94
702.033	10799.45
702.379	10798.09
702.724	10771.65
703.069	10728.94
703.415	10569.85
703.76	10655.5
704.105	10726.68
704.45	10626.8
704.795	10470.42
705.14	10497.76
705.485	10497.76
705.83	10439.91
706.175	10477.42
706.52	10351.32
706.865	10358.56
707.209	10322.62
707.554	10393.58
707.899	10274.49
708.243	10189.29
708.588	10179.58
708.932	10126.47
709.277	10192.01
709.621	10052.12
709.966	9990.2
710.31	10037.89
710.654	9939.81
710.998	9953.82
711.342	9967.38
711.687	9980.03
712.031	9919.92
712.375	9852.81
712.719	9984.33
713.063	9876.31
713.407	9903.43
713.75	9894.61
714.094	9834.05
714.438	9760.38
714.782	9738.46
715.125	9722.19
715.469	9716.54
715.812	9715.63
716.156	9608.29
716.499	9641.74
716.843	9670.89
717.186	9592.7
717.53	9675.18
717.873	9587.28
718.216	9611.91
718.559	9586.15
718.902	9524
719.246	9541.63
719.589	9517.22
719.932	9471.35
720.275	9477.22
720.617	9488.52
720.96	9464.34
721.303	9446.94
721.646	9421.63
721.989	9384.57
722.331	9464.57
722.674	9436.55
723.016	9454.4
723.359	9399.03
723.701	9443.1
724.044	9348.41
724.386	9321.97
724.729	9353.38
725.071	9397
725.413	9318.36
725.755	9314.97
726.097	9253.73
726.439	9292.59
726.782	9343.89
727.124	9281.07
727.465	9303.22
727.807	9310.9
728.149	9272.03
728.491	9273.39
728.833	9290.79
729.175	9218.92
729.516	9246.27
729.858	9242.43
730.199	9278.58
730.541	9256.21
730.882	9218.02
731.224	9286.49
731.565	9254.4
731.906	9250.34
732.248	9253.05
732.589	9183.44
732.93	9188.64
733.271	9258.25
733.612	9291.24
733.953	9271.8
734.294	9238.81
734.635	9148.19
734.976	9301.41
735.317	9180.51
735.658	9164.24
735.999	9198.59
736.339	9240.39
736.68	9239.94
737.021	9196.33
737.361	9246.04
737.702	9318.81
738.042	9294.85
738.383	9244.69
738.723	9291.01
739.063	9208.08
739.404	9249.88
739.744	9338.24
740.084	9280.39
740.424	9306.83
740.764	9251.24
741.104	9364.23
741.444	9288.53
741.784	9319.71
742.124	9375.08
742.464	9422.53
742.804	9381.63
743.143	9464.57
743.483	9491.23
743.823	9388.64
744.162	9428.41
744.502	9559.25
744.841	9526.49
745.181	9662.98
745.52	9640.16
745.86	9644.68
746.199	9676.99
746.538	9726.03
746.877	9840.6
747.216	9808.97
747.556	9836.76
747.895	9882.41
748.234	9974.38
748.573	9929.19
748.911	10008.73
749.25	10082.4
749.589	10190.65
749.928	10218.9
750.267	10224.1
750.605	10369.63
750.944	10376.41
751.283	10498.66
751.621	10546.8
751.96	10643.75
752.298	10719.45
752.636	10853.68
752.975	10857.75
753.313	10990.4
753.651	11145.2
753.989	11138.42
754.327	11348.36
754.666	11353.56
755.004	11474.23
755.342	11645.3
755.679	11824.51
756.017	11823.38
756.355	11973.88
756.693	12110.6
757.031	12284.83
757.368	12234.89
757.706	12400.08
758.044	12538.16
758.381	12772.5
758.719	12807.76
759.056	13048.88
759.394	13133.17
759.731	13177.01
760.068	13443.9
760.405	13489.77
760.743	13646.15
761.08	13793.27
761.417	13966.82
761.754	14059.93
762.091	14239.81
762.428	14430.09
762.765	14494.27
763.102	14630.31
763.438	14792.34
763.775	14890.64
764.112	15091.76
764.449	15178.54
764.785	15364.53
765.122	15341.48
765.458	15445.43
765.795	15625.31
766.131	15746.66
766.467	15802.25
766.804	15889.48
767.14	16019.65
767.476	16190.94
767.812	16218.51
768.148	16366.76
768.485	16489.24
768.821	16468.68
769.157	16557.26
769.492	16666.41
769.828	16768.1
770.164	16798.84
770.5	16858.5
770.836	16914.32
771.171	17015.33
771.507	17167.64
771.842	17092.84
772.178	17227.08
772.513	17225.27
772.849	17328.77
773.184	17308.66
773.519	17374.87
773.855	17450.8
774.19	17374.42
774.525	17455.09
774.86	17550.46
775.195	17571.25
775.53	17559.95
775.865	17565.37
776.2	17563.34
776.535	17555.65
776.87	17672.04
777.205	17603.56
777.539	17619.83
777.874	17753.39
778.209	17619.83
778.543	17672.49
778.878	17632.71
779.212	17598.82
779.547	17648.76
779.881	17707.06
780.215	17687.85
780.55	17766.27
780.884	17644.01
781.218	17704.12
781.552	17657.8
781.886	17679.94
782.22	17518.59
782.554	17602.66
782.888	17501.64
783.222	17531.47
783.556	17433.17
783.889	17483.34
784.223	17423.91
784.557	17358.82
784.89	17487.18
785.224	17402.21
785.557	17286.06
785.891	17279.5
786.224	17316.79
786.558	17321.54
786.891	17090.13
787.224	17117.7
787.557	17206.06
787.891	17134.2
788.224	17164.7
788.557	17179.39
788.89	17082.22
789.223	17016.91
789.556	16951.83
789.888	16925.39
790.221	16852.4
790.554	16705.96
790.887	16853.07
791.219	16816.24
791.552	16696.69
791.884	16633.19
792.217	16649.46
792.549	16645.62
792.882	16576.47
793.214	16555.45
793.546	16507.77
793.879	16475
794.211	16426.42
794.543	16462.8
794.875	16411.28
795.207	16475
795.539	16336.48
795.871	16382.58
796.203	16178.74
796.535	16083.83
796.867	16151.4
797.198	16096.94
797.53	16134
797.862	15956.83
798.193	15917.96
798.525	15992.53
798.856	16064.17
799.188	15764.06
799.519	15757.06
799.85	15720
800.182	15785.76
800.513	15748.92
800.844	15527.01
801.175	15669.6
801.506	15634.35
801.837	15562.03
802.168	15477.29
802.499	15468.93
802.83	15398.87
803.161	15280.01
803.491	15411.53
803.822	15322.72
804.153	15234.81
804.483	15209.73
804.814	15188.94
805.145	15224.87
805.475	15147.36
805.805	15089.05
806.136	15117.3
806.466	15090.63
806.796	15033.46
807.126	14840.7
807.457	14857.65
807.787	14930.41
808.117	14835.5
808.447	14869.4
808.777	14705.56
809.107	14776.07
809.436	14809.51
809.766	14656.07
810.096	14633.92
810.426	14586.24
810.755	14580.59
811.085	14513.02
811.414	14605
811.744	14488.16
812.073	14426.47
812.403	14514.6
812.732	14425.12
813.061	14398.45
813.39	14325.68
813.719	14252.69
814.049	14299.92
814.378	14242.97
814.707	14146.93
815.036	14191.45
815.365	14105.8
815.693	14050.44
816.022	14009.53
816.351	14002.75
816.68	13910.1
817.008	13969.31
817.337	13835.07
817.665	13847.5
817.994	13887.73
818.322	13945.35
818.651	13752.36
818.979	13744.68
819.307	13848.63
819.636	13697.9
819.964	13695.42
820.292	13722.76
820.62	13683.89
820.948	13667.85
821.276	13699.71
821.604	13651.35
821.932	13676.66
822.259	13671.69
822.587	13672.82
822.915	13558.47
823.243	13634.85
823.57	13592.14
823.898	13567.06
824.225	13602.09
824.553	13605.7
824.88	13680.95
825.207	13684.57
825.535	13582.2
825.862	13713.95
826.189	13648.86
826.516	13690.22
826.843	13678.24
827.17	13691.12
827.497	13689.99
827.824	13698.81
828.151	13686.6
828.478	13688.41
828.805	13797.33
829.131	13677.79
829.458	13644.12
829.785	13557.12
830.111	13534.52
830.438	13661.52
830.764	13606.83
831.09	13685.7
831.417	13490.22
831.743	13576.78
832.069	13645.02
832.395	13600.5
832.722	13664.01
833.048	13609.77
833.374	13568.64
833.7	13452.49
834.026	13472.37
834.351	13582.88
834.677	13600.96
835.003	13474.41
835.329	13441.19
835.654	13446.84
835.98	13400.06
836.306	13486.16
836.631	13417.23
836.956	13446.84
837.282	13351.24
837.607	13369.55
837.932	13430.34
838.258	13484.35
838.583	13290.68
838.908	13286.39
839.233	13217.46
839.558	13168.65
839.883	13137.01
840.208	13126.62
840.533	13227.18
840.858	13215.2
841.182	13219.27
841.507	13250.68
841.832	13106.05
842.156	13057.24
842.481	12983.57
842.805	13057.47
843.13	12929.79
843.454	12939.28
843.778	12878.26
844.103	12951.03
844.427	12848.43
844.751	12886.4
845.075	12833.97
845.399	12832.61
845.723	12764.82
846.047	12680.3
846.371	12653.18
846.695	12622.68
847.019	12526.63
847.343	12519.63
847.666	12425.39
847.99	12366.41
848.313	12368.67
848.637	12158.51
848.96	12246.42
849.284	12223.37
849.607	12135.01
849.931	12032.18
850.254	12005.74
850.577	11935.69
850.9	11861.34
851.223	11866.99
851.546	11863.37
851.869	11697.05
852.192	11789.7
852.515	11683.94
852.838	11678.97
853.161	11591.74
853.483	11594.46
853.806	11543.61
854.129	11555.59
854.451	11481.69
854.774	11491.18
855.096	11314.91
855.419	11349.49
855.741	11346.1
856.063	11267.01
856.385	11343.39
856.708	11230.62
857.03	11166.44
857.352	11140
857.674	11075.6
857.996	11136.61
858.318	11044.41
858.64	11067.46
858.961	10981.36
859.283	10936.39
859.605	10848.26
859.926	10893.91
860.248	10868.6
860.57	10844.64
860.891	10796.06
861.212	10806.23
861.534	10730.07
861.855	10747.47
862.176	10720.58
862.498	10793.8
862.819	10648.49
863.14	10728.49
863.461	10619.34
863.782	10612.56
864.103	10611.2
864.424	10584.76
864.745	10552.22
865.065	10511.09
865.386	10526.69
865.707	10535.95
866.027	10593.58
866.348	10493.92
866.668	10513.35
866.989	10433.58
867.309	10319.46
867.63	10366.01
867.95	10326.01
868.27	10238.56
868.59	10289.4
868.91	10343.19
869.23	10317.43
869.55	10182.06
869.87	10287.37
870.19	10277.65
870.51	10268.39
870.83	10222.06
871.15	10129.86
871.469	10210.31
871.789	10176.41
872.109	10101.84
872.428	10062.97
872.748	10055.06
873.067	10131.22
873.386	10087.38
873.706	10087.15
874.025	9985.46
874.344	10068.17
874.663	10049.64
874.982	9958.79
875.301	9985.01
875.62	10015.06
875.939	9973.25
876.258	9921.96
876.577	9865.91
876.896	9954.5
877.214	9899.13
877.533	9927.15
877.852	9899.36
878.17	9879.25
878.489	9910.21
878.807	9904.1
879.125	9787.95
879.444	9748.18
879.762	9702.3
880.08	9768.51
880.398	9740.94
880.716	9724.22
881.034	9738.01
881.352	9698.69
881.67	9632.02
881.988	9665.47
882.306	9638.8
882.624	9555.86
882.941	9526.71
883.259	9524.23
883.577	9507.73
883.894	9474.51
884.212	9492.14
884.529	9491.23
884.846	9491.91
885.164	9380.73
885.481	9431.12
885.798	9352.03
886.115	9366.72
886.432	9369.65
886.75	9297.79
887.067	9333.72
887.383	9311.13
887.7	9264.8
888.017	9223.67
888.334	9266.61
888.651	9235.65
888.967	9145.93
889.284	9170.79
889.6	9079.04
889.917	9017.8
890.233	9081.3
890.55	8890.12
890.866	8977.8
891.182	8922.89
891.498	8924.92
891.815	8862.55
892.131	8832.27
892.447	8851.93
892.763	8815.55
893.079	8776.45
893.395	8787.75
893.71	8770.57
894.026	8723.12
894.342	8764.02
894.657	8599.73
894.973	8629.79
895.289	8635.66
895.604	8621.65
895.92	8583.91
896.235	8530.13
896.55	8452.16
896.865	8436.8
897.181	8450.13
897.496	8464.14
897.811	8446.29
898.126	8333.75
898.441	8311.83
898.756	8334.43
899.071	8258.72
899.386	8252.4
899.7	8180.76
900.015	8125.85
900.33	8107.99
900.644	8119.52
900.959	8070.93
901.273	8010.14
901.588	8022.12
901.902	7969.47
902.216	7933.99
902.531	7919.75
902.845	7845.18
903.159	7903.93
903.473	7830.49
903.787	7778.74
904.101	7796.14
904.415	7741.22
904.729	7738.29
905.042	7686.54
905.356	7666.87
905.67	7660.77
905.984	7647.44
906.297	7615.58
906.611	7579.19
906.924	7580.55
907.237	7510.27
907.551	7500.78
907.864	7427.56
908.177	7378.29
908.491	7352.98
908.804	7339.88
909.117	7315.47
909.43	7312.31
909.743	7232.54
910.056	7255.81
910.368	7235.93
910.681	7205.87
910.994	7117.96
911.307	7102.14
911.619	7103.5
911.932	7129.71
912.244	6988.7
912.557	7004.07
912.869	6947.57
913.181	6985.99
913.494	6938.53
913.806	6893.56
914.118	6883.17
914.43	6802.04
914.742	6827.35
915.054	6755.71
915.366	6696.05
915.678	6718.65
915.99	6640.01
916.302	6672.1
916.613	6642.49
916.925	6569.05
917.236	6574.02
917.548	6504.42
917.859	6528.37
918.171	6489.5
918.482	6407.02
918.794	6474.59
919.105	6420.35
919.416	6355.27
919.727	6297.87
920.038	6355.72
920.349	6291.54
920.66	6274.14
920.971	6243.41
921.282	6202.05
921.593	6208.16
921.903	6196.63
922.214	6150.76
922.525	6141.72
922.835	6076.86
923.146	6055.62
923.456	6098.33
923.767	6082.74
924.077	6033.47
924.387	6020.59
924.697	5941.72
925.008	5950.31
925.318	5902.18
925.628	5873.02
925.938	5883.87
926.248	5808.62
926.558	5761.39
926.867	5807.04
927.177	5741.95
927.487	5769.75
927.796	5710.99
928.106	5656.98
928.416	5640.71
928.725	5620.15
929.034	5622.41
929.344	5614.5
929.653	5592.35
929.962	5547.83
930.271	5535.41
930.581	5514.61
930.89	5484.33
931.199	5430.1
931.508	5419.25
931.817	5443.2
932.125	5385.8
932.434	5365.92
932.743	5304.9
933.051	5295.86
933.36	5252.47
933.669	5263.32
933.977	5259.48
934.286	5205.24
934.594	5206.6
934.902	5211.8
935.21	5146.94
935.519	5196.43
935.827	5157.34
936.135	5090.67
936.443	5055.19
936.751	5068.98
937.059	5093.38
937.367	5026.04
937.674	5069.2
937.982	5011.58
938.29	5013.39
938.597	4991.24
938.905	4931.58
939.213	4922.99
939.52	4852.94
939.827	4928.87
940.135	4829.44
940.442	4829.44
940.749	4808.42
941.056	4826.05
941.363	4741.53
941.67	4733.39
941.977	4737.69
942.284	4666.05
942.591	4652.04
942.898	4709.89
943.205	4633.51
943.511	4633.96
943.818	4607.07
944.125	4542.66
944.431	4560.74
944.738	4533.85
945.044	4510.35
945.35	4470.8
945.657	4433.51
945.963	4476
946.269	4410.92
946.575	4407.3
946.881	4387.86
947.187	4399.16
947.493	4366.85
947.799	4313.97
948.105	4319.39
948.41	4299.28
948.716	4278.72
949.022	4285.72
949.327	4266.74
949.633	4210.02
949.938	4207.08
950.244	4221.99
950.549	4149
950.854	4191.26
951.16	4151.94
951.465	4120.3
951.77	4071.71
952.075	4075.56
952.38	4085.05
952.685	4078.72
952.99	4053.18
953.294	3998.27
953.599	3973.86
953.904	3964.83
954.209	3941.55
954.513	3939.29
954.818	3949.23
955.122	3905.84
955.426	3875.34
955.731	3905.84
956.035	3863.13
956.339	3836.01
956.643	3801.21
956.948	3838.73
957.252	3833.3
957.556	3843.7
957.86	3763.25
958.163	3795.11
958.467	3757.6
958.771	3726.19
959.075	3726.64
959.378	3691.61
959.682	3680.76
959.985	3674.21
960.289	3589.69
960.592	3602.12
960.896	3614.33
961.199	3602.12
961.502	3581.33
961.805	3530.94
962.108	3565.06
962.411	3572.07
962.714	3553.76
963.017	3528.23
963.32	3518.06
963.623	3525.51
963.926	3479.87
964.228	3436.48
964.531	3452.3
964.833	3425.4
965.136	3387.89
965.438	3378.63
965.741	3372.07
966.043	3403.94
966.345	3343.15
966.648	3336.59
966.95	3331.85
967.252	3268.8
967.554	3288.01
967.856	3334.56
968.158	3272.41
968.46	3228.8
968.761	3207.33
969.063	3233.32
969.365	3182.25
969.666	3187.67
969.968	3172.3
970.269	3129.82
970.571	3125.07
970.872	3153.77
971.174	3139.08
971.475	3112.64
971.776	3093.21
972.077	3088.92
972.378	3084.85
972.679	3082.81
972.98	3041.69
973.281	3067.45
973.582	2982.03
973.883	2984.74
974.183	2967.11
974.484	2991.74
974.785	2938.86
975.085	2957.39
975.386	2916.04
975.686	2947.22
975.986	2916.27
976.287	2907
976.587	2835.82
976.887	2866.55
977.187	2866.32
977.487	2886.44
977.787	2822.48
978.087	2824.29
978.387	2805.08
978.687	2810.05
978.987	2786.78
979.286	2770.28
979.586	2775.48
979.885	2747
980.185	2730.96
980.484	2745.42
980.784	2707.91
981.083	2696.38
981.382	2704.07
981.682	2678.31
981.981	2657.51
982.28	2644.41
982.579	2614.35
982.878	2681.7
983.177	2620.91
983.475	2633.79
983.774	2561.92
984.073	2576.39
984.372	2544.52
984.67	2532.55
984.969	2565.09
985.267	2559.44
985.566	2528.48
985.864	2489.61
986.162	2481.7
986.461	2449.38
986.759	2477.41
987.057	2462.27
987.355	2443.28
987.653	2470.4
987.951	2427.46
988.249	2419.33
988.547	2432.66
988.844	2392.44
989.142	2408.93
989.44	2378.2
989.737	2328.26
990.035	2356.28
990.332	2369.39
990.63	2344.75
990.927	2330.29
991.224	2334.59
991.521	2290.74
991.819	2302.95
992.116	2291.65
992.413	2242.84
992.71	2267.24
993.006	2253.68
993.303	2264.08
993.6	2253.68
993.897	2200.13
994.193	2233.12
994.49	2186.34
994.787	2161.93
995.083	2164.42
995.379	2179.34
995.676	2157.87
995.972	2149.96
996.268	2124.87
996.565	2125.55
996.861	2127.81
997.157	2122.84
997.453	2083.52
997.749	2118.55
998.044	2046.01
998.34	2083.52
998.636	2053.01
998.932	2044.88
999.227	2034.93
999.523	2045.33
999.818	1989.28
1000.114	2003.29
1000.409	2014.37
1000.704	1977.31
1001	1965.78
1001.295	1947.03
1001.59	1961.71
1001.885	1962.39
1002.18	1932.79
1002.475	1906.12
1002.77	1912.68
1003.065	1867.48
1003.359	1875.84
1003.654	1875.61
1003.949	1871.32
1004.243	1872
1004.538	1849.17
1004.832	1820.25
1005.127	1819.34
1005.421	1834.03
1005.715	1807.82
1006.009	1789.52
1006.304	1769.63
1006.598	1794.03
1006.892	1752.68
1007.186	1767.14
1007.48	1756.52
1007.773	1723.08
1008.067	1748.16
1008.361	1704.77
1008.655	1688.5
1008.948	1701.38
1009.242	1691.44
1009.535	1681.72
1009.829	1679.24
1010.122	1656.64
1010.415	1618.9
1010.708	1639.69
1011.001	1653.25
1011.295	1646.24
1011.588	1634.26
1011.881	1582.29
1012.173	1573.25
1012.466	1578.9
1012.759	1593.14
1013.052	1550.2
1013.344	1549.3
1013.637	1523.99
1013.93	1556.75
1014.222	1545.68
1014.514	1516.98
1014.807	1523.08
1015.099	1489.64
1015.391	1522.18
1015.683	1497.32
1015.976	1493.48
1016.268	1452.35
1016.56	1470.88
1016.851	1420.26
1017.143	1435.4
1017.435	1429.98
1017.727	1435.85
1018.018	1437.43
1018.31	1417.55
1018.602	1424.55
1018.893	1406.02
1019.185	1401.28
1019.476	1372.35
1019.767	1375.29
1020.058	1350.2
1020.35	1353.59
1020.641	1348.4
1020.932	1322.86
1021.223	1314.27
1021.514	1319.92
1021.804	1286.25
1022.095	1279.7
1022.386	1302.97
1022.677	1282.64
1022.967	1272.69
1023.258	1268.85
1023.548	1273.14
1023.839	1225.69
1024.129	1238.34
1024.419	1222.98
1024.709	1209.42
1025	1224.56
1025.29	1217.55
1025.58	1201.06
1025.87	1209.42
1026.16	1184.79
1026.449	1167.16
1026.739	1172.36
1027.029	1178.68
1027.319	1152.02
1027.608	1147.72
1027.898	1165.35
1028.187	1167.16
1028.477	1124.45
1028.766	1101.85
1029.055	1129.19
1029.344	1115.86
1029.634	1117.67
1029.923	1098.01
1030.212	1080.38
1030.501	1074.28
1030.79	1070.89
1031.078	1085.35
1031.367	1048.97
1031.656	1038.8
1031.945	1039.03
1032.233	1058.01
1032.522	1020.95
1032.81	1052.81
1033.099	1011.68
1033.387	993.83
1033.675	1024.11
1033.963	983.89
1034.251	991.12
1034.54	1000.61
1034.828	983.43
1035.116	981.63
1035.403	980.04
1035.691	958.35
1035.979	945.24
1036.267	975.98
1036.554	900.72
1036.842	932.59
1037.129	947.96
1037.417	942.98
1037.704	944.79
1037.992	916.77
1038.279	914.74
1038.566	891.01
1038.853	891.01
1039.14	891.01
