Data from hue_50_FLMS001491_62.txt Node
Date: Mon Feb 06 15:10:45 GMT 2017
User: dcchb
Spectrometer: FLMS00149
Trigger mode: 0
Integration Time (sec): 2.000000E-2
Scans to average: 10
Electric dark correction enabled: true
Nonlinearity correction enabled: false
Boxcar width: 0
XAxis mode: Wavelengths
Number of Pixels in Spectrum: 2048
>>>>>Begin Spectral Data<<<<<
341.393	-10.64
341.776	-10.64
342.16	-10.64
342.543	-42.5
342.927	-53.57
343.31	-70.29
343.693	-63.74
344.077	-83.18
344.46	-60.58
344.843	-58.32
345.226	-50.86
345.61	-33.46
345.993	-14.7
346.376	-8.6
346.759	8.12
347.142	27.33
347.525	37.5
347.908	62.36
348.291	86.99
348.674	85.18
349.057	136.25
349.44	144.16
349.823	156.82
350.206	167.44
350.588	206.76
350.971	203.37
351.354	220.09
351.737	248.57
352.119	253.31
352.502	253.54
352.884	283.37
353.267	277.72
353.65	298.28
354.032	297.61
354.414	299.19
354.797	297.83
355.179	314.78
355.562	326.53
355.944	342.35
356.326	353.2
356.709	331.5
357.091	331.73
357.473	354.78
357.855	349.81
358.238	342.58
358.62	331.5
359.002	340.77
359.384	355.46
359.766	336.7
360.148	351.16
360.53	351.62
360.912	357.72
361.294	334.21
361.676	336.02
362.057	352.74
362.439	320.43
362.821	327.66
363.203	347.77
363.584	323.82
363.966	321.79
364.348	308.23
364.729	327.89
365.111	331.95
365.493	296.48
365.874	308.23
366.256	332.18
366.637	317.04
367.019	304.16
367.4	327.89
367.781	315.01
368.163	327.66
368.544	340.99
368.925	310.49
369.306	327.66
369.688	302.8
370.069	319.07
370.45	322.01
370.831	318.17
371.212	312.29
371.593	322.92
371.974	339.41
372.355	312.97
372.736	308.23
373.117	323.82
373.498	328.56
373.879	317.94
374.26	329.92
374.641	331.73
375.021	336.7
375.402	339.19
375.783	337.6
376.163	351.16
376.544	346.42
376.925	323.82
377.305	317.49
377.686	330.6
378.066	309.13
378.447	350.03
378.827	352.97
379.208	310.26
379.588	327.43
379.968	343.25
380.349	336.93
380.729	342.12
381.109	344.84
381.489	338.96
381.87	346.64
382.25	337.15
382.63	319.98
383.01	343.25
383.39	336.25
383.77	331.28
384.15	334.21
384.53	340.09
384.91	333.31
385.29	361.11
385.67	348.45
386.049	350.49
386.429	364.72
386.809	364.95
387.189	360.65
387.568	341.67
387.948	352.74
388.328	354.33
388.707	354.55
389.087	359.75
389.466	367.89
389.846	352.52
390.225	368.56
390.605	380.77
390.984	366.3
391.363	374.67
391.743	369.47
392.122	350.94
392.501	369.92
392.881	378.28
393.26	354.33
393.639	366.98
394.018	348
394.397	373.08
394.776	371.28
395.155	381.9
395.534	388.68
395.913	371.73
396.292	368.56
396.671	373.08
397.05	364.27
397.429	376.47
397.808	399.75
398.186	375.57
398.565	378.28
398.944	371.05
399.323	385.51
399.701	368.34
400.08	372.18
400.458	400.65
400.837	391.39
401.215	388.22
401.594	406.3
401.972	382.8
402.351	386.64
402.729	398.17
403.107	394.55
403.486	393.42
403.864	390.94
404.242	403.82
404.62	401.33
404.999	416.25
405.377	390.94
405.755	403.59
406.133	391.61
406.511	404.72
406.889	437.71
407.267	414.44
407.645	414.66
408.023	422.8
408.401	408.56
408.779	419.41
409.156	434.55
409.534	469.13
409.912	457.83
410.29	429.58
410.667	429.81
411.045	443.14
411.422	436.36
411.8	423.25
412.178	453.08
412.555	434.32
412.933	442.46
413.31	481.56
413.687	460.54
414.065	448.56
414.442	456.92
414.819	455.57
415.197	481.33
415.574	465.06
415.951	462.57
416.328	451.73
416.705	480.2
417.082	489.46
417.46	471.61
417.837	473.87
418.214	464.38
418.591	480.2
418.967	476.58
419.344	498.96
419.721	503.7
420.098	484.49
420.475	490.59
420.852	489.92
421.228	507.54
421.605	510.48
421.982	501.44
422.358	503.48
422.735	517.94
423.111	527.2
423.488	492.18
423.864	513.64
424.241	531.05
424.617	531.95
424.994	511.16
425.37	534.21
425.746	536.24
426.123	507.32
426.499	556.81
426.875	538.95
427.251	553.87
427.627	555.45
428.003	571.5
428.379	553.19
428.756	581.67
429.132	564.94
429.507	580.08
429.883	570.14
430.259	611.04
430.635	594.09
431.011	590.25
431.387	584.6
431.763	596.35
432.138	582.57
432.514	603.36
432.89	605.39
433.265	606.07
433.641	609.91
434.016	595.22
434.392	606.52
434.767	632.96
435.143	613.53
435.518	621.21
435.894	628.44
436.269	637.03
436.644	642.23
437.02	649.69
437.395	654.43
437.77	663.47
438.145	673.87
438.52	676.35
438.895	666.41
439.271	678.39
439.646	687.88
440.021	687.65
440.395	671.38
440.77	677.03
441.145	692.17
441.52	695.33
441.895	687.43
442.27	704.15
442.645	726.97
443.019	720.19
443.394	729.01
443.769	707.31
444.143	706.63
444.518	719.29
444.892	730.81
445.267	735.56
445.641	748.89
446.016	754.99
446.39	732.17
446.764	765.16
447.139	756.58
447.513	760.42
447.887	762
448.262	776.24
448.636	741.66
449.01	774.43
449.384	759.06
449.758	764.94
450.132	815.56
450.506	796.8
450.88	790.25
451.254	796.35
451.628	811.94
452.002	805.39
452.376	812.39
452.75	813.52
453.123	822.79
453.497	814.65
453.871	838.83
454.244	829.34
454.618	867.76
454.992	854.88
455.365	848.78
455.739	865.05
456.112	892.84
456.486	907.08
456.859	881.77
457.232	902.11
457.606	923.13
457.979	931.49
458.352	926.29
458.725	931.03
459.099	943.46
459.472	983.91
459.845	976.23
460.218	973.07
460.591	994.31
460.964	989.34
461.337	1019.17
461.71	1040.18
462.083	1036.57
462.456	1059.85
462.829	1062.56
463.201	1061.65
463.574	1093.06
463.947	1071.82
464.32	1111.6
464.692	1111.14
465.065	1153.18
465.438	1162.44
465.81	1177.81
466.183	1167.19
466.555	1208.54
466.928	1200.41
467.3	1253.74
467.672	1226.62
468.045	1281.53
468.417	1266.39
468.789	1311.36
469.161	1315.43
469.534	1338.93
469.906	1332.38
470.278	1403.79
470.65	1420.74
471.022	1448.08
471.394	1493.28
471.766	1493.28
472.138	1524.92
472.51	1565.14
472.882	1595.65
473.253	1610.56
473.625	1640.62
473.997	1683.11
474.369	1726.72
474.74	1751.58
475.112	1799.94
475.484	1852.59
475.855	1877.22
476.227	1932.59
476.598	1969.88
476.97	1989.99
477.341	2110.89
477.713	2163.54
478.084	2196.54
478.455	2261.62
478.827	2345.91
479.198	2408.28
479.569	2448.96
479.94	2552.69
480.311	2569.64
480.682	2684.89
481.053	2775.51
481.424	2855.05
481.795	2956.07
482.166	2986.12
482.537	3092.56
482.908	3198.55
483.279	3229.28
483.65	3362.16
484.021	3499.78
484.391	3598.08
484.762	3678.99
485.133	3763.95
485.503	3899.54
485.874	4032.87
486.244	4135.7
486.615	4275.13
486.985	4369.59
487.356	4507.89
487.726	4612.29
488.097	4766.41
488.467	4861.1
488.837	5009.35
489.207	5139.96
489.578	5303.8
489.948	5418.37
490.318	5565.72
490.688	5657.24
491.058	5819.49
491.428	5941.75
491.798	6056.32
492.168	6236.21
492.538	6364.79
492.908	6577.21
493.278	6668.29
493.648	6800.03
494.017	6945.11
494.387	7097.2
494.757	7250.64
495.126	7417.42
495.496	7524.76
495.866	7695.83
496.235	7781.7
496.605	7938.31
496.974	8059.43
497.344	8214.46
497.713	8438.63
498.082	8491.29
498.452	8666.2
498.821	8763.37
499.19	8950.71
499.559	9118.16
499.928	9203.59
500.298	9298.5
500.667	9535.78
501.036	9520.19
501.405	9749.11
501.774	9797.47
502.143	9952.94
502.512	10109.78
502.88	10178.48
503.249	10295.08
503.618	10433.84
503.987	10644.45
504.356	10703.21
504.724	10819.81
505.093	10930.32
505.462	10974.16
505.83	11199.01
506.199	11331.67
506.567	11464.09
506.936	11466.35
507.304	11716.74
507.672	11827.7
508.041	11947.92
508.409	12064.3
508.777	12156.73
509.145	12277.63
509.514	12438.75
509.882	12501.13
510.25	12535.7
510.618	12755.58
510.986	12803.04
511.354	13019.08
511.722	13147.89
512.09	13209.36
512.458	13220.2
512.826	13417.71
513.193	13525.51
513.561	13676.01
513.929	13782
514.297	13879.62
514.664	14020.18
515.032	14101.76
515.4	14234.87
515.767	14338.59
516.135	14399.16
516.502	14393.96
516.869	14698.58
517.237	14639.6
517.604	14736.32
517.972	14986.48
518.339	15064.22
518.706	15055.64
519.073	15122.07
519.44	15333.82
519.808	15480.03
520.175	15516.19
520.542	15767.48
520.909	15823.98
521.276	15835.5
521.643	16072.78
522.009	16216.28
522.376	16230.97
522.743	16339.44
523.11	16531.98
523.477	16778.98
523.843	16781.92
524.21	16895.13
524.577	17010.84
524.943	17209.93
525.31	17330.38
525.676	17459.87
526.043	17510.71
526.409	17600.43
526.776	17721.55
527.142	17921.1
527.508	18012.62
527.874	18192.28
528.241	18293.06
528.607	18350.24
528.973	18630.68
529.339	18498.03
529.705	18714.52
530.071	18960.17
530.437	18943.44
530.803	19073.16
531.169	19117.68
531.535	19238.8
531.901	19233.15
532.267	19378.01
532.632	19599.7
532.998	19563.54
533.364	19716.3
533.73	19834.94
534.095	19914.49
534.461	19937.99
534.826	20137.99
535.192	20148.83
535.557	20242.39
535.923	20362.84
536.288	20334.59
536.653	20551.54
537.019	20396.06
537.384	20615.49
537.749	20673.11
538.114	20673.11
538.479	20784.98
538.845	20940
539.21	20855.93
539.575	21027.23
539.94	21047.79
540.305	21293.21
540.67	21222.93
541.034	21374.57
541.399	21322.36
541.764	21477.39
542.129	21603.94
542.494	21603.03
542.858	21800.99
543.223	21751.73
543.587	21959.18
543.952	21862.91
544.316	22099.07
544.681	22054.77
545.045	22223.13
545.41	22282.79
545.774	22315.56
546.138	22405.05
546.503	22449.34
546.867	22577.02
547.231	22648.43
547.595	22760.74
547.959	22835.09
548.324	22806.62
548.688	22852.94
549.052	22982.21
549.416	23008.19
549.779	23167.06
550.143	23212.03
550.507	23303.1
550.871	23459.48
551.235	23331.12
551.599	23513.72
551.962	23583.32
552.326	23729.53
552.689	23872.35
553.053	23761.39
553.417	23904.44
553.78	24197.54
554.143	24021.5
554.507	24139.01
554.87	24237.09
555.234	24482.05
555.597	24323.19
555.96	24568.15
556.323	24541.04
556.686	24660.81
557.05	24814.7
557.413	24851.08
557.776	24944.64
558.139	25028.48
558.502	25120.23
558.865	25202.26
559.228	25416.72
559.59	25445.87
559.953	25581.46
560.316	25737.61
560.679	25740.33
561.041	25820.1
561.404	25985.52
561.767	26179.18
562.129	26048.11
562.492	26286.07
562.854	26336.47
563.217	26434.77
563.579	26567.87
563.941	26690.36
564.304	26940.75
564.666	27011.48
565.028	27066.84
565.39	27160.18
565.753	27230.68
566.115	27305.71
566.477	27512.93
566.839	27567.4
567.201	27766.71
567.563	27795.87
567.925	27950.21
568.287	27814.17
568.648	28036.76
569.01	28108.4
569.372	28195.85
569.734	28280.15
570.095	28477.88
570.457	28592.45
570.819	28690.98
571.18	28673.58
571.542	28903.18
571.903	28944.54
572.265	29145.89
572.626	29050.52
572.987	29226.11
573.349	29310.85
573.71	29494.58
574.071	29550.85
574.432	29647.12
574.794	29977.28
575.155	29863.83
575.516	29869.71
575.877	29998.97
576.238	30233.09
576.599	30310.38
576.96	30534.1
577.32	30389.7
577.681	30573.65
578.042	30717.82
578.403	30842.56
578.763	30891.6
579.124	30947.19
579.485	31059.96
579.845	31278.03
580.206	31210.24
580.566	31453.4
580.927	31475.09
581.287	31656.33
581.648	31696.78
582.008	31847.28
582.368	31947.39
582.728	32077.11
583.089	32056.54
583.449	32288.85
583.809	32343.32
584.169	32576.08
584.529	32673.25
584.889	32997.76
585.249	32825.34
585.609	32774.72
585.969	33119.12
586.329	33054.26
586.688	33429.62
587.048	33466.22
587.408	33496.73
587.768	33608.37
588.127	33700.12
588.487	33634.36
588.846	34119.54
589.206	33967.68
589.565	34173.1
589.925	34361.12
590.284	34383.49
590.643	34523.37
591.003	34778.05
591.362	34995.68
591.721	34805.62
592.08	35100.08
592.44	35322.45
592.799	35398.15
593.158	35466.62
593.517	35421.88
593.876	35627.07
594.235	35643.79
594.593	35849.21
594.952	35963.56
595.311	35913.84
595.67	36192.03
596.029	36335.75
596.387	36461.85
596.746	36689.42
597.104	36511.34
597.463	36703.43
597.822	36947.71
598.18	36844.44
598.538	36857.55
598.897	37150.65
599.255	36974.83
599.613	37671.76
599.972	37433.13
600.33	37453.24
600.688	37537.76
601.046	37705.89
601.404	37924.64
601.762	37853.91
602.12	38146.55
602.478	38125.09
602.836	38229.49
603.194	38117.85
603.552	38279.66
603.91	38255.7
604.268	38585.64
604.625	38479.88
604.983	38737.5
605.341	38544.96
605.698	38876.7
606.056	38945.63
606.413	38904.05
606.771	39247.09
607.128	39113.08
607.485	39246.86
607.843	39199.18
608.2	39502.68
608.557	39617.48
608.914	39478.27
609.272	39719.85
609.629	39861.54
609.986	40142.89
610.343	39893.17
610.7	40268.08
611.057	40196.44
611.414	40324.12
611.771	40243.67
612.127	40475.53
612.484	40492.25
612.841	40633.27
613.198	40571.35
613.554	40775.18
613.911	40854.05
614.267	40976.54
614.624	40822.42
614.98	41144.67
615.337	41252.23
615.693	41275.51
616.05	41266.47
616.406	41447.71
616.762	41431.66
617.118	41457.43
617.475	41407.03
617.831	41574.49
618.187	41710.08
618.543	41749.85
618.899	41959.11
619.255	41947.36
619.611	41990.07
619.967	42064.42
620.323	42189.84
620.678	42036.62
621.034	42039.78
621.39	42111.65
621.746	41981.71
622.101	42611.75
622.457	42070.74
622.812	42414.46
623.168	42448.36
623.523	42536.27
623.879	42578.3
624.234	42411.07
624.589	42557.51
624.945	42564.29
625.3	42510.28
625.655	42569.49
626.01	42678.86
626.365	42745.53
626.72	42653.1
627.075	42661.69
627.43	42647
627.785	42538.75
628.14	42651.97
628.495	42782.36
628.85	42752.76
629.205	42718.64
629.559	42917.28
629.914	42772.65
630.269	42863.49
630.623	42797.5
630.978	42605.87
631.332	42786.88
631.687	42834.11
632.041	42714.34
632.396	42734.46
632.75	42724.06
633.104	42774.91
633.459	42575.59
633.813	42499.21
634.167	42504.18
634.521	42486.78
634.875	42570.84
635.229	42605.65
635.583	42365.65
635.937	42476.16
636.291	42470.73
636.645	42369.49
636.999	42307.57
637.352	42563.39
637.706	42214.24
638.06	42573.78
638.413	42390.96
638.767	42279.33
639.121	42267.35
639.474	42086.79
639.828	42067.81
640.181	42171.76
640.534	42176.5
640.888	41990.52
641.241	41928.37
641.594	41968.6
641.947	42052.44
642.301	41927.02
642.654	41870.98
643.007	42032.78
643.36	42009.95
643.713	41865.1
644.066	42111.42
644.419	41602.06
644.771	41628.95
645.124	41320.26
645.477	41068.28
645.83	40933.82
646.182	40626.26
646.535	40632.36
646.888	40727.73
647.24	40578.58
647.593	40698.8
647.945	40599.6
648.298	40489.32
648.65	40334.97
649.002	40334.74
649.355	40309.21
649.707	40367.51
650.059	40683.89
650.411	40921.62
650.763	41214.27
651.115	41363.87
651.467	41260.14
651.819	41361.84
652.171	41329.07
652.523	41157.32
652.875	41188.51
653.227	40876.43
653.578	41297.21
653.93	41139.24
654.282	40961.62
654.633	40881.4
654.985	40992.81
655.337	40848.86
655.688	40963.43
656.039	41132.92
656.391	40739.93
656.742	40912.58
657.094	40862.19
657.445	40982.19
657.796	40761.4
658.147	40822.19
658.498	40792.59
658.849	40914.16
659.2	40707.84
659.551	40657.45
659.902	40856.54
660.253	40735.64
660.604	40803.88
660.955	40600.95
661.306	40859.02
661.656	40479.15
662.007	40714.85
662.358	40671.23
662.708	40657.22
663.059	40503.78
663.409	40431.01
663.76	40714.17
664.11	40608.41
664.461	40695.86
664.811	40646.37
665.161	40593.49
665.511	40525.47
665.862	40543.1
666.212	40741.06
666.562	40734.51
666.912	40600.27
667.262	40468.75
667.612	40571.12
667.962	40567.96
668.312	40521.63
668.662	40673.27
669.011	40422.2
669.361	40372.26
669.711	40400.51
670.06	40427.4
670.41	40343.56
670.76	40264.01
671.109	40421.07
671.459	40386.04
671.808	40391.69
672.157	40376.1
672.507	40141.98
672.856	40125.71
673.205	40173.62
673.554	40417.91
673.904	40163
674.253	40410.22
674.602	40271.92
674.951	39639.62
675.3	39549.68
675.649	40224.92
675.998	39977.47
676.346	40042.1
676.695	40347.85
677.044	39827.19
677.393	40081.64
677.741	40160.74
678.09	40001.19
678.438	39956.68
678.787	39911.93
679.135	39845.94
679.484	39677.13
679.832	39774.31
680.181	39578.38
680.529	39767.53
680.877	39503.35
681.225	39527.99
681.573	39752.61
681.922	39562.34
682.27	39332.51
682.618	39456.8
682.966	39243.93
683.314	39486.63
683.661	39246.41
684.009	39059.75
684.357	39082.57
684.705	39062.01
685.053	38993.76
685.4	38951.05
685.748	38837.16
686.095	38766.88
686.443	38645.3
686.79	38572.08
687.138	38671.96
687.485	38656.14
687.832	38491.4
688.18	38680.78
688.527	38400.78
688.874	38374.12
689.221	38168.7
689.568	38143.16
689.915	38030.62
690.262	38152.66
690.609	37985.88
690.956	37795.83
691.303	37760.35
691.65	37627.47
691.997	37649.39
692.344	37507.93
692.69	37442.39
693.037	37452.79
693.383	37038.11
693.73	37274.26
694.077	36979.35
694.423	36848.73
694.769	36881.05
695.116	36733.26
695.462	36818
695.808	36452.36
696.155	36746.36
696.501	36332.59
696.847	36291.69
697.193	36222.08
697.539	36119.49
697.885	35963.79
698.231	35857.35
698.577	35979.6
698.923	35787.75
699.269	35718.14
699.614	35497.58
699.96	35452.61
700.306	35672.27
700.651	35328.1
700.997	35307.08
701.342	35219.17
701.688	35223.92
702.033	34978.73
702.379	35070.93
702.724	34903.47
703.069	34868
703.415	34571.28
703.76	34624.39
704.105	34591.39
704.45	34601.11
704.795	34443.6
705.14	34237.28
705.485	34352.98
705.83	34149.82
706.175	34123.83
706.52	34062.82
706.865	33873.67
707.209	33945.76
707.554	33736.95
707.899	33769.04
708.243	33590.29
708.588	33627.35
708.932	33337.87
709.277	33261.94
709.621	33393.01
709.966	33077.76
710.31	33276.17
710.654	33035.73
710.998	33024.65
711.342	33030.08
711.687	32892
712.031	32774.94
712.375	32742.85
712.719	32643.2
713.063	32689.97
713.407	32709.86
713.75	32360.04
714.094	32543.08
714.438	32400.26
714.782	32331.11
715.125	32245.24
715.469	32323.66
715.812	32144.23
716.156	31958.47
716.499	32037.34
716.843	32157.78
717.186	31759.6
717.53	32000.5
717.873	31902.88
718.216	31852.26
718.559	31760.05
718.902	31606.39
719.246	31678.93
719.589	31533.62
719.932	31337.02
720.275	31370.91
720.617	31350.8
720.96	31160.07
721.303	31292.72
721.646	31187.19
721.989	31160.52
722.331	31139.73
722.674	30962.11
723.016	30949.68
723.359	30953.3
723.701	30999.4
724.044	30792.4
724.386	30737.03
724.729	30863.58
725.071	30662.23
725.413	30627.2
725.755	30569.8
726.097	30351.05
726.439	30430.6
726.782	30414.55
727.124	30504.72
727.465	30299.08
727.807	30205.75
728.149	30197.16
728.491	30174.56
728.833	30140.89
729.175	29997.16
729.516	29920.33
729.858	29975.24
730.199	29932.98
730.541	29836.94
730.882	29848.24
731.224	29948.58
731.565	29594.91
731.906	29675.59
732.248	29695.48
732.589	29593.56
732.93	29467.01
733.271	29450.74
733.612	29456.84
733.953	29488.25
734.294	29288.71
734.635	29281.7
734.976	29277.18
735.317	29195.83
735.658	29163.06
735.999	29185.21
736.339	29097.98
736.68	29325.77
737.021	29067.7
737.361	28900.92
737.702	29106.79
738.042	29111.99
738.383	29003.74
738.723	28896.4
739.063	28766.69
739.404	28847.36
739.744	28718.55
740.084	28509.74
740.424	28684.43
740.764	28642.4
741.104	28641.04
741.444	28625.9
741.784	28459.8
742.124	28537.99
742.464	28469.07
742.804	28366.7
743.143	28216.19
743.483	28387.04
743.823	28182.75
744.162	28195.18
744.502	28328.96
744.841	28004.9
745.181	28236.98
745.52	28018.46
745.86	28039.47
746.199	27995.63
746.538	27891.91
746.877	28001.74
747.216	27938.23
747.556	27879.48
747.895	27834.73
748.234	27806.71
748.573	27614.18
748.911	27677.9
749.25	27682.2
749.589	27500.51
749.928	27559.71
750.267	27712.48
750.605	27430.9
750.944	27421.19
751.283	27313.39
751.621	27391.36
751.96	27292.83
752.298	27218.71
752.636	27151.36
752.975	27103.23
753.313	26941.2
753.651	27064.81
753.989	26949.56
754.327	26900.07
754.666	26710.02
755.004	26825.5
755.342	26799.73
755.679	26709.11
756.017	26556.35
756.355	26696.46
756.693	26433.19
757.031	26496.01
757.368	26330.59
757.706	26364.72
758.044	26177.15
758.381	26275.45
758.719	26178.96
759.056	26196.36
759.394	26155
759.731	25929.25
760.068	25755.01
760.405	25783.71
760.743	25688.58
761.08	25705.07
761.417	25436.38
761.754	25498.3
762.091	25457.62
762.428	25400.9
762.765	25174.69
763.102	25278.64
763.438	25170.85
763.775	25034.81
764.112	25036.16
764.449	25091.3
764.785	24916.39
765.122	24756.85
765.458	24753.23
765.795	24654.93
766.131	24720.01
766.467	24572.45
766.804	24353.24
767.14	24347.82
767.476	24310.76
767.812	24054.95
768.148	24174.72
768.485	24005.68
768.821	23969.07
769.157	23833.26
769.492	23876.42
769.828	23918.45
770.164	23633.94
770.5	23523.66
770.836	23474.85
771.171	23404.12
771.507	23346.26
771.842	23180.17
772.178	23151.69
772.513	23211.35
772.849	23053.62
773.184	22927.29
773.519	22849.1
773.855	22872.83
774.19	22731.59
774.525	22605.49
774.86	22597.13
775.195	22450.24
775.53	22473.75
775.865	22372.05
776.2	22228.78
776.535	22046.41
776.87	22135.68
777.205	21926.41
777.539	21874.89
777.874	21846.19
778.209	21658.17
778.543	21745.4
778.878	21445.3
779.212	21532.3
779.547	21366.66
779.881	21500.89
780.215	21284.62
780.55	21269.03
780.884	21160.56
781.218	21106.1
781.552	21073.56
781.886	21007.57
782.22	20906.78
782.554	20847.35
782.888	20740.68
783.222	20525.32
783.556	20495.49
783.889	20471.31
784.223	20327.36
784.557	20274.93
784.89	20263.86
785.224	20149.51
785.557	20039.68
785.891	20137.76
786.224	19949.52
786.558	19920.37
786.891	19714.5
787.224	19747.49
787.557	19688.73
787.891	19504.33
788.224	19571.67
788.557	19540.94
788.89	19462.98
789.223	19363.54
789.556	19314.51
789.888	19191.35
790.221	19158.35
790.554	18997.23
790.887	19026.38
791.219	18887.85
791.552	18872.94
791.884	18886.95
792.217	18731.02
792.549	18574.41
792.882	18564.02
793.214	18461.2
793.546	18499.39
793.879	18288.54
794.211	18270.69
794.543	18299.84
794.875	18197.93
795.207	18186.4
795.539	18166.51
795.871	18147.08
796.203	17923.58
796.535	17878.84
796.867	17802.23
797.198	17733.53
797.53	17838.84
797.862	17595.23
798.193	17712.29
798.525	17583.25
798.856	17641.78
799.188	17410.6
799.519	17374.67
799.85	17255.13
800.182	17247.44
800.513	17310.94
800.844	17131.51
801.175	17200.89
801.506	17217.16
801.837	17049.03
802.168	17040.44
802.499	17005.64
802.83	16843.61
803.161	16812.65
803.491	16752.09
803.822	16875.02
804.153	16757.29
804.483	16606.55
804.814	16535.14
805.145	16588.7
805.475	16459.89
805.805	16424.86
806.136	16487.91
806.466	16366.56
806.796	16396.84
807.126	16216.06
807.457	16219.9
807.787	16168.37
808.117	16073.69
808.447	16075.72
808.777	16124.76
809.107	16005.89
809.436	15919.79
809.766	15932.9
810.096	15912.79
810.426	15854.26
810.755	15739.01
811.085	15741.49
811.414	15786.24
811.744	15603.87
812.073	15582.63
812.403	15542.85
812.732	15440.03
813.061	15475.06
813.39	15312.8
813.719	15300.83
814.049	15433.93
814.378	15270.54
814.707	15296.76
815.036	15264.22
815.365	15205.24
815.693	15070.55
816.022	15034.62
816.351	14975.64
816.68	14955.3
817.008	14949.2
817.337	14873.04
817.665	14839.6
817.994	14858.58
818.322	14861.29
818.651	14730.45
818.979	14710.33
819.307	14719.6
819.636	14650
819.964	14627.4
820.292	14719.82
820.62	14680.96
820.948	14605.93
821.276	14657.45
821.604	14567.29
821.932	14594.63
822.259	14571.81
822.587	14515.31
822.915	14513.05
823.243	14527.29
823.57	14519.15
823.898	14588.3
824.225	14459.94
824.553	14413.84
824.88	14443.22
825.207	14468.31
825.535	14446.84
825.862	14588.98
826.189	14480.28
826.516	14507.63
826.843	14577.46
827.17	14507.18
827.497	14481.41
827.824	14464.24
828.151	14447.52
828.478	14462.66
828.805	14467.85
829.131	14434.18
829.458	14428.99
829.785	14376.33
830.111	14443.45
830.438	14504.92
830.764	14463.33
831.09	14444.8
831.417	14381.75
831.743	14432.37
832.069	14317.12
832.395	14299.72
832.722	14361.42
833.048	14388.76
833.374	14375.65
833.7	14246.84
834.026	14333.62
834.351	14366.16
834.677	14271.93
835.003	14283.9
835.329	14267.86
835.654	14187.64
835.98	14158.94
836.306	14236.45
836.631	14185.83
836.956	14191.25
837.282	14174.53
837.607	14075.77
837.932	14010.46
838.258	14113.74
838.583	14073.74
838.908	13953.97
839.233	13980.18
839.558	13944.03
839.883	13947.42
840.208	13908.77
840.533	13925.72
840.858	13818.38
841.182	13870.13
841.507	13808.66
841.832	13878.94
842.156	13747.2
842.481	13760.08
842.805	13710.81
843.13	13679.17
843.454	13668.78
843.778	13633.3
844.103	13569.8
844.427	13549.69
844.751	13558.95
845.075	13430.82
845.399	13551.72
845.723	13369.13
846.047	13453.87
846.371	13252.97
846.695	13275.79
847.019	13153.99
847.343	13119.87
847.666	13040.55
847.99	12992.19
848.313	13022.02
848.637	12954.9
848.96	12916.03
849.284	12866.77
849.607	12718.3
849.931	12789.03
850.254	12665.42
850.577	12488.47
850.9	12525.76
851.223	12493.44
851.546	12449.83
851.869	12337.29
852.192	12386.55
852.515	12322.83
852.838	12215.03
853.161	12241.25
853.483	12145.43
853.806	12131.19
854.129	12055.26
854.451	12015.94
854.774	12013.68
855.096	11881.48
855.419	11893.01
855.741	11907.92
856.063	11820.24
856.385	11859.56
856.708	11671.54
857.03	11785.21
857.352	11705.89
857.674	11662.05
857.996	11629.06
858.318	11526.46
858.64	11640.36
858.961	11601.71
859.283	11515.16
859.605	11435.39
859.926	11488.5
860.248	11489.85
860.57	11317.65
860.891	11403.98
861.212	11335.73
861.534	11294.6
861.855	11296.64
862.176	11265.68
862.498	11294.83
862.819	11304.32
863.14	11202.4
863.461	11176.42
863.782	11119.92
864.103	11128.28
864.424	11123.08
864.745	11116.3
865.065	11069.07
865.386	10968.96
865.707	10982.07
866.027	10971
866.348	10907.95
866.668	10884.22
866.989	10946.14
867.309	10849.64
867.63	10905.91
867.95	10832.02
868.27	10746.14
868.59	10776.43
868.91	10801.06
869.23	10818.91
869.55	10685.35
869.87	10829.31
870.19	10749.31
870.51	10726.71
870.83	10731.23
871.15	10671.57
871.469	10661.63
871.789	10717.67
872.109	10599.26
872.428	10550.89
872.748	10503.44
873.067	10617.79
873.386	10606.94
873.706	10591.8
874.025	10527.39
874.344	10496.66
874.663	10494.4
874.982	10436.32
875.301	10417.57
875.62	10436.32
875.939	10377.57
876.258	10358.81
876.577	10382.99
876.896	10297.12
877.214	10301.86
877.533	10284.01
877.852	10356.55
878.17	10335.31
878.489	10291.47
878.807	10299.15
879.125	10220.96
879.444	10225.48
879.762	10193.39
880.08	10201.07
880.398	10184.8
880.716	10147.52
881.034	10118.82
881.352	10093.05
881.67	10077.46
881.988	10150.68
882.306	10039.72
882.624	10025.03
882.941	10009.89
883.259	9933.96
883.577	9990.91
883.894	9965.6
884.212	9896.45
884.529	9927.63
884.846	9873.17
885.164	9847.18
885.481	9819.39
885.798	9799.28
886.115	9736.45
886.432	9792.5
886.75	9682.67
887.067	9659.17
887.383	9677.25
887.7	9664.82
888.017	9615.78
888.334	9637.47
888.651	9579.62
888.967	9554.99
889.284	9584.59
889.6	9499.62
889.917	9477.25
890.233	9472.05
890.55	9412.17
890.866	9395.67
891.182	9400.64
891.498	9356.8
891.815	9311.83
892.131	9305.28
892.447	9260.31
892.763	9269.8
893.079	9150.25
893.395	9178.95
893.71	9133.98
894.026	9103.7
894.342	9088.79
894.657	9033.87
894.973	9068.9
895.289	9033.19
895.604	8954.33
895.92	8928.56
896.235	8883.59
896.55	8911.16
896.865	8855.57
897.181	8819.87
897.496	8818.74
897.811	8762.69
898.126	8733.09
898.441	8686.76
898.756	8708.01
899.071	8666.2
899.386	8619.42
899.7	8559.53
900.015	8577.61
900.33	8512.53
900.644	8491.06
900.959	8478.18
901.273	8451.29
901.588	8385.3
901.902	8407.67
902.216	8397.28
902.531	8346.21
902.845	8241.13
903.159	8262.59
903.473	8206.32
903.787	8179.21
904.101	8110.73
904.415	8109.15
904.729	8179.66
905.042	8056.05
905.356	8072.32
905.67	8061.92
905.984	8020.34
906.297	7955.26
906.611	7856.05
906.924	7947.57
907.237	7918.42
907.551	7834.81
907.864	7799.33
908.177	7791.42
908.491	7746
908.804	7727.92
909.117	7654.02
909.43	7648.6
909.743	7616.06
910.056	7626.23
910.368	7569.5
910.681	7487.02
910.994	7484.31
911.307	7471.65
911.619	7387.14
911.932	7436.85
912.244	7306.01
912.557	7326.35
912.869	7282.73
913.181	7280.47
913.494	7209.29
913.806	7238.89
914.118	7229.17
914.43	7180.14
914.742	7156.18
915.054	7064.43
915.366	7074.15
915.678	7026.92
915.99	7046.35
916.302	6974.27
916.613	6966.13
916.925	6969.29
917.236	6997.54
917.548	6956.19
917.859	6895.85
918.171	6864.44
918.482	6801.84
918.794	6725.91
919.105	6785.8
919.416	6700.83
919.727	6723.65
920.038	6667.83
920.349	6619.7
920.66	6543.77
920.971	6552.58
921.282	6524.56
921.593	6487.27
921.903	6529.08
922.214	6430.1
922.525	6443.43
922.835	6451.12
923.146	6423.55
923.456	6376.77
923.767	6341.06
924.077	6309.88
924.387	6261.74
924.697	6212.7
925.008	6230.33
925.318	6242.99
925.628	6254.96
925.938	6185.81
926.248	6129.09
926.558	6085.48
926.867	6082.76
927.177	6021.07
927.487	6006.38
927.796	5961.64
928.106	5980.39
928.416	5939.94
928.725	5920.96
929.034	5866.72
929.344	5886.61
929.653	5844.35
929.962	5829.44
930.271	5772.94
930.581	5733.17
930.89	5741.76
931.199	5714.19
931.508	5703.56
931.817	5727.97
932.125	5630.57
932.434	5604.81
932.743	5568.65
933.051	5526.85
933.36	5550.8
933.669	5525.49
933.977	5486.17
934.286	5471.71
934.594	5427.41
934.902	5394.87
935.21	5344.25
935.519	5423.8
935.827	5360.75
936.135	5328.89
936.443	5265.38
936.751	5228.77
937.059	5262.67
937.367	5172.51
937.674	5209.11
937.982	5206.85
938.29	5137.93
938.597	5171.38
938.905	5121.89
939.213	5089.12
939.52	5067.42
939.827	5103.13
940.135	5010.93
940.442	4994.66
940.749	4975.45
941.056	4968.22
941.363	4958.73
941.67	4892.74
941.977	4925.73
942.284	4874.66
942.591	4862.68
942.898	4892.29
943.205	4857.26
943.511	4804.15
943.818	4839.63
944.125	4788.56
944.431	4757.37
944.738	4744.27
945.044	4749.69
945.35	4705.4
945.657	4685.74
945.963	4694.33
946.269	4652.29
946.575	4642.58
946.881	4568.23
947.187	4543.37
947.493	4561.67
947.799	4591.5
948.105	4479.42
948.41	4503.6
948.716	4474.22
949.022	4510.83
949.327	4431.06
949.633	4349.02
949.938	4405.75
950.244	4368.68
950.549	4332.98
950.854	4337.27
951.16	4309.93
951.465	4310.61
951.77	4287.1
952.075	4271.74
952.38	4222.25
952.685	4228.58
952.99	4200.55
953.294	4184.28
953.599	4180.89
953.904	4138.86
954.209	4140.67
954.513	4092.99
954.818	4141.35
955.122	4034.23
955.426	4072.2
955.731	4041.91
956.035	4019.77
956.339	3990.16
956.643	3988.58
956.948	3977.06
957.252	3984.51
957.556	3953.78
957.86	3956.72
958.163	3853.9
958.467	3887.57
958.771	3882.82
959.075	3900.45
959.378	3863.39
959.682	3857.06
959.985	3812.54
960.289	3786.55
960.592	3775.25
960.896	3748.59
961.199	3712.88
961.502	3736.84
961.805	3677.63
962.108	3649.83
962.411	3670.62
962.714	3618.65
963.017	3612.09
963.32	3631.75
963.623	3591.76
963.926	3590.85
964.228	3590.63
964.531	3593.79
964.833	3556.73
965.136	3506.79
965.438	3509.05
965.741	3482.15
966.043	3488.26
966.345	3487.58
966.648	3462.95
966.95	3422.04
967.252	3397.64
967.554	3402.83
967.856	3385.89
968.158	3356.06
968.46	3355.6
968.761	3325.55
969.063	3356.28
969.365	3303.85
969.666	3291.2
969.968	3233.57
970.269	3237.87
970.571	3257.53
970.872	3263.4
971.174	3228.83
971.475	3220.24
971.776	3222.5
972.077	3204.87
972.378	3168.94
972.679	3189.73
972.98	3144.76
973.281	3137.98
973.582	3162.39
973.883	3146.8
974.183	3102.5
974.484	3111.99
974.785	3064.09
975.085	3037.19
975.386	3079.23
975.686	3034.03
975.986	3014.14
976.287	3014.82
976.587	3018.21
976.887	2985.44
977.187	2976.63
977.487	2957.87
977.787	2924.43
978.087	2952.68
978.387	2924.2
978.687	2911.77
978.987	2908.84
979.286	2876.29
979.586	2904.09
979.885	2841.95
980.185	2878.1
980.484	2804.88
980.784	2831.1
981.083	2825.22
981.382	2770.31
981.682	2747.94
981.981	2771.44
982.28	2759.24
982.579	2756.3
982.878	2752.46
983.177	2677.66
983.475	2687.82
983.774	2701.84
984.073	2658
984.372	2669.07
984.67	2649.18
984.969	2647.15
985.267	2627.49
985.566	2621.16
985.864	2590.43
986.162	2615.74
986.461	2590.43
986.759	2589.97
987.057	2565.79
987.355	2585
987.653	2543.87
987.951	2528.28
988.249	2533.48
988.547	2470.2
988.844	2507.49
989.142	2504.78
989.44	2500.94
989.737	2449.19
990.035	2458.23
990.332	2420.94
990.63	2399.92
990.927	2429.75
991.224	2401.28
991.521	2392.92
991.819	2374.84
992.116	2401.05
992.413	2385.46
992.71	2347.27
993.006	2327.38
993.303	2283.99
993.6	2348.4
993.897	2276.76
994.193	2284.45
994.49	2319.7
994.787	2259.59
995.083	2232.47
995.379	2251
995.676	2242.64
995.972	2229.76
996.268	2250.55
996.565	2168.74
996.861	2216.2
997.157	2185.01
997.453	2165.13
997.749	2137.78
998.044	2145.92
998.34	2134.17
998.636	2133.72
998.932	2145.01
999.227	2086.94
999.523	2101.85
999.818	2098.46
1000.114	2087.61
1000.409	2053.49
1000.704	2081.51
1001	2069.99
1001.295	2035.86
1001.59	2025.47
1001.885	2021.4
1002.18	1997.22
1002.475	2019.14
1002.77	1989.31
1003.065	1968.3
1003.359	1958.13
1003.654	1948.18
1003.949	1973.49
1004.243	1953.38
1004.538	1903.66
1004.832	1916.32
1005.127	1876.77
1005.421	1888.52
1005.715	1876.09
1006.009	1859.82
1006.304	1827.96
1006.598	1855.3
1006.892	1907.05
1007.186	1837.68
1007.48	1842.88
1007.773	1816.21
1008.067	1812.14
1008.361	1792.03
1008.655	1785.25
1008.948	1752.93
1009.242	1768.75
1009.535	1732.6
1009.829	1742.99
1010.122	1715.42
1010.415	1737.79
1010.708	1707.06
1011.001	1698.92
1011.295	1706.16
1011.588	1680.85
1011.881	1652.82
1012.173	1649.43
1012.466	1641.98
1012.759	1625.48
1013.052	1664.35
1013.344	1629.77
1013.637	1614.86
1013.93	1607.18
1014.222	1589.32
1014.514	1587.29
1014.807	1582.77
1015.099	1587.29
1015.391	1557.23
1015.683	1586.38
1015.976	1580.06
1016.268	1569.44
1016.56	1527.86
1016.851	1485.14
1017.143	1525.37
1017.435	1522.66
1017.727	1468.2
1018.018	1497.12
1018.31	1497.12
1018.602	1465.26
1018.893	1437.46
1019.185	1462.55
1019.476	1415.32
1019.767	1424.81
1020.058	1425.49
1020.35	1382.55
1020.641	1363.11
1020.932	1365.15
1021.223	1388.65
1021.514	1364.02
1021.804	1375.77
1022.095	1358.82
1022.386	1344.36
1022.677	1330.8
1022.967	1330.12
1023.258	1326.28
1023.548	1330.12
1023.839	1313.85
1024.129	1297.13
1024.419	1311.14
1024.709	1283.12
1025	1276.79
1025.29	1280.63
1025.58	1250.57
1025.87	1213.51
1026.16	1247.64
1026.449	1226.39
1026.739	1222.55
1027.029	1220.29
1027.319	1196.34
1027.608	1204.93
1027.898	1212.84
1028.187	1185.94
1028.477	1175.77
1028.766	1160.18
1029.055	1134.87
1029.344	1120.41
1029.634	1160.86
1029.923	1132.16
1030.212	1115.21
1030.501	1114.53
1030.79	1109.79
1031.078	1091.71
1031.367	1094.87
1031.656	1100.97
1031.945	1070.92
1032.233	1060.97
1032.522	1065.49
1032.81	1042.67
1033.099	1060.52
1033.387	1061.65
1033.675	1047.19
1033.963	1039.73
1034.251	1055.33
1034.54	993.63
1034.828	1009.22
1035.116	993.41
1035.403	988.21
1035.691	1006.97
1035.979	984.37
1036.267	1001.77
1036.554	969.9
1036.842	1000.64
1037.129	978.04
1037.417	958.38
1037.704	949.57
1037.992	940.98
1038.279	934.88
1038.566	946.18
1038.853	946.18
1039.14	946.18
