Data from hue_34_FLMS001491_00015.txt Node
Date: Tue Feb 07 17:25:15 GMT 2017
User: dcchb
Spectrometer: FLMS00149
Trigger mode: 0
Integration Time (sec): 2.000000E-2
Scans to average: 10
Electric dark correction enabled: true
Nonlinearity correction enabled: false
Boxcar width: 0
XAxis mode: Wavelengths
Number of Pixels in Spectrum: 2048
>>>>>Begin Spectral Data<<<<<
341.393	-12.58
341.776	-12.58
342.16	-12.58
342.543	-54.84
342.927	-77.89
343.31	-55.75
343.693	-59.36
344.077	-62.3
344.46	-41.28
344.843	-64.79
345.226	-49.19
345.61	-46.71
345.993	-36.76
346.376	-8.74
346.759	5.49
347.142	35.32
347.525	55.66
347.908	49.79
348.291	66.74
348.674	99.73
349.057	112.16
349.44	141.08
349.823	151.03
350.206	171.82
350.588	198.94
350.971	215.21
351.354	229.44
351.737	253.85
352.119	240.29
352.502	282.1
352.884	281.87
353.267	294.98
353.65	297.69
354.032	321.64
354.414	331.59
354.797	319.61
355.179	320.51
355.562	351.25
355.944	317.35
356.326	317.12
356.709	325.49
357.091	335.88
357.473	343.79
357.855	344.92
358.238	315.54
358.62	333.85
359.002	350.57
359.384	330.23
359.766	369.78
360.148	334.07
360.53	333.62
360.912	342.21
361.294	341.53
361.676	344.24
362.057	330.01
362.439	318.48
362.821	332.49
363.203	326.39
363.584	330.91
363.966	325.94
364.348	300.4
364.729	323.68
365.111	302.66
365.493	331.14
365.874	335.66
366.256	324.36
366.637	322.1
367.019	328.42
367.4	315.54
367.781	306.96
368.163	309.22
368.544	319.61
368.925	336.33
369.306	337.46
369.688	307.41
370.069	316.9
370.45	321.64
370.831	329.78
371.212	319.84
371.593	331.14
371.974	322.77
372.355	328.2
372.736	322.32
373.117	327.07
373.498	319.16
373.879	332.94
374.26	323.68
374.641	312.6
375.021	328.42
375.402	310.34
375.783	338.14
376.163	321.42
376.544	333.17
376.925	347.86
377.305	306.73
377.686	328.2
378.066	346.95
378.447	331.59
378.827	322.55
379.208	317.8
379.588	339.5
379.968	340.63
380.349	349.44
380.729	336.78
381.109	339.04
381.489	363.45
381.87	357.35
382.25	352.6
382.63	344.02
383.01	358.48
383.39	346.5
383.77	346.28
384.15	339.95
384.53	355.32
384.91	347.18
385.29	345.37
385.67	336.33
386.049	338.37
386.429	350.57
386.809	345.6
387.189	363
387.568	360.74
387.948	355.77
388.328	354.19
388.707	365.03
389.087	369.1
389.466	361.19
389.846	355.54
390.225	372.94
390.605	368.2
390.984	369.55
391.363	378.82
391.743	363
392.122	393.96
392.501	359.61
392.881	373.39
393.26	373.17
393.639	379.5
394.018	368.65
394.397	390.57
394.776	374.75
395.155	378.37
395.534	373.85
395.913	389.66
396.292	391.92
396.671	391.02
397.05	392.83
397.429	384.69
397.808	379.72
398.186	407.52
398.565	399.61
398.944	404.58
399.323	411.59
399.701	379.95
400.08	425.82
400.458	408.42
400.837	386.05
401.215	402.55
401.594	405.71
401.972	389.89
402.351	419.04
402.729	404.13
403.107	426.73
403.486	410.46
403.864	416.56
404.242	435.54
404.62	411.59
404.999	410.68
405.377	429.21
405.755	418.82
406.133	432.38
406.511	447.06
406.889	413.39
407.267	417.91
407.645	452.26
408.023	424.47
408.401	435.54
408.779	450.91
409.156	447.97
409.534	437.12
409.912	439.61
410.29	447.06
410.667	457.01
411.045	461.53
411.422	462.43
411.8	459.49
412.178	457.91
412.555	466.5
412.933	461.53
413.31	484.35
413.687	477.57
414.065	468.08
414.442	482.09
414.819	461.53
415.197	484.8
415.574	494.29
415.951	503.56
416.328	494.97
416.705	487.97
417.082	506.95
417.46	498.81
417.837	505.82
418.214	480.74
418.591	499.72
418.967	519.15
419.344	509.44
419.721	515.54
420.098	542.88
420.475	544.92
420.852	536.78
421.228	527.06
421.605	525.25
421.982	540.17
422.358	541.53
422.735	533.16
423.111	540.62
423.488	558.02
423.864	548.98
424.241	551.69
424.617	569.55
424.994	549.43
425.37	570.45
425.746	577.23
426.123	582.2
426.499	580.62
426.875	585.59
427.251	558.7
427.627	588.53
428.003	584.69
428.379	607.96
428.756	599.83
429.132	598.7
429.507	611.81
429.883	598.02
430.259	616.1
430.635	636.66
431.011	612.94
431.387	654.74
431.763	650
432.138	638.02
432.514	639.6
432.89	626.04
433.265	658.81
433.641	655.42
434.016	677.34
434.392	666.72
434.767	687.06
435.143	695.65
435.518	708.07
435.894	708.75
436.269	711.24
436.644	674.18
437.02	716.21
437.395	733.38
437.77	715.53
438.145	730.22
438.52	699.71
438.895	718.92
439.271	761.41
439.646	751.24
440.021	769.77
440.395	744.01
440.77	779.26
441.145	739.71
441.52	762.76
441.895	761.41
442.27	756.21
442.645	776.55
443.019	783.55
443.394	802.31
443.769	795.53
444.143	803.44
444.518	809.99
444.892	785.36
445.267	796.43
445.641	806.15
446.016	814.06
446.39	784
446.764	826.26
447.139	820.39
447.513	842.31
447.887	819.71
448.262	845.7
448.636	835.3
449.01	845.02
449.384	850.22
449.758	863.78
450.132	872.36
450.506	875.98
450.88	863.78
451.254	903.78
451.628	916.43
452.002	890.22
452.376	923.66
452.75	905.13
453.123	925.24
453.497	941.97
453.871	922.98
454.244	933.83
454.618	950.55
454.992	954.17
455.365	958.01
455.739	970.21
456.112	1021.51
456.486	991.46
456.859	992.59
457.232	1018.57
457.606	1042.98
457.979	1043.43
458.352	1037.78
458.725	1069.2
459.099	1048.86
459.472	1077.56
459.845	1073.49
460.218	1114.17
460.591	1118.46
460.964	1126.59
461.337	1114.62
461.71	1130.44
462.083	1181.06
462.456	1187.61
462.829	1159.59
463.201	1200.72
463.574	1213.15
463.947	1219.93
464.32	1249.08
464.692	1267.16
465.065	1263.77
465.438	1252.02
465.81	1322.75
466.183	1292.69
466.555	1335.63
466.928	1333.59
467.3	1326.82
467.672	1364.78
468.045	1409.3
468.417	1421.5
468.789	1433.25
469.161	1442.74
469.534	1451.11
469.906	1502.4
470.278	1522.29
470.65	1527.71
471.022	1592.35
471.394	1604.1
471.766	1614.94
472.138	1614.04
472.51	1654.94
472.882	1680.93
473.253	1724.55
473.625	1743.75
473.997	1751.21
474.369	1795.96
474.74	1823.07
475.112	1892.22
475.484	1877.54
475.855	1950.75
476.227	1966.57
476.598	2047.47
476.97	2057.87
477.341	2127.7
477.713	2165.44
478.084	2149.39
478.455	2284.98
478.827	2313.68
479.198	2347.81
479.569	2401.14
479.94	2449.95
480.311	2502.38
480.682	2585.31
481.053	2675.93
481.424	2743.95
481.795	2806.78
482.166	2827.57
482.537	2869.37
482.908	2974
483.279	3047.45
483.65	3129.48
484.021	3183.26
484.391	3241.12
484.762	3327.67
485.133	3358.85
485.503	3475.69
485.874	3523.82
486.244	3641.1
486.615	3706.41
486.985	3793.64
487.356	3897.6
487.726	3979.85
488.097	4105.27
488.467	4119.51
488.837	4236.34
489.207	4245.61
489.578	4452.83
489.948	4448.54
490.318	4539.16
490.688	4653.96
491.058	4758.59
491.428	4811.7
491.798	4914.29
492.168	5023.44
492.538	5088.75
492.908	5207.62
493.278	5308.86
493.648	5328.07
494.017	5447.84
494.387	5504.11
494.757	5558.79
495.126	5743.87
495.496	5766.25
495.866	5847.37
496.235	5942.06
496.605	6014.6
496.974	6088.05
497.344	6159
497.713	6226.35
498.082	6277.87
498.452	6413.01
498.821	6456.17
499.19	6509.05
499.559	6615.72
499.928	6609.84
500.298	6741.81
500.667	6798.76
501.036	6862.04
501.405	6998.76
501.774	6976.16
502.143	7067
502.512	7115.59
502.88	7181.35
503.249	7273.33
503.618	7279.65
503.987	7378.86
504.356	7413.21
504.724	7491.85
505.093	7442.59
505.462	7576.59
505.83	7659.98
506.199	7734.33
506.567	7858.17
506.936	7847.55
507.304	7989.47
507.672	8002.57
508.041	8008.22
508.409	8059.75
508.777	8143.36
509.145	8240.53
509.514	8224.94
509.882	8306.29
510.25	8323.92
510.618	8437.81
510.986	8491.37
511.354	8563.46
511.722	8629.22
512.09	8653.18
512.458	8699.05
512.826	8740.63
513.193	8834.41
513.561	8873.51
513.929	8908.99
514.297	8988.76
514.664	8998.93
515.032	9054.07
515.4	9101.75
515.767	9149.21
516.135	9273.05
516.502	9150.11
516.869	9398.24
517.237	9365.02
517.604	9359.82
517.972	9428.52
518.339	9499.03
518.706	9520.5
519.073	9557.79
519.44	9617.22
519.808	9769.76
520.175	9683.21
520.542	9838.68
520.909	9885.46
521.276	9906.02
521.643	10008.17
522.009	10076.64
522.376	10128.62
522.743	10193.25
523.11	10227.37
523.477	10280.7
523.843	10339.23
524.21	10524.99
524.577	10499.46
524.943	10536.52
525.31	10589.17
525.676	10707.36
526.043	10675.27
526.409	10741.03
526.776	10931.31
527.142	10878.2
527.508	10987.35
527.874	11102.15
528.241	11133.79
528.607	11144.41
528.973	11262.37
529.339	11266.89
529.705	11372.65
530.071	11497.4
530.437	11469.6
530.803	11576.26
531.169	11621.46
531.535	11681.12
531.901	11566.55
532.267	11771.06
532.632	11830.95
532.998	11903.49
533.364	11930.38
533.73	11934.45
534.095	12020.32
534.461	12070.94
534.826	12129.92
535.192	12147.32
535.557	12230.94
535.923	12230.48
536.288	12355
536.653	12378.5
537.019	12460.31
537.384	12414.66
537.749	12515.22
538.114	12539.63
538.479	12516.35
538.845	12640.19
539.21	12652.39
539.575	12675.22
539.94	12750.47
540.305	12903.01
540.67	12845.83
541.034	12918.15
541.399	12985.04
541.764	12972.61
542.129	12992.72
542.494	13109.1
542.858	13170.35
543.223	13220.74
543.587	13234.75
543.952	13274.75
544.316	13400.85
544.681	13344.8
545.045	13452.37
545.41	13500.51
545.774	13550
546.138	13586.15
546.503	13712.03
546.867	13681.97
547.231	13821.63
547.595	13827.5
547.959	13921.29
548.324	13910.21
548.688	13817.11
549.052	13927.16
549.416	13959.03
549.779	13988.4
550.143	14101.62
550.507	14156.53
550.871	14313.82
551.235	14262.75
551.599	14314.5
551.962	14377.32
552.326	14404.21
552.689	14514.94
553.053	14433.36
553.417	14508.16
553.78	14663.87
554.143	14655.73
554.507	14735.73
554.87	14716.29
555.234	14877.19
555.597	14796.97
555.96	14802.39
556.323	14882.62
556.686	14883.52
557.05	15087.81
557.413	15043.52
557.776	15078.32
558.139	15156.96
558.502	15257.75
558.865	15247.35
559.228	15355.15
559.59	15416.61
559.953	15413.45
560.316	15523.96
560.679	15526.89
561.041	15614.35
561.404	15721.01
561.767	15776.83
562.129	15746.78
562.492	15906.55
562.854	15921.69
563.217	15958.75
563.579	15998.75
563.941	16026.77
564.304	16051.85
564.666	16227.44
565.028	16208.01
565.39	16329.81
565.753	16398.96
566.115	16433.31
566.477	16549.01
566.839	16592.4
567.201	16573.65
567.563	16653.64
567.925	16797.37
568.287	16772.51
568.648	16771.83
569.01	16950.13
569.372	17094.99
569.734	17099.06
570.095	17200.75
570.457	17223.57
570.819	17242.1
571.18	17334.08
571.542	17352.16
571.903	17497.01
572.265	17664.46
572.626	17663.56
572.987	17731.36
573.349	17832.14
573.71	17948.98
574.071	17939.94
574.432	18092.02
574.794	18140.38
575.155	18303.32
575.516	18328.18
575.877	18299.25
576.238	18547.15
576.599	18656.76
576.96	18712.12
577.32	18798.22
577.681	18920.48
578.042	19059
578.403	19094.71
578.763	19169.28
579.124	19381.03
579.485	19642.49
579.845	19863.73
580.206	19883.62
580.566	19985.31
580.927	20081.35
581.287	20377.61
581.648	20399.08
582.008	20668
582.368	20698.96
582.728	20949.12
583.089	21088.56
583.449	21336.91
583.809	21452.61
584.169	21820.51
584.529	21836.56
584.889	22180.28
585.249	22252.14
585.609	22452.36
585.969	22783.2
586.329	22763.99
586.688	23084.21
587.048	23287.14
587.408	23551.77
587.768	23753.57
588.127	23993.34
588.487	24137.29
588.846	24547.67
589.206	24579.09
589.565	24893.43
589.925	25248.9
590.284	25457.25
590.643	25661.99
591.003	25923.46
591.362	26209.1
591.721	26532.03
592.08	26652.48
592.44	27060.6
592.799	27259.69
593.158	27310.76
593.517	27634.6
593.876	28009.5
594.235	28073.46
594.593	28316.84
594.952	28668.47
595.311	28827.11
595.67	29157.04
596.029	29459.18
596.387	29674.32
596.746	30045.61
597.104	30168.09
597.463	30273.4
597.822	30660.51
598.18	30723.1
598.538	30962.87
598.897	31418
599.255	31358.34
599.613	31975.95
599.972	32046.46
600.33	32312.22
600.688	32338.88
601.046	32731.41
601.404	33079.65
601.762	33210.27
602.12	33529.13
602.478	33642.12
602.836	33878.73
603.194	33859.97
603.552	34131.38
603.91	34294.76
604.268	34557.35
604.625	34604.58
604.983	34965.48
605.341	35050
605.698	35339.25
606.056	35485.47
606.413	35516.88
606.771	35796.42
607.128	36056.52
607.485	36095.39
607.843	36152.34
608.2	36539.67
608.557	36705.32
608.914	36656.73
609.272	37035.71
609.629	37256.72
609.986	37481.34
610.343	37407.9
610.7	37792.75
611.057	37957.72
611.414	37952.07
611.771	37972.86
612.127	38266.86
612.484	38538.94
612.841	38661.88
613.198	38566.06
613.554	38814.87
613.911	39032.72
614.267	39179.38
614.624	39093.28
614.98	39392.93
615.337	39552.7
615.693	39533.49
616.05	39569.43
616.406	39944.33
616.762	40016.42
617.118	39947.49
617.475	40208.05
617.831	40284.21
618.187	40510.19
618.543	40606.69
618.899	40836.29
619.255	40643.75
619.611	40781.37
619.967	41067.24
620.323	41084.19
620.678	41089.16
621.034	41092.55
621.39	41073.34
621.746	41196.73
622.101	41706.77
622.457	41275.6
622.812	41574.34
623.168	41627.22
623.523	41629.94
623.879	41790.16
624.234	41610.28
624.589	41909.48
624.945	41868.35
625.3	41997.61
625.655	42097.49
626.01	42052.52
626.365	42194.89
626.72	42116.93
627.075	42165.74
627.43	42191.5
627.785	42145.18
628.14	42234.44
628.495	42306.98
628.85	42373.87
629.205	42200.32
629.559	42417.26
629.914	42314.66
630.269	42291.39
630.623	42171.62
630.978	42267.21
631.332	42415
631.687	42640.76
632.041	42396.7
632.396	42520.99
632.75	42286.19
633.104	42525.28
633.459	42259.52
633.813	42328
634.167	42338.39
634.521	42502.23
634.875	42436.02
635.229	42562.12
635.583	42171.62
635.937	42318.73
636.291	42296.36
636.645	42334.1
636.999	42203.71
637.352	42359.86
637.706	42170.49
638.06	42426.07
638.413	42219.98
638.767	42163.26
639.121	42206.42
639.474	42004.62
639.828	42153.54
640.181	42108.34
640.534	42195.12
640.888	42066.31
641.241	42011.62
641.594	41986.31
641.947	42095.23
642.301	42103.14
642.654	42047.55
643.007	41958.52
643.36	42092.07
643.713	41993.09
644.066	42158.28
644.419	41798.29
644.771	41611.18
645.124	41206.67
645.477	41182.94
645.83	41074.92
646.182	40804.87
646.535	40820.01
646.888	40822.27
647.24	40568.5
647.593	40936.85
647.945	40760.35
648.298	40738.43
648.65	40460.7
649.002	40560.59
649.355	40634.71
649.707	40729.17
650.059	40806.23
650.411	41331.41
650.763	41289.38
651.115	41637.39
651.467	41613.44
651.819	41560.79
652.171	41318.08
652.523	41375.03
652.875	41396.95
653.227	41307.46
653.578	41410.96
653.93	41304.97
654.282	41287.35
654.633	41104.3
654.985	41296.39
655.337	41226.11
655.688	41300.45
656.039	41418.87
656.391	41027.24
656.742	41246.67
657.094	41225.65
657.445	41247.12
657.796	41255.48
658.147	41140.68
658.498	41082.83
658.849	41143.17
659.2	41189.72
659.551	40981.59
659.902	41176.84
660.253	41047.13
660.604	41142.94
660.955	40904.76
661.306	41075.15
661.656	41021.82
662.007	41043.96
662.358	40940.92
662.708	41073.11
663.059	41039.9
663.409	40793.8
663.76	41002.16
664.11	41041.48
664.461	41049.16
664.811	41121.7
665.161	40966.23
665.511	40944.98
665.862	40890.07
666.212	41114.47
666.562	41055.71
666.912	40847.36
667.262	40857.08
667.612	41029.5
667.962	40899.33
668.312	40929.39
668.662	40984.98
669.011	40940.69
669.361	40920.8
669.711	40790.64
670.06	40717.87
670.41	40755.61
670.76	40768.94
671.109	41003.29
671.459	40890.52
671.808	40690.07
672.157	40916.28
672.507	40546.35
672.856	40688.72
673.205	40680.13
673.554	40750.64
673.904	40598.55
674.253	40833.12
674.602	40707.7
674.951	40154.95
675.3	39887.16
675.649	40585.9
675.998	40608.95
676.346	40553.58
676.695	40638.1
677.044	40388.84
677.393	40628.83
677.741	40493.7
678.09	40401.72
678.438	40267.71
678.787	40355.62
679.135	40442.4
679.484	40075.85
679.832	40231.33
680.181	39964.67
680.529	40120.82
680.877	40118.34
681.225	40032.69
681.573	40270.2
681.922	39951.11
682.27	39839.25
682.618	39919.47
682.966	39775.52
683.314	39743.66
683.661	39678.58
684.009	39592.25
684.357	39437.23
684.705	39423.89
685.053	39480.61
685.4	39480.16
685.748	39199.94
686.095	39294.63
686.443	39072.04
686.79	39188.87
687.138	39144.8
687.485	39134.18
687.832	39027.07
688.18	39045.37
688.527	38729.22
688.874	38867.3
689.221	38825.26
689.568	38661.43
689.915	38485.61
690.262	38579.62
690.609	38459.62
690.956	38277.93
691.303	38294.43
691.65	38075.91
691.997	38209.01
692.344	38002.69
692.69	37769.7
693.037	37779.64
693.383	37660.55
693.73	37691.73
694.077	37572.64
694.423	37541.68
694.769	37355.92
695.116	37309.37
695.462	37277.51
695.808	37214.69
696.155	37306.89
696.501	36980.79
696.847	36918.2
697.193	36581.93
697.539	36851.98
697.885	36551.88
698.231	36496.74
698.577	36511.65
698.923	36266.46
699.269	36200.02
699.614	35944.89
699.96	36041.61
700.306	36095.84
700.651	35815.4
700.997	35716.87
701.342	35727.04
701.688	35673.93
702.033	35555.97
702.379	35521.17
702.724	35448.63
703.069	35507.39
703.415	34970.9
703.76	35197.79
704.105	35079.83
704.45	35017.68
704.795	34910.11
705.14	34792.6
705.485	34700.18
705.83	34678.03
706.175	34592.38
706.52	34405.04
706.865	34327.3
707.209	34389.45
707.554	34302.45
707.899	34262.22
708.243	34172.73
708.588	33968.89
708.932	33777.49
709.277	33755.79
709.621	33834.44
709.966	33632.63
710.31	33682.35
710.654	33515.57
710.998	33614.55
711.342	33540.21
711.687	33404.16
712.031	33351.06
712.375	33234.9
712.719	33101.57
713.063	33169.37
713.407	33269.7
713.75	32899.32
714.094	33005.53
714.438	32785.88
714.782	32841.02
715.125	32745.2
715.469	32758.31
715.812	32668.59
716.156	32474.02
716.499	32446.68
716.843	32512.66
717.186	32341.82
717.53	32428.14
717.873	32384.3
718.216	32166.91
718.559	32052.34
718.902	31973.47
719.246	32076.06
719.589	31904.99
719.932	31879.91
720.275	31906.12
720.617	31776.64
720.96	31812.79
721.303	31722.63
721.646	31710.42
721.989	31559.47
722.331	31548.85
722.674	31578.68
723.016	31534.83
723.359	31496.64
723.701	31393.82
724.044	31299.59
724.386	31141.62
724.729	31363.31
725.071	31196.31
725.413	31170.1
725.755	31060.72
726.097	31026.6
726.439	30809.88
726.782	30952.25
727.124	31100.95
727.465	30742.99
727.807	30904.79
728.149	30825.7
728.491	30723.78
728.833	30732.14
729.175	30638.36
729.516	30542.09
729.858	30574.63
730.199	30604.46
730.541	30320.63
730.882	30397.46
731.224	30520.62
731.565	30156.11
731.906	30354.98
732.248	30227.52
732.589	30086.96
732.93	29950.7
733.271	29936.01
733.612	29901.66
733.953	30112.95
734.294	29825.5
734.635	29945.5
734.976	29854.43
735.317	29756.8
735.658	29718.84
735.999	29617.82
736.339	29619.4
736.68	29773.75
737.021	29712.51
737.361	29414.44
737.702	29693.08
738.042	29595.45
738.383	29480.2
738.723	29549.12
739.063	29353.65
739.404	29477.49
739.744	29385.51
740.084	29295.8
740.424	29277.04
740.764	29179.64
741.104	29267.78
741.444	29007.9
741.784	29142.36
742.124	29011.96
742.464	29059.87
742.804	28955.47
743.143	28861.68
743.483	28887.45
743.823	28839.76
744.162	28808.35
744.502	28687.23
744.841	28661.01
745.181	28696.27
745.52	28779.2
745.86	28643.84
746.199	28624.4
746.538	28404.97
746.877	28569.94
747.216	28438.42
747.556	28383.28
747.895	28450.4
748.234	28280.46
748.573	28262.15
748.911	28125.43
749.25	28198.65
749.589	28171.31
749.928	28202.04
750.267	28181.02
750.605	28026
750.944	28145.77
751.283	27800.7
751.621	28008.6
751.96	27691.32
752.298	27736.29
752.636	27642.51
752.975	27630.98
753.313	27444.09
753.651	27566.13
753.989	27421.04
754.327	27408.16
754.666	27352.12
755.004	27392.57
755.342	27366.13
755.679	27319.58
756.017	27104.22
756.355	27267.38
756.693	27042.75
757.031	27212.69
757.368	26883.88
757.706	26922.53
758.044	26830.55
758.381	26790.33
758.719	26729.76
759.056	26768.63
759.394	26679.6
759.731	26445.02
760.068	26565.02
760.405	26341.07
760.743	26304.01
761.08	26367.51
761.417	26233.96
761.754	26227.63
762.091	26170.23
762.428	25881.65
762.765	25798.04
763.102	25929.11
763.438	25790.8
763.775	25765.72
764.112	25662.67
764.449	25672.84
764.785	25474.2
765.122	25346.52
765.458	25341.33
765.795	25180.65
766.131	25251.38
766.467	25101.11
766.804	24961.9
767.14	24949.7
767.476	24962.58
767.812	24752.64
768.148	24779.76
768.485	24632.87
768.821	24480.56
769.157	24481.91
769.492	24423.84
769.828	24391.29
770.164	24154.46
770.5	24017.97
770.836	24129.38
771.171	24019.33
771.507	23900.46
771.842	23789.95
772.178	23789.5
772.513	23769.84
772.849	23650.97
773.184	23481.49
773.519	23559.68
773.855	23401.94
774.19	23213.7
774.525	23291.66
774.86	23183.64
775.195	23032.91
775.53	23022.06
775.865	23070.2
776.2	22755.86
776.535	22663.66
776.87	22640.83
777.205	22566.71
777.539	22438.35
777.874	22489.65
778.209	22293.27
778.543	22242.42
778.878	22142.09
779.212	22038.59
779.547	21959.27
779.881	22046.72
780.215	21814.64
780.55	21828.2
780.884	21698.71
781.218	21555.44
781.552	21513.18
781.886	21516.57
782.22	21408.1
782.554	21280.19
782.888	21081.55
783.222	20988.22
783.556	20966.07
783.889	20882.46
784.223	20871.16
784.557	20724.05
784.89	20813.53
785.224	20651.28
785.557	20500.55
785.891	20506.2
786.224	20384.39
786.558	20370.16
786.891	20227.34
787.224	20119.09
787.557	20123.84
787.891	20046.78
788.224	20027.79
788.557	20035.25
788.89	19926.1
789.223	19878.64
789.556	19785.99
789.888	19710.74
790.221	19639.78
790.554	19509.39
790.887	19444.76
791.219	19424.64
791.552	19459.67
791.884	19331.54
792.217	19278.21
792.549	19159.34
792.882	18997.54
793.214	19005.9
793.546	18972.23
793.879	18823.53
794.211	18712.57
794.543	18761.39
794.875	18730.65
795.207	18710.09
795.539	18702.63
795.871	18637.09
796.203	18482.07
796.535	18272.81
796.867	18315.07
797.198	18287.05
797.53	18282.98
797.862	18108.3
798.193	18241.85
798.525	17942.42
798.856	17988.98
799.188	17861.75
799.519	17770.22
799.85	17714.86
800.182	17738.59
800.513	17746.95
800.844	17641.87
801.175	17734.07
801.506	17598.93
801.837	17535.88
802.168	17434.19
802.499	17320.29
802.83	17375.66
803.161	17230.58
803.491	17292.72
803.822	17228.77
804.153	17221.76
804.483	17086.63
804.814	16988.55
805.145	17003.01
805.475	16947.65
805.805	16870.59
806.136	16894.32
806.466	16805.28
806.796	16789.01
807.126	16656.36
807.457	16687.09
807.787	16669.91
808.117	16503.59
808.447	16469.47
808.777	16514.44
809.107	16455.23
809.436	16461.11
809.766	16364.39
810.096	16293.88
810.426	16261.79
810.755	16211.85
811.085	16230.83
811.414	16205.29
811.744	16015.69
812.073	16059.76
812.403	15986.32
812.732	15914.68
813.061	15895.02
813.39	15788.58
813.719	15805.53
814.049	15786.77
814.378	15775.48
814.707	15708.13
815.036	15669.72
815.365	15541.13
815.693	15410.29
816.022	15483.73
816.351	15462.49
816.68	15336.62
817.008	15420
817.337	15210.74
817.665	15248.26
817.994	15263.4
818.322	15232.66
818.651	15130.75
818.979	15060.24
819.307	15253
819.636	15149.5
819.964	15063.63
820.292	15071.76
820.62	15083.52
820.948	15006.23
821.276	15021.14
821.604	15039.9
821.932	15032.44
822.259	14982.5
822.587	14946.12
822.915	14865.44
823.243	15033.35
823.57	14870.87
823.898	14935.05
824.225	14889.4
824.553	14869.96
824.88	14789.74
825.207	14860.7
825.535	14864.76
825.862	14966.68
826.189	14853.47
826.516	14861.83
826.843	14960.58
827.17	14838.1
827.497	14926.91
827.824	14997.42
828.151	14902.5
828.478	14944.99
828.805	14916.29
829.131	14817.53
829.458	14799.68
829.785	14772.56
830.111	14877.42
830.438	14952.9
830.764	14893.69
831.09	14903.86
831.417	14730.08
831.743	14860.92
832.069	14851.66
832.395	14757.2
832.722	14764.43
833.048	14721.04
833.374	14734.37
833.7	14680.81
834.026	14679.01
834.351	14663.87
834.677	14695.05
835.003	14670.87
835.329	14615.28
835.654	14627.26
835.98	14557.43
836.306	14658.44
836.631	14654.15
836.956	14584.77
837.282	14599.46
837.607	14491.67
837.932	14468.62
838.258	14519.46
838.583	14500.25
838.908	14352.24
839.233	14418.67
839.558	14300.94
839.883	14266.81
840.208	14274.27
840.533	14244.67
840.858	14224.56
841.182	14211.9
841.507	14273.37
841.832	14170.55
842.156	14079.02
842.481	14092.81
842.805	14004.9
843.13	13960.61
843.454	13986.14
843.778	14020.94
844.103	13952.7
844.427	13905.24
844.751	13860.05
845.075	13865.24
845.399	13818.69
845.723	13720.16
846.047	13805.81
846.371	13626.15
846.695	13626.15
847.019	13528.08
847.343	13484.91
847.666	13455.99
847.99	13374.63
848.313	13368.53
848.637	13276.56
848.96	13221.42
849.284	13147.07
849.607	13126.51
849.931	13029.33
850.254	13003.8
850.577	12932.84
850.9	12817.36
851.223	12804.25
851.546	12783.24
851.869	12644.03
852.192	12758.15
852.515	12616.69
852.838	12632.05
853.161	12554.77
853.483	12611.49
853.806	12394.55
854.129	12430.48
854.451	12405.62
854.774	12296.7
855.096	12312.97
855.419	12281.33
855.741	12272.97
856.063	12225.51
856.385	12057.83
856.708	12049.25
857.03	12059.19
857.352	12018.51
857.674	11983.03
857.996	12030.26
858.318	11834.79
858.64	11942.58
858.961	11818.97
859.283	11802.92
859.605	11784.17
859.926	11717.73
860.248	11658.75
860.57	11702.81
860.891	11741.68
861.212	11637.5
861.534	11554.57
861.855	11604.29
862.176	11563.38
862.498	11600.44
862.819	11550.5
863.14	11491.29
863.461	11427.57
863.782	11391.64
864.103	11470.28
864.424	11454.91
864.745	11431.63
865.065	11371.75
865.386	11327.23
865.707	11301.02
866.027	11299.66
866.348	11277.06
866.668	11265.31
866.989	11188.7
867.309	11136.73
867.63	11245.65
867.95	11068.93
868.27	11073.9
868.59	11107.35
868.91	11087.01
869.23	11113.68
869.55	11009.95
869.87	11090.17
870.19	11037.07
870.51	11039.78
870.83	11045.66
871.15	10987.35
871.469	10944.87
871.789	10949.39
872.109	10937.41
872.428	10841.82
872.748	10892.67
873.067	10834.14
873.386	10856.96
873.706	10865.55
874.025	10804.31
874.344	10774.93
874.663	10788.04
874.982	10720.01
875.301	10711.88
875.62	10713.69
875.939	10706.46
876.258	10691.09
876.577	10689.51
876.896	10647.7
877.214	10611.32
877.533	10657.64
877.852	10500.13
878.17	10601.15
878.489	10601.6
878.807	10583.07
879.125	10511.43
879.444	10547.36
879.762	10521.83
880.08	10468.5
880.398	10456.29
880.716	10455.16
881.034	10433.02
881.352	10407.93
881.67	10405.22
881.988	10400.25
882.306	10363.64
882.624	10305.34
882.941	10264.89
883.259	10240.48
883.577	10206.81
883.894	10210.2
884.212	10212.68
884.529	10146.24
884.846	10155.74
885.164	10096.53
885.481	10094.95
885.798	10101.5
886.115	10045
886.432	10064.66
886.75	10011.11
887.067	10011.33
887.383	9924.33
887.7	9898.57
888.017	9915.29
888.334	9946.7
888.651	9877.78
888.967	9786.03
889.284	9814.28
889.6	9784.45
889.917	9673.94
890.233	9780.15
890.55	9678.69
890.866	9732.92
891.182	9658.12
891.498	9633.04
891.815	9527.5
892.131	9492.48
892.447	9510.78
892.763	9510.56
893.079	9535.87
893.395	9414.74
893.71	9390.78
894.026	9424.46
894.342	9336.32
894.657	9315.76
894.973	9316.44
895.289	9310.11
895.604	9242.54
895.92	9143.56
896.235	9182.88
896.55	9139.72
896.865	9074.86
897.181	9068.76
897.496	9080.74
897.811	9065.14
898.126	8984.47
898.441	8974.52
898.756	8937.69
899.071	8924.13
899.386	8922.32
899.7	8878.03
900.015	8825.83
900.33	8777.69
900.644	8743.12
900.959	8747.41
901.273	8764.59
901.588	8689.79
901.902	8616.57
902.216	8638.26
902.531	8626.96
902.845	8531.82
903.159	8510.13
903.473	8451.37
903.787	8414.09
904.101	8368.21
904.415	8423.35
904.729	8347.42
905.042	8282.79
905.356	8289.34
905.67	8285.28
905.984	8246.18
906.297	8229.91
906.611	8173.19
906.924	8127.31
907.237	8144.26
907.551	8100.2
907.864	7992.63
908.177	8018.16
908.491	7970.26
908.804	7943.36
909.117	7860.65
909.43	7836.02
909.743	7838.06
910.056	7828.57
910.368	7788.79
910.681	7762.58
910.994	7759.64
911.307	7720.32
911.619	7576.82
911.932	7642.13
912.244	7558.74
912.557	7568.23
912.869	7528.69
913.181	7491.85
913.494	7585.63
913.806	7421.57
914.118	7404.17
914.43	7399.2
914.742	7363.27
915.054	7337.5
915.366	7277.62
915.678	7314.45
915.99	7219.32
916.302	7191.07
916.613	7144.06
916.925	7132.76
917.236	7132.09
917.548	7066.33
917.859	7058.42
918.171	7062.94
918.482	6968.25
918.794	6989.94
919.105	6910.62
919.416	6918.53
919.727	6847.57
920.038	6869.27
920.349	6817.52
920.66	6760.34
920.971	6720.12
921.282	6731.19
921.593	6648.71
921.903	6622.27
922.214	6616.62
922.525	6602.16
922.835	6598.77
923.146	6579.33
923.456	6538.88
923.767	6492.1
924.077	6539.56
924.387	6489.62
924.697	6377.76
925.008	6370.75
925.318	6328.72
925.628	6352.9
925.938	6314.25
926.248	6255.5
926.558	6297.53
926.867	6253.92
927.177	6190.19
927.487	6223.41
927.796	6117.65
928.106	6081.04
928.416	6089.63
928.725	6070.87
929.034	6085.33
929.344	6065.67
929.653	5992.46
929.962	5916.75
930.271	5912.91
930.581	5896.64
930.89	5910.65
931.199	5881.27
931.508	5814.83
931.817	5794.27
932.125	5838.79
932.434	5787.26
932.743	5709.53
933.051	5728.96
933.36	5682.18
933.669	5674.95
933.977	5605.35
934.286	5628.17
934.594	5651
934.902	5556.99
935.21	5543.65
935.519	5566.93
935.827	5505.91
936.135	5473.6
936.443	5435.86
936.751	5405.8
937.059	5419.82
937.367	5361.96
937.674	5400.61
937.982	5356.09
938.29	5309.54
938.597	5369.87
938.905	5287.84
939.213	5295.52
939.52	5166.94
939.827	5201.97
940.135	5203.55
940.442	5150.67
940.749	5068.86
941.056	5146.15
941.363	5089.43
941.67	5018.47
941.977	5057.79
942.284	5022.54
942.591	5067.28
942.898	5003.1
943.205	4983.67
943.511	4958.13
943.818	4907.74
944.125	4913.84
944.431	4872.71
944.738	4848.53
945.044	4839.49
945.35	4839.04
945.657	4802.88
945.963	4785.26
946.269	4712.49
946.575	4729.21
946.881	4714.07
947.187	4721.98
947.493	4683.79
947.799	4654.64
948.105	4686.5
948.41	4620.51
948.716	4573.06
949.022	4633.4
949.327	4551.14
949.633	4522.21
949.938	4476.56
950.244	4493.96
950.549	4477.02
950.854	4496.22
951.16	4463
951.465	4451.25
951.77	4440.18
952.075	4406.73
952.38	4358.6
952.685	4397.92
952.99	4354.98
953.294	4287.64
953.599	4269.34
953.904	4278.15
954.209	4258.04
954.513	4246.74
954.818	4216.46
955.122	4205.38
955.426	4172.16
955.731	4173.97
956.035	4099.85
956.339	4145.5
956.643	4106.4
956.948	4085.84
957.252	4058.49
957.556	4068.21
957.86	4048.78
958.163	4082.45
958.467	4030.47
958.771	3989.57
959.075	3979.85
959.378	3938.05
959.682	3965.62
959.985	3922.91
960.289	3938.95
960.592	3901.21
960.896	3863.92
961.199	3833.87
961.502	3832.74
961.805	3834.09
962.108	3777.37
962.411	3789.58
962.714	3768.11
963.017	3747.99
963.32	3762.23
963.623	3711.39
963.926	3755
964.228	3673.65
964.531	3660.31
964.833	3637.72
965.136	3633.42
965.438	3618.73
965.741	3577.6
966.043	3557.49
966.345	3537.83
966.648	3589.35
966.95	3512.07
967.252	3527.66
967.554	3513.65
967.856	3464.84
968.158	3448.12
968.46	3483.59
968.761	3465.52
969.063	3457.61
969.365	3380.09
969.666	3419.42
969.968	3372.19
970.269	3370.83
970.571	3370.38
970.872	3315.92
971.174	3305.07
971.475	3331.96
971.776	3294.67
972.077	3300.55
972.378	3254.9
972.679	3266.65
972.98	3244.96
973.281	3268.46
973.582	3222.58
973.883	3206.77
974.183	3210.38
974.484	3157.5
974.785	3180.33
975.085	3160.21
975.386	3151.17
975.686	3143.26
975.986	3130.16
976.287	3109.82
976.587	3061.91
976.887	3066.2
977.187	3088.35
977.487	3029.14
977.787	3048.58
978.087	3009.93
978.387	2976.94
978.687	2999.54
978.987	3012.42
979.286	2940.78
979.586	2956.6
979.885	2946.66
980.185	2921.58
980.484	2920.22
980.784	2891.29
981.083	2867.57
981.382	2846.55
981.682	2848.13
981.981	2844.97
982.28	2856.72
982.579	2778.75
982.878	2835.7
983.177	2776.27
983.475	2768.81
983.774	2766.55
984.073	2783.73
984.372	2768.13
984.67	2728.13
984.969	2726.78
985.267	2732.2
985.566	2677.97
985.864	2677.74
986.162	2668.7
986.461	2654.01
986.759	2662.15
987.057	2645.88
987.355	2634.13
987.653	2629.15
987.951	2611.75
988.249	2593
988.547	2570.17
988.844	2588.03
989.142	2588.93
989.44	2527.01
989.737	2506.45
990.035	2511.42
990.332	2516.39
990.63	2506.22
990.927	2521.13
991.224	2447.69
991.521	2495.6
991.819	2489.5
992.116	2458.09
992.413	2410.4
992.71	2412.66
993.006	2396.62
993.303	2425.77
993.6	2399.1
993.897	2387.58
994.193	2382.15
994.49	2356.62
994.787	2332.89
995.083	2320.01
995.379	2255.38
995.676	2305.77
995.972	2267.58
996.268	2317.75
996.565	2248.6
996.861	2251.76
997.157	2226.9
997.453	2192.1
997.749	2212.22
998.044	2203.4
998.34	2230.29
998.636	2228.49
998.932	2208.37
999.227	2162.95
999.523	2180.58
999.818	2121.37
1000.114	2144.87
1000.409	2126.34
1000.704	2067.81
1001	2079.79
1001.295	2081.6
1001.59	2088.15
1001.885	2080.69
1002.18	2035.5
1002.475	2034.14
1002.77	2013.35
1003.065	2022.62
1003.359	2040.92
1003.654	2005.22
1003.949	1992.56
1004.243	1940.81
1004.538	1961.83
1004.832	1985.1
1005.127	1922.05
1005.421	1930.64
1005.715	1916.63
1006.009	1946.46
1006.304	1919.12
1006.598	1879.12
1006.892	1913.47
1007.186	1896.52
1007.48	1887.25
1007.773	1850.64
1008.067	1826.24
1008.361	1828.5
1008.655	1826.69
1008.948	1839.12
1009.242	1811.77
1009.535	1787.14
1009.829	1790.08
1010.122	1762.06
1010.415	1803.86
1010.708	1763.19
1011.001	1755.73
1011.295	1739.23
1011.588	1734.71
1011.881	1710.99
1012.173	1729.29
1012.466	1699.69
1012.759	1680.03
1013.052	1672.57
1013.344	1677.99
1013.637	1660.82
1013.93	1652.68
1014.222	1631.89
1014.514	1654.72
1014.807	1607.03
1015.099	1611.55
1015.391	1598.67
1015.683	1567.71
1015.976	1566.58
1016.268	1548.05
1016.56	1583.98
1016.851	1562.74
1017.143	1554.38
1017.435	1532.46
1017.727	1518.45
1018.018	1510.31
1018.31	1498.11
1018.602	1525.23
1018.893	1489.3
1019.185	1479.35
1019.476	1495.62
1019.767	1484.55
1020.058	1426.47
1020.35	1446.13
1020.641	1418.11
1020.932	1421.95
1021.223	1429.41
1021.514	1421.73
1021.804	1387.38
1022.095	1394.16
1022.386	1376.76
1022.677	1363.88
1022.967	1363.88
1023.258	1373.59
1023.548	1343.09
1023.839	1318.23
1024.129	1325.91
1024.419	1313.03
1024.709	1322.75
1025	1302.41
1025.29	1324.33
1025.58	1285.01
1025.87	1286.36
1026.16	1262.41
1026.449	1254.5
1026.739	1240.72
1027.029	1257.21
1027.319	1250.89
1027.608	1239.59
1027.898	1241.85
1028.187	1219.47
1028.477	1210.66
1028.766	1213.15
1029.055	1195.75
1029.344	1163.66
1029.634	1165.92
1029.923	1158.23
1030.212	1171.34
1030.501	1170.21
1030.79	1143.54
1031.078	1115.75
1031.367	1095.86
1031.656	1132.92
1031.945	1129.08
1032.233	1108.29
1032.522	1085.01
1032.81	1073.49
1033.099	1078.23
1033.387	1064.9
1033.675	1073.71
1033.963	1055.41
1034.251	1072.36
1034.54	1035.98
1034.828	1048.4
1035.116	1005.24
1035.403	1035.07
1035.691	1031.68
1035.979	1016.54
1036.267	1015.41
1036.554	1027.16
1036.842	988.97
1037.129	989.42
1037.417	978.8
1037.704	978.58
1037.992	967.28
1038.279	958.69
1038.566	956.88
1038.853	956.88
1039.14	956.88
