Data from hue_50_FLMS001491_6.txt Node
Date: Mon Feb 06 15:09:30 GMT 2017
User: dcchb
Spectrometer: FLMS00149
Trigger mode: 0
Integration Time (sec): 2.000000E-2
Scans to average: 10
Electric dark correction enabled: true
Nonlinearity correction enabled: false
Boxcar width: 0
XAxis mode: Wavelengths
Number of Pixels in Spectrum: 2048
>>>>>Begin Spectral Data<<<<<
341.393	-23.25
341.776	-23.25
342.16	-23.25
342.543	-67.99
342.927	-35.9
343.31	-73.19
343.693	-64.38
344.077	-59.18
344.46	-57.15
344.843	-23.47
345.226	-35.9
345.61	-35
345.993	-17.37
346.376	-11.5
346.759	10.2
347.142	11.33
347.525	53.81
347.908	43.42
348.291	70.31
348.674	75.73
349.057	112.34
349.44	129.97
349.823	127.93
350.206	157.76
350.588	199.35
350.971	223.53
351.354	236.63
351.737	248.84
352.119	260.13
352.502	258.55
352.884	280.7
353.267	308.72
353.65	312.34
354.032	295.39
354.414	297.87
354.797	330.19
355.179	337.87
355.562	319.12
355.944	342.62
356.326	343.52
356.709	336.29
357.091	342.62
357.473	365.67
357.855	349.62
358.238	342.17
358.62	342.62
359.002	349.4
359.384	342.62
359.766	334.48
360.148	332.22
360.53	362.28
360.912	339.45
361.294	327.25
361.676	348.95
362.057	356.86
362.439	324.99
362.821	327.93
363.203	310.98
363.584	346.01
363.966	336.06
364.348	330.87
364.729	326.35
365.111	342.39
365.493	346.91
365.874	322.05
366.256	343.97
366.637	332.45
367.019	331.54
367.4	321.83
367.781	327.48
368.163	314.82
368.544	301.26
368.925	313.69
369.306	315.27
369.688	316.63
370.069	335.84
370.45	291.55
370.831	315.27
371.212	329.96
371.593	322.73
371.974	331.77
372.355	323.86
372.736	316.18
373.117	334.48
373.498	316.63
373.879	310.53
374.26	321.83
374.641	322.28
375.021	309.85
375.402	320.25
375.783	322.51
376.163	327.93
376.544	339.23
376.925	325.9
377.305	335.84
377.686	328.38
378.066	327.03
378.447	317.99
378.827	317.76
379.208	314.37
379.588	328.83
379.968	317.53
380.349	342.17
380.729	321.83
381.109	345.78
381.489	339.23
381.87	335.61
382.25	340.81
382.63	343.3
383.01	331.32
383.39	330.42
383.77	334.48
384.15	328.16
384.53	333.35
384.91	349.62
385.29	334.48
385.67	335.84
386.049	339.68
386.429	329.06
386.809	369.74
387.189	357.08
387.568	334.26
387.948	374.03
388.328	351.66
388.707	377.42
389.087	364.31
389.466	344.43
389.846	366.57
390.225	357.08
390.605	349.62
390.984	360.47
391.363	370.64
391.743	388.94
392.122	350.3
392.501	398.44
392.881	362.5
393.26	351.21
393.639	379.91
394.018	368.83
394.397	388.94
394.776	368.15
395.155	368.61
395.534	361.6
395.913	368.83
396.292	378.78
396.671	381.26
397.05	385.1
397.429	378.32
397.808	383.07
398.186	357.76
398.565	360.92
398.944	356.18
399.323	387.81
399.701	399.34
400.08	374.48
400.458	414.48
400.837	388.72
401.215	397.76
401.594	397.53
401.972	400.7
402.351	404.76
402.729	377.87
403.107	370.87
403.486	387.81
403.864	373.8
404.242	407.25
404.62	414.03
404.999	390.98
405.377	394.82
405.755	417.87
406.133	430.53
406.511	407.25
406.889	415.84
407.267	437.08
407.645	412.22
408.023	398.44
408.401	427.59
408.779	446.34
409.156	414.48
409.534	407.25
409.912	431.66
410.29	442.5
410.667	423.07
411.045	442.95
411.422	428.72
411.8	433.92
412.178	446.34
412.555	448.38
412.933	450.86
413.31	444.54
413.687	444.31
414.065	471.43
414.442	446.57
414.819	455.61
415.197	437.08
415.574	462.39
415.951	477.98
416.328	448.83
416.705	463.97
417.082	466.91
417.46	470.07
417.837	482.95
418.214	481.82
418.591	485.21
418.967	465.78
419.344	492.9
419.721	497.64
420.098	493.35
420.475	487.7
420.852	488.15
421.228	477.3
421.605	488.38
421.982	505.1
422.358	509.39
422.735	501.26
423.111	512.33
423.488	524.53
423.864	525.89
424.241	495.38
424.617	527.7
424.994	520.24
425.37	524.31
425.746	535.83
426.123	521.37
426.499	532.22
426.875	553.69
427.251	562.5
427.627	542.39
428.003	558.66
428.379	565.66
428.756	528.83
429.132	552.1
429.507	562.27
429.883	557.3
430.259	580.35
430.635	563.4
431.011	557.75
431.387	586
431.763	597.53
432.138	590.3
432.514	590.75
432.89	607.24
433.265	588.04
433.641	618.09
434.016	623.51
434.392	609.73
434.767	622.84
435.143	628.26
435.518	637.07
435.894	627.36
436.269	634.36
436.644	639.79
437.02	646.11
437.395	630.97
437.77	646.79
438.145	653.8
438.52	655.38
438.895	649.05
439.271	652.89
439.646	694.25
440.021	658.54
440.395	673.23
440.77	675.26
441.145	695.6
441.52	697.64
441.895	710.97
442.27	682.72
442.645	688.15
443.019	701.93
443.394	715.49
443.769	712.78
444.143	719.78
444.518	701.03
444.892	717.07
445.267	724.53
445.641	742.61
446.016	733.57
446.39	713.91
446.764	741.03
447.139	736.05
447.513	743.29
447.887	746
448.262	752.78
448.636	768.14
449.01	757.3
449.384	760.91
449.758	767.24
450.132	751.87
450.506	769.73
450.88	767.24
451.254	777.18
451.628	785.09
452.002	793.23
452.376	813.57
452.75	806.56
453.123	814.47
453.497	813.57
453.871	832.32
454.244	840.23
454.618	859.67
454.992	849.72
455.365	842.94
455.739	891.98
456.112	868.93
456.486	880.23
456.859	897.86
457.232	887.46
457.606	904.19
457.979	922.72
458.352	912.32
458.725	941.47
459.099	957.97
459.472	955.71
459.845	974.69
460.218	986.22
460.591	985.31
460.964	988.93
461.337	1005.88
461.71	996.39
462.083	1027.12
462.456	1026.22
462.829	1038.42
463.201	1048.14
463.574	1072.77
463.947	1083.84
464.32	1117.74
464.692	1102.82
465.065	1108.02
465.438	1137.4
465.81	1123.84
466.183	1166.78
466.555	1192.54
466.928	1187.34
467.3	1202.48
467.672	1202.48
468.045	1247
468.417	1242.03
468.789	1267.34
469.161	1289.94
469.534	1308.92
469.906	1322.48
470.278	1353.66
470.65	1383.72
471.022	1388.24
471.394	1416.49
471.766	1455.13
472.138	1474.79
472.51	1522.02
472.882	1552.98
473.253	1567.9
473.625	1599.99
473.997	1642.92
474.369	1658.52
474.74	1676.14
475.112	1706.65
475.484	1773.77
475.855	1795.01
476.227	1831.62
476.598	1875.23
476.97	1963.37
477.341	2013.76
477.713	2028.22
478.084	2072.06
478.455	2133.98
478.827	2190.25
479.198	2273.87
479.569	2298.5
479.94	2416.46
480.311	2451.94
480.682	2504.37
481.053	2611.94
481.424	2684.03
481.795	2761.99
482.166	2798.37
482.537	2831.59
482.908	3011.93
483.279	3022.55
483.65	3109.33
484.021	3234.52
484.391	3305.25
484.762	3409.2
485.133	3459.82
485.503	3538.69
485.874	3647.84
486.244	3724.22
486.615	3887.16
486.985	3943.43
487.356	4068.17
487.726	4152.91
488.097	4316.75
488.467	4395.17
488.837	4529.63
489.207	4674.71
489.578	4806.23
489.948	4893.23
490.318	4990.63
490.688	5080.12
491.058	5277.86
491.428	5393.11
491.798	5538.41
492.168	5650.5
492.538	5696.15
492.908	5860.21
493.278	5971.4
493.648	6110.15
494.017	6211.62
494.387	6349.92
494.757	6431.27
495.126	6623.36
495.496	6654.54
495.866	6861.54
496.235	6954.65
496.605	7057.92
496.974	7169.56
497.344	7341.08
497.713	7440.74
498.082	7587.63
498.452	7732.48
498.821	7802.99
499.19	7975.19
499.559	8021.96
499.928	8174.95
500.298	8261.51
500.667	8390.32
501.036	8486.36
501.405	8672.12
501.774	8711.44
502.143	8868.95
502.512	8934.03
502.88	9082.28
503.249	9149.84
503.618	9280.01
503.987	9354.13
504.356	9459.89
504.724	9598.42
505.093	9687.46
505.462	9681.36
505.83	9900.56
506.199	10006.32
506.567	10169.03
506.936	10223.04
507.304	10416.93
507.672	10541.22
508.041	10625.06
508.409	10687.66
508.777	10811.27
509.145	10936.92
509.514	10936.24
509.882	11072.28
510.25	11243.12
510.618	11235.89
510.986	11408.54
511.354	11494.42
511.722	11640.85
512.09	11752.94
512.458	11756.33
512.826	11923.33
513.193	12078.81
513.561	12055.08
513.929	12215.3
514.297	12302.98
514.664	12455.07
515.032	12484.22
515.4	12632.46
515.767	12739.58
516.135	12801.95
516.502	12827.94
516.869	13051.89
517.237	13098.21
517.604	13034.49
517.972	13314.93
518.339	13425.66
518.706	13483.74
519.073	13570.07
519.44	13614.81
519.808	13683.06
520.175	13825.88
520.542	13960.79
520.909	14053.67
521.276	14151.75
521.643	14323.04
522.009	14281.91
522.376	14445.07
522.743	14459.99
523.11	14718.51
523.477	14855.91
523.843	14931.61
524.21	15009.13
524.577	15250.25
524.943	15318.27
525.31	15304.48
525.676	15545.16
526.043	15613.4
526.409	15671.48
526.776	15853.4
527.142	15886.16
527.508	16093.62
527.874	16163.45
528.241	16201.86
528.607	16280.73
528.973	16493.38
529.339	16577.9
529.705	16715.97
530.071	16822.41
530.437	16799.36
530.803	17007.72
531.169	17109.86
531.535	17066.02
531.901	17158.45
532.267	17188.95
532.632	17342.85
532.998	17440.02
533.364	17548.04
533.73	17643.86
534.095	17687.47
534.461	17768.83
534.826	17924.3
535.192	17975.6
535.557	18087.01
535.923	18068.93
536.288	18091.76
536.653	18300.34
537.019	18213.56
537.384	18366.78
537.749	18512.31
538.114	18458.07
538.479	18460.79
538.845	18597.96
539.21	18618.52
539.575	18714.34
539.94	18902.58
540.305	18968.8
540.67	18955.46
541.034	18947.55
541.399	19141.67
541.764	19209.24
542.129	19221.67
542.494	19289.92
542.858	19312.97
543.223	19393.87
543.587	19428.9
543.952	19460.53
544.316	19608.33
544.681	19657.14
545.045	19804.03
545.41	19742.79
545.774	19940.07
546.138	19877.25
546.503	20025.49
546.867	19967.86
547.231	20270
547.595	20250.57
547.959	20343.22
548.324	20215.77
548.688	20354.75
549.052	20527.4
549.416	20498.92
549.779	20563.56
550.143	20686.49
550.507	20712.48
550.871	20800.84
551.235	20769.43
551.599	20986.6
551.962	20976.65
552.326	21105.91
552.689	21186.14
553.053	21103.88
553.417	21115.86
553.78	21547.26
554.143	21413.48
554.507	21525.34
554.87	21524.89
555.234	21817.08
555.597	21664.32
555.96	21812.79
556.323	21993.35
556.686	21933.46
557.05	22068.15
557.413	22122.84
557.776	22227.01
558.139	22389.72
558.502	22463.17
558.865	22479.21
559.228	22536.84
559.59	22652.99
559.953	22719.66
560.316	22926.88
560.679	22913.78
561.041	23059.31
561.404	23266.99
561.767	23276.03
562.129	23277.83
562.492	23554.44
562.854	23513.99
563.217	23391.28
563.579	23582.23
563.941	23756.47
564.304	23854.09
564.666	24006.18
565.028	24004.14
565.39	24077.59
565.753	24278.26
566.115	24312.61
566.477	24456.11
566.839	24507.18
567.201	24755.54
567.563	24709.21
567.925	24777.91
568.287	24796.89
568.648	24826.72
569.01	25057.9
569.372	25266.71
569.734	25223.32
570.095	25342.64
570.457	25550.32
570.819	25549.19
571.18	25458.12
571.542	25822.63
571.903	25735.4
572.265	25823.3
572.626	25900.59
572.987	26014.49
573.349	26256.96
573.71	26221.49
574.071	26311.65
574.432	26421.03
574.794	26545.32
575.155	26564.53
575.516	26531.08
575.877	26721.81
576.238	26841.36
576.599	26954.12
576.96	27008.58
577.32	27031.18
577.681	27303.72
578.042	27279.08
578.403	27373.32
578.763	27515.01
579.124	27564.5
579.485	27650.83
579.845	27847.66
580.206	27793.87
580.566	27891.27
580.927	27936.02
581.287	28159.29
581.648	28112.06
582.008	28240.64
582.368	28389.56
582.728	28500.52
583.089	28524.93
583.449	28672.72
583.809	28725.6
584.169	28895.09
584.529	28893.96
584.889	29112.03
585.249	29063.9
585.609	29089.43
585.969	29329.88
586.329	29307.96
586.688	29602.41
587.048	29585.69
587.408	29575.52
587.768	29620.72
588.127	29715.41
588.487	29824.55
588.846	30183.19
589.206	30067.03
589.565	30176.41
589.925	30429.28
590.284	30234.71
590.643	30486.01
591.003	30671.54
591.362	30751.76
591.721	30928.71
592.08	30954.92
592.44	31120.11
592.799	31349.94
593.158	31285.53
593.517	31368.69
593.876	31522.59
594.235	31292.09
594.593	31471.07
594.952	31691.17
595.311	31633.32
595.67	31866.31
596.029	32075.8
596.387	32177.49
596.746	32317.82
597.104	32171.61
597.463	32307.43
597.822	32502.68
598.18	32443.69
598.538	32501.09
598.897	32809.34
599.255	32568.44
599.613	33101.98
599.972	32910.58
600.33	33167.74
600.688	32935.89
601.046	33180.17
601.404	33361.18
601.762	33358.02
602.12	33595.98
602.478	33620.39
602.836	33590.78
603.194	33591.24
603.552	33531.8
603.91	33706.49
604.268	33932.02
604.625	33800.5
604.983	33965.01
605.341	33905.13
605.698	34215.85
606.056	34341.95
606.413	34241.39
606.771	34380.59
607.128	34702.62
607.485	34452
607.843	34486.13
608.2	34766.8
608.557	34918.43
608.914	34867.36
609.272	34918.66
609.629	35018.99
609.986	35118.88
610.343	35142.16
610.7	35434.35
611.057	35433.22
611.414	35433.9
611.771	35544.63
612.127	35641.8
612.484	35600.45
612.841	35869.59
613.198	35636.15
613.554	35837.05
613.911	36144.39
614.267	36033.21
614.624	36010.38
614.98	36056.71
615.337	36260.54
615.693	36303.71
616.05	36343.71
616.406	36573.3
616.762	36327.66
617.118	36415.12
617.475	36496.24
617.831	36749.34
618.187	36626.41
618.543	36835.44
618.899	37191.82
619.255	36941.43
619.611	36974.65
619.967	37049.45
620.323	37240.63
620.678	37128.32
621.034	37102.78
621.39	37068.43
621.746	37119.73
622.101	37494.64
622.457	37138.03
622.812	37282.44
623.168	37503.45
623.523	37367.86
623.879	37530.57
624.234	37396.79
624.589	37428.87
624.945	37609.66
625.3	37654.18
625.655	37615.99
626.01	37590.9
626.365	37621.64
626.72	37521.98
627.075	37578.93
627.43	37660.73
627.785	37677.46
628.14	37728.98
628.495	37703.22
628.85	37713.61
629.205	37647.63
629.559	37839.71
629.914	37737.12
630.269	37767.85
630.623	37576.67
630.978	37504.58
631.332	37732.82
631.687	37857.79
632.041	37655.31
632.396	37808.98
632.75	37639.04
633.104	37708.42
633.459	37512.94
633.813	37551.13
634.167	37496.22
634.521	37620.96
634.875	37654.18
635.229	37661.41
635.583	37408.54
635.937	37538.25
636.291	37391.36
636.645	37428.87
636.999	37432.94
637.352	37507.06
637.706	37271.59
638.06	37428.87
638.413	37518.82
638.767	37235.66
639.121	37309.33
639.474	37219.16
639.828	37247.86
640.181	37273.62
640.534	37370.12
640.888	37238.37
641.241	37140.07
641.594	37180.52
641.947	37308.88
642.301	37135.55
642.654	37256.68
643.007	37170.12
643.36	37079.96
643.713	37004.25
644.066	37178.71
644.419	36907.31
644.771	36650.14
645.124	36289.02
645.477	36327.89
645.83	36061.23
646.182	35951.4
646.535	35797.05
646.888	35898.75
647.24	35686.1
647.593	35930.16
647.945	35809.48
648.298	35729.48
648.65	35638.19
649.002	35609.94
649.355	35712.54
649.707	35669.37
650.059	35828.92
650.411	36216.48
650.763	36209.47
651.115	36696.69
651.467	36545.51
651.819	36495.11
652.171	36372.63
652.523	36365.63
652.875	36324.95
653.227	36159.76
653.578	36491.5
653.93	36153.43
654.282	36260.77
654.633	36284.72
654.985	36141.68
655.337	36284.72
655.688	36243.14
656.039	36319.3
656.391	36112.3
656.742	36152.3
657.094	36033.88
657.445	36312.07
657.796	36122.92
658.147	36014.22
658.498	35997.95
658.849	36063.49
659.2	35937.84
659.551	36002.92
659.902	36098.74
660.253	36083.37
660.604	36105.29
660.955	35803.15
661.306	36131.51
661.656	35857.16
662.007	36002.25
662.358	36032.98
662.708	36019.65
663.059	35924.73
663.409	35682.93
663.76	36037.27
664.11	36059.19
664.461	35988.46
664.811	35998.18
665.161	36059.42
665.511	35850.16
665.862	35876.15
666.212	36024.17
666.562	36021.23
666.912	36025.07
667.262	35890.84
667.612	35893.55
667.962	36014.67
668.312	35791.63
668.662	35980.78
669.011	35773.1
669.361	35809.93
669.711	35675.93
670.06	35862.81
670.41	35659.66
670.76	35698.52
671.109	35779.43
671.459	35705.53
671.808	35681.35
672.157	35715.47
672.507	35529.49
672.856	35530.39
673.205	35654.46
673.554	35636.83
673.904	35508.47
674.253	35723.38
674.602	35584.63
674.951	35094.47
675.3	35008.83
675.649	35375.6
675.998	35431.86
676.346	35519.77
676.695	35477.51
677.044	35373.56
677.393	35424.18
677.741	35282.72
678.09	35443.16
678.438	35307.8
678.787	35367.23
679.135	35319.78
679.484	35042.5
679.832	35291.3
680.181	35040.01
680.529	35188.93
680.877	35068.26
681.225	35030.07
681.573	35111.87
681.922	34938.32
682.27	34868.72
682.618	34786.68
682.966	34747.82
683.314	34823.52
683.661	34766.57
684.009	34696.52
684.357	34506.24
684.705	34518.22
685.053	34592.11
685.4	34506.92
685.748	34341.95
686.095	34363.87
686.443	34266.47
686.79	34094.27
687.138	34147.6
687.485	34254.27
687.832	34114.16
688.18	34100.15
688.527	33929.98
688.874	33891.34
689.221	33744.68
689.568	33671.91
689.915	33603.89
690.262	33656.09
690.609	33478.02
690.956	33444.35
691.303	33390.79
691.65	33239.38
691.997	33289.32
692.344	33135.43
692.69	33058.82
693.037	32974.08
693.383	32854.98
693.73	32991.48
694.077	32688.21
694.423	32806.62
694.769	32512.17
695.116	32685.95
695.462	32517.82
695.808	32412.51
696.155	32428.1
696.501	32144.95
696.847	32245.06
697.193	32033.76
697.539	32194.21
697.885	31879.64
698.231	31812.3
698.577	31815.91
698.923	31743.15
699.269	31518.52
699.614	31427.68
699.96	31349.94
700.306	31511.97
700.651	31383.61
700.997	31163.05
701.342	31247.34
701.688	31110.62
702.033	30926.9
702.379	31010.74
702.724	30841.03
703.069	30873.11
703.415	30711.09
703.76	30572.33
704.105	30653.91
704.45	30531.2
704.795	30354.94
705.14	30231.78
705.485	30340.02
705.83	30197.43
706.175	30171.21
706.52	30077.66
706.865	29932.12
707.209	29891.9
707.554	29809.19
707.899	29910.2
708.243	29697.78
708.588	29675.18
708.932	29482.19
709.277	29496.88
709.621	29473.6
709.966	29389.54
710.31	29291.46
710.654	29169.66
710.998	29128.53
711.342	29150.9
711.687	29137.57
712.031	28983.9
712.375	28832.04
712.719	28911.58
713.063	28856.44
713.407	29012.6
713.75	28796.33
714.094	28760.85
714.438	28719.05
714.782	28665.72
715.125	28418.94
715.469	28541.2
715.812	28387.98
716.156	28213.52
716.499	28284.26
716.843	28245.16
717.186	28070.48
717.53	28340.3
717.873	28177.82
718.216	28162.9
718.559	27848.34
718.902	27786.19
719.246	27886.53
719.589	27740.99
719.932	27692.86
720.275	27759.98
720.617	27693.99
720.96	27578.51
721.303	27685.85
721.646	27625.52
721.989	27375.13
722.331	27447.67
722.674	27390.49
723.016	27430.72
723.359	27415.8
723.701	27394.56
724.044	27125.64
724.386	27098.75
724.729	27262.14
725.071	27101.01
725.413	27166.55
725.755	27061.92
726.097	26904.63
726.439	26906.89
726.782	26858.08
727.124	26944.86
727.465	26784.41
727.807	26800.45
728.149	26675.71
728.491	26712.77
728.833	26747.57
729.175	26470.29
729.516	26510.74
729.858	26564.98
730.199	26581.25
730.541	26349.39
730.882	26394.81
731.224	26425.32
731.565	26237.3
731.906	26237.98
732.248	26285.66
732.589	26190.53
732.93	26162.28
733.271	26042.96
733.612	26118.66
733.953	26176.52
734.294	26039.34
734.635	26077.31
734.976	26128.38
735.317	25851.55
735.658	25841.16
735.999	25834.83
736.339	25657.43
736.68	25868.27
737.021	25782.18
737.361	25529.98
737.702	25903.98
738.042	25542.18
738.383	25614.27
738.723	25597.32
739.063	25534.05
739.404	25590.99
739.744	25348.29
740.084	25492.24
740.424	25491.34
740.764	25308.52
741.104	25421.51
741.444	25287.95
741.784	25184.22
742.124	25129.31
742.464	25159.59
742.804	25179.48
743.143	25078.69
743.483	25075.08
743.823	24964.8
744.162	24918.92
744.502	24984.68
744.841	24773.39
745.181	24976.77
745.52	24738.59
745.86	24907.85
746.199	24724.35
746.538	24720.51
746.877	24774.52
747.216	24706.05
747.556	24645.26
747.895	24616.33
748.234	24502.66
748.573	24503.34
748.911	24462.89
749.25	24473.28
749.589	24367.3
749.928	24291.59
750.267	24424.7
750.605	24270.35
750.944	24309.22
751.283	24160.07
751.621	24191.03
751.96	24108.09
752.298	24126.4
752.636	24056.12
752.975	24006.63
753.313	23837.59
753.651	23903.13
753.989	23817.03
754.327	23786.3
754.666	23678.5
755.004	23685.28
755.342	23725.28
755.679	23577.49
756.017	23552.18
756.355	23510.82
756.693	23464.5
757.031	23420.2
757.368	23300.88
757.706	23295.23
758.044	23203.03
758.381	23261.11
758.719	23115.35
759.056	23141.57
759.394	23094.79
759.731	22977.5
760.068	22770.5
760.405	22790.84
760.743	22725.53
761.08	22737.96
761.417	22633.56
761.754	22580.23
762.091	22557.4
762.428	22448.7
762.765	22212.55
763.102	22367.35
763.438	22260.23
763.775	22179.78
764.112	22095.04
764.449	22137.53
764.785	21995.38
765.122	21927.14
765.458	21832.67
765.795	21744.32
766.131	21793.58
766.467	21673.36
766.804	21660.25
767.14	21494.38
767.476	21563.98
767.812	21377.09
768.148	21372.57
768.485	21320.82
768.821	21179.36
769.157	21146.14
769.492	21107.27
769.828	21032.02
770.164	20789.54
770.5	20780.05
770.836	20897.33
771.171	20711.35
771.507	20683.78
771.842	20437.46
772.178	20548.87
772.513	20429.32
772.849	20296.44
773.184	20302.32
773.519	20296.44
773.855	20102.1
774.19	20057.58
774.525	20141.65
774.86	19915.21
775.195	19944.81
775.53	19744.59
775.865	19820.3
776.2	19603.58
776.535	19412.63
776.87	19460.31
777.205	19459.63
777.539	19334.44
777.874	19435.22
778.209	19203.37
778.543	19163.59
778.878	19074.55
779.212	18995.24
779.547	18958.63
779.881	19047.44
780.215	18790.27
780.55	18839.31
780.884	18627.11
781.218	18724.28
781.552	18667.11
781.886	18649.48
782.22	18380.56
782.554	18414.01
782.888	18224.63
783.222	18244.29
783.556	18207.23
783.889	18080.46
784.223	17921.36
784.557	17847.69
784.89	17954.13
785.224	17769.05
785.557	17761.6
785.891	17659
786.224	17644.54
786.558	17561.15
786.891	17463.98
787.224	17367.93
787.557	17364.54
787.891	17370.64
788.224	17310.53
788.557	17269.4
788.89	17282.06
789.223	17189.18
789.556	16983.08
789.888	16964.33
790.221	17018.11
790.554	16779.25
790.887	16819.02
791.219	16748.29
791.552	16674.39
791.884	16555.07
792.217	16665.8
792.549	16548.07
792.882	16407.73
793.214	16251.13
793.546	16312.37
793.879	16297
794.211	16198.92
794.543	16167.96
794.875	16143.56
795.207	16118.47
795.539	15998.03
795.871	15958.03
796.203	15918.03
796.535	15817.01
796.867	15745.6
797.198	15691.59
797.53	15696.79
797.862	15639.62
798.193	15633.06
798.525	15503.12
798.856	15547.42
799.188	15333.18
799.519	15338.38
799.85	15203.7
800.182	15356.23
800.513	15287.76
800.844	15080.76
801.175	15205.28
801.506	15118.73
801.837	15068.56
802.168	15115.11
802.499	14975.23
802.83	14949.47
803.161	14888.68
803.491	14875.57
803.822	14842.12
804.153	14747.44
804.483	14581.11
804.814	14618.17
805.145	14747.21
805.475	14565.97
805.805	14465.18
806.136	14556.71
806.466	14488.23
806.796	14416.37
807.126	14351.29
807.457	14339.76
807.787	14287.34
808.117	14207.79
808.447	14121.01
808.777	14182.48
809.107	14133.67
809.436	14080.11
809.766	14092.77
810.096	13985.2
810.426	13882.83
810.755	14000.56
811.085	13909.27
811.414	13863.17
811.744	13829.72
812.073	13725.77
812.403	13805.31
812.732	13692.32
813.061	13676.96
813.39	13663.4
813.719	13498.66
814.049	13599.9
814.378	13551.31
814.707	13529.62
815.036	13467.24
815.365	13444.19
815.693	13322.39
816.022	13396.51
816.351	13287.14
816.68	13192.9
817.008	13264.76
817.337	13176.63
817.665	13112
817.994	13179.12
818.322	13121.72
818.651	13097.99
818.979	13075.62
819.307	13055.73
819.636	12994.71
819.964	12900.71
820.292	12978.44
820.62	12977.09
820.948	12857.54
821.276	12961.95
821.604	12839.24
821.932	12917.65
822.259	12948.84
822.587	12893.93
822.915	12808.73
823.243	12858
823.57	12838.56
823.898	12822.74
824.225	12847.6
824.553	12826.36
824.88	12809.41
825.207	12805.12
825.535	12751.78
825.862	12805.34
826.189	12814.83
826.516	12876.75
826.843	12863.87
827.17	12857.77
827.497	12800.37
827.824	12855.06
828.151	12800.6
828.478	12798.34
828.805	12939.12
829.131	12781.39
829.458	12747.94
829.785	12674.72
830.111	12782.29
830.438	12848.73
830.764	12736.42
831.09	12710.43
831.417	12710.43
831.743	12729.86
832.069	12767.15
832.395	12750.65
832.722	12747.04
833.048	12716.76
833.374	12655.06
833.7	12663.2
834.026	12637.89
834.351	12615.97
834.677	12672.92
835.003	12745
835.329	12658.68
835.654	12666.36
835.98	12550.43
836.306	12557.44
836.631	12522.64
836.956	12595.18
837.282	12530.09
837.607	12469.98
837.932	12531.68
838.258	12480.83
838.583	12381.4
838.908	12289.87
839.233	12417.78
839.558	12361.96
839.883	12272.02
840.208	12251.91
840.533	12302.98
840.858	12246.49
841.182	12270.44
841.507	12302.53
841.832	12163.32
842.156	12104.79
842.481	12133.95
842.805	12100.05
843.13	11976.66
843.454	12039.71
843.778	12034.74
844.103	11956.55
844.427	11911.13
844.751	11906.16
845.075	11931.47
845.399	11908.64
845.723	11773.5
846.047	11802.88
846.371	11726.27
846.695	11791.13
847.019	11703.68
847.343	11587.29
847.666	11508.88
847.99	11499.84
848.313	11499.61
848.637	11321.54
848.96	11401.99
849.284	11354.76
849.607	11246.96
849.931	11241.54
850.254	11188.89
850.577	11092.17
850.9	11072.28
851.223	11055.56
851.546	11015.33
851.869	10880.19
852.192	10998.61
852.515	10845.84
852.838	10847.65
853.161	10903.24
853.483	10781.21
853.806	10790.03
854.129	10698.96
854.451	10686.3
854.774	10594.1
855.096	10524.72
855.419	10570.37
855.741	10464.39
856.063	10458.96
856.385	10491.96
856.708	10504.84
857.03	10333.54
857.352	10349.81
857.674	10312.53
857.996	10335.58
858.318	10222.81
858.64	10240.44
858.961	10248.12
859.283	10218.29
859.605	10084.96
859.926	10129.71
860.248	10083.6
860.57	10051.52
860.891	10071.63
861.212	9906.89
861.534	9970.61
861.855	9987.56
862.176	9997.51
862.498	9978.52
862.819	9956.15
863.14	9934.23
863.461	9873.67
863.782	9800.45
864.103	9821.24
864.424	9828.02
864.745	9844.74
865.065	9778.75
865.386	9736.5
865.707	9749.83
866.027	9728.13
866.348	9734.69
866.668	9701.69
866.989	9687.23
867.309	9632.09
867.63	9613.11
867.95	9598.87
868.27	9583.28
868.59	9585.54
868.91	9552.55
869.23	9519.33
869.55	9473.68
869.87	9573.56
870.19	9524.07
870.51	9484.3
870.83	9518.87
871.15	9499.21
871.469	9450.85
871.789	9435.94
872.109	9494.69
872.428	9384.64
872.748	9467.12
873.067	9384.41
873.386	9405.66
873.706	9373.79
874.025	9279.33
874.344	9315.72
874.663	9307.13
874.982	9262.61
875.301	9297.18
875.62	9206.79
875.939	9221.93
876.258	9181.26
876.577	9139.67
876.896	9181.71
877.214	9165.89
877.533	9148.26
877.852	9130.41
878.17	9093.35
878.489	9068.49
878.807	9115.27
879.125	9143.52
879.444	9039.79
879.762	9027.81
880.08	9101.03
880.398	8954.82
880.716	8976.97
881.034	8929.06
881.352	8935.16
881.67	8902.85
881.988	8936.06
882.306	8902.17
882.624	8883.18
882.941	8856.07
883.259	8787.14
883.577	8832.34
883.894	8804.09
884.212	8762.51
884.529	8712.79
884.846	8710.76
885.164	8718.9
885.481	8681.83
885.798	8766.35
886.115	8655.39
886.432	8648.39
886.75	8618.56
887.067	8611.1
887.383	8567.26
887.7	8599.12
888.017	8579.69
888.334	8533.14
888.651	8505.34
888.967	8464.89
889.284	8446.59
889.6	8418.34
889.917	8348.96
890.233	8372.69
890.55	8373.14
890.866	8346.25
891.182	8245.24
891.498	8266.03
891.815	8281.84
892.131	8184.67
892.447	8225.8
892.763	8158.23
893.079	8161.17
893.395	8101.28
893.71	8094.05
894.026	8067.39
894.342	8136.31
894.657	7985.13
894.973	8061.74
895.289	8015.64
895.604	8004.79
895.92	7888.86
896.235	7941.97
896.55	7853.38
896.865	7875.53
897.181	7828.52
897.496	7882.98
897.811	7768.64
898.126	7760.05
898.441	7739.26
898.756	7725.47
899.071	7641.64
899.386	7621.3
899.7	7506.27
900.015	7614.97
900.33	7492.71
900.644	7515.54
900.959	7556.44
901.273	7499.49
901.588	7470.34
901.902	7450.68
902.216	7413.84
902.531	7390.12
902.845	7337.24
903.159	7278.25
903.473	7355.09
903.787	7277.13
904.101	7250.23
904.415	7228.76
904.729	7166.85
905.042	7133.4
905.356	7101.99
905.67	7185.38
905.984	7089.33
906.297	7056.79
906.611	7028.77
906.924	6939.28
907.237	6924.59
907.551	6942.22
907.864	6945.38
908.177	6877.81
908.491	6941.09
908.804	6817.25
909.117	6849.57
909.43	6778.61
909.743	6760.3
910.056	6739.96
910.368	6699.06
910.681	6652.28
910.994	6591.27
911.307	6632.62
911.619	6571.38
911.932	6537.71
912.244	6482.57
912.557	6520.31
912.869	6485.28
913.181	6474.21
913.494	6428.79
913.806	6395.57
914.118	6351.5
914.43	6388.56
914.742	6352.4
915.054	6277.83
915.366	6266.53
915.678	6240.32
915.99	6229.47
916.302	6198.28
916.613	6175.01
916.925	6111.05
917.236	6177.27
917.548	6075.57
917.859	6084.16
918.171	6051.17
918.482	6015.46
918.794	5992.64
919.105	6037.61
919.416	5929.59
919.727	5959.42
920.038	5905.86
920.349	5863.83
920.66	5878.74
920.971	5857.05
921.282	5769.14
921.593	5842.13
921.903	5707.22
922.214	5727.56
922.525	5760.1
922.835	5669.71
923.146	5677.85
923.456	5652.31
923.767	5648.92
924.077	5602.14
924.387	5551.75
924.697	5525.76
925.008	5559.88
925.318	5516.49
925.628	5515.36
925.938	5462.26
926.248	5450.96
926.558	5398.76
926.867	5379.77
927.177	5395.14
927.487	5353.56
927.796	5314.92
928.106	5273.56
928.416	5279.21
928.725	5303.84
929.034	5243.51
929.344	5272.66
929.653	5243.96
929.962	5144.53
930.271	5189.95
930.581	5152.66
930.89	5096.84
931.199	5099.56
931.508	5100.01
931.817	5083.74
932.125	5017.98
932.434	5019.78
932.743	4976.39
933.051	4971.42
933.36	4909.96
933.669	4913.35
933.977	4864.53
934.286	4894.59
934.594	4863.18
934.902	4810.98
935.21	4794.03
935.519	4812.56
935.827	4798.55
936.135	4728.49
936.443	4730.3
936.751	4702.5
937.059	4674.03
937.367	4668.61
937.674	4634.93
937.982	4650.08
938.29	4621.38
938.597	4586.8
938.905	4567.59
939.213	4545.45
939.52	4520.14
939.827	4547.03
940.135	4524.43
940.442	4454.6
940.749	4504.32
941.056	4430.42
941.363	4367.15
941.67	4423.41
941.977	4389.07
942.284	4331.89
942.591	4349.74
942.898	4347.71
943.205	4300.71
943.511	4279.24
943.818	4271.1
944.125	4227.71
944.431	4234.04
944.738	4210.76
945.044	4205.57
945.35	4184.78
945.657	4122.86
945.963	4141.61
946.269	4126.47
946.575	4116.98
946.881	4077.21
947.187	4064.78
947.493	4032.46
947.799	4058.9
948.105	4034.72
948.41	3962.64
948.716	4004.89
949.022	3963.99
949.327	3951.79
949.633	3895.07
949.938	3935.52
950.244	3905.24
950.549	3895.97
950.854	3869.76
951.16	3861.85
951.465	3847.61
951.77	3835.63
952.075	3780.95
952.38	3799.7
952.685	3797.89
952.99	3783.66
953.294	3700.5
953.599	3730.1
953.904	3760.83
954.209	3650.78
954.513	3704.34
954.818	3678.58
955.122	3627.96
955.426	3670.89
955.731	3615.3
956.035	3634.96
956.339	3552.7
956.643	3567.62
956.948	3529.65
957.252	3550.44
957.556	3525.81
957.86	3529.2
958.163	3494.4
958.467	3514.06
958.771	3507.96
959.075	3446.49
959.378	3442.2
959.682	3452.37
959.985	3427.73
960.289	3386.38
960.592	3404.68
960.896	3322.65
961.199	3354.29
961.502	3380.05
961.805	3343.67
962.108	3325.82
962.411	3290.56
962.714	3258.25
963.017	3260.06
963.32	3240.62
963.623	3264.35
963.926	3230.9
964.228	3199.49
964.531	3206.95
964.833	3189.32
965.136	3160.4
965.438	3179.38
965.741	3126.95
966.043	3136.44
966.345	3116.1
966.648	3082.43
966.95	3106.39
967.252	3096.9
967.554	3046.28
967.856	3021.64
968.158	3044.02
968.46	3026.84
968.761	3026.62
969.063	2947.97
969.365	2999.95
969.666	2989.33
969.968	2937.35
970.269	2959.95
970.571	2926.5
970.872	2919.95
971.174	2905.94
971.475	2896.9
971.776	2880.4
972.077	2880.18
972.378	2863.91
972.679	2870.24
972.98	2860.74
973.281	2784.59
973.582	2821.65
973.883	2812.16
974.183	2797.47
974.484	2787.75
974.785	2767.19
975.085	2742.78
975.386	2747.3
975.686	2726.74
975.986	2710.01
976.287	2710.47
976.587	2680.64
976.887	2651.26
977.187	2692.61
977.487	2641.31
977.787	2639.96
978.087	2630.92
978.387	2642.22
978.687	2618.49
978.987	2562.9
979.286	2569
979.586	2572.84
979.885	2532.39
980.185	2551.37
980.484	2544.14
980.784	2508.89
981.083	2495.56
981.382	2467.31
981.682	2474.31
981.981	2492.62
982.28	2435.67
982.579	2454.65
982.878	2475.44
983.177	2450.36
983.475	2431.83
983.774	2411.26
984.073	2395.67
984.372	2383.47
984.67	2398.16
984.969	2398.84
985.267	2416.69
985.566	2351.6
985.864	2351.83
986.162	2351.83
986.461	2340.76
986.759	2326.07
987.057	2306.86
987.355	2336.01
987.653	2314.54
987.951	2238.39
988.249	2302.79
988.547	2239.97
988.844	2247.88
989.142	2247.65
989.44	2232.51
989.737	2192.96
990.035	2225.51
990.332	2192.29
990.63	2204.04
990.927	2225.28
991.224	2183.7
991.521	2148.9
991.819	2150.93
992.116	2138.05
992.413	2137.6
992.71	2111.16
993.006	2126.75
993.303	2101.44
993.6	2116.58
993.897	2109.35
994.193	2050.6
994.49	2037.04
994.787	2072.29
995.083	2071.16
995.379	2037.71
995.676	2030.94
995.972	2033.42
996.268	2022.12
996.565	2002.91
996.861	1976.7
997.157	1957.49
997.453	1979.64
997.749	1945.06
998.044	1948.23
998.34	1937.6
998.636	1964.5
998.932	1935.12
999.227	1893.09
999.523	1903.93
999.818	1922.92
1000.114	1883.14
1000.409	1882.92
1000.704	1860.77
1001	1843.82
1001.295	1874.1
1001.59	1829.58
1001.885	1857.15
1002.18	1831.84
1002.475	1803.37
1002.77	1802.47
1003.065	1802.69
1003.359	1798.4
1003.654	1773.77
1003.949	1749.59
1004.243	1777.38
1004.538	1719.76
1004.832	1759.76
1005.127	1722.69
1005.421	1710.04
1005.715	1697.16
1006.009	1715.01
1006.304	1710.49
1006.598	1651.28
1006.892	1666.43
1007.186	1667.33
1007.48	1630.49
1007.773	1628.46
1008.067	1647.67
1008.361	1622.58
1008.655	1616.26
1008.948	1615.58
1009.242	1604.28
1009.535	1614.45
1009.829	1580.33
1010.122	1549.82
1010.415	1557.05
1010.708	1552.98
1011.001	1565.18
1011.295	1532.19
1011.588	1523.38
1011.881	1521.8
1012.173	1512.76
1012.466	1504.4
1012.759	1497.16
1013.052	1500.1
1013.344	1490.61
1013.637	1481.57
1013.93	1470.05
1014.222	1446.54
1014.514	1453.55
1014.807	1436.83
1015.099	1451.97
1015.391	1422.14
1015.683	1421.46
1015.976	1441.12
1016.268	1413.55
1016.56	1403.38
1016.851	1380.56
1017.143	1369.03
1017.435	1402.7
1017.727	1384.17
1018.018	1348.69
1018.31	1365.19
1018.602	1315.93
1018.893	1341.24
1019.185	1326.55
1019.476	1279.32
1019.767	1289.03
1020.058	1316.15
1020.35	1307.11
1020.641	1280.9
1020.932	1282.93
1021.223	1270.5
1021.514	1237.74
1021.804	1264.63
1022.095	1243.61
1022.386	1230.5
1022.677	1233.67
1022.967	1217.4
1023.258	1197.51
1023.548	1215.82
1023.839	1185.53
1024.129	1172.2
1024.419	1166.78
1024.709	1172.2
1025	1164.97
1025.29	1159.32
1025.58	1172.43
1025.87	1132.43
1026.16	1124.52
1026.449	1155.93
1026.739	1096.95
1027.029	1138.76
1027.319	1129.49
1027.608	1094.46
1027.898	1116.84
1028.187	1087.91
1028.477	1080.68
1028.766	1067.8
1029.055	1044.07
1029.344	1049.72
1029.634	1046.55
1029.923	1040
1030.212	1047.23
1030.501	1031.64
1030.79	1028.7
1031.078	1040.45
1031.367	999.55
1031.656	1008.82
1031.945	1024.18
1032.233	989.61
1032.522	993.22
1032.81	1007.01
1033.099	972.21
1033.387	968.59
1033.675	986.22
1033.963	955.48
1034.251	963.17
1034.54	923.17
1034.828	955.03
1035.116	956.84
1035.403	908.7
1035.691	926.11
1035.979	905.99
1036.267	922.26
1036.554	901.7
1036.842	886.11
1037.129	890.17
1037.417	880.23
1037.704	892.89
1037.992	875.71
1038.279	873
1038.566	868.03
1038.853	868.03
1039.14	868.03
