Data from hue_200_FLMS001491_00100.txt Node
Date: Tue Feb 07 16:44:14 GMT 2017
User: dcchb
Spectrometer: FLMS00149
Trigger mode: 0
Integration Time (sec): 2.000000E-2
Scans to average: 10
Electric dark correction enabled: true
Nonlinearity correction enabled: false
Boxcar width: 0
XAxis mode: Wavelengths
Number of Pixels in Spectrum: 2048
>>>>>Begin Spectral Data<<<<<
341.393	-8.16
341.776	-8.16
342.16	-8.16
342.543	-63.98
342.927	-57.2
343.31	-46.13
343.693	-61.04
344.077	-64.43
344.46	-65.56
344.843	-58.78
345.226	-35.06
345.61	-39.58
345.993	-6.58
346.376	4.27
346.759	7.88
347.142	21.89
347.525	37.71
347.908	45.62
348.291	66.64
348.674	82.23
349.057	110.93
349.44	143.92
349.823	155.22
350.206	156.8
350.588	187.09
350.971	189.35
351.354	226.86
351.737	246.74
352.119	250.81
352.502	265.05
352.884	270.47
353.267	297.14
353.65	271.83
354.032	312.28
354.414	300.08
354.797	286.74
355.179	317.03
355.562	320.64
355.944	336.46
356.326	338.95
356.709	336.91
357.091	330.36
357.473	349.79
357.855	326.06
358.238	330.81
358.62	342.11
359.002	350.25
359.384	334.88
359.766	349.12
360.148	349.12
360.53	330.58
360.912	324.48
361.294	313.64
361.676	319.96
362.057	335.56
362.439	322.22
362.821	336.69
363.203	324.71
363.584	325.84
363.966	325.39
364.348	320.64
364.729	335.33
365.111	327.42
365.493	301.43
365.874	340.98
366.256	293.52
366.637	314.31
367.019	312.51
367.4	310.92
367.781	317.03
368.163	317.7
368.544	287.87
368.925	308.66
369.306	315.44
369.688	330.81
370.069	310.02
370.45	304.6
370.831	304.82
371.212	314.77
371.593	303.01
371.974	314.77
372.355	307.53
372.736	310.7
373.117	307.53
373.498	323.58
373.879	283.81
374.26	306.4
374.641	299.85
375.021	302.34
375.402	306.63
375.783	326.29
376.163	332.84
376.544	313.64
376.925	310.25
377.305	323.58
377.686	323.81
378.066	312.96
378.447	323.35
378.827	326.06
379.208	318.16
379.588	337.59
379.968	321.77
380.349	348.66
380.729	316.57
381.109	345.95
381.489	336.91
381.87	330.36
382.25	346.18
382.63	332.17
383.01	343.92
383.39	326.97
383.77	347.53
384.15	350.7
384.53	328.55
384.91	347.99
385.29	318.61
385.67	338.49
386.049	385.05
386.429	346.86
386.809	347.53
387.189	342.79
387.568	350.7
387.948	360.19
388.328	367.42
388.707	354.31
389.087	358.38
389.466	339.4
389.846	350.92
390.225	363.35
390.605	340.75
390.984	369.68
391.363	373.52
391.743	363.35
392.122	365.84
392.501	379.4
392.881	386.85
393.26	386.63
393.639	382.11
394.018	376.23
394.397	387.08
394.776	377.36
395.155	392.05
395.534	375.56
395.913	375.1
396.292	389.79
396.671	387.31
397.05	392.05
397.429	377.59
397.808	377.59
398.186	388.66
398.565	382.11
398.944	403.35
399.323	412.16
399.701	396.35
400.08	410.13
400.458	409
400.837	414.2
401.215	416.01
401.594	429.11
401.972	420.53
402.351	417.14
402.729	432.28
403.107	438.38
403.486	393.86
403.864	443.35
404.242	421.88
404.62	437.7
404.999	443.12
405.377	455.55
405.755	445.38
406.133	458.26
406.511	462.33
406.889	477.47
407.267	486.51
407.645	491.94
408.023	463.24
408.401	483.35
408.779	485.61
409.156	506.63
409.534	523.12
409.912	521.09
410.29	523.12
410.667	519.28
411.045	510.01
411.422	525.61
411.8	542.33
412.178	571.26
412.555	547.3
412.933	594.08
413.31	565.83
413.687	581.65
414.065	605.38
414.442	622.78
414.819	619.39
415.197	641.08
415.574	643.57
415.951	666.62
416.328	658.94
416.705	663.23
417.082	676.79
417.46	683.12
417.837	696.68
418.214	710.01
418.591	714.08
418.967	709.11
419.344	700.52
419.721	764.7
420.098	748.2
420.475	752.04
420.852	726.51
421.228	795.88
421.605	801.98
421.982	806.05
422.358	830.91
422.735	864.81
423.111	843.79
423.488	878.82
423.864	891.93
424.241	903.9
424.617	917.46
424.994	936.44
425.37	929.21
425.746	980.74
426.123	970.57
426.499	983
426.875	1003.34
427.251	1030.91
427.627	1058.25
428.003	1041.53
428.379	1059.38
428.756	1065.03
429.132	1067.06
429.507	1089.66
429.883	1107.29
430.259	1144.12
430.635	1121.75
431.011	1165.82
431.387	1172.37
431.763	1188.87
432.138	1216.44
432.514	1226.38
432.89	1244.23
433.265	1294.85
433.641	1281.07
434.016	1324
434.392	1352.25
434.767	1356.55
435.143	1351.12
435.518	1425.92
435.894	1434.06
436.269	1478.35
436.644	1502.98
437.02	1497.11
437.395	1562.42
437.77	1600.61
438.145	1605.35
438.52	1604.9
438.895	1649.87
439.271	1660.04
439.646	1672.7
440.021	1729.64
440.395	1758.8
440.77	1787.95
441.145	1796.08
441.52	1823.65
441.895	1831.11
442.27	1848.06
442.645	1864.56
443.019	1932.8
443.394	1907.04
443.769	1917.89
444.143	1910.43
444.518	1979.58
444.892	1968.28
445.267	1996.76
445.641	2027.26
446.016	2036.3
446.39	2052.8
446.764	2097.32
447.139	2089.18
447.513	2081.05
447.887	2132.12
448.262	2133.25
448.636	2159.46
449.01	2184.1
449.384	2219.8
449.758	2207.82
450.132	2253.47
450.506	2229.74
450.88	2259.8
451.254	2301.61
451.628	2308.61
452.002	2314.26
452.376	2336.63
452.75	2352.9
453.123	2407.14
453.497	2424.09
453.871	2417.99
454.244	2489.85
454.618	2494.14
454.992	2548.83
455.365	2551.54
455.739	2627.7
456.112	2656.85
456.486	2642.16
456.859	2703.18
457.232	2740.92
457.606	2727.58
457.979	2742.72
458.352	2819.78
458.725	2795.6
459.099	2900.01
459.472	2908.37
459.845	2957.63
460.218	2943.17
460.591	2963.51
460.964	3021.14
461.337	3063.39
461.71	3138.87
462.083	3168.02
462.456	3152.66
462.829	3196.5
463.201	3245.99
463.574	3246.89
463.947	3300.22
464.32	3360.11
464.692	3382.48
465.065	3454.57
465.438	3454.12
465.81	3536.38
466.183	3543.83
466.555	3614.79
466.928	3653.21
467.3	3642.14
467.672	3701.34
468.045	3803.26
468.417	3786.09
468.789	3835.13
469.161	3871.51
469.534	3949.92
469.906	4018.17
470.278	4036.25
470.65	4105.17
471.022	4155.79
471.394	4185.17
471.766	4233.53
472.138	4290.93
472.51	4377.26
472.882	4473.75
473.253	4497.48
473.625	4568.21
473.997	4636.23
474.369	4644.82
474.74	4718.49
475.112	4761.43
475.484	4835.55
475.855	4895.66
476.227	4940.18
476.598	5126.16
476.97	5147.63
477.341	5247.07
477.713	5274.41
478.084	5330.23
478.455	5467.85
478.827	5464.69
479.198	5668.52
479.569	5668.07
479.94	5816.09
480.311	5812.93
480.682	5956.65
481.053	6063.09
481.424	6118.91
481.795	6200.94
482.166	6285.91
482.537	6336.75
482.908	6477.54
483.279	6461.04
483.65	6654.03
484.021	6716.41
484.391	6755.05
484.762	6851.99
485.133	6896.06
485.503	6936.96
485.874	7101.48
486.244	7208.6
486.615	7301.93
486.985	7341.93
487.356	7500.34
487.726	7624.86
488.097	7728.58
488.467	7611.52
488.837	7843.83
489.207	7913.89
489.578	7995.92
489.948	8115.46
490.318	8181.68
490.688	8160.89
491.058	8326.76
491.428	8424.16
491.798	8502.12
492.168	8580.54
492.538	8666.86
492.908	8676.13
493.278	8759.06
493.648	8805.16
494.017	8905.73
494.387	8966.52
494.757	8998.15
495.126	9046.29
495.496	9133.29
495.866	9169
496.235	9259.39
496.605	9263.68
496.974	9358.82
497.344	9386.17
497.713	9400.85
498.082	9477.01
498.452	9551.81
498.821	9535.31
499.19	9549.55
499.559	9615.09
499.928	9647.85
500.298	9625.48
500.667	9804.69
501.036	9754.97
501.405	9858.47
501.774	9831.35
502.143	9968.75
502.512	9927.17
502.88	9946.6
503.249	9999.93
503.618	9986.38
503.987	10046.94
504.356	10112.25
504.724	10115.86
505.093	10003.55
505.462	10173.72
505.83	10149.31
506.199	10231.12
506.567	10362.64
506.936	10304.33
507.304	10290.32
507.672	10366.03
508.041	10375.97
508.409	10419.81
508.777	10462.07
509.145	10467.72
509.514	10480.15
509.882	10521.95
510.25	10489.87
510.618	10552.69
510.986	10457.78
511.354	10615.51
511.722	10682.4
512.09	10698.22
512.458	10641.5
512.826	10691.67
513.193	10710.88
513.561	10663.42
513.929	10740.71
514.297	10853.92
514.664	10800.82
515.032	10834.72
515.4	10887.6
515.767	10908.61
516.135	10823.19
516.502	10749.52
516.869	10894.6
517.237	10863.64
517.604	10857.09
517.972	10932.57
518.339	10945.45
518.706	10875.62
519.073	10891.21
519.44	10959.91
519.808	10940.48
520.175	10892.11
520.542	10983.64
520.909	11007.14
521.276	10967.59
521.643	10972.79
522.009	11033.81
522.376	11041.04
522.743	10989.29
523.11	11061.15
523.477	11169.85
523.843	11192.45
524.21	11135.95
524.577	11172.11
524.943	11101.83
525.31	11154.93
525.676	11132.11
526.043	11213.91
526.409	11170.07
526.776	11212.11
527.142	11187.02
527.508	11200.81
527.874	11185.67
528.241	11143.86
528.607	11166.23
528.973	11173.01
529.339	11114.03
529.705	11106.8
530.071	11179.11
530.437	11138.21
530.803	11165.78
531.169	11186.12
531.535	11061.15
531.901	11059.12
532.267	11052.79
532.632	10984.77
532.998	11068.16
533.364	11026.8
533.73	11017.08
534.095	10985.22
534.461	10938.44
534.826	10896.63
535.192	10993.13
535.557	10879.46
535.923	10715.62
536.288	10805.56
536.653	10849.86
537.019	10688.28
537.384	10695.06
537.749	10710.2
538.114	10594.04
538.479	10510.88
538.845	10634.72
539.21	10479.7
539.575	10476.98
539.94	10474.5
540.305	10498.45
540.67	10328.51
541.034	10319.93
541.399	10286.71
541.764	10241.96
542.129	10201.74
542.494	10206.26
542.858	10168.29
543.223	10041.29
543.587	10065.24
543.952	9933.27
544.316	9975.98
544.681	9923.78
545.045	9869.54
545.41	9945.47
545.774	9847.17
546.138	9742.99
546.503	9737.12
546.867	9749.55
547.231	9644.24
547.595	9589.1
547.959	9664.35
548.324	9577.12
548.688	9524.24
549.052	9519.04
549.416	9450.12
549.779	9399.05
550.143	9388.65
550.507	9362.66
550.871	9279.95
551.235	9235.66
551.599	9226.62
551.962	9186.85
552.326	9222.33
552.689	9184.59
553.053	9044.48
553.417	9058.72
553.78	9075.89
554.143	8982.11
554.507	8957.7
554.87	8964.48
555.234	9013.52
555.597	8876.12
555.96	8868.89
556.323	8832.28
556.686	8827.76
557.05	8827.76
557.413	8812.17
557.776	8771.94
558.139	8764.49
558.502	8733.75
558.865	8675.45
559.228	8705.28
559.59	8715.9
559.953	8647.65
560.316	8641.55
560.679	8675.68
561.041	8694.21
561.404	8637.26
561.767	8691.27
562.129	8576.7
562.492	8656.02
562.854	8621.67
563.217	8583.25
563.579	8560.2
563.941	8545.28
564.304	8589.35
564.666	8567.66
565.028	8532.85
565.39	8513.65
565.753	8578.73
566.115	8582.57
566.477	8565.17
566.839	8554.78
567.201	8515.23
567.563	8557.03
567.925	8585.96
568.287	8573.53
568.648	8587.54
569.01	8617.37
569.372	8632.51
569.734	8514.55
570.095	8619.18
570.457	8614.43
570.819	8620.08
571.18	8542.12
571.542	8565.4
571.903	8555.9
572.265	8573.76
572.626	8534.44
572.987	8513.65
573.349	8556.13
573.71	8615.34
574.071	8596.58
574.432	8621.44
574.794	8601.55
575.155	8618.28
575.516	8552.29
575.877	8622.8
576.238	8663.47
576.599	8637.03
576.96	8576.92
577.32	8594.1
577.681	8619.86
578.042	8597.03
578.403	8639.97
578.763	8609.46
579.124	8597.71
579.485	8647.43
579.845	8640.87
580.206	8560.88
580.566	8559.75
580.927	8618.5
581.287	8635
581.648	8569.01
582.008	8661.44
582.368	8519.52
582.728	8609.01
583.089	8559.07
583.449	8577.6
583.809	8523.82
584.169	8597.03
584.529	8549.35
584.889	8642.46
585.249	8550.71
585.609	8549.58
585.969	8613.53
586.329	8557.94
586.688	8541.89
587.048	8548.9
587.408	8529.46
587.768	8506.41
588.127	8481.1
588.487	8484.04
588.846	8568.79
589.206	8482.23
589.565	8556.58
589.925	8500.31
590.284	8501.9
590.643	8467.09
591.003	8519.07
591.362	8514.1
591.721	8530.82
592.08	8495.34
592.44	8485.17
592.799	8510.48
593.158	8453.53
593.517	8471.61
593.876	8380.99
594.235	8432.07
594.593	8362.01
594.952	8435.23
595.311	8422.12
595.67	8369.92
596.029	8471.84
596.387	8460.31
596.746	8456.92
597.104	8383.03
597.463	8416.02
597.822	8397.04
598.18	8371.28
598.538	8371.96
598.897	8411.05
599.255	8343.48
599.613	8404.5
599.972	8414.21
600.33	8462.35
600.688	8392.29
601.046	8376.25
601.404	8447.43
601.762	8368.57
602.12	8372.63
602.478	8406.08
602.836	8367.89
603.194	8347.55
603.552	8384.38
603.91	8343.93
604.268	8356.36
604.625	8300.32
604.983	8412.86
605.341	8297.83
605.698	8320.66
606.056	8418.96
606.413	8343.71
606.771	8357.94
607.128	8443.59
607.485	8328.57
607.843	8376.47
608.2	8446.53
608.557	8451.5
608.914	8297.38
609.272	8445.17
609.629	8396.59
609.986	8379.19
610.343	8424.61
610.7	8477.49
611.057	8419.64
611.414	8446.53
611.771	8397.27
612.127	8430.48
612.484	8466.42
612.841	8501.9
613.198	8430.03
613.554	8388.23
613.911	8483.82
614.267	8474.33
614.624	8492.86
614.98	8510.03
615.337	8417.83
615.693	8450.6
616.05	8437.26
616.406	8488.11
616.762	8513.42
617.118	8536.47
617.475	8512.29
617.831	8485.85
618.187	8462.12
618.543	8523.36
618.899	8555.68
619.255	8573.31
619.611	8550.26
619.967	8542.35
620.323	8554.55
620.678	8476.13
621.034	8448.79
621.39	8508.9
621.746	8510.71
622.101	8614.66
622.457	8566.07
622.812	8559.97
623.168	8573.53
623.523	8550.71
623.879	8525.62
624.234	8498.73
624.589	8545.96
624.945	8497.38
625.3	8578.73
625.655	8491.73
626.01	8521.33
626.365	8501.44
626.72	8512.29
627.075	8496.25
627.43	8499.64
627.785	8469.35
628.14	8512.74
628.495	8473.65
628.85	8520.65
629.205	8461.44
629.559	8493.31
629.914	8492.18
630.269	8449.02
630.623	8428.9
630.978	8443.37
631.332	8437.49
631.687	8431.61
632.041	8472.97
632.396	8421.45
632.75	8422.8
633.104	8402.24
633.459	8361.56
633.813	8372.41
634.167	8413.08
634.521	8368.11
634.875	8358.17
635.229	8292.86
635.583	8286.08
635.937	8291.28
636.291	8273.65
636.645	8284.5
636.999	8289.92
637.352	8271.84
637.706	8223.71
638.06	8278.62
638.413	8217.16
638.767	8197.95
639.121	8202.69
639.474	8258.06
639.828	8169.7
640.181	8148.46
640.534	8175.58
640.888	8134
641.241	8090.61
641.594	8086.99
641.947	8142.81
642.301	8142.13
642.654	8153.43
643.007	8179.87
643.36	8099.19
643.713	8110.72
644.066	8114.11
644.419	8115.46
644.771	8025.75
645.124	7948.92
645.477	7976.26
645.83	7921.35
646.182	7903.27
646.535	7856.71
646.888	7886.09
647.24	7875.47
647.593	7908.92
647.945	7879.31
648.298	7751.63
648.65	7801.12
649.002	7784.4
649.355	7827.34
649.707	7853.32
650.059	7892.42
650.411	7945.75
650.763	7984.62
651.115	8028.01
651.467	8002.93
651.819	8063.94
652.171	8015.35
652.523	7986.43
652.875	8036.37
653.227	7968.35
653.578	8075.47
653.93	7989.59
654.282	8020.1
654.633	7993.66
654.985	8042.25
655.337	8047.67
655.688	7984.17
656.039	8065.52
656.391	8055.35
656.742	8074.56
657.094	7993.43
657.445	8025.52
657.796	8058.74
658.147	8025.75
658.498	7994.34
658.849	8026.2
659.2	8002.93
659.551	8016.03
659.902	8103.49
660.253	8046.77
660.604	8073.66
660.955	8070.95
661.306	8029.37
661.656	8096.48
662.007	8054
662.358	8076.82
662.708	8176.03
663.059	8062.81
663.409	8004.96
663.76	8091.06
664.11	8100.32
664.461	8191.17
664.811	8137.61
665.161	8098.06
665.511	8102.58
665.862	8129.48
666.212	8144.16
666.562	8071.85
666.912	8114.11
667.262	8072.3
667.612	8117.05
667.962	8114.33
668.312	8077.05
668.662	8092.19
669.011	8124.5
669.361	8082.02
669.711	8112.75
670.06	8050.61
670.41	8104.39
670.76	8052.64
671.109	8082.7
671.459	8144.16
671.808	8072.3
672.157	8074.11
672.507	8039.31
672.856	8042.02
673.205	8003.6
673.554	8067.33
673.904	8042.02
674.253	8073.21
674.602	8035.69
674.951	7944.85
675.3	7905.53
675.649	7990.72
675.998	8013.32
676.346	7900.55
676.695	8023.72
677.044	7915.47
677.393	7974.45
677.741	7963.15
678.09	7973.55
678.438	7937.16
678.787	7898.3
679.135	7937.16
679.484	7895.81
679.832	7900.55
680.181	7780.78
680.529	7869.82
680.877	7852.19
681.225	7811.07
681.573	7824.17
681.922	7807
682.27	7771.29
682.618	7764.97
682.966	7774
683.314	7777.39
683.661	7707.34
684.009	7703.95
684.357	7680.9
684.705	7632.77
685.053	7686.1
685.4	7672.31
685.748	7618.75
686.095	7630.05
686.443	7545.54
686.79	7569.49
687.138	7536.95
687.485	7530.4
687.832	7518.19
688.18	7523.84
688.527	7457.63
688.874	7533.56
689.221	7443.62
689.568	7427.8
689.915	7403.84
690.262	7377.63
690.609	7359.1
690.956	7329.95
691.303	7315.49
691.65	7257.41
691.997	7257.63
692.344	7237.97
692.69	7248.59
693.037	7211.31
693.383	7123.63
693.73	7164.76
694.077	7157.3
694.423	7108.71
694.769	7079.33
695.116	7078.2
695.462	7036.17
695.808	7001.6
696.155	7045.44
696.501	6960.92
696.847	6986.91
697.193	6873.24
697.539	6849.74
697.885	6859.68
698.231	6861.03
698.577	6847.25
698.923	6798.44
699.269	6743.07
699.614	6672.11
699.96	6661.94
700.306	6708.5
700.651	6619.46
700.997	6657.65
701.342	6643.41
701.688	6595.96
702.033	6570.42
702.379	6594.83
702.724	6545.11
703.069	6554.83
703.415	6459.69
703.76	6468.05
704.105	6423.76
704.45	6492
704.795	6388.73
705.14	6323.2
705.485	6388.05
705.83	6284.33
706.175	6354.61
706.52	6263.76
706.865	6271.22
707.209	6233.93
707.554	6192.13
707.899	6208.62
708.243	6208.17
708.588	6129.08
708.932	6167.72
709.277	6125.23
709.621	6103.09
709.966	6127.27
710.31	6091.11
710.654	6031.9
710.998	6051.56
711.342	6043.2
711.687	6019.93
712.031	5954.62
712.375	5974.96
712.719	5989.87
713.063	5974.28
713.407	5927.73
713.75	5906.26
714.094	5963.43
714.438	5952.13
714.782	5895.18
715.125	5920.72
715.469	5878.69
715.812	5886.14
716.156	5873.72
716.499	5871
716.843	5874.62
717.186	5847.5
717.53	5790.55
717.873	5843.43
718.216	5829.42
718.559	5819.03
718.902	5757.33
719.246	5791.91
719.589	5773.83
719.932	5742.42
720.275	5757.11
720.617	5743.1
720.96	5731.35
721.303	5774.51
721.646	5741.52
721.989	5757.33
722.331	5703.78
722.674	5705.13
723.016	5741.29
723.359	5713.95
723.701	5675.98
724.044	5630.78
724.386	5661.29
724.729	5721.18
725.071	5668.3
725.413	5675.53
725.755	5639.37
726.097	5644.8
726.439	5611.58
726.782	5642.99
727.124	5709.88
727.465	5654.74
727.807	5611.8
728.149	5625.36
728.491	5631.46
728.833	5625.59
729.175	5624.23
729.516	5595.76
729.858	5597.56
730.199	5624.23
730.541	5585.36
730.882	5597.56
731.224	5655.42
731.565	5607.96
731.906	5609.32
732.248	5596.43
732.589	5595.98
732.93	5612.93
733.271	5595.08
733.612	5591.01
733.953	5649.99
734.294	5630.33
734.635	5595.08
734.976	5646.38
735.317	5588.3
735.658	5651.12
735.999	5682.53
736.339	5626.49
736.68	5659.03
737.021	5694.06
737.361	5635.76
737.702	5722.99
738.042	5676.43
738.383	5674.62
738.723	5730.67
739.063	5691.35
739.404	5708.07
739.744	5721.86
740.084	5716.88
740.424	5752.36
740.764	5720.27
741.104	5795.75
741.444	5787.62
741.784	5791.23
742.124	5780.84
742.464	5862.64
742.804	5814.28
743.143	5858.12
743.483	5863.09
743.823	5844.79
744.162	5928.4
744.502	5998.46
744.841	5989.42
745.181	5985.35
745.52	6023.09
745.86	6104.9
746.199	6064.22
746.538	6098.12
746.877	6178.57
747.216	6235.29
747.556	6252.01
747.895	6320.48
748.234	6328.39
748.573	6415.62
748.911	6403.19
749.25	6474.15
749.589	6520.25
749.928	6593.02
750.267	6701.04
750.605	6733.58
750.944	6777.42
751.283	6824.65
751.621	6956.62
751.96	7008.6
752.298	7143.96
752.636	7235.26
752.975	7318.65
753.313	7328.14
753.651	7488.59
753.989	7534.46
754.327	7625.76
754.666	7729.03
755.004	7879.09
755.342	8034.34
755.679	8183.94
756.017	8238.17
756.355	8415.8
756.693	8528.11
757.031	8741.44
757.368	8844.71
757.706	9015.55
758.044	9083.8
758.381	9293.06
758.719	9494.86
759.056	9606.95
759.394	9772.37
759.731	9843.78
760.068	10038.13
760.405	10173.04
760.743	10258.69
761.08	10562.86
761.417	10703.87
761.754	10887.37
762.091	11070.19
762.428	11183.41
762.765	11299.34
763.102	11537.75
763.438	11661.13
763.775	11773.9
764.112	12017.73
764.449	12256.82
764.785	12294.11
765.122	12464.73
765.458	12610.71
765.795	12848.67
766.131	13094.77
766.467	13128.21
766.804	13292.73
767.14	13391.94
767.476	13627.41
767.812	13706.73
768.148	13885.03
768.485	14035.08
768.821	14043.44
769.157	14311.23
769.492	14391.91
769.828	14586.03
770.164	14567.72
770.5	14674.39
770.836	14954.38
771.171	15038.9
771.507	15127.03
771.842	15093.13
772.178	15221.49
772.513	15417.19
772.849	15465.1
773.184	15554.14
773.519	15634.59
773.855	15729.05
774.19	15785.32
774.525	15859.89
774.86	15945.32
775.195	16001.13
775.53	16059.89
775.865	16162.48
776.2	16073.9
776.535	16145.31
776.87	16269.37
777.205	16225.08
777.539	16297.85
777.874	16360.45
778.209	16385.76
778.543	16547.33
778.878	16338.98
779.212	16476.15
779.547	16549.82
779.881	16712.07
780.215	16652.87
780.55	16684.05
780.884	16593.66
781.218	16679.99
781.552	16652.64
781.886	16739.87
782.22	16748.46
782.554	16733.09
782.888	16645.86
783.222	16669.36
783.556	16631.62
783.889	16579.2
784.223	16595.69
784.557	16523.83
784.89	16657.61
785.224	16628.24
785.557	16597.95
785.891	16632.98
786.224	16603.83
786.558	16624.85
786.891	16585.3
787.224	16579.42
787.557	16599.08
787.891	16575.13
788.224	16558.41
788.557	16652.87
788.89	16602.47
789.223	16568.12
789.556	16503.94
789.888	16435.47
790.221	16470.27
790.554	16417.85
790.887	16382.82
791.219	16423.04
791.552	16349.15
791.884	16321.8
792.217	16342.14
792.549	16316.15
792.882	16280.9
793.214	16133.33
793.546	16227.12
793.879	16154.58
794.211	16010.4
794.543	16138.98
794.875	16147.12
795.207	16140.11
795.539	16095.82
795.871	16016.95
796.203	15958.42
796.535	15827.8
796.867	15841.82
797.198	15849.05
797.53	15917.29
797.862	15782.16
798.193	15813.34
798.525	15619
798.856	15780.12
799.188	15570.86
799.519	15536.96
799.85	15497.19
800.182	15471.66
800.513	15483.18
800.844	15427.14
801.175	15648.37
801.506	15537.42
801.837	15420.36
802.168	15363.18
802.499	15367.48
802.83	15278.21
803.161	15343.52
803.491	15280.25
803.822	15289.74
804.153	15220.81
804.483	15147.37
804.814	15039.35
805.145	15104.89
805.475	15081.38
805.805	15001.84
806.136	14975.4
806.466	14986.24
806.796	14965.91
807.126	14892.01
807.457	14930.2
807.787	14842.75
808.117	14777.66
808.447	14803.88
808.777	14736.53
809.107	14771.33
809.436	14817.89
809.766	14638.46
810.096	14681.62
810.426	14591.23
810.755	14599.14
811.085	14574.96
811.414	14531.12
811.744	14378.12
812.073	14452.7
812.403	14439.82
812.732	14278.69
813.061	14315.75
813.39	14271.23
813.719	14220.16
814.049	14361.63
814.378	14258.13
814.707	14198.24
815.036	14235.53
815.365	14195.98
815.693	14100.84
816.022	14027.85
816.351	14071.24
816.68	14071.69
817.008	14021.52
817.337	13919.61
817.665	13854.52
817.994	13932.94
818.322	13890.91
818.651	13782.89
818.979	13883.67
819.307	13857.69
819.636	13854.3
819.964	13802.32
820.292	13839.83
820.62	13822.21
820.948	13796.67
821.276	13790.34
821.604	13691.14
821.932	13819.27
822.259	13747.18
822.587	13702.66
822.915	13761.42
823.243	13790.34
823.57	13643.23
823.898	13842.32
824.225	13680.29
824.553	13658.37
824.88	13767.29
825.207	13822.21
825.535	13755.99
825.862	13767.75
826.189	13680.74
826.516	13794.41
826.843	13792.38
827.17	13735.88
827.497	13838.25
827.824	13807.29
828.151	13855.88
828.478	13758.25
828.805	13781.08
829.131	13717.35
829.458	13782.21
829.785	13691.36
830.111	13824.02
830.438	13867.18
830.764	13839.16
831.09	13814.07
831.417	13733.4
831.743	13817.46
832.069	13773.39
832.395	13695.2
832.722	13763
833.048	13716.45
833.374	13632.83
833.7	13719.16
834.026	13737.92
834.351	13672.61
834.677	13673.51
835.003	13714.64
835.329	13750.57
835.654	13617.47
835.98	13645.94
836.306	13634.87
836.631	13544.7
836.956	13546.28
837.282	13612.95
837.607	13465.61
837.932	13529.79
838.258	13495.44
838.583	13457.92
838.908	13482.33
839.233	13434.42
839.558	13418.83
839.883	13405.72
840.208	13367.98
840.533	13351.26
840.858	13343.58
841.182	13313.07
841.507	13364.82
841.832	13183.58
842.156	13242.11
842.481	13242.11
842.805	13125.28
843.13	13142
843.454	13095.9
843.778	13038.5
844.103	13130.02
844.427	13066.75
844.751	13069.23
845.075	13031.49
845.399	12914.21
845.723	12829.24
846.047	12921.89
846.371	12822.91
846.695	12841.67
847.019	12727.77
847.343	12709.02
847.666	12555.12
847.99	12570.49
848.313	12602.58
848.637	12528.23
848.96	12479.87
849.284	12400.78
849.607	12273.55
849.931	12204.17
850.254	12250.95
850.577	12181.8
850.9	12122.36
851.223	12093.67
851.546	12055.7
851.869	11881.92
852.192	11954.23
852.515	11846.89
852.838	11865.65
853.161	11819.32
853.483	11835.37
853.806	11670.63
854.129	11717.63
854.451	11648.25
854.774	11574.58
855.096	11549.27
855.419	11516.51
855.741	11482.16
856.063	11421.14
856.385	11341.59
856.708	11357.87
857.03	11313.8
857.352	11349.73
857.674	11239.22
857.996	11224.31
858.318	11170.98
858.64	11222.95
858.961	11102.73
859.283	11119.23
859.605	11095.95
859.926	11172.33
860.248	11094.37
860.57	10991.32
860.891	11027.48
861.212	11005.11
861.534	10915.62
861.855	10909.06
862.176	10949.74
862.498	10877.88
862.819	10867.03
863.14	10839.46
863.461	10851.89
863.782	10696.41
864.103	10793.81
864.424	10739.8
864.745	10777.99
865.065	10743.42
865.386	10643.76
865.707	10746.58
866.027	10615.96
866.348	10643.31
866.668	10654.83
866.989	10569.41
867.309	10550.43
867.63	10609.86
867.95	10534.38
868.27	10494.16
868.59	10520.83
868.91	10488.06
869.23	10459.81
869.55	10471.56
869.87	10462.3
870.19	10380.49
870.51	10434.95
870.83	10517.21
871.15	10435.63
871.469	10393.14
871.789	10422.3
872.109	10331.9
872.428	10293.03
872.748	10263.2
873.067	10269.76
873.386	10286.48
873.706	10241.28
874.025	10231.34
874.344	10196.31
874.663	10222.08
874.982	10136.65
875.301	10207.16
875.62	10133.26
875.939	10144.34
876.258	10184.79
876.577	10115.19
876.896	10062.31
877.214	10077.45
877.533	10051.46
877.852	9996.55
878.17	10024.34
878.489	9987.96
878.807	10001.29
879.125	9970.33
879.444	9964.91
879.762	10045.58
880.08	9942.31
880.398	9831.13
880.716	9898.47
881.034	9896.89
881.352	9841.97
881.67	9807.62
881.988	9854.18
882.306	9785.7
882.624	9771.92
882.941	9681.75
883.259	9692.37
883.577	9667.29
883.894	9688.3
884.212	9713.61
884.529	9582.77
884.846	9621.87
885.164	9583.9
885.481	9608.31
885.798	9588.42
886.115	9505.71
886.432	9505.94
886.75	9478.82
887.067	9482.43
887.383	9408.76
887.7	9491.7
888.017	9443.79
888.334	9435.88
888.651	9340.97
888.967	9314.08
889.284	9264.36
889.6	9315.66
889.917	9225.49
890.233	9254.87
890.55	9157.25
890.866	9214.19
891.182	9111.37
891.498	9116.34
891.815	9081.54
892.131	8992.96
892.447	9005.38
892.763	8975.33
893.079	8948.66
893.395	8869.34
893.71	8906.4
894.026	8867.99
894.342	8874.09
894.657	8762.68
894.973	8781.66
895.289	8772.85
895.604	8738.73
895.92	8665.28
896.235	8614.43
896.55	8597.94
896.865	8630.03
897.181	8630.48
897.496	8625.28
897.811	8501.67
898.126	8475.68
898.441	8486.08
898.756	8447.21
899.071	8415.8
899.386	8403.82
899.7	8351.62
900.015	8256.7
900.33	8249.92
900.644	8275.01
900.959	8254.67
901.273	8276.36
901.588	8205.18
901.902	8147.78
902.216	8091.28
902.531	8084.96
902.845	8036.82
903.159	8026.88
903.473	7991.63
903.787	7965.19
904.101	7886.32
904.415	7889.03
904.729	7900.1
905.042	7862.82
905.356	7829.14
905.67	7795.02
905.984	7791.41
906.297	7723.38
906.611	7687.91
906.924	7702.59
907.237	7649.04
907.551	7653.1
907.864	7530.17
908.177	7609.72
908.491	7513.45
908.804	7457.4
909.117	7421.25
909.43	7407.91
909.743	7371.53
910.056	7426.67
910.368	7369.27
910.681	7326.33
910.994	7242.49
911.307	7217.64
911.619	7164.3
911.932	7210.4
912.244	7138.32
912.557	7076.85
912.869	7079.79
913.181	7046.34
913.494	7044.53
913.806	6955.72
914.118	7004.53
914.43	6934.7
914.742	6898.32
915.054	6839.79
915.366	6841.15
915.678	6850.64
915.99	6812.67
916.302	6745.11
916.613	6709.63
916.925	6717.31
917.236	6680.47
917.548	6630.53
917.859	6620.81
918.171	6583.3
918.482	6557.99
918.794	6506.69
919.105	6557.99
919.416	6452.23
919.727	6457.43
920.038	6456.75
920.349	6481.16
920.66	6405.23
920.971	6444.55
921.282	6331.78
921.593	6351.67
921.903	6280.48
922.214	6229.19
922.525	6317.09
922.835	6236.42
923.146	6223.08
923.456	6193.03
923.767	6133.82
924.077	6128.4
924.387	6088.63
924.697	6085.24
925.008	5988.29
925.318	6012.02
925.628	6007.05
925.938	5954.84
926.248	5912.81
926.558	5904.68
926.867	5901.51
927.177	5919.59
927.487	5870.55
927.796	5783.55
928.106	5848.86
928.416	5719.14
928.725	5806.6
929.034	5737.9
929.344	5696.09
929.653	5657.22
929.962	5695.19
930.271	5666.72
930.581	5596.89
930.89	5573.61
931.199	5543.55
931.508	5572.71
931.817	5536.32
932.125	5508.98
932.434	5514.63
932.743	5449.09
933.051	5417.68
933.36	5415.87
933.669	5415.65
933.977	5346.5
934.286	5375.2
934.594	5323.45
934.902	5266.73
935.21	5304.92
935.519	5259.27
935.827	5280.74
936.135	5226.73
936.443	5182.66
936.751	5186.28
937.059	5213.17
937.367	5167.29
937.674	5142.21
937.982	5095.43
938.29	5090.91
938.597	5085.94
938.905	4995.09
939.213	4969.33
939.52	4956.45
939.827	4977.69
940.135	4953.06
940.442	4975.89
940.749	4880.75
941.056	4857.02
941.363	4874.65
941.67	4847.3
941.977	4821.99
942.284	4825.38
942.591	4788.32
942.898	4764.37
943.205	4716.23
943.511	4741.77
943.818	4718.27
944.125	4672.17
944.431	4689.11
944.738	4665.16
945.044	4635.1
945.35	4609.57
945.657	4588.1
945.963	4607.99
946.269	4511.94
946.575	4557.59
946.881	4492.73
947.187	4496.35
947.493	4462.23
947.799	4443.7
948.105	4386.52
948.41	4421.32
948.716	4415.22
949.022	4372.96
949.327	4348.33
949.633	4309.91
949.938	4310.82
950.244	4326.41
950.549	4291.61
950.854	4293.64
951.16	4260.2
951.465	4202.35
951.77	4230.59
952.075	4190.82
952.38	4181.1
952.685	4153.76
952.99	4139.3
953.294	4139.07
953.599	4081.9
953.904	4067.66
954.209	4075.57
954.513	4044.61
954.818	4010.49
955.122	4041.9
955.426	4013.2
955.731	3994.67
956.035	3946.99
956.339	3990.6
956.643	3934.33
956.948	3940.21
957.252	3878.29
957.556	3882.58
957.86	3867.44
958.163	3838.51
958.467	3814.11
958.771	3819.08
959.075	3813.88
959.378	3796.26
959.682	3775.01
959.985	3733.43
960.289	3777.73
960.592	3719.65
960.896	3714.22
961.199	3721.46
961.502	3685.75
961.805	3693.89
962.108	3602.14
962.411	3616.37
962.714	3594.68
963.017	3608.69
963.32	3594
963.623	3538.18
963.926	3542.03
964.228	3479.65
964.531	3490.28
964.833	3526.88
965.136	3479.2
965.438	3445.98
965.741	3461.12
966.043	3450.28
966.345	3429.03
966.648	3431.97
966.95	3396.27
967.252	3380.67
967.554	3382.93
967.856	3344.06
968.158	3325.76
968.46	3323.05
968.761	3298.64
969.063	3315.59
969.365	3250.51
969.666	3288.02
969.968	3264.52
970.269	3220
970.571	3241.02
970.872	3183.39
971.174	3176.16
971.475	3201.24
971.776	3158.98
972.077	3106.1
972.378	3139.78
972.679	3151.75
972.98	3132.09
973.281	3106.33
973.582	3094.58
973.883	3091.64
974.183	3057.07
974.484	3029.5
974.785	3032.66
975.085	3006.9
975.386	2995.15
975.686	2984.75
975.986	2969.84
976.287	2975.26
976.587	2918.54
976.887	2959.89
977.187	2928.03
977.487	2936.39
977.787	2917.18
978.087	2899.56
978.387	2872.89
978.687	2912.66
978.987	2859.78
979.286	2829.05
979.586	2855.94
979.885	2835.38
980.185	2834.7
980.484	2794.93
980.784	2774.36
981.083	2757.64
981.382	2767.81
981.682	2734.59
981.981	2761.71
982.28	2740.01
982.579	2707.92
982.878	2724.65
983.177	2728.94
983.475	2719.67
983.774	2663.4
984.073	2640.35
984.372	2653.46
984.67	2594.48
984.969	2649.85
985.267	2619.34
985.566	2635.16
985.864	2582.28
986.162	2569.85
986.461	2516.74
986.759	2530.07
987.057	2539.34
987.355	2499.57
987.653	2497.53
987.951	2492.79
988.249	2500.47
988.547	2485.1
988.844	2464.09
989.142	2429.96
989.44	2457.99
989.737	2423.86
990.035	2418.21
990.332	2390.87
990.63	2403.3
990.927	2393.13
991.224	2375.5
991.521	2368.95
991.819	2351.1
992.116	2343.64
992.413	2331.21
992.71	2324.88
993.006	2331.44
993.303	2281.04
993.6	2266.13
993.897	2271.32
994.193	2302.96
994.49	2224.77
994.787	2260.03
995.083	2267.48
995.379	2228.16
995.676	2189.97
995.972	2197.65
996.268	2219.35
996.565	2173.7
996.861	2206.02
997.157	2146.36
997.453	2137.77
997.749	2153.81
998.044	2127.15
998.34	2131.22
998.636	2092.57
998.932	2083.53
999.227	2086.92
999.523	2048.96
999.818	2075.62
1000.114	2070.2
1000.409	2064.32
1000.704	2014.83
1001	2039.24
1001.295	2020.03
1001.59	2003.99
1001.885	1995.4
1002.18	1969.41
1002.475	1970.09
1002.77	1960.15
1003.065	1947.27
1003.359	1953.37
1003.654	1896.42
1003.949	1932.12
1004.243	1906.36
1004.538	1903.2
1004.832	1895.52
1005.127	1880.6
1005.421	1843.54
1005.715	1860.94
1006.009	1858
1006.304	1839.02
1006.598	1839.7
1006.892	1806.7
1007.186	1803.77
1007.48	1806.03
1007.773	1764.22
1008.067	1764.67
1008.361	1752.92
1008.655	1752.02
1008.948	1725.8
1009.242	1709.98
1009.535	1728.51
1009.829	1711.79
1010.122	1681.51
1010.415	1700.27
1010.708	1658.91
1011.001	1663.88
1011.295	1639.93
1011.588	1652.58
1011.881	1658.46
1012.173	1618.01
1012.466	1637.22
1012.759	1596.54
1013.052	1609.19
1013.344	1591.79
1013.637	1600.16
1013.93	1587.27
1014.222	1597.44
1014.514	1578.69
1014.807	1567.84
1015.099	1539.14
1015.391	1527.84
1015.683	1563.55
1015.976	1527.39
1016.268	1519.25
1016.56	1475.87
1016.851	1505.02
1017.143	1468.18
1017.435	1465.92
1017.727	1460.27
1018.018	1456.43
1018.31	1447.84
1018.602	1448.52
1018.893	1446.94
1019.185	1429.76
1019.476	1426.83
1019.767	1391.12
1020.058	1392.25
1020.35	1362.2
1020.641	1403.78
1020.932	1347.73
1021.223	1355.64
1021.514	1314.51
1021.804	1353.61
1022.095	1331.46
1022.386	1327.17
1022.677	1303.67
1022.967	1297.79
1023.258	1273.61
1023.548	1289.66
1023.839	1305.02
1024.129	1251.24
1024.419	1244.91
1024.709	1255.76
1025	1266.61
1025.29	1234.97
1025.58	1239.94
1025.87	1215.98
1026.16	1232.48
1026.449	1219.15
1026.739	1189.77
1027.029	1196.1
1027.319	1159.26
1027.608	1208.08
1027.898	1176.89
1028.187	1178.47
1028.477	1143.9
1028.766	1140.96
1029.055	1121.3
1029.344	1138.02
1029.634	1114.97
1029.923	1095.76
1030.212	1097.57
1030.501	1083.33
1030.79	1121.98
1031.078	1072.26
1031.367	1076.78
1031.656	1079.94
1031.945	1056.89
1032.233	1054.63
1032.522	1053.5
1032.81	1069.55
1033.099	1055.99
1033.387	1025.93
1033.675	1039.94
1033.963	1022.77
1034.251	1017.35
1034.54	1009.21
1034.828	1005.37
1035.116	1007.4
1035.403	989.78
1035.691	959.72
1035.979	985.71
1036.267	983
1036.554	979.83
1036.842	954.75
1037.129	931.25
1037.417	929.89
1037.704	951.36
1037.992	928.99
1038.279	901.87
1038.566	919.95
1038.853	919.95
1039.14	919.95
