Data from hue_350_FLMS001491_94.txt Node
Date: Mon Feb 06 15:38:47 GMT 2017
User: dcchb
Spectrometer: FLMS00149
Trigger mode: 0
Integration Time (sec): 2.000000E-2
Scans to average: 10
Electric dark correction enabled: true
Nonlinearity correction enabled: false
Boxcar width: 0
XAxis mode: Wavelengths
Number of Pixels in Spectrum: 2048
>>>>>Begin Spectral Data<<<<<
341.393	1.43
341.776	1.43
342.16	1.43
342.543	-67.95
342.927	-55.52
343.31	-68.18
343.693	-75.86
344.077	-77.67
344.46	-51.68
344.843	-42.19
345.226	-50.32
345.61	-38.57
345.993	-9.42
346.376	-4.45
346.759	13.86
347.142	28.09
347.525	50.24
347.908	36.23
348.291	72.39
348.674	102.89
349.057	114.64
349.44	130.69
349.823	136.79
350.206	169.33
350.588	191.48
350.971	209.1
351.354	235.09
351.737	233.96
352.119	237.58
352.502	268.09
352.884	278.26
353.267	271.93
353.65	288.65
354.032	297.01
354.414	303.11
354.797	313.96
355.179	284.81
355.562	327.29
355.944	342.21
356.326	331.59
356.709	326.84
357.091	328.88
357.473	336.56
357.855	329.1
358.238	347.18
358.62	343.11
359.002	357.8
359.384	341.76
359.766	328.88
360.148	328.65
360.53	311.02
360.912	336.78
361.294	340.85
361.676	347.63
362.057	321.64
362.439	321.19
362.821	318.25
363.203	323.68
363.584	328.65
363.966	336.11
364.348	346.5
364.729	310.34
365.111	305.6
365.493	312.15
365.874	302.89
366.256	330.91
366.637	308.99
367.019	320.74
367.4	313.51
367.781	275.77
368.163	304.47
368.544	308.99
368.925	306.5
369.306	318.03
369.688	312.83
370.069	308.31
370.45	307.63
370.831	313.06
371.212	309.22
371.593	332.04
371.974	294.98
372.355	298.14
372.736	309.89
373.117	306.73
373.498	328.88
373.879	297.46
374.26	295.88
374.641	312.83
375.021	306.96
375.402	316.22
375.783	315.77
376.163	320.29
376.544	325.03
376.925	324.58
377.305	343.11
377.686	330.91
378.066	324.81
378.447	320.06
378.827	362.55
379.208	341.08
379.588	320.51
379.968	320.97
380.349	351.7
380.729	330.23
381.109	338.14
381.489	348.54
381.87	334.07
382.25	332.94
382.63	330.01
383.01	340.17
383.39	339.5
383.77	334.07
384.15	324.36
384.53	346.5
384.91	351.93
385.29	343.79
385.67	333.4
386.049	347.63
386.429	341.53
386.809	339.04
387.189	357.12
387.568	346.73
387.948	349.44
388.328	353.96
388.707	346.5
389.087	352.38
389.466	349.44
389.846	358.93
390.225	353.28
390.605	343.34
390.984	355.32
391.363	367.29
391.743	372.26
392.122	373.39
392.501	344.92
392.881	352.38
393.26	352.38
393.639	364.35
394.018	351.7
394.397	373.62
394.776	374.75
395.155	379.95
395.534	364.81
395.913	358.71
396.292	372.04
396.671	381.53
397.05	359.16
397.429	387.18
397.808	384.69
398.186	360.51
398.565	378.82
398.944	380.85
399.323	384.69
399.701	390.57
400.08	389.66
400.458	407.29
400.837	393.96
401.215	389.66
401.594	417.46
401.972	393.28
402.351	396.67
402.729	393.28
403.107	409.55
403.486	432.38
403.864	407.97
404.242	400.74
404.62	403.9
404.999	398.7
405.377	408.2
405.755	407.07
406.133	428.99
406.511	395.09
406.889	423.79
407.267	428.76
407.645	422.43
408.023	431.7
408.401	444.13
408.779	438.03
409.156	447.74
409.534	438.03
409.912	432.83
410.29	420.62
410.667	454.07
411.045	447.29
411.422	424.01
411.8	452.04
412.178	459.95
412.555	454.52
412.933	472.83
413.31	456.78
413.687	488.42
414.065	462.88
414.442	455.2
414.819	470.57
415.197	472.37
415.574	477.12
415.951	469.44
416.328	478.93
416.705	488.19
417.082	502.88
417.46	478.02
417.837	506.05
418.214	499.72
418.591	490.91
418.967	504.69
419.344	508.53
419.721	513.28
420.098	525.48
420.475	521.19
420.852	529.55
421.228	525.71
421.605	518.93
421.982	542.43
422.358	554.63
422.735	533.16
423.111	520.96
423.488	550.56
423.864	554.86
424.241	557.12
424.617	542.2
424.994	566.16
425.37	568.64
425.746	562.32
426.123	568.42
426.499	560.96
426.875	565.25
427.251	585.82
427.627	590.56
428.003	588.3
428.379	607.96
428.756	610.22
429.132	596.67
429.507	623.11
429.883	621.52
430.259	623.11
430.635	617.91
431.011	622.2
431.387	642.54
431.763	667.62
432.138	634.18
432.514	662.2
432.89	648.87
433.265	642.77
433.641	672.82
434.016	680.05
434.392	663.1
434.767	674.4
435.143	704.46
435.518	707.17
435.894	711.69
436.269	714.18
436.644	707.85
437.02	705.36
437.395	715.31
437.77	731.12
438.145	706.94
438.52	725.7
438.895	754.63
439.271	716.21
439.646	729.99
440.021	752.14
440.395	776.32
440.77	769.99
441.145	768.19
441.52	809.09
441.895	779.94
442.27	786.04
442.645	767.96
443.019	773.61
443.394	789.65
443.769	798.92
444.143	776.32
444.518	809.31
444.892	813.38
445.267	795.08
445.641	816.09
446.016	779.03
446.39	816.55
446.764	831.69
447.139	814.51
447.513	819.26
447.887	820.61
448.262	835.98
448.636	841.18
449.01	843.21
449.384	863.1
449.758	856.32
450.132	872.36
450.506	863.1
450.88	839.82
451.254	856.09
451.628	858.35
452.002	869.88
452.376	887.73
452.75	886.15
453.123	903.55
453.497	902.87
453.871	902.65
454.244	928.41
454.618	904.68
454.992	922.76
455.365	935.41
455.739	979.93
456.112	968.41
456.486	953.49
456.859	993.72
457.232	988.07
457.606	975.86
457.979	1006.82
458.352	1015.41
458.725	999.37
459.099	1036.65
459.472	1038.69
459.845	1059.25
460.218	1037.11
460.591	1049.99
460.964	1066.94
461.337	1117.56
461.71	1119.36
462.083	1104.45
462.456	1100.61
462.829	1126.37
463.201	1129.31
463.574	1134.28
463.947	1153.26
464.32	1155.75
464.692	1198.23
465.065	1184.45
465.438	1228.74
465.81	1216.08
466.183	1242.07
466.555	1218.34
466.928	1234.84
467.3	1260.6
467.672	1271.68
468.045	1278
468.417	1286.82
468.789	1332.01
469.161	1346.02
469.534	1353.71
469.906	1385.57
470.278	1374.5
470.65	1414.04
471.022	1428.96
471.394	1455.4
471.766	1423.54
472.138	1465.57
472.51	1493.14
472.882	1507.15
473.253	1542.63
473.625	1552.35
473.997	1596.64
474.369	1607.94
474.74	1598.22
475.112	1637.32
475.484	1679.12
475.855	1689.07
476.227	1698.78
476.598	1750.08
476.97	1743.08
477.341	1822.17
477.713	1820.59
478.084	1838.44
478.455	1876.63
478.827	1913.47
479.198	1953.01
479.569	1943.97
479.94	2044.31
480.311	2019.9
480.682	2059.9
481.053	2112.11
481.424	2165.21
481.795	2148.71
482.166	2199.33
482.537	2216.28
482.908	2298.54
483.279	2318.2
483.65	2366.34
484.021	2371.08
484.391	2446.56
484.762	2438.88
485.133	2464.41
485.503	2501.25
485.874	2554.13
486.244	2588.03
486.615	2625.76
486.985	2652.43
487.356	2687.68
487.726	2735.82
488.097	2774.01
488.467	2809.49
488.837	2852.2
489.207	2925.19
489.578	2943.5
489.948	2969.71
490.318	2994.34
490.688	2992.53
491.058	3057.39
491.428	3115.92
491.798	3122.7
492.168	3198.4
492.538	3199.08
492.908	3276.59
493.278	3284.28
493.648	3285.41
494.017	3363.15
494.387	3386.87
494.757	3429.81
495.126	3441.11
495.496	3443.37
495.866	3480.88
496.235	3506.87
496.605	3551.84
496.974	3575.34
497.344	3625.06
497.713	3622.35
498.082	3699.41
498.452	3679.52
498.821	3691.05
499.19	3707.09
499.559	3738.73
499.928	3750.93
500.298	3794.77
500.667	3827.77
501.036	3772.4
501.405	3849.01
501.774	3861.66
502.143	3895.34
502.512	3938.95
502.88	3938.72
503.249	3937.82
503.618	3994.99
503.987	4013.52
504.356	4022.79
504.724	4017.59
505.093	4056.46
505.462	4113.63
505.83	4089.91
506.199	4149.79
506.567	4188.66
506.936	4133.75
507.304	4217.81
507.672	4244.93
508.041	4248.77
508.409	4269.79
508.777	4246.29
509.145	4277.7
509.514	4305.95
509.882	4358.37
510.25	4349.79
510.618	4343.01
510.986	4415.1
511.354	4442.44
511.722	4427.98
512.09	4503.23
512.458	4462.33
512.826	4491.7
513.193	4534.19
513.561	4472.72
513.929	4545.04
514.297	4583.23
514.664	4597.01
515.032	4563.57
515.4	4607.63
515.767	4631.59
516.135	4654.19
516.502	4637.24
516.869	4701.87
517.237	4713.17
517.604	4701.87
517.972	4730.34
518.339	4780.74
518.706	4748.87
519.073	4804.24
519.44	4796.33
519.808	4794.97
520.175	4791.81
520.542	4871.35
520.909	4843.33
521.276	4867.97
521.643	4922.43
522.009	4930.56
522.376	4971.47
522.743	4954.06
523.11	5034.97
523.477	5069.32
523.843	5072.25
524.21	5122.87
524.577	5126.49
524.943	5144.57
525.31	5165.36
525.676	5216.66
526.043	5295.75
526.409	5220.5
526.776	5321.06
527.142	5331.68
527.508	5325.35
527.874	5360.83
528.241	5392.25
528.607	5399.7
528.973	5479.25
529.339	5448.29
529.705	5546.14
530.071	5586.36
530.437	5542.98
530.803	5586.36
531.169	5625.23
531.535	5608.28
531.901	5663.88
532.267	5686.02
532.632	5723.08
532.998	5736.42
533.364	5774.83
533.73	5800.37
534.095	5839.69
534.461	5823.19
534.826	5881.5
535.192	5891.67
535.557	5918.11
535.923	5909.52
536.288	5929.41
536.653	5986.13
537.019	5931.67
537.384	5999.01
537.749	6019.35
538.114	6014.38
538.479	6098.67
538.845	6112
539.21	6116.07
539.575	6146.12
539.94	6147.48
540.305	6203.52
540.67	6206.91
541.034	6208.49
541.399	6269.51
541.764	6249.4
542.129	6327.36
542.494	6365.55
542.858	6334.14
543.223	6399.9
543.587	6420.24
543.952	6422.5
544.316	6458.88
544.681	6458.88
545.045	6513.35
545.41	6539.11
545.774	6526.68
546.138	6584.76
546.503	6576.85
546.867	6630.4
547.231	6676.96
547.595	6672.44
547.959	6739.1
548.324	6728.71
548.688	6692.1
549.052	6740.23
549.416	6779.55
549.779	6811.19
550.143	6812.09
550.507	6884.64
550.871	6908.14
551.235	6853
551.599	6925.54
551.962	6933.9
552.326	6992.2
552.689	7012.99
553.053	6949.94
553.417	6996.27
553.78	7101.8
554.143	7055.25
554.507	7084.4
554.87	7147.68
555.234	7193.55
555.597	7140.9
555.96	7198.3
556.323	7240.33
556.686	7205.98
557.05	7219.09
557.413	7246.21
557.776	7306.32
558.139	7304.29
558.502	7362.81
558.865	7367.33
559.228	7398.07
559.59	7455.47
559.953	7475.13
560.316	7504.51
560.679	7530.04
561.041	7584.73
561.404	7572.75
561.767	7627.67
562.129	7591.74
562.492	7671.28
562.854	7692.75
563.217	7704.27
563.579	7699.76
563.941	7768
564.304	7773.2
564.666	7872.41
565.028	7864.72
565.39	7848.9
565.753	7881.45
566.115	7929.13
566.477	7968.67
566.839	7952.86
567.201	8012.74
567.563	8035.57
567.925	8101.78
568.287	8051.16
568.648	8145.85
569.01	8170.48
569.372	8254.77
569.734	8234.88
570.095	8237.37
570.457	8302.68
570.819	8306.29
571.18	8330.25
571.542	8384.93
571.903	8419.06
572.265	8453.86
572.626	8480.3
572.987	8497.02
573.349	8590.35
573.71	8621.31
574.071	8675.77
574.432	8733.4
574.794	8790.35
575.155	8840.06
575.516	8855.43
575.877	8926.62
576.238	8966.16
576.599	9067.85
576.96	9080.51
577.32	9176.55
577.681	9314.63
578.042	9350.33
578.403	9433.04
578.763	9493.61
579.124	9603.21
579.485	9671.23
579.845	9785.8
580.206	9859.02
580.566	9991.22
580.927	10094.95
581.287	10176.53
581.648	10289.07
582.008	10503.52
582.368	10564.99
582.728	10746.91
583.089	10785.1
583.449	10959.78
583.809	11138.99
584.169	11290.62
584.529	11402.26
584.889	11645.64
585.249	11766.31
585.609	11956.37
585.969	12171.5
586.329	12337.15
586.688	12498.73
587.048	12578.5
587.408	12947.07
587.768	13105.49
588.127	13310.91
588.487	13511.13
588.846	13763.78
589.206	13937.56
589.565	14170.55
589.925	14517.65
590.284	14616.86
590.643	14863.41
591.003	15171.2
591.362	15534.35
591.721	15753.1
592.08	15990.84
592.44	16254.56
592.799	16556.47
593.158	16776.8
593.517	17147.64
593.876	17398.26
594.235	17605.03
594.593	17831.01
594.952	18148.52
595.311	18356.88
595.67	18752.8
596.029	19103.07
596.387	19407.92
596.746	19707.8
597.104	19889.49
597.463	20201.57
597.822	20473.2
598.18	20619.64
598.538	20852.86
598.897	21399.73
599.255	21547.53
599.613	22092.37
599.972	22182.76
600.33	22476.54
600.688	22752.69
601.046	23144.32
601.404	23495.5
601.762	23544.08
602.12	24082.38
602.478	24177.51
602.836	24493.44
603.194	24657.28
603.552	25074.44
603.91	25221.55
604.268	25608.66
604.625	25653.63
604.983	26068.99
605.341	26167.97
605.698	26488.19
606.056	26804.56
606.413	26945.8
606.771	27320.03
607.128	27535.62
607.485	27684.54
607.843	27911.43
608.2	28303.28
608.557	28604.97
608.914	28685.19
609.272	28916.15
609.629	29282.01
609.986	29564.27
610.343	29593.42
610.7	30036.12
611.057	30129
611.414	30386.39
611.771	30500.96
612.127	30792.48
612.484	30921.07
612.841	31340.26
613.198	31351.34
613.554	31494.61
613.911	31773.92
614.267	31954.48
614.624	31949.29
614.98	32130.53
615.337	32552.66
615.693	32563.06
616.05	32800.34
616.406	32945.42
616.762	33022.03
617.118	33136.83
617.475	33456.82
617.831	33638.51
618.187	33657.72
618.543	33863.81
618.899	34246.63
619.255	34196.01
619.611	34235.33
619.967	34518.94
620.323	34623.34
620.678	34570.46
621.034	34618.6
621.39	34787.4
621.746	34807.97
622.101	35318.24
622.457	35208.64
622.812	35234.85
623.168	35525.69
623.523	35597.33
623.879	35714.39
624.234	35572.47
624.589	35845.68
624.945	35965.9
625.3	36064.89
625.655	36037.09
626.01	36246.12
626.365	36270.08
626.72	36298.55
627.075	36234.6
627.43	36296.97
627.785	36309.4
628.14	36475.72
628.495	36654.7
628.85	36624.87
629.205	36589.84
629.559	36761.82
629.914	36655.38
630.269	36812.21
630.623	36631.2
630.978	36757.52
631.332	36890.85
631.687	37104.63
632.041	36724.3
632.396	36925.88
632.75	36980.57
633.104	37037.97
633.459	36934.47
633.813	36921.59
634.167	36991.64
634.521	36925.88
634.875	37076.38
635.229	36857.18
635.583	36946.9
635.937	37097.63
636.291	36926.78
636.645	37024.63
636.999	36980.12
637.352	37113.22
637.706	36915.03
638.06	37139.43
638.413	36990.28
638.767	37029.61
639.121	37016.95
639.474	36890.63
639.828	36918.65
640.181	37116.16
640.534	37061.92
640.888	36829.84
641.241	36929.27
641.594	36765.88
641.947	37079.1
642.301	36918.42
642.654	36911.42
643.007	36973.34
643.36	36915.03
643.713	36894.47
644.066	37069.38
644.419	36859.67
644.771	36592.55
645.124	36287.25
645.477	36216.75
645.83	36035.96
646.182	35925
646.535	35795.06
646.888	35826.02
647.24	35659.47
647.593	35896.3
647.945	35769.75
648.298	35656.08
648.65	35607.95
649.002	35607.95
649.355	35658.79
649.707	35793.25
650.059	35756.87
650.411	36288.38
650.763	36257.2
651.115	36564.76
651.467	36524.53
651.819	36424.2
652.171	36383.07
652.523	36489.96
652.875	36437.76
653.227	36343.3
653.578	36548.49
653.93	36522.27
654.282	36366.57
654.633	36269.17
654.985	36359.57
655.337	36245.45
655.688	36334.71
656.039	36456.74
656.391	36089.97
656.742	36302.84
657.094	36237.31
657.445	36384.2
657.796	36340.13
658.147	36047.94
658.498	36150.76
658.849	36283.64
659.2	36237.54
659.551	36162.06
659.902	36374.71
660.253	36197.76
660.604	36174.03
660.955	36033.93
661.306	36272.79
661.656	36238.21
662.007	36065.79
662.358	36140.59
662.708	35931.78
663.059	36013.13
663.409	35888.84
663.76	36190.76
664.11	36062.4
664.461	36100.14
664.811	36102.4
665.161	36049.74
665.511	35982.18
665.862	36034.38
666.212	36077.09
666.562	36225.11
666.912	35957.77
667.262	35969.75
667.612	36078.44
667.962	36160.48
668.312	35987.15
668.662	36200.25
669.011	36103.53
669.361	35943.53
669.711	36012.46
670.06	35951.44
670.41	35885.68
670.76	35895.4
671.109	35983.76
671.459	36003.19
671.808	35907.83
672.157	35899.47
672.507	35669.42
672.856	35728.4
673.205	35897.43
673.554	36003.42
673.904	35697.89
674.253	35897.66
674.602	35769.75
674.951	35267.17
675.3	35218.81
675.649	35734.95
675.998	35709.19
676.346	35607.5
676.695	35783.99
677.044	35462.87
677.393	35635.52
677.741	35588.06
678.09	35459.93
678.438	35456.77
678.787	35536.54
679.135	35523.66
679.484	35259.03
679.832	35326.83
680.181	35220.61
680.529	35399.37
680.877	35199.37
681.225	35237.11
681.573	35500.38
681.922	35103.55
682.27	35114.63
682.618	35038.7
682.966	35037.79
683.314	35214.96
683.661	34886.84
684.009	34934.29
684.357	34768.2
684.705	34659.05
685.053	34817.69
685.4	34647.52
685.748	34436.45
686.095	34605.04
686.443	34469.22
686.79	34232.84
687.138	34277.36
687.485	34334.54
687.832	34257.93
688.18	34334.76
688.527	34104.03
688.874	33990.82
689.221	34072.62
689.568	33831.5
689.915	33751.05
690.262	33830.37
690.609	33719.18
690.956	33598.74
691.303	33698.62
691.65	33509.25
691.997	33547.44
692.344	33339.76
692.69	33240.33
693.037	33257.95
693.383	33058.86
693.73	33101.35
694.077	32956.27
694.423	32888.02
694.769	32738.19
695.116	32817.29
695.462	32676.95
695.808	32634.24
696.155	32653.68
696.501	32397.86
696.847	32372.1
697.193	32152.45
697.539	32319.45
697.885	32090.07
698.231	32000.81
698.577	31954.94
698.923	31906.35
699.269	31803.3
699.614	31673.14
699.96	31622.29
700.306	31550.88
700.651	31408.28
700.997	31409.19
701.342	31345.01
701.688	31239.7
702.033	31209.19
702.379	31118.57
702.724	31138.01
703.069	31124.68
703.415	30756.78
703.76	30784.35
704.105	30831.12
704.45	30660.96
704.795	30476.11
705.14	30475.88
705.485	30504.13
705.83	30263.46
706.175	30327.18
706.52	30032.5
706.865	30113.18
707.209	30115.66
707.554	30022.11
707.899	30041.54
708.243	29862.34
708.588	29833.64
708.932	29642.46
709.277	29616.92
709.621	29701.66
709.966	29559.07
710.31	29594.77
710.654	29357.04
710.998	29371.73
711.342	29452.18
711.687	29234.78
712.031	29265.29
712.375	29043.37
712.719	29253.09
713.063	29000.44
713.407	29077.5
713.75	28948.46
714.094	28898.07
714.438	28679.32
714.782	28723.38
715.125	28710.73
715.469	28639.09
715.812	28467.34
716.156	28345.99
716.499	28421.02
716.843	28488.81
717.186	28280.91
717.53	28329.5
717.873	28397.97
718.216	28305.99
718.559	28171.76
718.902	27906.91
719.246	28064.19
719.589	27950.75
719.932	27764.09
720.275	27846.34
720.617	27855.61
720.96	27706.69
721.303	27719.12
721.646	27736.06
721.989	27626.46
722.331	27745.78
722.674	27614.49
723.016	27634.6
723.359	27464.43
723.701	27576.29
724.044	27256.08
724.386	27266.47
724.729	27411.33
725.071	27327.04
725.413	27227.83
725.755	27200.49
726.097	27097.21
726.439	27012.47
726.782	26999.13
727.124	27075.97
727.465	27008.17
727.807	26861.29
728.149	26847.5
728.491	26852.25
728.833	26889.53
729.175	26746.71
729.516	26720.95
729.858	26672.36
730.199	26705.81
730.541	26616.77
730.882	26664
731.224	26553.72
731.565	26398.7
731.906	26454.06
732.248	26516.89
732.589	26249.32
732.93	26273.96
733.271	26325.03
733.612	26262.66
733.953	26407.29
734.294	26253.17
734.635	26171.13
734.976	26196.22
735.317	25992.61
735.658	26061.08
735.999	26012.04
736.339	25916.45
736.68	26109.67
737.021	25934.53
737.361	25859.96
737.702	26063.34
738.042	25912.38
738.383	25764.59
738.723	25852.72
739.063	25687.76
739.404	25605.95
739.744	25585.16
740.084	25494.77
740.424	25610.47
740.764	25566.63
741.104	25606.4
741.444	25425.39
741.784	25297.03
742.124	25415.22
742.464	25369.8
742.804	25396.69
743.143	25186.08
743.483	25266.52
743.823	25208.22
744.162	25110.14
744.502	25241.67
744.841	25020.43
745.181	25133.65
745.52	24976.59
745.86	25126.19
746.199	24970.26
746.538	24971.17
746.877	24919.19
747.216	24928.68
747.556	24908.79
747.895	24895.24
748.234	24740.66
748.573	24731.17
748.911	24687.11
749.25	24682.13
749.589	24622.7
749.928	24612.76
750.267	24680.78
750.605	24539.99
750.944	24457.05
751.283	24413.89
751.621	24465.87
751.96	24346.55
752.298	24463.38
752.636	24257.06
752.975	24153.79
753.313	24143.16
753.651	24189.94
753.989	24092.09
754.327	24074.92
754.666	23909.95
755.004	23909.05
755.342	23940.23
755.679	23917.18
756.017	23646.45
756.355	23782.27
756.693	23535.5
757.031	23792.44
757.368	23664.76
757.706	23605.33
758.044	23618.88
758.381	23403.52
758.719	23309.51
759.056	23420.02
759.394	23243.53
759.731	23235.39
760.068	23117.65
760.405	23123.3
760.743	22991.78
761.08	23001.27
761.417	22970.09
761.754	22884.89
762.091	22806.93
762.428	22730.32
762.765	22612.81
763.102	22744.33
763.438	22579.36
763.775	22348.18
764.112	22475.64
764.449	22454.62
764.785	22391.8
765.122	22215.31
765.458	22076.78
765.795	22167.17
766.131	22036.78
766.467	22082.65
766.804	21910
767.14	21839.04
767.476	21817.8
767.812	21706.62
768.148	21703.45
768.485	21611.03
768.821	21557.92
769.157	21504.82
769.492	21345.95
769.828	21284.71
770.164	21133.53
770.5	21078.61
770.836	21109.57
771.171	20888.33
771.507	20928.11
771.842	20794.1
772.178	20840.88
772.513	20806.3
772.849	20687.89
773.184	20620.55
773.519	20595.24
773.855	20362.47
774.19	20401.79
774.525	20268.69
774.86	20397.73
775.195	20219.2
775.53	20171.29
775.865	20025.53
776.2	19955.7
776.535	19809.95
776.87	19802.71
777.205	19699.21
777.539	19776.5
777.874	19653.57
778.209	19578.54
778.543	19470.07
778.878	19347.81
779.212	19366.34
779.547	19271.43
779.881	19187.14
780.215	19059.91
780.55	19230.53
780.884	19012.45
781.218	18988.95
781.552	18854.72
781.886	18812.01
782.22	18720.93
782.554	18660.37
782.888	18528.62
783.222	18529.07
783.556	18328.18
783.889	18353.71
784.223	18114.4
784.557	18160.27
784.89	18213.83
785.224	18137.45
785.557	18016.77
785.891	17992.37
786.224	17902.65
786.558	17902.65
786.891	17744.46
787.224	17701.98
787.557	17668.76
787.891	17678.93
788.224	17626.95
788.557	17539.95
788.89	17539.27
789.223	17415.88
789.556	17364.59
789.888	17314.42
790.221	17262.44
790.554	17097.25
790.887	16999.85
791.219	16963.24
791.552	17006.86
791.884	16853.64
792.217	16836.01
792.549	16789.23
792.882	16659.75
793.214	16577.26
793.546	16598.28
793.879	16492.97
794.211	16447.32
794.543	16441.22
794.875	16447.77
795.207	16292.52
795.539	16311.96
795.871	16263.15
796.203	16149.7
796.535	16047.56
796.867	16025.41
797.198	15970.5
797.53	16016.6
797.862	15838.98
798.193	15933.21
798.525	15802.14
798.856	15887.11
799.188	15709.71
799.519	15659.55
799.85	15542.03
800.182	15544.52
800.513	15622.94
800.844	15400.12
801.175	15490.28
801.506	15401.02
801.837	15345.88
802.168	15348.37
802.499	15235.15
802.83	15198.77
803.161	15140.24
803.491	15143.18
803.822	15072.22
804.153	15001.71
804.483	14860.47
804.814	14852.34
805.145	14836.06
805.475	14810.3
805.805	14736.63
806.136	14667.03
806.466	14746.58
806.796	14667.03
807.126	14644.88
807.457	14600.59
807.787	14478.79
808.117	14446.24
808.447	14423.65
808.777	14512.23
809.107	14406.47
809.436	14382.07
809.766	14304.78
810.096	14309.52
810.426	14169.42
810.755	14220.49
811.085	14095.97
811.414	14093.94
811.744	14071.34
812.073	13938.91
812.403	14093.03
812.732	14008.29
813.061	13831.57
813.39	13812.14
813.719	13859.59
814.049	13923.32
814.378	13869.08
814.707	13748.41
815.036	13746.83
815.365	13620.28
815.693	13475.2
816.022	13634.97
816.351	13558.13
816.68	13436.55
817.008	13491.69
817.337	13402.43
817.665	13330.12
817.994	13339.15
818.322	13355.88
818.651	13307.29
818.979	13184.81
819.307	13330.12
819.636	13257.58
819.964	13147.97
820.292	13203.11
820.62	13191.36
820.948	13142.32
821.276	13121.53
821.604	13192.49
821.932	13116.11
822.259	13169.22
822.587	13125.38
822.915	13078.82
823.243	13095.55
823.57	13058.48
823.898	13139.39
824.225	13108.88
824.553	13023.23
824.88	13113.62
825.207	13075.21
825.535	12974.19
825.862	13101.87
826.189	13042.21
826.516	13053.29
826.843	13070.91
827.17	13029.56
827.497	13085.83
827.824	13165.15
828.151	13042.67
828.478	13168.76
828.805	13068.43
829.131	12980.07
829.458	12999.28
829.785	12917.02
830.111	12909.34
830.438	13044.25
830.764	12957.92
831.09	13024.36
831.417	12955.89
831.743	13008.54
832.069	12951.14
832.395	12908.43
832.722	12912.95
833.048	12942.1
833.374	12987.3
833.7	12907.3
834.026	12914.76
834.351	12957.47
834.677	12868.88
835.003	12839.73
835.329	12877.92
835.654	12851.48
835.98	12737.36
836.306	12763.8
836.631	12743.69
836.956	12793.41
837.282	12735.33
837.607	12659.4
837.932	12703.69
838.258	12661.21
838.583	12669.34
838.908	12569.68
839.233	12596.35
839.558	12547.99
839.883	12557.25
840.208	12477.03
840.533	12509.35
840.858	12502.57
841.182	12427.99
841.507	12451.27
841.832	12367.2
842.156	12341.44
842.481	12339.63
842.805	12286.53
843.13	12316.36
843.454	12341.67
843.778	12264.83
844.103	12176.02
844.427	12274.1
844.751	12195.23
845.075	12145.97
845.399	12037.72
845.723	11977.16
846.047	11984.16
846.371	11950.72
846.695	11993.2
847.019	11825.07
847.343	11840.66
847.666	11712.53
847.99	11742.59
848.313	11720.67
848.637	11694.9
848.96	11585.98
849.284	11681.35
849.607	11569.94
849.931	11458.07
850.254	11434.12
850.577	11303.5
850.9	11198.42
851.223	11309.38
851.546	11174.69
851.869	11137.4
852.192	11202.26
852.515	10995.94
852.838	11012.89
853.161	11018.54
853.483	11014.7
853.806	10883.17
854.129	10931.31
854.451	10870.52
854.774	10817.41
855.096	10819.9
855.419	10687.02
855.741	10742.39
856.063	10647.7
856.385	10622.16
856.708	10592.56
857.03	10561.15
857.352	10615.38
857.674	10486.8
857.996	10460.59
858.318	10396.63
858.64	10454.48
858.961	10360.93
859.283	10329.29
859.605	10340.36
859.926	10354.37
860.248	10268.05
860.57	10216.98
860.891	10285.9
861.212	10202.74
861.534	10122.74
861.855	10194.38
862.176	10168.62
862.498	10156.19
862.819	10123.19
863.14	10051.33
863.461	9980.6
863.782	9999.58
864.103	10039.81
864.424	9985.8
864.745	10054.95
865.065	9993.25
865.386	9881.39
865.707	9946.7
866.027	9910.54
866.348	9874.61
866.668	9909.64
866.989	9866.25
867.309	9770.44
867.63	9822.64
867.95	9866.25
868.27	9779.93
868.59	9701.28
868.91	9807.95
869.23	9770.89
869.55	9697.89
869.87	9745.58
870.19	9652.47
870.51	9724.79
870.83	9656.99
871.15	9658.8
871.469	9604.56
871.789	9616.77
872.109	9646.37
872.428	9543.77
872.748	9613.6
873.067	9574.51
873.386	9575.41
873.706	9564.56
874.025	9445.7
874.344	9525.02
874.663	9545.81
874.982	9433.95
875.301	9411.35
875.62	9435.08
875.939	9477.79
876.258	9419.94
876.577	9381.74
876.896	9359.82
877.214	9312.37
877.533	9257
877.852	9319.6
878.17	9346.72
878.489	9349.43
878.807	9337.68
879.125	9304.01
879.444	9256.55
879.762	9170.9
880.08	9273.05
880.398	9154.18
880.716	9169.77
881.034	9092.26
881.352	9154.41
881.67	9102.43
881.988	9097.68
882.306	9012.04
882.624	9018.59
882.941	9004.13
883.259	9028.99
883.577	8995.99
883.894	8971.13
884.212	8960.29
884.529	8875.77
884.846	8903.79
885.164	8889.78
885.481	8843.91
885.798	8836
886.115	8772.5
886.432	8801.87
886.75	8758.26
887.067	8770.69
887.383	8776.11
887.7	8756.22
888.017	8649.79
888.334	8641.88
888.651	8656.11
888.967	8636.68
889.284	8617.7
889.6	8592.16
889.917	8562.11
890.233	8575.44
890.55	8531.82
890.866	8513.75
891.182	8532.28
891.498	8473.07
891.815	8393.52
892.131	8382.22
892.447	8329.57
892.763	8373.18
893.079	8361.66
893.395	8313.98
893.71	8299.51
894.026	8220.42
894.342	8231.27
894.657	8239.63
894.973	8219.29
895.289	8102.46
895.604	8185.84
895.92	8061.78
896.235	8068.33
896.55	8043.93
896.865	7991.27
897.181	7986.98
897.496	7991.5
897.811	7915.79
898.126	7929.13
898.441	7811.84
898.756	7860.65
899.071	7791.96
899.386	7858.62
899.7	7815.91
900.015	7688.23
900.33	7691.39
900.644	7661.79
900.959	7692.3
901.273	7590.83
901.588	7599.19
901.902	7538.63
902.216	7482.36
902.531	7544.73
902.845	7469.48
903.159	7480.33
903.473	7425.41
903.787	7369.37
904.101	7329.14
904.415	7360.33
904.729	7334.57
905.042	7299.31
905.356	7257.96
905.67	7224.74
905.984	7248.47
906.297	7177.96
906.611	7084.63
906.924	7128.7
907.237	7152.88
907.551	7076.49
907.864	7121.69
908.177	7065.87
908.491	6982.26
908.804	6956.72
909.117	6954.46
909.43	6953.33
909.743	6888.48
910.056	6907.69
910.368	6864.97
910.681	6829.5
910.994	6755.83
911.307	6766.9
911.619	6688.71
911.932	6787.69
912.244	6641.48
912.557	6631.76
912.869	6588.15
913.181	6623.17
913.494	6559.9
913.806	6510.18
914.118	6504.08
914.43	6447.81
914.742	6457.08
915.054	6411.88
915.366	6431.77
915.678	6338.89
915.99	6349.96
916.302	6250.3
916.613	6346.57
916.925	6260.47
917.236	6308.38
917.548	6220.25
917.859	6245.78
918.171	6143.19
918.482	6136.63
918.794	6137.99
919.105	6151.1
919.416	6043.3
919.727	6038.56
920.038	6054.37
920.349	5976.86
920.66	5960.82
920.971	5940.03
921.282	5910.42
921.593	5886.24
921.903	5853.93
922.214	5865
922.525	5834.72
922.835	5829.07
923.146	5790.43
923.456	5755.85
923.767	5725.57
924.077	5665.68
924.387	5716.76
924.697	5667.94
925.008	5667.94
925.318	5568.74
925.628	5647.61
925.938	5609.19
926.248	5507.5
926.558	5494.62
926.867	5485.58
927.177	5488.74
927.487	5419.14
927.796	5386.14
928.106	5399.25
928.416	5400.15
928.725	5340.27
929.034	5310.44
929.344	5317.44
929.653	5347.73
929.962	5255.98
930.271	5262.53
930.581	5224.34
930.89	5197.22
931.199	5148.18
931.508	5171.23
931.817	5166.94
932.125	5110.22
932.434	5138.01
932.743	5073.38
933.051	5055.98
933.36	5034.74
933.669	5048.3
933.977	4995.87
934.286	4920.62
934.594	4941.86
934.902	4905.25
935.21	4873.16
935.519	4897.34
935.827	4891.02
936.135	4834.29
936.443	4794.29
936.751	4795.2
937.059	4797.91
937.367	4723.56
937.674	4778.25
937.982	4763.34
938.29	4703.9
938.597	4659.84
938.905	4693.73
939.213	4630.68
939.52	4608.76
939.827	4650.34
940.135	4597.69
940.442	4571.48
940.749	4529.22
941.056	4561.53
941.363	4510.46
941.67	4485.15
941.977	4435.66
942.284	4407.41
942.591	4441.76
942.898	4406.73
943.205	4379.16
943.511	4333.06
943.818	4340.07
944.125	4341.88
944.431	4307.08
944.738	4303.91
945.044	4292.61
945.35	4242.67
945.657	4236.8
945.963	4246.74
946.269	4242.67
946.575	4215.55
946.881	4154.09
947.187	4175.1
947.493	4159.51
947.799	4133.3
948.105	4096.69
948.41	4030.02
948.716	4036.8
949.022	4059.17
949.327	4038.38
949.633	4033.41
949.938	3995.22
950.244	3999.29
950.549	3995.67
950.854	3953.19
951.16	3929.68
951.465	3886.97
951.77	3895.11
952.075	3882.68
952.38	3865.96
952.685	3876.35
952.99	3825.51
953.294	3849.91
953.599	3787.09
953.904	3787.32
954.209	3769.46
954.513	3754.1
954.818	3747.54
955.122	3725.85
955.426	3715.45
955.731	3681.33
956.035	3687.88
956.339	3640.88
956.643	3610.15
956.948	3580.77
957.252	3625.51
957.556	3605.85
957.86	3604.95
958.163	3549.58
958.467	3529.24
958.771	3522.24
959.075	3525.18
959.378	3520.66
959.682	3498.51
959.985	3476.82
960.289	3436.59
960.592	3442.01
960.896	3440.88
961.199	3410.15
961.502	3414.67
961.805	3363.37
962.108	3325.41
962.411	3334.9
962.714	3367.67
963.017	3348.68
963.32	3319.08
963.623	3317.95
963.926	3314.79
964.228	3289.7
964.531	3263.49
964.833	3236.6
965.136	3220.55
965.438	3242.02
965.741	3223.94
966.043	3179.2
966.345	3159.08
966.648	3200.89
966.95	3144.85
967.252	3182.81
967.554	3155.02
967.856	3098.07
968.158	3090.84
968.46	3072.31
968.761	3095.36
969.063	3067.79
969.365	3031.63
969.666	3016.26
969.968	3014.23
970.269	2983.04
970.571	3004.29
970.872	2971.74
971.174	2980.11
971.475	2927.45
971.776	2943.27
972.077	2866.21
972.378	2938.75
972.679	2929.94
972.98	2872.99
973.281	2878.64
973.582	2875.93
973.883	2855.36
974.183	2866.66
974.484	2802.48
974.785	2824.63
975.085	2789.6
975.386	2786.44
975.686	2754.35
975.986	2735.82
976.287	2713.67
976.587	2726.1
976.887	2683.62
977.187	2719.32
977.487	2706.89
977.787	2662.83
978.087	2682.94
978.387	2656.72
978.687	2658.08
978.987	2635.48
979.286	2606.78
979.586	2618.76
979.885	2620.11
980.185	2599.1
980.484	2603.39
980.784	2587.35
981.083	2569.27
981.382	2562.72
981.682	2538.08
981.981	2525.43
982.28	2525.43
982.579	2514.35
982.878	2498.99
983.177	2483.85
983.475	2488.82
983.774	2457.63
984.073	2455.83
984.372	2437.97
984.67	2430.06
984.969	2424.87
985.267	2412.44
985.566	2401.82
985.864	2392.55
986.162	2360.23
986.461	2348.94
986.759	2381.48
987.057	2357.07
987.355	2330.63
987.653	2330.86
987.951	2334.92
988.249	2319.56
988.547	2297.41
988.844	2313.91
989.142	2265.1
989.44	2280.91
989.737	2266.23
990.035	2229.84
990.332	2236.17
990.63	2220.13
990.927	2223.97
991.224	2223.74
991.521	2166.57
991.819	2200.46
992.116	2148.94
992.413	2157.08
992.71	2157.08
993.006	2142.39
993.303	2136.29
993.6	2142.39
993.897	2101.03
994.193	2115.27
994.49	2090.41
994.787	2095.16
995.083	2098.55
995.379	2053.58
995.676	2041.82
995.972	2078.89
996.268	2074.82
996.565	2000.02
996.861	1999.57
997.157	1996.85
997.453	1991.43
997.749	2005.22
998.044	1985.33
998.34	1975.61
998.636	1958.66
998.932	1990.53
999.227	1930.42
999.523	1919.79
999.818	1937.65
1000.114	1909.85
1000.409	1885.44
1000.704	1878.67
1001	1893.81
1001.295	1875.73
1001.59	1864.43
1001.885	1913.01
1002.18	1852.68
1002.475	1842.51
1002.77	1840.02
1003.065	1821.27
1003.359	1834.37
1003.654	1800.02
1003.949	1773.58
1004.243	1792.34
1004.538	1780.14
1004.832	1750.08
1005.127	1750.53
1005.421	1735.84
1005.715	1741.95
1006.009	1720.25
1006.304	1709.4
1006.598	1695.62
1006.892	1698.11
1007.186	1675.73
1007.48	1639.12
1007.773	1649.97
1008.067	1645.9
1008.361	1641.38
1008.655	1668.28
1008.948	1629.18
1009.242	1603.87
1009.535	1600.25
1009.829	1575.62
1010.122	1578.11
1010.415	1597.09
1010.708	1594.6
1011.001	1569.29
1011.295	1559.35
1011.588	1555.51
1011.881	1525.45
1012.173	1537.66
1012.466	1511.44
1012.759	1513.48
1013.052	1527.04
1013.344	1482.07
1013.637	1497.21
1013.93	1505.57
1014.222	1482.74
1014.514	1461.28
1014.807	1479.35
1015.099	1436.19
1015.391	1459.47
1015.683	1446.81
1015.976	1413.59
1016.268	1400.94
1016.56	1397.1
1016.851	1388.96
1017.143	1389.41
1017.435	1414.04
1017.727	1351.22
1018.018	1371.11
1018.31	1359.13
1018.602	1343.31
1018.893	1333.59
1019.185	1347.15
1019.476	1331.34
1019.767	1338.79
1020.058	1316.19
1020.35	1304.22
1020.641	1326.36
1020.932	1308.28
1021.223	1287.72
1021.514	1284.1
1021.804	1264.67
1022.095	1259.25
1022.386	1240.26
1022.677	1258.12
1022.967	1214.05
1023.258	1235.07
1023.548	1188.97
1023.839	1236.42
1024.129	1229.19
1024.419	1196.2
1024.709	1167.72
1025	1171.79
1025.29	1181.51
1025.58	1186.71
1025.87	1183.99
1026.16	1140.15
1026.449	1154.62
1026.739	1144.45
1027.029	1139.25
1027.319	1129.76
1027.608	1104
1027.898	1104.9
1028.187	1121.17
1028.477	1107.39
1028.766	1087.95
1029.055	1083.66
1029.344	1069.42
1029.634	1083.21
1029.923	1036.43
1030.212	1052.92
1030.501	1053.15
1030.79	1076.65
1031.078	1048.18
1031.367	1031.46
1031.656	1040.27
1031.945	1009.31
1032.233	1019.25
1032.522	1022.19
1032.81	978.12
1033.099	993.26
1033.387	959.14
1033.675	995.75
1033.963	955.3
1034.251	961.85
1034.54	973.15
1034.828	940.38
1035.116	940.38
1035.403	924.34
1035.691	935.19
1035.979	934.96
1036.267	922.31
1036.554	923.21
1036.842	894.74
1037.129	892.7
1037.417	881.63
1037.704	885.02
1037.992	909.2
1038.279	877.34
1038.566	878.24
1038.853	878.24
1039.14	878.24
