Data from hue_120_FLMS001491_00022.txt Node
Date: Tue Feb 07 16:59:07 GMT 2017
User: dcchb
Spectrometer: FLMS00149
Trigger mode: 0
Integration Time (sec): 2.000000E-2
Scans to average: 10
Electric dark correction enabled: true
Nonlinearity correction enabled: false
Boxcar width: 0
XAxis mode: Wavelengths
Number of Pixels in Spectrum: 2048
>>>>>Begin Spectral Data<<<<<
341.393	-29.83
341.776	-29.83
342.16	-29.83
342.543	-49.26
342.927	-53.78
343.31	-54.46
343.693	-89.26
344.077	-51.52
344.46	-63.5
344.843	-52.88
345.226	-51.07
345.61	-44.29
345.993	-36.16
346.376	-11.3
346.759	14.01
347.142	30.73
347.525	32.54
347.908	67.57
348.291	80.68
348.674	97.17
349.057	131.75
349.44	101.24
349.823	155.48
350.206	143.73
350.588	192.31
350.971	209.03
351.354	232.08
351.737	233.67
352.119	226.43
352.502	256.49
352.884	288.13
353.267	293.33
353.65	288.13
354.032	287.9
354.414	304.85
354.797	297.17
355.179	308.47
355.562	338.75
355.944	325.19
356.326	333.55
356.709	329.48
357.091	324.74
357.473	327.9
357.855	338.97
358.238	346.43
358.62	320.9
359.002	330.39
359.384	327.68
359.766	332.19
360.148	318.18
360.53	320.44
360.912	325.64
361.294	339.88
361.676	304.4
362.057	311.18
362.439	326.77
362.821	319.99
363.203	340.56
363.584	315.47
363.966	319.77
364.348	322.03
364.729	316.83
365.111	338.97
365.493	319.77
365.874	315.02
366.256	298.98
366.637	296.26
367.019	299.2
367.4	297.17
367.781	310.05
368.163	330.61
368.544	313.89
368.925	302.59
369.306	320.9
369.688	312.08
370.069	319.99
370.45	311.63
370.831	314.79
371.212	314.12
371.593	308.47
371.974	311.18
372.355	314.12
372.736	326.09
373.117	325.19
373.498	338.07
373.879	312.53
374.26	328.8
374.641	310.05
375.021	323.38
375.402	326.09
375.783	333.78
376.163	331.74
376.544	325.42
376.925	318.86
377.305	342.59
377.686	332.19
378.066	309.37
378.447	332.19
378.827	326.32
379.208	337.84
379.588	325.19
379.968	343.27
380.349	346.88
380.729	342.82
381.109	355.02
381.489	331.97
381.87	351.86
382.25	337.84
382.63	335.58
383.01	337.39
383.39	355.02
383.77	351.4
384.15	334
384.53	338.52
384.91	348.01
385.29	358.63
385.67	356.37
386.049	355.02
386.429	343.72
386.809	346.88
387.189	357.73
387.568	383.04
387.948	355.24
388.328	360.67
388.707	358.18
389.087	361.8
389.466	374.45
389.846	355.02
390.225	351.86
390.605	387.56
390.984	365.41
391.363	344.17
391.743	361.8
392.122	399.31
392.501	371.06
392.881	375.58
393.26	367.45
393.639	362.02
394.018	376.49
394.397	383.27
394.776	390.27
395.155	395.24
395.534	391.18
395.913	374.45
396.292	390.05
396.671	395.47
397.05	390.72
397.429	402.7
397.808	385.53
398.186	411.97
398.565	375.81
398.944	400.67
399.323	367.67
399.701	382.59
400.08	407.45
400.458	402.02
400.837	402.25
401.215	424.4
401.594	418.97
401.972	431.85
402.351	408.8
402.729	389.82
403.107	423.04
403.486	437.95
403.864	449.71
404.242	429.14
404.62	437.95
404.999	436.6
405.377	407.45
405.755	438.63
406.133	425.07
406.511	416.03
406.889	426.2
407.267	439.76
407.645	449.93
408.023	432.31
408.401	465.3
408.779	454
409.156	477.28
409.534	478.18
409.912	453.77
410.29	474.56
410.667	478.63
411.045	485.41
411.422	456.03
411.8	483.15
412.178	486.31
412.555	468.69
412.933	469.37
413.31	483.83
413.687	487.9
414.065	509.82
414.442	508.01
414.819	515.47
415.197	502.59
415.574	494.45
415.951	514.56
416.328	517.5
416.705	519.76
417.082	503.72
417.46	537.84
417.837	511.17
418.214	512.53
418.591	541.23
418.967	523.15
419.344	528.12
419.721	541.68
420.098	549.36
420.475	545.75
420.852	526.77
421.228	568.12
421.605	538.74
421.982	546.43
422.358	557.73
422.735	550.04
423.111	572.87
423.488	569.7
423.864	571.96
424.241	603.6
424.617	584.62
424.994	586.88
425.37	620.32
425.746	591.85
426.123	608.12
426.499	624.62
426.875	627.78
427.251	606.54
427.627	620.1
428.003	654.67
428.379	631.62
428.756	632.07
429.132	661
429.507	626.88
429.883	657.61
430.259	669.36
430.635	638.4
431.011	683.15
431.387	688.8
431.763	686.99
432.138	689.25
432.514	681.34
432.89	685.86
433.265	703.03
433.641	732.86
434.016	703.48
434.392	747.78
434.767	742.13
435.143	733.99
435.518	739.42
435.894	750.94
436.269	738.51
436.644	765.18
437.02	758.85
437.395	779.41
437.77	790.49
438.145	780.09
438.52	797.72
438.895	838.85
439.271	804.5
439.646	817.83
440.021	809.02
440.395	840.66
440.77	809.47
441.145	821.22
441.52	841.11
441.895	854.44
442.27	832.75
442.645	851.28
443.019	859.64
443.394	887.21
443.769	870.49
444.143	885.85
444.518	881.56
444.892	885.17
445.267	898.96
445.641	901.67
446.016	881.11
446.39	900.09
446.764	900.77
447.139	915
447.513	918.17
447.887	925.17
448.262	918.62
448.636	923.14
449.01	941.9
449.384	952.07
449.758	937.15
450.132	954.1
450.506	950.94
450.88	980.31
451.254	975.79
451.628	991.61
452.002	982.57
452.376	1024.83
452.75	1027.32
453.123	1028.67
453.497	1056.02
453.871	1059.86
454.244	1069.12
454.618	1084.27
454.992	1083.59
455.365	1063.7
455.739	1116.58
456.112	1115.68
456.486	1090.37
456.859	1153.19
457.232	1127.43
457.606	1164.94
457.979	1174.88
458.352	1214.66
458.725	1206.75
459.099	1199.06
459.472	1236.8
459.845	1253.98
460.218	1258.05
460.591	1259.18
460.964	1299.63
461.337	1323.58
461.71	1308.21
462.083	1336.24
462.456	1344.15
462.829	1344.6
463.201	1370.81
463.574	1397.25
463.947	1439.51
464.32	1462.79
464.692	1469.57
465.065	1475.89
465.438	1479.51
465.81	1537.81
466.183	1540.52
466.555	1580.75
466.928	1615.78
467.3	1583.69
467.672	1646.28
468.045	1649.67
468.417	1698.49
468.789	1721.99
469.161	1723.12
469.534	1773.74
469.906	1830.01
470.278	1845.6
470.65	1874.75
471.022	1912.27
471.394	1955.65
471.766	1960.63
472.138	1996.11
472.51	2039.72
472.882	2082.88
473.253	2102.54
473.625	2153.39
473.997	2236.55
474.369	2247.85
474.74	2318.81
475.112	2363.78
475.484	2444.68
475.855	2444
476.227	2496.43
476.598	2587.73
476.97	2628.63
477.341	2725.35
477.713	2822.52
478.084	2837.21
478.455	2931.67
478.827	3012.35
479.198	3130.99
479.569	3165.11
479.94	3284.66
480.311	3291.66
480.682	3447.82
481.053	3566.91
481.424	3660.02
481.795	3730.52
482.166	3784.99
482.537	3928.03
482.908	4032.21
483.279	4138.65
483.65	4254.8
484.021	4409.6
484.391	4476.27
484.762	4602.36
485.133	4674.23
485.503	4803.49
485.874	4970.72
486.244	5067.44
486.615	5216.59
486.985	5337.49
487.356	5485.28
487.726	5592.62
488.097	5734.54
488.467	5847.08
488.837	6046.85
489.207	6186.96
489.578	6344.01
489.948	6448.19
490.318	6718.02
490.688	6685.25
491.058	6870.78
491.428	7061.51
491.798	7190.55
492.168	7402.52
492.538	7454.95
492.908	7675.5
493.278	7787.82
493.648	7925.44
494.017	8064.65
494.387	8261.7
494.757	8366.11
495.126	8506.89
495.496	8630.73
495.866	8709.6
496.235	8866.66
496.605	8971.06
496.974	9137.61
497.344	9312.52
497.713	9442.92
498.082	9503.25
498.452	9699.86
498.821	9816.92
499.19	9929.91
499.559	10007.65
499.928	10111.15
500.298	10184.59
500.667	10365.38
501.036	10473.17
501.405	10625.26
501.774	10644.92
502.143	10732.6
502.512	10877.45
502.88	11039.03
503.249	11067.28
503.618	11142.31
503.987	11244.68
504.356	11287.16
504.724	11478.34
505.093	11495.52
505.462	11566.25
505.83	11651.45
506.199	11740.03
506.567	11941.61
506.936	11893.02
507.304	12091.21
507.672	12178.89
508.041	12217.31
508.409	12371.65
508.777	12388.37
509.145	12486.23
509.514	12554.47
509.882	12593.57
510.25	12609.61
510.618	12789.04
510.986	12748.82
511.354	12825.43
511.722	12974.35
512.09	13045.76
512.458	13083.5
512.826	13142.25
513.193	13217.96
513.561	13251.63
513.929	13367.56
514.297	13403.26
514.664	13506.09
515.032	13451.4
515.4	13588.57
515.767	13582.24
516.135	13670.6
516.502	13515.12
516.869	13812.07
517.237	13782.46
517.604	13685.52
517.972	13827.21
518.339	13880.09
518.706	13940.2
519.073	13975.68
519.44	13914.21
519.808	14071.27
520.175	13978.16
520.542	14171.6
520.909	14225.61
521.276	14224.94
521.643	14294.99
522.009	14278.95
522.376	14346.52
522.743	14411.15
523.11	14453.41
523.477	14563.91
523.843	14519.39
524.21	14614.08
524.577	14694.3
524.943	14734.08
525.31	14722.78
525.676	14775.88
526.043	14823.57
526.409	14855.88
526.776	14930.68
527.142	14915.77
527.508	14957.8
527.874	15007.29
528.241	15124.12
528.607	14997.12
528.973	15067.17
529.339	14978.82
529.705	15048.42
530.071	15208.41
530.437	15057.01
530.803	15172.26
531.169	15142.43
531.535	15025.37
531.901	15097.46
532.267	15112.37
532.632	15215.87
532.998	15154.18
533.364	15188.75
533.73	15159.38
534.095	15165.02
534.461	15208.19
534.826	15187.4
535.192	15037.12
535.557	15189.21
535.923	15041.86
536.288	15160.96
536.653	15070.56
537.019	15000.28
537.384	14992.6
537.749	15012.94
538.114	14952.83
538.479	14941.75
538.845	14906.95
539.21	14823.79
539.575	14943.56
539.94	14848.42
540.305	14920.74
540.67	14827.63
541.034	14771.14
541.399	14833.28
541.764	14740.18
542.129	14729.78
542.494	14708.54
542.858	14669.22
543.223	14609.11
543.587	14653.85
543.952	14557.13
544.316	14474.42
544.681	14485.04
545.045	14464.93
545.41	14579.05
545.774	14475.55
546.138	14356.46
546.503	14324.6
546.867	14353.52
547.231	14370.24
547.595	14352.39
547.959	14253.64
548.324	14327.31
548.688	14086.86
549.052	14180.19
549.416	14167.76
549.779	14070.59
550.143	14049.35
550.507	14130.48
550.871	14086.64
551.235	13970.03
551.599	14031.04
551.962	13977.26
552.326	13919.41
552.689	13933.64
553.053	13852.52
553.417	13853.65
553.78	13959.18
554.143	13882.35
554.507	13745.4
554.87	13854.32
555.234	13921.44
555.597	13707.21
555.96	13776.13
556.323	13725.97
556.686	13721.67
557.05	13781.78
557.413	13770.71
557.776	13674.44
558.139	13744.27
558.502	13727.55
558.865	13726.64
559.228	13803.03
559.59	13674.44
559.953	13697.94
560.316	13843.93
560.679	13712.63
561.041	13778.39
561.404	13724.84
561.767	13841.44
562.129	13714.22
562.492	13787.66
562.854	13763.93
563.217	13701.33
563.579	13774.55
563.941	13808.22
564.304	13841.44
564.666	13882.35
565.028	13804.83
565.39	13857.94
565.753	13859.07
566.115	13890.93
566.477	13927.32
566.839	13876.7
567.201	14050.03
567.563	13939.07
567.925	13971.61
568.287	13957.15
568.648	14005.06
569.01	14012.51
569.372	14001.89
569.734	13943.81
570.095	14045.96
570.457	13962.34
570.819	14062
571.18	14045.28
571.542	14146.75
571.903	14108.78
572.265	14135.45
572.626	14115.79
572.987	14197.59
573.349	14174.54
573.71	14157.37
574.071	14218.84
574.432	14234.2
574.794	14200.98
575.155	14209.12
575.516	14160.31
575.877	14251.15
576.238	14241.43
576.599	14191.04
576.96	14281.66
577.32	14300.41
577.681	14311.94
578.042	14314.43
578.403	14201.66
578.763	14320.53
579.124	14292.96
579.485	14328.89
579.845	14327.31
580.206	14308.78
580.566	14410.47
580.927	14280.3
581.287	14353.07
581.648	14342
582.008	14279.62
582.368	14356.01
582.728	14302
583.089	14321.88
583.449	14376.57
583.809	14282.34
584.169	14258.61
584.529	14264.71
584.889	14324.14
585.249	14168.22
585.609	14272.62
585.969	14229.23
586.329	14219.29
586.688	14205.05
587.048	14195.33
587.408	14100.87
587.768	14177.93
588.127	14114.21
588.487	14063.36
588.846	14229
589.206	14118.27
589.565	14162.79
589.925	14142.45
590.284	14080.99
590.643	14190.81
591.003	14189.91
591.362	14221.55
591.721	14077.37
592.08	14119.63
592.44	14093.64
592.799	14086.41
593.158	14138.61
593.517	14119.4
593.876	14153.98
594.235	14087.54
594.593	14049.35
594.952	14042.34
595.311	14049.12
595.67	14048.22
596.029	14063.36
596.387	14074.43
596.746	14032.85
597.104	13895
597.463	13997.6
597.822	14073.75
598.18	13884.38
598.538	13796.47
598.897	14022.46
599.255	13885.96
599.613	14167.09
599.972	13925.06
600.33	13995.79
600.688	13977.71
601.046	14027.88
601.404	14070.82
601.762	13973.87
602.12	14032.85
602.478	14087.09
602.836	13995.34
603.194	13973.19
603.552	13965.28
603.91	13995.56
604.268	13988.56
604.625	13908.56
604.983	13988.78
605.341	13935.68
605.698	13997.82
606.056	14000.08
606.413	14019.74
606.771	14054.77
607.128	14106.3
607.485	14060.42
607.843	13988.78
608.2	14039.18
608.557	14075.34
608.914	14134.77
609.272	14098.39
609.629	14140.19
609.986	14142.68
610.343	14155.33
610.7	14194.43
611.057	14169.8
611.414	14048.9
611.771	14088.22
612.127	14108.33
612.484	14212.06
612.841	14147.2
613.198	14205.05
613.554	14218.38
613.911	14294.99
614.267	14274.2
614.624	14178.84
614.98	14227.65
615.337	14369.57
615.693	14277.82
616.05	14267.2
616.406	14362.33
616.762	14313.07
617.118	14294.09
617.475	14288.44
617.831	14434.87
618.187	14369.11
618.543	14368.66
618.899	14423.35
619.255	14460.18
619.611	14436.91
619.967	14402.56
620.323	14494.76
620.678	14465.61
621.034	14384.48
621.39	14349.23
621.746	14423.8
622.101	14518.26
622.457	14378.83
622.812	14398.04
623.168	14476.23
623.523	14460.41
623.879	14494.53
624.234	14356.01
624.589	14469.9
624.945	14454.31
625.3	14434.42
625.655	14402.79
626.01	14452.28
626.365	14423.12
626.72	14449.34
627.075	14330.47
627.43	14398.49
627.785	14392.16
628.14	14390.13
628.495	14433.97
628.85	14373.18
629.205	14374.99
629.559	14414.54
629.914	14325.73
630.269	14373.41
630.623	14320.3
630.978	14234.88
631.332	14339.51
631.687	14382.9
632.041	14226.74
632.396	14302.22
632.75	14247.53
633.104	14235.56
633.459	14155.11
633.813	14220.19
634.167	14227.2
634.521	14145.39
634.875	14152.4
635.229	14145.16
635.583	14016.81
635.937	14101.55
636.291	14067.43
636.645	14135
636.999	14005.51
637.352	14103.81
637.706	14045.51
638.06	14024.04
638.413	13944.49
638.767	14011.61
639.121	13953.76
639.474	13916.47
639.828	13904.04
640.181	13992.4
640.534	13966.64
640.888	13899.3
641.241	13901.56
641.594	13889.35
641.947	13998.73
642.301	13892.52
642.654	13901.33
643.007	13891.61
643.36	13870.82
643.713	13846.87
644.066	13830.37
644.419	13709.92
644.771	13709.47
645.124	13521.9
645.477	13516.71
645.83	13486.88
646.182	13421.57
646.535	13325.98
646.888	13324.85
647.24	13336.82
647.593	13403.72
647.945	13288.69
648.298	13262.7
648.65	13241.69
649.002	13226.09
649.355	13312.87
649.707	13260.44
650.059	13387.9
650.411	13497.5
650.763	13564.16
651.115	13699.75
651.467	13590.6
651.819	13537.27
652.171	13629.25
652.523	13570.94
652.875	13630.38
653.227	13542.69
653.578	13630.83
653.93	13586.31
654.282	13561.45
654.633	13552.19
654.985	13631.28
655.337	13634.67
655.688	13542.92
656.039	13632.86
656.391	13520.1
656.742	13624.05
657.094	13544.28
657.445	13680.54
657.796	13613.43
658.147	13610.04
658.498	13594.9
658.849	13489.14
659.2	13556.48
659.551	13538.63
659.902	13630.6
660.253	13577.5
660.604	13666.76
660.955	13577.95
661.306	13610.94
661.656	13638.06
662.007	13662.01
662.358	13672.18
662.708	13757.38
663.059	13704.27
663.409	13554.9
663.76	13737.04
664.11	13649.81
664.461	13699.98
664.811	13753.99
665.161	13716.02
665.511	13548.12
665.862	13619.98
666.212	13679.64
666.562	13716.48
666.912	13651.17
667.262	13690.04
667.612	13697.04
667.962	13754.21
668.312	13694.1
668.662	13675.12
669.011	13629.7
669.361	13709.02
669.711	13630.6
670.06	13612.75
670.41	13604.84
670.76	13679.19
671.109	13594.22
671.459	13598.96
671.808	13541.34
672.157	13644.16
672.507	13547.67
672.856	13554.9
673.205	13573.65
673.554	13580.21
673.904	13617.72
674.253	13582.02
674.602	13504.5
674.951	13291.18
675.3	13238.75
675.649	13481.45
675.998	13472.87
676.346	13476.26
676.695	13487.55
677.044	13395.13
677.393	13410.27
677.741	13444.62
678.09	13435.58
678.438	13428.8
678.787	13419.99
679.135	13408.69
679.484	13230.16
679.832	13342.47
680.181	13231.29
680.529	13353.1
680.877	13220.67
681.225	13177.73
681.573	13273.1
681.922	13156.26
682.27	13050.96
682.618	13139.09
682.966	13078.53
683.314	13026.78
683.661	13004.63
684.009	12939.32
684.357	12954.69
684.705	12962.6
685.053	12954.91
685.4	12884.86
685.748	12900.9
686.095	12844.63
686.443	12801.47
686.79	12800.12
687.138	12805.99
687.485	12856.16
687.832	12710.17
688.18	12777.29
688.527	12727.35
688.874	12689.38
689.221	12524.19
689.568	12565.09
689.915	12578.2
690.262	12543.85
690.609	12479.45
690.956	12471.08
691.303	12434.93
691.65	12356.06
691.997	12293.91
692.344	12183.86
692.69	12226.12
693.037	12216.63
693.383	12032.68
693.73	12145.44
694.077	12012.34
694.423	12026.12
694.769	12040.81
695.116	11966.92
695.462	11949.74
695.808	11874.94
696.155	11938.44
696.501	11770.31
696.847	11798.33
697.193	11688.51
697.539	11792.46
697.885	11702.74
698.231	11547.27
698.577	11628.39
698.923	11585.01
699.269	11427.27
699.614	11451.22
699.96	11432.47
700.306	11437.89
700.651	11339.14
700.997	11341.62
701.342	11260.27
701.688	11239.25
702.033	11226.37
702.379	11131.01
702.724	11145.92
703.069	11096.88
703.415	11001.52
703.76	10965.81
704.105	10975.76
704.45	10985.47
704.795	10822.99
705.14	10895.76
705.485	10839.94
705.83	10721.53
706.175	10756.1
706.52	10823.67
706.865	10746.84
707.209	10625.94
707.554	10631.58
707.899	10585.48
708.243	10578.03
708.588	10544.58
708.932	10488.99
709.277	10465.94
709.621	10515.66
709.966	10380.52
710.31	10427.3
710.654	10358.15
710.998	10334.64
711.342	10272.72
711.687	10241.76
712.031	10271.37
712.375	10240.86
712.719	10256.68
713.063	10249.9
713.407	10247.87
713.75	10213.29
714.094	10168.09
714.438	10160.41
714.782	10154.54
715.125	10119.28
715.469	10130.13
715.812	10014.43
716.156	10006.06
716.499	9980.75
716.843	10019.85
717.186	9973.75
717.53	9941.21
717.873	9968.55
718.216	9905.73
718.559	9954.54
718.902	9822.79
719.246	9903.02
719.589	9891.49
719.932	9810.36
720.275	9753.19
720.617	9812.17
720.96	9823.02
721.303	9770.36
721.646	9703.93
721.989	9681.1
722.331	9846.75
722.674	9754.55
723.016	9751.38
723.359	9701.21
723.701	9665.28
724.044	9645.4
724.386	9625.74
724.729	9689.69
725.071	9657.6
725.413	9708.67
725.755	9666.64
726.097	9602.46
726.439	9587.09
726.782	9578.28
727.124	9635.9
727.465	9662.57
727.807	9650.37
728.149	9596.58
728.491	9608.11
728.833	9637.03
729.175	9586.64
729.516	9571.5
729.858	9580.54
730.199	9593.65
730.541	9530.14
730.882	9537.15
731.224	9587.54
731.565	9515.23
731.906	9520.43
732.248	9571.95
732.589	9405.18
732.93	9507.09
733.271	9552.97
733.612	9516.81
733.953	9471.62
734.294	9514.78
734.635	9461.67
734.976	9445.85
735.317	9505.74
735.658	9463.93
735.999	9500.77
736.339	9431.62
736.68	9538.96
737.021	9511.39
737.361	9511.39
737.702	9518.85
738.042	9486.76
738.383	9469.81
738.723	9546.87
739.063	9562.46
739.404	9559.3
739.744	9560.88
740.084	9533.31
740.424	9514.78
740.764	9548
741.104	9605.85
741.444	9551.39
741.784	9588.45
742.124	9596.81
742.464	9651.95
742.804	9646.98
743.143	9612.18
743.483	9712.74
743.823	9649.69
744.162	9757.71
744.502	9704.6
744.841	9724.49
745.181	9820.76
745.52	9768.33
745.86	9925.84
746.199	9952.96
746.538	9934.2
746.877	10053.29
747.216	10070.02
747.556	10124.03
747.895	10155.21
748.234	10197.25
748.573	10156.12
748.911	10309.56
749.25	10349.11
749.589	10418.48
749.928	10496.9
750.267	10559.72
750.605	10636.78
750.944	10713.84
751.283	10732.6
751.621	10893.5
751.96	10895.31
752.298	11079.48
752.636	11158.58
752.975	11199.03
753.313	11352.02
753.651	11426.14
753.989	11499.13
754.327	11647.83
754.666	11723.76
755.004	11865.68
755.342	12005.56
755.679	12042.17
756.017	12259.79
756.355	12386.12
756.693	12548.14
757.031	12766.22
757.368	12838.53
757.706	12938.19
758.044	13120.78
758.381	13315.58
758.719	13391.29
759.056	13561
759.394	13720.77
759.731	13825.63
760.068	14033.98
760.405	14171.6
760.743	14317.59
761.08	14377.7
761.417	14602.78
761.754	14823.57
762.091	15027.4
762.428	15219.26
762.765	15281.86
763.102	15534.05
763.438	15694.28
763.775	15715.52
764.112	15991.9
764.449	16249.06
764.785	16314.83
765.122	16395.28
765.458	16610.18
765.795	16801.37
766.131	16893.57
766.467	17027.12
766.804	17055.37
767.14	17221.47
767.476	17458.52
767.812	17530.84
768.148	17712.53
768.485	17709.36
768.821	17870.04
769.157	17972.41
769.492	18176.25
769.828	18315.68
770.164	18293.08
770.5	18515.45
770.836	18529.46
771.171	18583.01
771.507	18684.93
771.842	18712.28
772.178	18832.73
772.513	18903.91
772.849	19103.9
773.184	19056.67
773.519	19204.01
773.855	19223
774.19	19239.95
774.525	19327.4
774.86	19467.06
775.195	19423.9
775.53	19449.43
775.865	19521.97
776.2	19513.61
776.535	19416.66
776.87	19646.72
777.205	19559.94
777.539	19665.02
777.874	19724.68
778.209	19518.81
778.543	19713.83
778.878	19671.57
779.212	19720.61
779.547	19731.01
779.881	19914.5
780.215	19844.45
780.55	19886.03
780.884	19749.76
781.218	19841.29
781.552	19913.15
781.886	19806.26
782.22	19758.8
782.554	19788.63
782.888	19648.52
783.222	19641.52
783.556	19708.41
783.889	19654.62
784.223	19620.95
784.557	19650.56
784.89	19735.07
785.224	19622.08
785.557	19544.12
785.891	19542.76
786.224	19490.11
786.558	19622.08
786.891	19470.9
787.224	19423.22
787.557	19507.06
787.891	19370.56
788.224	19451.24
788.557	19410.34
788.89	19334.41
789.223	19400.39
789.556	19377.57
789.888	19333.28
790.221	19212.38
790.554	19190
790.887	19011.48
791.219	19139.38
791.552	19049.89
791.884	19023
792.217	18961.99
792.549	18929.22
792.882	18873.63
793.214	18765.61
793.546	18883.35
793.879	18780.52
794.211	18698.94
794.543	18698.94
794.875	18633.63
795.207	18721.09
795.539	18597.25
795.871	18672.28
796.203	18539.4
796.535	18434.77
796.867	18395
797.198	18394.54
797.53	18376.69
797.862	18291.27
798.193	18387.99
798.525	18138.73
798.856	18299.86
799.188	18111.61
799.519	18025.29
799.85	17968.57
800.182	17989.13
800.513	17970.15
800.844	17796.14
801.175	17891.73
801.506	17829.14
801.837	17833.43
802.168	17791.85
802.499	17686.54
802.83	17629.59
803.161	17601.8
803.491	17608.8
803.822	17543.49
804.153	17568.8
804.483	17440.45
804.814	17324.74
805.145	17260.11
805.475	17308.47
805.805	17252.88
806.136	17241.81
806.466	17266.44
806.796	17204.75
807.126	17149.61
807.457	17066.44
807.787	17017.18
808.117	17035.48
808.447	16892.21
808.777	16968.37
809.107	16913.91
809.436	16897.41
809.766	16845.21
810.096	16803.85
810.426	16713.68
810.755	16745.55
811.085	16714.59
811.414	16664.19
811.744	16574.03
812.073	16584.65
812.403	16560.69
812.732	16418.33
813.061	16430.08
813.39	16382.39
813.719	16317.09
814.049	16443.41
814.378	16338.33
814.707	16330.87
815.036	16271.89
815.365	16213.36
815.693	16067.37
816.022	16054.95
816.351	16125
816.68	16004.1
817.008	15959.81
817.337	15873.48
817.665	15876.64
817.994	15869.41
818.322	15864.89
818.651	15831
818.979	15770.43
819.307	15820.6
819.636	15743.09
819.964	15699.93
820.292	15750.77
820.62	15774.95
820.948	15659.93
821.276	15748.74
821.604	15563.43
821.932	15656.99
822.259	15719.36
822.587	15680.49
822.915	15659.93
823.243	15661.28
823.57	15654.73
823.898	15531.12
824.225	15636.65
824.553	15713.94
824.88	15659.93
825.207	15706.93
825.535	15597.56
825.862	15632.36
826.189	15751.22
826.516	15631.45
826.843	15781.28
827.17	15679.36
827.497	15646.59
827.824	15718
828.151	15740.6
828.478	15706.71
828.805	15804.1
829.131	15626.71
829.458	15639.14
829.785	15591.23
830.111	15723.43
830.438	15682.75
830.764	15680.72
831.09	15723.65
831.417	15564.34
831.743	15679.81
832.069	15758.46
832.395	15548.07
832.722	15578.35
833.048	15580.38
833.374	15544.22
833.7	15512.13
834.026	15522.76
834.351	15588.97
834.677	15510.55
835.003	15514.39
835.329	15414.74
835.654	15459.71
835.98	15328.41
836.306	15508.07
836.631	15445.92
836.956	15428.97
837.282	15414.06
837.607	15360.05
837.932	15339.03
838.258	15336.55
838.583	15340.84
838.908	15202.09
839.233	15238.7
839.558	15223.33
839.883	15201.41
840.208	15148.75
840.533	15130
840.858	15155.76
841.182	15135.87
841.507	15126.16
841.832	15050.9
842.156	15054.52
842.481	15004.8
842.805	15049.55
843.13	14908.53
843.454	14926.61
843.778	14927.52
844.103	14844.36
844.427	14791.25
844.751	14751.93
845.075	14746.96
845.399	14735.88
845.723	14574.53
846.047	14547.64
846.371	14466.96
846.695	14525.95
847.019	14377.48
847.343	14441.43
847.666	14320.53
847.99	14237.14
848.313	14225.16
848.637	14107.65
848.96	14037.37
849.284	14078.05
849.607	13966.64
849.931	13909.01
850.254	13826.76
850.577	13726.87
850.9	13624.73
851.223	13648.68
851.546	13577.95
851.869	13493.43
852.192	13502.92
852.515	13521.9
852.838	13430.16
853.161	13454.79
853.483	13346.32
853.806	13341.12
854.129	13183.83
854.451	13232.19
854.774	13069.94
855.096	13107
855.419	13046.89
855.741	12980.68
856.063	12956.72
856.385	12936.61
856.708	12961.69
857.03	12882.15
857.352	12935.48
857.674	12820.91
857.996	12728.93
858.318	12673.79
858.64	12692.1
858.961	12687.12
859.283	12626.11
859.605	12582.95
859.926	12517.86
860.248	12514.02
860.57	12514.02
860.891	12501.59
861.212	12349.96
861.534	12316.51
861.855	12283.74
862.176	12300.92
862.498	12303.63
862.819	12303.86
863.14	12251.43
863.461	12210.98
863.782	12193.35
864.103	12232.67
864.424	12102.28
864.745	12172.79
865.065	12139.57
865.386	12070.87
865.707	12069.51
866.027	12034.03
866.348	12006.92
866.668	12014.15
866.989	12001.49
867.309	11875.62
867.63	11924.66
867.95	11969.63
868.27	11898.67
868.59	11876.52
868.91	11831.78
869.23	11850.54
869.55	11694.16
869.87	11877.2
870.19	11813.47
870.51	11766.7
870.83	11731.67
871.15	11706.81
871.469	11728.96
871.789	11803.53
872.109	11712.91
872.428	11623.2
872.748	11672.46
873.067	11631.33
873.386	11694.61
873.706	11623.65
874.025	11420.49
874.344	11502.07
874.663	11545.69
874.982	11404.9
875.301	11496.87
875.62	11441.51
875.939	11372.13
876.258	11421.62
876.577	11383.2
876.896	11284.22
877.214	11287.61
877.533	11403.99
877.852	11245.13
878.17	11327.84
878.489	11373.71
878.807	11260.04
879.125	11267.05
879.444	11233.38
879.762	11204.9
880.08	11181.63
880.398	11157.45
880.716	11149.31
881.034	11149.54
881.352	11102.76
881.67	11023.89
881.988	11063.66
882.306	10984.12
882.624	10965.14
882.941	10921.75
883.259	10931.69
883.577	10882.65
883.894	10906.83
884.212	10955.64
884.529	10920.62
884.846	10764.91
885.164	10762.88
885.481	10791.35
885.798	10735.31
886.115	10698.93
886.432	10713.39
886.75	10702.32
887.067	10627.74
887.383	10634.97
887.7	10624.58
888.017	10587.07
888.334	10609.66
888.651	10564.69
888.967	10494.87
889.284	10497.35
889.6	10453.74
889.917	10469.56
890.233	10381.87
890.55	10375.77
890.866	10299.16
891.182	10225.49
891.498	10240.41
891.815	10266.62
892.131	10236.12
892.447	10165.38
892.763	10149.79
893.079	10123.58
893.395	10041.77
893.71	10060.07
894.026	10015.1
894.342	9989.34
894.657	9895.56
894.973	9902.34
895.289	9892.85
895.604	9883.13
895.92	9737.82
896.235	9752.96
896.55	9668.9
896.865	9725.17
897.181	9667.09
897.496	9645.85
897.811	9682.68
898.126	9574.66
898.441	9587.09
898.756	9501.9
899.071	9478.62
899.386	9443.14
899.7	9356.14
900.015	9357.72
900.33	9298.29
900.644	9319.53
900.959	9298.96
901.273	9228.46
901.588	9177.84
901.902	9155.92
902.216	9155.01
902.531	9080.44
902.845	9039.99
903.159	9011.74
903.473	8964.51
903.787	8949.14
904.101	8869.6
904.415	8880.9
904.729	8837.06
905.042	8805.19
905.356	8791.41
905.67	8756.61
905.984	8786.21
906.297	8714.35
906.611	8676.38
906.924	8708.02
907.237	8590.51
907.551	8642.71
907.864	8563.62
908.177	8642.03
908.491	8505.54
908.804	8428.25
909.117	8369.05
909.43	8345.09
909.743	8284.08
910.056	8245.88
910.368	8232.55
910.681	8200.69
910.994	8213.12
911.307	8178.54
911.619	8108.94
911.932	8132.67
912.244	8027.13
912.557	8005.89
912.869	7966.57
913.181	7935.16
913.494	7955.95
913.806	7868.49
914.118	7865.78
914.43	7802.28
914.742	7811.32
915.054	7756.41
915.366	7728.61
915.678	7715.96
915.99	7632.12
916.302	7562.96
916.613	7529.52
916.925	7573.13
917.236	7519.58
917.548	7490.88
917.859	7528.39
918.171	7421.73
918.482	7413.82
918.794	7383.08
919.105	7393.03
919.416	7308.51
919.727	7314.61
920.038	7315.06
920.349	7237.78
920.66	7223.99
920.971	7158.68
921.282	7154.39
921.593	7109.42
921.903	7056.76
922.214	7021.96
922.525	7021.96
922.835	7053.6
923.146	6964.34
923.456	6956.2
923.767	6940.38
924.077	6868.29
924.387	6813.83
924.697	6725.92
925.008	6732.48
925.318	6750.1
925.628	6756.88
925.938	6720.28
926.248	6676.21
926.558	6695.42
926.867	6646.6
927.177	6573.84
927.487	6569.32
927.796	6527.96
928.106	6541.3
928.416	6530
928.725	6447.74
929.034	6473.73
929.344	6407.52
929.653	6435.76
929.962	6304.02
930.271	6315.77
930.581	6276.9
930.89	6276.9
931.199	6250.91
931.508	6220.85
931.817	6243.9
932.125	6195.32
932.434	6180.63
932.743	6104.92
933.051	6073.06
933.36	6089.56
933.669	6007.75
933.977	6005.27
934.286	6010.46
934.594	6006.17
934.902	5891.6
935.21	5875.78
935.519	5904.03
935.827	5852.5
936.135	5819.28
936.443	5790.13
936.751	5740.87
937.059	5772.28
937.367	5791.49
937.674	5673.3
937.982	5720.53
938.29	5645.28
938.597	5678.72
938.905	5630.36
939.213	5614.99
939.52	5572.28
939.827	5515.34
940.135	5553.3
940.442	5454.09
940.749	5474.88
941.056	5494.32
941.363	5449.8
941.67	5434.89
941.977	5356.02
942.284	5318.96
942.591	5322.35
942.898	5285.06
943.205	5276.92
943.511	5321.22
943.818	5289.13
944.125	5226.3
944.431	5209.35
944.738	5194.89
945.044	5130.26
945.35	5167.55
945.657	5096.82
945.963	5072.18
946.269	5058.4
946.575	5054.33
946.881	5039.42
947.187	5035.35
947.493	4991.06
947.799	4994.67
948.105	4962.58
948.41	4965.75
948.716	4902.24
949.022	4930.94
949.327	4903.6
949.633	4861.12
949.938	4808.69
950.244	4763.72
950.549	4765.75
950.854	4734.11
951.16	4779.99
951.465	4721.23
951.77	4713.55
952.075	4704.96
952.38	4638.75
952.685	4695.47
952.99	4577.05
953.294	4568.24
953.599	4580.67
953.904	4551.52
954.209	4490.96
954.513	4513.1
954.818	4518.07
955.122	4469.26
955.426	4432.88
955.731	4423.16
956.035	4419.77
956.339	4394.69
956.643	4360.56
956.948	4356.95
957.252	4329.6
957.556	4338.64
957.86	4319.21
958.163	4285.54
958.467	4268.36
958.771	4274.01
959.075	4257.52
959.378	4199.44
959.682	4207.57
959.985	4189.49
960.289	4150.63
960.592	4155.82
960.896	4129.83
961.199	4116.05
961.502	4127.58
961.805	4093.23
962.108	4050.97
962.411	3996.96
962.714	4036.5
963.017	3980.46
963.32	4008.93
963.623	3967.13
963.926	3951.76
964.228	3924.87
964.531	3900.01
964.833	3926.22
965.136	3839.45
965.438	3799.9
965.741	3806.68
966.043	3838.54
966.345	3802.16
966.648	3827.7
966.95	3762.39
967.252	3713.35
967.554	3774.14
967.856	3722.39
968.158	3735.04
968.46	3710.41
968.761	3681.94
969.063	3708.15
969.365	3696.17
969.666	3674.25
969.968	3601.71
970.269	3580.92
970.571	3594.48
970.872	3578.44
971.174	3547.48
971.475	3523.98
971.776	3517.42
972.077	3538.89
972.378	3473.36
972.679	3455.5
972.98	3474.94
973.281	3474.26
973.582	3439.46
973.883	3433.13
974.183	3384.32
974.484	3409.18
974.785	3372.34
975.085	3343.87
975.386	3376.63
975.686	3339.12
975.986	3310.65
976.287	3337.54
976.587	3292.57
976.887	3286.02
977.187	3223.87
977.487	3236.07
977.787	3228.16
978.087	3269.74
978.387	3195.62
978.687	3190.65
978.987	3186.13
979.286	3170.31
979.586	3120.82
979.885	3122.86
980.185	3121.27
980.484	3106.81
980.784	3087.15
981.083	3089.41
981.382	3058.45
981.682	3036.3
981.981	3020.71
982.28	3016.42
982.579	3025.91
982.878	3038.56
983.177	2964.67
983.475	2988.85
983.774	2961.28
984.073	2995.4
984.372	2903.2
984.67	2916.99
984.969	2878.12
985.267	2865.24
985.566	2903.65
985.864	2843.09
986.162	2831.56
986.461	2813.26
986.759	2819.36
987.057	2800.15
987.355	2767.16
987.653	2779.14
987.951	2761.74
988.249	2732.13
988.547	2763.09
988.844	2750.44
989.142	2699.36
989.44	2730.32
989.737	2702.3
990.035	2665.92
990.332	2666.37
990.63	2625.24
990.927	2648.52
991.224	2598.12
991.521	2612.81
991.819	2592.25
992.116	2611
992.413	2610.55
992.71	2574.85
993.006	2559.25
993.303	2571.23
993.6	2524.23
993.897	2537.56
994.193	2509.54
994.49	2520.39
994.787	2490.33
995.083	2444.68
995.379	2453.49
995.676	2436.09
995.972	2401.29
996.268	2406.26
996.565	2401.07
996.861	2372.82
997.157	2376.43
997.453	2365.14
997.749	2335.53
998.044	2351.58
998.34	2339.37
998.636	2283.33
998.932	2302.54
999.227	2284.23
999.523	2285.59
999.818	2264.12
1000.114	2280.39
1000.409	2233.39
1000.704	2229.55
1001	2247.62
1001.295	2184.35
1001.59	2187.51
1001.885	2212.15
1002.18	2176.89
1002.475	2183.22
1002.77	2159.49
1003.065	2143.67
1003.359	2137.12
1003.654	2136.22
1003.949	2114.29
1004.243	2110.68
1004.538	2063.9
1004.832	2045.82
1005.127	2065.03
1005.421	2033.39
1005.715	2020.96
1006.009	2042.21
1006.304	2011.47
1006.598	2014.86
1006.892	2014.41
1007.186	1981.87
1007.48	1975.54
1007.773	1956.11
1008.067	1938.71
1008.361	1951.14
1008.655	1901.42
1008.948	1936.22
1009.242	1931.7
1009.535	1890.12
1009.829	1864.58
1010.122	1854.41
1010.415	1851.02
1010.708	1866.17
1011.001	1838.37
1011.295	1842.66
1011.588	1825.26
1011.881	1819.61
1012.173	1792.27
1012.466	1802.44
1012.759	1758.15
1013.052	1776.68
1013.344	1778.48
1013.637	1757.24
1013.93	1741.2
1014.222	1727.64
1014.514	1740.52
1014.807	1727.19
1015.099	1708.66
1015.391	1684.93
1015.683	1675.21
1015.976	1663.46
1016.268	1661.88
1016.56	1659.39
1016.851	1647.87
1017.143	1603.57
1017.435	1607.64
1017.727	1590.92
1018.018	1602.22
1018.31	1553.41
1018.602	1582.78
1018.893	1553.41
1019.185	1580.75
1019.476	1561.09
1019.767	1540.07
1020.058	1523.8
1020.35	1509.11
1020.641	1515.89
1020.932	1513.41
1021.223	1482.22
1021.514	1461.43
1021.804	1498.04
1022.095	1463.24
1022.386	1465.5
1022.677	1412.62
1022.967	1449.68
1023.258	1410.58
1023.548	1410.36
1023.839	1364.03
1024.129	1393.64
1024.419	1380.53
1024.709	1364.71
1025	1349.34
1025.29	1345.73
1025.58	1315.67
1025.87	1336.69
1026.16	1340.08
1026.449	1306.86
1026.739	1296.01
1027.029	1303.47
1027.319	1286.52
1027.608	1282.68
1027.898	1276.35
1028.187	1255.79
1028.477	1265.28
1028.766	1245.39
1029.055	1243.13
1029.344	1233.64
1029.634	1235.67
1029.923	1210.59
1030.212	1212.62
1030.501	1206.3
1030.79	1201.1
1031.078	1183.25
1031.367	1175.79
1031.656	1168.1
1031.945	1163.36
1032.233	1144.6
1032.522	1179.18
1032.81	1116.81
1033.099	1120.2
1033.387	1099.86
1033.675	1119.74
1033.963	1114.1
1034.251	1099.41
1034.54	1096.24
1034.828	1103.25
1035.116	1098.28
1035.403	1087.66
1035.691	1065.51
1035.979	1077.49
1036.267	1067.77
1036.554	1046.75
1036.842	1048.79
1037.129	1030.26
1037.417	1022.57
1037.704	1028.67
1037.992	1006.75
1038.279	980.09
1038.566	989.13
1038.853	989.13
1039.14	989.13
