Data from hue_190_FLMS001491_00042.txt Node
Date: Tue Feb 07 16:45:19 GMT 2017
User: dcchb
Spectrometer: FLMS00149
Trigger mode: 0
Integration Time (sec): 2.000000E-2
Scans to average: 10
Electric dark correction enabled: true
Nonlinearity correction enabled: false
Boxcar width: 0
XAxis mode: Wavelengths
Number of Pixels in Spectrum: 2048
>>>>>Begin Spectral Data<<<<<
341.393	-6.96
341.776	-6.96
342.16	-6.96
342.543	-78.37
342.927	-53.97
343.31	-63.91
343.693	-73.63
344.077	-68.88
344.46	-72.27
344.843	-37.02
345.226	-48.54
345.61	-25.27
345.993	-18.71
346.376	-10.8
346.759	18.35
347.142	28.06
347.525	27.84
347.908	70.77
348.291	88.63
348.674	83.43
349.057	101.96
349.44	115.97
349.823	148.97
350.206	179.92
350.588	182.86
350.971	217.89
351.354	209.75
351.737	249.75
352.119	255.18
352.502	256.31
352.884	261.05
353.267	273.03
353.65	270.77
354.032	300.6
354.414	323.42
354.797	301.73
355.179	333.82
355.562	332.46
355.944	328.4
356.326	335.85
356.709	323.65
357.091	329.53
357.473	345.8
357.855	314.38
358.238	349.41
358.62	363.2
359.002	328.17
359.384	325.68
359.766	332.24
360.148	326.81
360.53	337.89
360.912	316.42
361.294	338.56
361.676	330.66
362.057	333.14
362.439	323.88
362.821	317.1
363.203	330.2
363.584	321.16
363.966	312.35
364.348	310.99
364.729	318.45
365.111	312.58
365.493	326.59
365.874	301.05
366.256	300.37
366.637	309.19
367.019	301.28
367.4	300.83
367.781	301.73
368.163	295.4
368.544	315.97
368.925	303.31
369.306	322.75
369.688	298.79
370.069	324.1
370.45	315.97
370.831	329.75
371.212	311.9
371.593	311.67
371.974	311.45
372.355	293.59
372.736	330.2
373.117	305.57
373.498	322.97
373.879	315.29
374.26	318.9
374.641	305.12
375.021	301.28
375.402	310.77
375.783	315.97
376.163	323.42
376.544	310.99
376.925	315.29
377.305	319.81
377.686	321.62
378.066	315.51
378.447	317.32
378.827	330.88
379.208	337.43
379.588	319.13
379.968	317.55
380.349	335.63
380.729	351.9
381.109	343.54
381.489	323.2
381.87	310.54
382.25	321.84
382.63	329.3
383.01	330.2
383.39	309.19
383.77	333.59
384.15	338.56
384.53	329.53
384.91	336.98
385.29	332.46
385.67	349.41
386.049	355.97
386.429	351.45
386.809	355.51
387.189	332.46
387.568	358.68
387.948	354.38
388.328	362.74
388.707	358
389.087	374.5
389.466	356.87
389.846	360.03
390.225	331.11
390.605	373.82
390.984	357.77
391.363	359.13
391.743	356.64
392.122	388.51
392.501	356.42
392.881	374.27
393.26	355.51
393.639	371.33
394.018	386.47
394.397	369.75
394.776	375.17
395.155	372.69
395.534	369.3
395.913	374.27
396.292	379.02
396.671	385.12
397.05	383.08
397.429	397.09
397.808	393.25
398.186	399.35
398.565	412.69
398.944	399.35
399.323	377.43
399.701	393.25
400.08	389.18
400.458	392.35
400.837	415.4
401.215	413.14
401.594	415.4
401.972	427.6
402.351	427.6
402.729	413.82
403.107	431.44
403.486	420.6
403.864	426.25
404.242	417.21
404.62	433.03
404.999	436.64
405.377	457.21
405.755	442.97
406.133	451.1
406.511	464.66
406.889	460.37
407.267	465.34
407.645	485.23
408.023	449.75
408.401	468.5
408.779	497.66
409.156	475.51
409.534	494.04
409.912	484.1
410.29	504.44
410.667	520.71
411.045	518.22
411.422	524.1
411.8	523.19
412.178	557.09
412.555	556.64
412.933	556.19
413.31	550.08
413.687	579.24
414.065	581.72
414.442	576.75
414.819	610.42
415.197	592.34
415.574	622.62
415.951	621.27
416.328	652.45
416.705	616.52
417.082	637.09
417.46	631.89
417.837	651.55
418.214	668.5
418.591	674.37
418.967	671.66
419.344	683.64
419.721	701.72
420.098	689.06
420.475	724.09
420.852	731.77
421.228	738.1
421.605	741.04
421.982	761.15
422.358	777.2
422.735	773.81
423.111	788.72
423.488	813.35
423.864	827.37
424.241	869.62
424.617	831.21
424.994	861.26
425.37	867.36
425.746	874.82
426.123	905.1
426.499	878.89
426.875	902.62
427.251	927.7
427.627	935.84
428.003	953.01
428.379	943.07
428.756	972.45
429.132	976.97
429.507	995.5
429.883	1024.87
430.259	1024.2
430.635	1053.35
431.011	1041.6
431.387	1075.72
431.763	1087.92
432.138	1092.22
432.514	1130.86
432.89	1129.28
433.265	1166.57
433.641	1147.13
434.016	1190.29
434.392	1204.08
434.767	1249.95
435.143	1264.42
435.518	1258.77
435.894	1277.3
436.269	1330.85
436.644	1343.28
437.02	1346.45
437.395	1337.86
437.77	1380.8
438.145	1412.43
438.52	1445.2
438.895	1450.85
439.271	1475.26
439.646	1495.14
440.021	1557.29
440.395	1504.18
440.77	1540.34
441.145	1538.76
441.52	1608.81
441.895	1643.84
442.27	1618.53
442.645	1630.73
443.019	1689.26
443.394	1675.93
443.769	1690.39
444.143	1697.4
444.518	1743.73
444.892	1747.34
445.267	1788.47
445.641	1805.87
446.016	1795.25
446.39	1813.78
446.764	1806.32
447.139	1843.16
447.513	1845.87
447.887	1843.84
448.262	1856.94
448.636	1889.71
449.01	1914.12
449.384	1923.61
449.758	1955.92
450.132	1950.27
450.506	1950.95
450.88	1996.15
451.254	2011.06
451.628	2019.42
452.002	2070.04
452.376	2072.3
452.75	2094
453.123	2106.2
453.497	2155.69
453.871	2134
454.244	2198.85
454.618	2240.44
454.992	2249.47
455.365	2250.38
455.739	2290.6
456.112	2323.15
456.486	2362.24
456.859	2386.87
457.232	2414.67
457.606	2422.35
457.979	2438.62
458.352	2485.4
458.725	2531.73
459.099	2550.03
459.472	2587.77
459.845	2628
460.218	2609.01
460.591	2656.92
460.964	2695.11
461.337	2710.03
461.71	2795.22
462.083	2799.74
462.456	2815.79
462.829	2837.26
463.201	2909.57
463.574	2907.54
463.947	2936.01
464.32	3029.12
464.692	3040.64
465.065	3034.54
465.438	3113.86
465.81	3189.11
466.183	3217.36
466.555	3244.48
466.928	3300.29
467.3	3283.35
467.672	3363.8
468.045	3442.21
468.417	3478.59
468.789	3465.26
469.161	3513.4
469.534	3591.59
469.906	3647.4
470.278	3713.17
470.65	3734.18
471.022	3801.98
471.394	3871.58
471.766	3911.8
472.138	3936.89
472.51	4022.76
472.882	4121.74
473.253	4161.74
473.625	4230.67
473.997	4282.64
474.369	4349.98
474.74	4347.95
475.112	4442.41
475.484	4546.36
475.855	4608.28
476.227	4657.55
476.598	4784.1
476.97	4794.72
477.341	4897.31
477.713	4971.66
478.084	5054.82
478.455	5182.73
478.827	5257.98
479.198	5363.07
479.569	5418.43
479.94	5565.55
480.311	5586.56
480.682	5671.98
481.053	5761.47
481.424	5911.07
481.795	5984.52
482.166	6046.44
482.537	6115.81
482.908	6222.03
483.279	6321.46
483.65	6488.69
484.021	6546.76
484.391	6670.15
484.762	6710.83
485.133	6748.11
485.503	6951.95
485.874	7022.23
486.244	7106.97
486.615	7266.97
486.985	7350.58
487.356	7466.06
487.726	7513.29
488.097	7704.47
488.467	7760.52
488.837	7826.73
489.207	7935.88
489.578	8035.99
489.948	8127.06
490.318	8216.1
490.688	8261.97
491.058	8415.87
491.428	8532.93
491.798	8563.43
492.168	8696.54
492.538	8728.63
492.908	8819.02
493.278	8961.84
493.648	8952.35
494.017	9041.61
494.387	9158.67
494.757	9172.23
495.126	9278.22
495.496	9326.58
495.866	9389.63
496.235	9446.12
496.605	9559.34
496.974	9621.26
497.344	9616.51
497.713	9671.43
498.082	9757.75
498.452	9799.11
498.821	9851.08
499.19	9853.34
499.559	9947.35
499.928	10012.89
500.298	9983.51
500.667	10011.98
501.036	10054.69
501.405	10192.77
501.774	10167.46
502.143	10247.23
502.512	10318.64
502.88	10314.57
503.249	10334.01
503.618	10399.09
503.987	10443.16
504.356	10509.37
504.724	10466.21
505.093	10492.2
505.462	10524.51
505.83	10539.88
506.199	10659.2
506.567	10635.69
506.936	10605.64
507.304	10713.66
507.672	10763.6
508.041	10813.32
508.409	10834.56
508.777	10904.16
509.145	10883.15
509.514	10912.3
509.882	10916.82
510.25	10931.28
510.618	10991.62
510.986	10947.78
511.354	11070.03
511.722	11093.99
512.09	11147.09
512.458	11071.39
512.826	11136.25
513.193	11106.42
513.561	11207.66
513.929	11194.32
514.297	11263.25
514.664	11265.73
515.032	11314.77
515.4	11297.6
515.767	11307.32
516.135	11317.94
516.502	11211.27
516.869	11416.69
517.237	11323.36
517.604	11247.2
517.972	11404.49
518.339	11408.33
518.706	11330.59
519.073	11292.17
519.44	11381.89
519.808	11421.44
520.175	11357.94
520.542	11503.47
520.909	11337.37
521.276	11399.97
521.643	11546.18
522.009	11459.85
522.376	11446.52
522.743	11508.67
523.11	11562.9
523.477	11565.39
523.843	11516.58
524.21	11565.84
524.577	11583.01
524.943	11573.07
525.31	11666.63
525.676	11630.25
526.043	11669.34
526.409	11658.94
526.776	11631.6
527.142	11618.49
527.508	11661.88
527.874	11602
528.241	11637.48
528.607	11590.25
528.973	11616.91
529.339	11548.67
529.705	11637.02
530.071	11609.68
530.437	11583.92
530.803	11554.99
531.169	11496.69
531.535	11487.65
531.901	11486.07
532.267	11418.27
532.632	11481.32
532.998	11377.82
533.364	11384.15
533.73	11340.08
534.095	11339.41
534.461	11297.37
534.826	11341.21
535.192	11277.26
535.557	11279.07
535.923	11209.01
536.288	11170.37
536.653	11187.77
537.019	11016.25
537.384	11003.37
537.749	11007.44
538.114	10948.91
538.479	10972.86
538.845	10847.44
539.21	10768.12
539.575	10791.17
539.94	10710.95
540.305	10783.71
540.67	10655.58
541.034	10654.45
541.399	10612.42
541.764	10597.96
542.129	10515.92
542.494	10490.61
542.858	10427.11
543.223	10331.3
543.587	10353.44
543.952	10212.88
544.316	10233.22
544.681	10175.59
545.045	10131.08
545.41	10108.03
545.774	10061.7
546.138	9977.63
546.503	9984.64
546.867	9934.24
547.231	9900.8
547.595	9800.91
547.959	9831.2
548.324	9693.12
548.688	9764.76
549.052	9675.72
549.416	9627.36
549.779	9604.54
550.143	9567.47
550.507	9571.99
550.871	9480.47
551.235	9426.91
551.599	9430.98
551.962	9389.17
552.326	9281.61
552.689	9333.36
553.053	9155.96
553.417	9139.69
553.78	9274.83
554.143	9243.42
554.507	9153.25
554.87	9147.37
555.234	9052.91
555.597	8977.21
555.96	8998.68
556.323	9004.78
556.686	8915.97
557.05	8949.41
557.413	8946.02
557.776	8847.04
558.139	8844.78
558.502	8904.89
558.865	8779.7
559.228	8774.5
559.59	8727.5
559.953	8777.66
560.316	8767.5
560.679	8699.02
561.041	8758.23
561.404	8729.76
561.767	8702.86
562.129	8636.88
562.492	8708.06
562.854	8605.92
563.217	8601.17
563.579	8623.77
563.941	8637.56
564.304	8620.15
564.666	8560.5
565.028	8637.1
565.39	8563.88
565.753	8619.7
566.115	8569.53
566.477	8631.23
566.839	8596.88
567.201	8659.48
567.563	8579.93
567.925	8661.28
568.287	8590.32
568.648	8604.11
569.01	8586.94
569.372	8632.81
569.734	8574.96
570.095	8618.8
570.457	8579.7
570.819	8626.03
571.18	8587.39
571.542	8611.12
571.903	8603.66
572.265	8631.23
572.626	8605.92
572.987	8604.56
573.349	8569.08
573.71	8575.18
574.071	8621.96
574.432	8554.85
574.794	8638.23
575.155	8605.47
575.516	8548.29
575.877	8589.42
576.238	8565.69
576.599	8626.03
576.96	8668.52
577.32	8566.6
577.681	8562.3
578.042	8634.62
578.403	8605.69
578.763	8511.91
579.124	8555.52
579.485	8607.5
579.845	8607.95
580.206	8528.18
580.566	8510.33
580.927	8548.97
581.287	8584
581.648	8529.08
582.008	8552.36
582.368	8449.31
582.728	8528.41
583.089	8513.04
583.449	8498.12
583.809	8499.25
584.169	8515.07
584.529	8511.46
584.889	8494.73
585.249	8372.25
585.609	8473.04
585.969	8478.46
586.329	8409.09
586.688	8439.37
587.048	8378.58
587.408	8356.88
587.768	8340.39
588.127	8328.18
588.487	8323.44
588.846	8387.39
589.206	8309.65
589.565	8308.75
589.925	8362.99
590.284	8352.37
590.643	8344.91
591.003	8334.74
591.362	8315.76
591.721	8255.87
592.08	8282.99
592.44	8289.77
592.799	8290.9
593.158	8175.65
593.517	8266.94
593.876	8253.84
594.235	8251.35
594.593	8196.66
594.952	8233.5
595.311	8180.39
595.67	8190.11
596.029	8208.87
596.387	8205.02
596.746	8243.44
597.104	8199.6
597.463	8153.27
597.822	8268.3
598.18	8127.06
598.538	8134.07
598.897	8197.57
599.255	8098.81
599.613	8214.06
599.972	8163.22
600.33	8176.78
600.688	8151.92
601.046	8200.73
601.404	8165.93
601.762	8156.66
602.12	8189.43
602.478	8155.53
602.836	8206.38
603.194	8129.55
603.552	8164.57
603.91	8141.98
604.268	8164.57
604.625	8141.3
604.983	8121.18
605.341	8061.53
605.698	8117.8
606.056	8082.77
606.413	8103.56
606.771	8132.48
607.128	8131.13
607.485	8070.34
607.843	8148.08
608.2	8113.95
608.557	8166.83
608.914	8130
609.272	8152.6
609.629	8170.45
609.986	8214.06
610.343	8118.25
610.7	8154.86
611.057	8207.06
611.414	8128.64
611.771	8161.86
612.127	8209.32
612.484	8215.19
612.841	8261.07
613.198	8219.49
613.554	8152.14
613.911	8223.1
614.267	8234.85
614.624	8194.86
614.98	8167.51
615.337	8211.13
615.693	8233.72
616.05	8198.7
616.406	8198.92
616.762	8256.55
617.118	8209.77
617.475	8230.33
617.831	8215.42
618.187	8251.12
618.543	8223.78
618.899	8289.77
619.255	8264.23
619.611	8284.34
619.967	8303.1
620.323	8345.81
620.678	8238.7
621.034	8237.79
621.39	8266.27
621.746	8234.85
622.101	8348.3
622.457	8235.98
622.812	8266.04
623.168	8260.84
623.523	8265.59
623.879	8315.76
624.234	8272.82
624.589	8278.47
624.945	8210.22
625.3	8204.8
625.655	8297.23
626.01	8236.44
626.365	8239.6
626.72	8226.94
627.075	8252.48
627.43	8214.06
627.785	8167.74
628.14	8202.99
628.495	8203.22
628.85	8245.02
629.205	8179.71
629.559	8228.3
629.914	8166.83
630.269	8217.68
630.623	8173.39
630.978	8184.46
631.332	8215.19
631.687	8156.66
632.041	8047.06
632.396	8146.04
632.75	8144.24
633.104	8152.37
633.459	8099.04
633.813	8071.24
634.167	8139.49
634.521	8098.59
634.875	8129.32
635.229	8061.07
635.583	8008.87
635.937	8073.73
636.291	8033.28
636.645	8078.02
636.999	7999.15
637.352	8080.06
637.706	7966.39
638.06	8006.16
638.413	7993.28
638.767	7943.79
639.121	7977.91
639.474	7852.49
639.828	7936.1
640.181	7970
640.534	7949.89
640.888	7874.19
641.241	7929.78
641.594	7865.82
641.947	7882.1
642.301	7870.57
642.654	7893.39
643.007	7917.35
643.36	7854.98
643.713	7824.47
644.066	7843.68
644.419	7827.63
644.771	7756.22
645.124	7686.39
645.477	7691.14
645.83	7671.93
646.182	7697.02
646.535	7634.64
646.888	7612.72
647.24	7573.85
647.593	7605.27
647.945	7552.61
648.298	7581.99
648.65	7575.44
649.002	7563.23
649.355	7650.01
649.707	7598.26
650.059	7634.64
650.411	7731.36
650.763	7692.5
651.115	7789.44
651.467	7782.66
651.819	7824.02
652.171	7812.49
652.523	7732.72
652.875	7809.1
653.227	7734.08
653.578	7797.58
653.93	7788.09
654.282	7774.75
654.633	7727.3
654.985	7789.44
655.337	7790.57
655.688	7816.79
656.039	7842.55
656.391	7804.13
656.742	7777.69
657.094	7794.41
657.445	7803
657.796	7770.23
658.147	7816.79
658.498	7780.85
658.849	7829.22
659.2	7822.44
659.551	7738.14
659.902	7810.91
660.253	7813.85
660.604	7764.36
660.955	7812.04
661.306	7839.61
661.656	7827.86
662.007	7799.16
662.358	7850.91
662.708	7874.64
663.059	7853.85
663.409	7804.13
663.76	7894.3
664.11	7822.66
664.461	7864.47
664.811	7895.2
665.161	7849.1
665.511	7815.2
665.862	7820.18
666.212	7875.09
666.562	7869.44
666.912	7906.5
667.262	7752.83
667.612	7873.06
667.962	7896.78
668.312	7918.48
668.662	7876.67
669.011	7881.87
669.361	7825.6
669.711	7871.25
670.06	7823.11
670.41	7837.8
670.76	7835.77
671.109	7871.7
671.459	7937.69
671.808	7832.15
672.157	7903.34
672.507	7842.1
672.856	7806.16
673.205	7753.51
673.554	7833.51
673.904	7811.59
674.253	7786.05
674.602	7836.22
674.951	7719.84
675.3	7597.58
675.649	7783.11
675.998	7737.01
676.346	7772.95
676.695	7742.21
677.044	7715.77
677.393	7746.73
677.741	7668.54
678.09	7697.92
678.438	7699.5
678.787	7778.14
679.135	7700.63
679.484	7621.08
679.832	7672.61
680.181	7534.53
680.529	7678.26
680.877	7583.35
681.225	7617.47
681.573	7594.87
681.922	7624.7
682.27	7539.28
682.618	7581.31
682.966	7538.38
683.314	7586.96
683.661	7506.74
684.009	7484.59
684.357	7426.97
684.705	7434.88
685.053	7484.14
685.4	7467.42
685.748	7423.8
686.095	7370.47
686.443	7341.54
686.79	7323.24
687.138	7396.23
687.485	7329.79
687.832	7309.91
688.18	7306.29
688.527	7219.97
688.874	7244.37
689.221	7182
689.568	7196.92
689.915	7143.36
690.262	7167.76
690.609	7140.19
690.956	7106.07
691.303	7078.73
691.65	7062.46
691.997	7027.2
692.344	6967.54
692.69	7037.15
693.037	6998.05
693.383	6930.26
693.73	6917.6
694.077	6904.04
694.423	6912.63
694.769	6863.59
695.116	6806.64
695.462	6767.1
695.808	6803.48
696.155	6817.94
696.501	6756.93
696.847	6723.03
697.193	6698.62
697.539	6716.93
697.885	6654.1
698.231	6620.21
698.577	6605.74
698.923	6612.3
699.269	6596.48
699.614	6455.69
699.96	6469.02
700.306	6451.85
700.651	6421.79
700.997	6475.13
701.342	6454.34
701.688	6414.34
702.033	6363.72
702.379	6360.78
702.724	6372.98
703.069	6344.28
703.415	6275.58
703.76	6252.53
704.105	6248.69
704.45	6258.86
704.795	6167.11
705.14	6188.58
705.485	6150.16
705.83	6089.15
706.175	6087.57
706.52	6110.84
706.865	6054.35
707.209	6079.43
707.554	6081.69
707.899	6089.83
708.243	6020.68
708.588	6011.41
708.932	5941.81
709.277	5946.33
709.621	5916.05
709.966	5887.8
710.31	5888.93
710.654	5899.55
710.998	5879.89
711.342	5827.46
711.687	5796.73
712.031	5847.12
712.375	5822.71
712.719	5824.52
713.063	5747.46
713.407	5827.46
713.75	5744.3
714.094	5723.28
714.438	5759.89
714.782	5745.43
715.125	5780
715.469	5717.18
715.812	5727.35
716.156	5662.94
716.499	5660.68
716.843	5705.43
717.186	5665.43
717.53	5703.17
717.873	5666.79
718.216	5601.03
718.559	5627.24
718.902	5605.32
719.246	5620.46
719.589	5583.85
719.932	5624.98
720.275	5577.07
720.617	5595.6
720.96	5552.66
721.303	5576.17
721.646	5594.25
721.989	5554.92
722.331	5577.52
722.674	5566.68
723.016	5579.33
723.359	5518.09
723.701	5552.89
724.044	5530.74
724.386	5525.09
724.729	5550.86
725.071	5577.75
725.413	5494.81
725.755	5529.16
726.097	5489.16
726.439	5434.48
726.782	5482.38
727.124	5562.38
727.465	5512.89
727.807	5510.86
728.149	5438.54
728.491	5465.21
728.833	5524.87
729.175	5472.89
729.516	5460.69
729.858	5426.34
730.199	5474.25
730.541	5515.83
730.882	5493.91
731.224	5506.56
731.565	5443.29
731.906	5452.33
732.248	5450.07
732.589	5471.54
732.93	5424.98
733.271	5481.48
733.612	5465.66
733.953	5488.49
734.294	5489.39
734.635	5457.07
734.976	5494.81
735.317	5482.38
735.658	5446.68
735.999	5466.34
736.339	5497.75
736.68	5513.12
737.021	5529.39
737.361	5474.7
737.702	5549.73
738.042	5536.62
738.383	5521.48
738.723	5541.37
739.063	5562.16
739.404	5607.58
739.744	5590.4
740.084	5567.13
740.424	5579.33
740.764	5620.46
741.104	5631.08
741.444	5556.73
741.784	5610.52
742.124	5684.86
742.464	5678.09
742.804	5711.76
743.143	5709.27
743.483	5724.64
743.823	5688.48
744.162	5733.68
744.502	5751.53
744.841	5787.01
745.181	5855.26
745.52	5842.6
745.86	5908.36
746.199	5893.45
746.538	5944.97
746.877	6001.47
747.216	6029.94
747.556	5998.98
747.895	6061.13
748.234	6104.97
748.573	6193.55
748.911	6210.5
749.25	6290.5
749.589	6326.66
749.928	6376.6
750.267	6537.72
750.605	6518.29
750.944	6548.57
751.283	6665.86
751.621	6725.29
751.96	6803.71
752.298	6925.51
752.636	6991.5
752.975	7114.21
753.313	7105.62
753.651	7300.42
753.989	7360.98
754.327	7413.63
754.666	7505.83
755.004	7745.6
755.342	7807.29
755.679	7919.83
756.017	8129.32
756.355	8170.9
756.693	8262.65
757.031	8523.89
757.368	8579.48
757.706	8742.86
758.044	8907.38
758.381	9059.47
758.719	9136.3
759.056	9390.08
759.394	9543.97
759.731	9628.04
760.068	9830.74
760.405	9946.9
760.743	10156.84
761.08	10253.11
761.417	10491.52
761.754	10616.49
762.091	10838.4
762.428	10929.92
762.765	11108
763.102	11344.83
763.438	11443.36
763.775	11618.04
764.112	11792.5
764.449	12001.08
764.785	12165.15
765.122	12247.18
765.458	12396.33
765.795	12580.05
766.131	12795.86
766.467	12928.06
766.804	13048.29
767.14	13154.95
767.476	13360.14
767.812	13477.88
768.148	13694.15
768.485	13748.61
768.821	13856.85
769.157	14072.89
769.492	14238.76
769.828	14337.29
770.164	14359.66
770.5	14450.06
770.836	14717.4
771.171	14720.79
771.507	14866.32
771.842	14871.06
772.178	14993.77
772.513	15111.96
772.849	15254.1
773.184	15415.68
773.519	15407.09
773.855	15516.24
774.19	15610.03
774.525	15618.84
774.86	15807.54
775.195	15865.61
775.53	15902
775.865	15825.84
776.2	15998.94
776.535	15958.04
776.87	16076.23
777.205	16110.81
777.539	16061.31
777.874	16198.26
778.209	16263.57
778.543	16251.37
778.878	16321.42
779.212	16375.66
779.547	16324.13
779.881	16467.63
780.215	16322.55
780.55	16497.01
780.884	16511.7
781.218	16492.72
781.552	16616.55
781.886	16532.26
782.22	16519.61
782.554	16593.28
782.888	16572.49
783.222	16461.3
783.556	16559.61
783.889	16632.37
784.223	16507.63
784.557	16472.6
784.89	16603.67
785.224	16533.84
785.557	16435.77
785.891	16455.43
786.224	16512.83
786.558	16478.25
786.891	16494.52
787.224	16489.78
787.557	16431.02
787.891	16478.93
788.224	16611.81
788.557	16530.91
788.89	16478.93
789.223	16518.7
789.556	16346.05
789.888	16410.68
790.221	16416.33
790.554	16270.8
790.887	16386.28
791.219	16219.95
791.552	16321.2
791.884	16225.38
792.217	16226.28
792.549	16215.66
792.882	16099.73
793.214	16096.79
793.546	16092.05
793.879	16038.94
794.211	15987.19
794.543	16012.73
794.875	15983.12
795.207	16098.38
795.539	15940.87
795.871	16033.07
796.203	15867.2
796.535	15782.68
796.867	15785.39
797.198	15794.43
797.53	15829.46
797.862	15677.6
798.193	15741.55
798.525	15639.18
798.856	15749.01
799.188	15557.15
799.519	15541.78
799.85	15468.34
800.182	15525.06
800.513	15492.74
800.844	15407.32
801.175	15440.31
801.506	15448.45
801.837	15404.16
802.168	15349.47
802.499	15283.26
802.83	15217.27
803.161	15299.3
803.491	15212.52
803.822	15218.63
804.153	15139.08
804.483	15052.75
804.814	14968.91
805.145	14930.95
805.475	14975.92
805.805	15010.72
806.136	14951.97
806.466	14990.83
806.796	14871.74
807.126	14833.55
807.457	14829.48
807.787	14789.94
808.117	14762.14
808.447	14678.75
808.777	14699.77
809.107	14566.89
809.436	14632.88
809.766	14574.35
810.096	14478.98
810.426	14494.58
810.755	14548.13
811.085	14567.34
811.414	14501.13
811.744	14359.21
812.073	14453.67
812.403	14358.31
812.732	14333.68
813.061	14368.25
813.39	14210.97
813.719	14237.86
814.049	14336.61
814.378	14189.05
814.707	14166.9
815.036	14159.22
815.365	14046.68
815.693	14021.59
816.022	14038.77
816.351	14000.58
816.68	13941.6
817.008	14028.83
817.337	13801.94
817.665	13842.84
817.994	13871.32
818.322	13851.66
818.651	13871.54
818.979	13804.88
819.307	13824.54
819.636	13788.61
819.964	13718.78
820.292	13728.04
820.62	13644.43
820.948	13773.69
821.276	13735.73
821.604	13671.32
821.932	13752.45
822.259	13716.07
822.587	13726.69
822.915	13693.02
823.243	13723.75
823.57	13632.23
823.898	13718.1
824.225	13653.92
824.553	13644.2
824.88	13821.37
825.207	13682.62
825.535	13660.25
825.862	13756.74
826.189	13644.43
826.516	13794.48
826.843	13815.05
827.17	13740.47
827.497	13774.82
827.824	13682.85
828.151	13850.3
828.478	13627.25
828.805	13778.44
829.131	13708.16
829.458	13668.16
829.785	13639.23
830.111	13712.9
830.438	13813.46
830.764	13717.65
831.09	13772.11
831.417	13737.31
831.743	13730.98
832.069	13747.25
832.395	13628.38
832.722	13652.34
833.048	13701.83
833.374	13689.4
833.7	13624.09
834.026	13630.87
834.351	13634.71
834.677	13641.49
835.003	13655.05
835.329	13622.28
835.654	13570.98
835.98	13622.96
836.306	13577.31
836.631	13497.77
836.956	13593.81
837.282	13565.56
837.607	13491.89
837.932	13547.03
838.258	13546.35
838.583	13431.78
838.908	13387.04
839.233	13385.91
839.558	13410.31
839.883	13367.83
840.208	13333.25
840.533	13324.89
840.858	13351.33
841.182	13275.17
841.507	13256.64
841.832	13163.31
842.156	13266.81
842.481	13167.38
842.805	13159.02
843.13	13133.71
843.454	13157.89
843.778	13040.6
844.103	13041.73
844.427	12993.15
844.751	12986.82
845.075	12974.84
845.399	12920.61
845.723	12862.53
846.047	12772.59
846.371	12826.37
846.695	12764.68
847.019	12675.19
847.343	12619.6
847.666	12491.47
847.99	12508.87
848.313	12479.94
848.637	12398.36
848.96	12404.69
849.284	12364.24
849.607	12321.3
849.931	12235.43
850.254	12170.8
850.577	12104.13
850.9	12040.86
851.223	12022.1
851.546	12006.73
851.869	11873.18
852.192	11968.09
852.515	11789.79
852.838	11781.43
853.161	11752.28
853.483	11731.03
853.806	11735.55
854.129	11601.77
854.451	11584.14
854.774	11591.38
855.096	11475.45
855.419	11475.9
855.741	11474.54
856.063	11400.19
856.385	11437.03
856.708	11361.78
857.03	11325.17
857.352	11386.86
857.674	11258.28
857.996	11242.46
858.318	11197.49
858.64	11191.84
858.961	11159.07
859.283	11069.36
859.605	10994.1
859.926	11021.67
860.248	11052.18
860.57	10951.62
860.891	10957.72
861.212	10884.73
861.534	10850.38
861.855	10838.63
862.176	10866.42
862.498	10864.62
862.819	10804.05
863.14	10839.31
863.461	10772.64
863.782	10729.93
864.103	10731.06
864.424	10702.13
864.745	10783.94
865.065	10693.55
865.386	10629.37
865.707	10592.31
866.027	10659.42
866.348	10644.06
866.668	10568.13
866.989	10606.32
867.309	10530.84
867.63	10544.4
867.95	10476.38
868.27	10404.06
868.59	10452.2
868.91	10499.43
869.23	10414.01
869.55	10396.38
869.87	10381.46
870.19	10371.3
870.51	10345.76
870.83	10482.48
871.15	10340.79
871.469	10309.83
871.789	10374.68
872.109	10385.31
872.428	10291.3
872.748	10227.57
873.067	10275.25
873.386	10249.94
873.706	10258.98
874.025	10189.38
874.344	10166.33
874.663	10194.35
874.982	10141.92
875.301	10218.76
875.62	10147.12
875.939	10122.71
876.258	10082.94
876.577	10030.29
876.896	10107.8
877.214	10014.47
877.533	10067.12
877.852	9931.76
878.17	10055.6
878.489	9975.15
878.807	9973.79
879.125	9919.1
879.444	9940.57
879.762	9947.58
880.08	9917.75
880.398	9868.03
880.716	9851.31
881.034	9870.07
881.352	9863.29
881.67	9880.91
881.988	9790.52
882.306	9757.98
882.624	9764.98
882.941	9720.24
883.259	9643.86
883.577	9606.8
883.894	9577.64
884.212	9669.17
884.529	9646.12
884.846	9526.35
885.164	9582.62
885.481	9489.74
885.798	9534.25
886.115	9497.65
886.432	9424.65
886.75	9429.85
887.067	9445.22
887.383	9355.5
887.7	9362.96
888.017	9303.07
888.334	9356.41
888.651	9336.97
888.967	9308.27
889.284	9230.08
889.6	9238.44
889.917	9155.73
890.233	9201.38
890.55	9112.12
890.866	9151.21
891.182	9066.92
891.498	9118.45
891.815	9024.21
892.131	9020.14
892.447	9040.26
892.763	8953.25
893.079	9030.77
893.395	8909.64
893.71	8847.72
894.026	8858.57
894.342	8821.05
894.657	8807.95
894.973	8809.53
895.289	8760.94
895.604	8714.62
895.92	8664.45
896.235	8629.19
896.55	8618.57
896.865	8538.35
897.181	8532.02
897.496	8590.32
897.811	8444.57
898.126	8513.49
898.441	8396.21
898.756	8414.28
899.071	8404.12
899.386	8299.94
899.7	8338.81
900.015	8282.08
900.33	8257.45
900.644	8256.32
900.959	8158.92
901.273	8184.23
901.588	8119.6
901.902	8070.56
902.216	8060.85
902.531	8020.4
902.845	8056.33
903.159	7968.87
903.473	7953.51
903.787	7952.38
904.101	7815.88
904.415	7878.48
904.729	7883.45
905.042	7743.12
905.356	7715.32
905.67	7730.01
905.984	7700.63
906.297	7714.19
906.611	7626.51
906.924	7704.25
907.237	7651.82
907.551	7521.43
907.864	7563.46
908.177	7496.34
908.491	7493.4
908.804	7415.21
909.117	7406.85
909.43	7359.17
909.743	7351.04
910.056	7289.57
910.368	7281.66
910.681	7221.55
910.994	7229
911.307	7240.53
911.619	7144.04
911.932	7133.41
912.244	7087.77
912.557	7139.06
912.869	7050.25
913.181	7033.3
913.494	6995.56
913.806	6991.95
914.118	6947.66
914.43	6883.7
914.742	6931.16
915.054	6875.34
915.366	6839.18
915.678	6798.51
915.99	6767.77
916.302	6691.39
916.613	6691.39
916.925	6718.28
917.236	6758.96
917.548	6634.22
917.859	6605.52
918.171	6605.52
918.482	6542.47
918.794	6506.31
919.105	6485.3
919.416	6505.63
919.727	6420.21
920.038	6465.18
920.349	6394.22
920.66	6419.31
920.971	6364.85
921.282	6319.2
921.593	6296.6
921.903	6289.59
922.214	6265.41
922.525	6233.78
922.835	6166.66
923.146	6135.02
923.456	6145.42
923.767	6062.03
924.077	6118.53
924.387	6046.21
924.697	6048.47
925.008	6046.66
925.318	6019.32
925.628	5976.16
925.938	5993.56
926.248	5955.82
926.558	5945.42
926.867	5879.44
927.177	5856.84
927.487	5881.47
927.796	5804.18
928.106	5787.91
928.416	5768.25
928.725	5752.89
929.034	5744.07
929.344	5685.32
929.653	5693
929.962	5641.7
930.271	5690.97
930.581	5602.38
930.89	5590.63
931.199	5555.38
931.508	5579.1
931.817	5514.93
932.125	5551.31
932.434	5488.26
932.743	5446
933.051	5428.37
933.36	5407.81
933.669	5374.14
933.977	5349.05
934.286	5389.96
934.594	5330.75
934.902	5288.26
935.21	5271.09
935.519	5253.46
935.827	5272.67
936.135	5171.66
936.443	5106.12
936.751	5118.33
937.059	5178.44
937.367	5132.34
937.674	5093.24
937.982	5099.12
938.29	5052.79
938.597	5054.15
938.905	4987.48
939.213	4974.37
939.52	4959.69
939.827	4956.3
940.135	4900.25
940.442	4909.29
940.749	4913.13
941.056	4880.59
941.363	4825.68
941.67	4849.86
941.977	4820.71
942.284	4792.68
942.591	4782.97
942.898	4724.89
943.205	4752.46
943.511	4734.61
943.818	4705
944.125	4634.95
944.431	4630.2
944.738	4636.08
945.044	4595.18
945.35	4632.01
945.657	4542.75
945.963	4521.28
946.269	4495.29
946.575	4501.17
946.881	4489.87
947.187	4548.85
947.493	4448.06
947.799	4463.43
948.105	4420.72
948.41	4399.93
948.716	4387.5
949.022	4337.1
949.327	4344.33
949.633	4309.08
949.938	4348.4
950.244	4326.26
950.549	4251.68
950.854	4216.43
951.16	4242.64
951.465	4239.25
951.77	4172.59
952.075	4141.4
952.38	4155.64
952.685	4139.82
952.99	4119.48
953.294	4089.43
953.599	4048.52
953.904	4070.67
954.209	4037.68
954.513	4007.85
954.818	4020.05
955.122	3966.72
955.426	3952.93
955.731	4014.4
956.035	3956.1
956.339	3944.12
956.643	3952.93
956.948	3963.33
957.252	3840.39
957.556	3859.83
957.86	3835.42
958.163	3791.36
958.467	3790.23
958.771	3781.19
959.075	3790.68
959.378	3796.33
959.682	3761.07
959.985	3746.16
960.289	3771.69
960.592	3682.21
960.896	3686.95
961.199	3663.22
961.502	3635.65
961.805	3654.18
962.108	3630.46
962.411	3615.54
962.714	3576.67
963.017	3585.26
963.32	3553.4
963.623	3597.24
963.926	3576.67
964.228	3520.4
964.531	3479.27
964.833	3506.16
965.136	3460.29
965.438	3430.91
965.741	3394.53
966.043	3403.57
966.345	3406.28
966.648	3387.75
966.95	3375.09
967.252	3349.78
967.554	3346.4
967.856	3316.11
968.158	3333.74
968.46	3352.95
968.761	3272.95
969.063	3246.28
969.365	3286.96
969.666	3267.75
969.968	3230.01
970.269	3231.82
970.571	3193.63
970.872	3209.9
971.174	3176.46
971.475	3205.38
971.776	3157.47
972.077	3161.54
972.378	3148.89
972.679	3107.08
972.98	3092.16
973.281	3126.29
973.582	3110.02
973.883	3077.48
974.183	3072.73
974.484	3059.62
974.785	3050.13
975.085	3035.22
975.386	3052.84
975.686	2992.28
975.986	2984.82
976.287	2970.59
976.587	2957.7
976.887	2911.6
977.187	2890.81
977.487	2920.42
977.787	2894.2
978.087	2873.19
978.387	2875.9
978.687	2919.29
978.987	2832.06
979.286	2835.9
979.586	2823.7
979.885	2780.99
980.185	2802.45
980.484	2752.29
980.784	2790.7
981.083	2759.07
981.382	2773.53
981.682	2737.15
981.981	2777.37
982.28	2733.98
982.579	2694.89
982.878	2705.06
983.177	2684.49
983.475	2686.53
983.774	2637.49
984.073	2643.81
984.372	2661.44
984.67	2629.58
984.969	2599.52
985.267	2619.86
985.566	2583.93
985.864	2579.64
986.162	2576.47
986.461	2579.41
986.759	2526.08
987.057	2489.47
987.355	2506.42
987.653	2475.46
987.951	2479.07
988.249	2442.69
988.547	2480.2
988.844	2439.98
989.142	2403.82
989.44	2441.56
989.737	2406.98
990.035	2412.41
990.332	2397.04
990.63	2359.75
990.927	2373.09
991.224	2348.68
991.521	2375.57
991.819	2337.61
992.116	2313.2
992.413	2342.13
992.71	2346.65
993.006	2292.86
993.303	2293.99
993.6	2298.06
993.897	2265.52
994.193	2257.61
994.49	2242.24
994.787	2242.7
995.083	2235.69
995.379	2230.27
995.676	2216.93
995.972	2210.83
996.268	2196.14
996.565	2170.83
996.861	2168.8
997.157	2161.12
997.453	2136.03
997.749	2122.92
998.044	2110.27
998.34	2124.51
998.636	2089.25
998.932	2102.13
999.227	2053.32
999.523	2051.51
999.818	2069.82
1000.114	2039.08
1000.409	2045.41
1000.704	2024.62
1001	2028.24
1001.295	2049.48
1001.59	1994.34
1001.885	2000.67
1002.18	1969.71
1002.475	1962.48
1002.77	1957.28
1003.065	1940.33
1003.359	1920.44
1003.654	1918.41
1003.949	1929.94
1004.243	1887.68
1004.538	1875.02
1004.832	1872.31
1005.127	1884.06
1005.421	1859.88
1005.715	1892.65
1006.009	1828.92
1006.304	1844.29
1006.598	1806.32
1006.892	1781.92
1007.186	1797.96
1007.48	1774.46
1007.773	1778.07
1008.067	1768.58
1008.361	1730.62
1008.655	1747.12
1008.948	1719.09
1009.242	1755.48
1009.535	1722.48
1009.829	1702.6
1010.122	1711.18
1010.415	1696.72
1010.708	1707.34
1011.001	1660.11
1011.295	1669.83
1011.588	1684.97
1011.881	1631.41
1012.173	1638.42
1012.466	1605.42
1012.759	1605.2
1013.052	1609.49
1013.344	1624.41
1013.637	1608.36
1013.93	1591.64
1014.222	1552.77
1014.514	1559.32
1014.807	1562.04
1015.099	1537.86
1015.391	1525.65
1015.683	1513.22
1015.976	1508.48
1016.268	1504.41
1016.56	1483.39
1016.851	1485.65
1017.143	1463.73
1017.435	1477.07
1017.727	1423.06
1018.018	1457.41
1018.31	1461.47
1018.602	1383.28
1018.893	1425.09
1019.185	1422.38
1019.476	1410.63
1019.767	1405.66
1020.058	1391.64
1020.35	1390.51
1020.641	1382.38
1020.932	1381.02
1021.223	1353.91
1021.514	1307.13
1021.804	1306.9
1022.095	1316.17
1022.386	1309.39
1022.677	1321.14
1022.967	1327.47
1023.258	1281.14
1023.548	1289.05
1023.839	1295.83
1024.129	1280.69
1024.419	1252.89
1024.709	1258.99
1025	1251.08
1025.29	1219.67
1025.58	1246.79
1025.87	1218.77
1026.16	1224.87
1026.449	1217.64
1026.739	1188.49
1027.029	1182.61
1027.319	1191.65
1027.608	1164.76
1027.898	1183.06
1028.187	1155.72
1028.477	1160.01
1028.766	1130.41
1029.055	1146.45
1029.344	1150.29
1029.634	1136.51
1029.923	1143.06
1030.212	1121.82
1030.501	1103.74
1030.79	1086.12
1031.078	1085.89
1031.367	1076.4
1031.656	1067.36
1031.945	1065.78
1032.233	1059.68
1032.522	1052.44
1032.81	1056.51
1033.099	1046.79
1033.387	1038.43
1033.675	1025.78
1033.963	1041.14
1034.251	1020.58
1034.54	1009.51
1034.828	996.85
1035.116	991.43
1035.403	983.29
1035.691	1022.61
1035.979	993.24
1036.267	958.89
1036.554	953.24
1036.842	953.01
1037.129	964.08
1037.417	929.96
1037.704	938.55
1037.992	963.41
1038.279	939
1038.566	918.44
1038.853	918.44
1039.14	918.44
