Data from hue_240_FLMS001491_00051.txt Node
Date: Tue Feb 07 16:35:39 GMT 2017
User: dcchb
Spectrometer: FLMS00149
Trigger mode: 0
Integration Time (sec): 2.000000E-2
Scans to average: 10
Electric dark correction enabled: true
Nonlinearity correction enabled: false
Boxcar width: 0
XAxis mode: Wavelengths
Number of Pixels in Spectrum: 2048
>>>>>Begin Spectral Data<<<<<
341.393	-10.54
341.776	-10.54
342.16	-10.54
342.543	-70.42
342.927	-65.9
343.31	-75.85
343.693	-63.42
344.077	-86.01
344.46	-68.61
344.843	-55.96
345.226	-32
345.61	-31.33
345.993	-22.06
346.376	-14.38
346.759	22.01
347.142	31.04
347.525	36.02
347.908	72.4
348.291	93.64
348.674	91.16
349.057	103.36
349.44	118.5
349.823	128.22
350.206	161.21
350.588	184.26
350.971	182.68
351.354	202.34
351.737	231.94
352.119	237.37
352.502	270.36
352.884	262
353.267	282.56
353.65	274.43
354.032	292.05
354.414	288.21
354.797	299.96
355.179	318.04
355.562	302.45
355.944	316.01
356.326	317.36
356.709	332.73
357.091	327.99
357.473	328.21
357.855	317.59
358.238	323.92
358.62	317.14
359.002	327.31
359.384	331.83
359.766	335.67
360.148	310.59
360.53	352.39
360.912	344.03
361.294	318.72
361.676	333.41
362.057	320.3
362.439	317.36
362.821	329.12
363.203	313.3
363.584	320.53
363.966	304.71
364.348	341.32
364.729	318.27
365.111	312.62
365.493	306.97
365.874	299.51
366.256	309.23
366.637	316.69
367.019	287.08
367.4	303.35
367.781	308.78
368.163	310.36
368.544	294.54
368.925	306.52
369.306	318.72
369.688	289.57
370.069	298.16
370.45	313.3
370.831	300.42
371.212	292.96
371.593	306.07
371.974	280.53
372.355	318.49
372.736	314.88
373.117	324.37
373.498	313.3
373.879	315.33
374.26	293.86
374.641	294.31
375.021	301.09
375.402	316.46
375.783	323.92
376.163	306.07
376.544	304.71
376.925	320.08
377.305	325.27
377.686	319.62
378.066	328.89
378.447	330.02
378.827	335.67
379.208	315.78
379.588	347.19
379.968	311.26
380.349	337.03
380.729	325.5
381.109	334.54
381.489	337.03
381.87	329.57
382.25	328.89
382.63	328.21
383.01	334.77
383.39	338.15
383.77	329.34
384.15	354.43
384.53	336.57
384.91	342.9
385.29	322.79
385.67	330.47
386.049	353.75
386.429	344.48
386.809	319.62
387.189	363.01
387.568	381.32
387.948	357.36
388.328	349.23
388.707	335.22
389.087	362.79
389.466	343.13
389.846	354.65
390.225	372.73
390.605	334.09
390.984	348.55
391.363	358.49
391.743	342.22
392.122	377.02
392.501	368.89
392.881	381.54
393.26	377.25
393.639	371.83
394.018	352.62
394.397	362.79
394.776	376.8
395.155	369.11
395.534	363.01
395.913	385.16
396.292	390.58
396.671	364.37
397.05	360.08
397.429	390.36
397.808	384.26
398.186	368.66
398.565	384.48
398.944	384.48
399.323	408.66
399.701	399.62
400.08	407.08
400.458	378.61
400.837	404.37
401.215	409.34
401.594	419.96
401.972	415.89
402.351	400.3
402.729	414.31
403.107	391.71
403.486	429.45
403.864	444.82
404.242	417.7
404.62	408.66
404.999	439.17
405.377	422.22
405.755	425.84
406.133	437.36
406.511	443.69
406.889	457.7
407.267	458.83
407.645	445.72
408.023	468.77
408.401	451.82
408.779	476
409.156	470.13
409.534	459.51
409.912	478.72
410.29	494.08
410.667	492.05
411.045	494.54
411.422	496.79
411.8	492.73
412.178	480.98
412.555	530.24
412.933	524.59
413.31	541.99
413.687	552.16
414.065	545.38
414.442	519.62
414.819	558.71
415.197	553.29
415.574	579.5
415.951	572.73
416.328	565.95
416.705	575.89
417.082	587.41
417.46	581.54
417.837	592.39
418.214	613.18
418.591	589.67
418.967	613.18
419.344	628.09
419.721	637.13
420.098	633.29
420.475	661.54
420.852	635.32
421.228	628.32
421.605	643.46
421.982	694.76
422.358	671.93
422.735	681.2
423.111	687.52
423.488	700.63
423.864	700.18
424.241	717.58
424.617	720.74
424.994	715.32
425.37	772.49
425.746	727.75
426.123	749.9
426.499	765.04
426.875	771.36
427.251	772.72
427.627	812.49
428.003	785.83
428.379	817.24
428.756	809.78
429.132	819.72
429.507	823.79
429.883	843.68
430.259	860.18
430.635	862.89
431.011	880.97
431.387	900.63
431.763	903.56
432.138	919.61
432.514	924.81
432.89	906.73
433.265	943.34
433.641	949.21
434.016	998.48
434.392	982.21
434.767	1003
435.143	994.41
435.518	1016.56
435.894	1021.3
436.269	1061.53
436.644	1066.72
437.02	1066.5
437.395	1102.65
437.77	1119.6
438.145	1130.22
438.52	1110.11
438.895	1144.91
439.271	1142.65
439.646	1191.92
440.021	1174.97
440.395	1205.48
440.77	1208.64
441.145	1194.86
441.52	1263.78
441.895	1212.48
442.27	1263.1
442.645	1245.93
443.019	1277.57
443.394	1288.86
443.769	1263.1
444.143	1264.23
444.518	1300.39
444.892	1308.3
445.267	1303.33
445.641	1344.46
446.016	1348.98
446.39	1344
446.764	1366.83
447.139	1386.49
447.513	1379.03
447.887	1383.33
448.262	1405.25
448.636	1400.05
449.01	1427.62
449.384	1412.7
449.758	1473.72
450.132	1465.81
450.506	1456.09
450.88	1480.72
451.254	1468.29
451.628	1479.14
452.002	1516.66
452.376	1515.07
452.75	1529.54
453.123	1566.82
453.497	1567.05
453.871	1595.07
454.244	1617.44
454.618	1609.76
454.992	1633.94
455.365	1635.97
455.739	1649.31
456.112	1685.01
456.486	1692.7
456.859	1733.82
457.232	1743.54
457.606	1729.76
457.979	1753.94
458.352	1791.68
458.725	1802.75
459.099	1821.05
459.472	1844.1
459.845	1852.47
460.218	1875.74
460.591	1878.91
460.964	1863.99
461.337	1930.2
461.71	1959.13
462.083	1998.9
462.456	1974.04
462.829	1989.18
463.201	2016.98
463.574	2020.14
463.947	2045.68
464.32	2063.99
464.692	2105.34
465.065	2121.38
465.438	2158.67
465.81	2205.9
466.183	2191.67
466.555	2230.53
466.928	2223.3
467.3	2253.58
467.672	2297.2
468.045	2370.42
468.417	2331.55
468.789	2374.49
469.161	2393.24
469.534	2450.64
469.906	2428.04
470.278	2469.62
470.65	2496.06
471.022	2561.37
471.394	2582.39
471.766	2596.4
472.138	2651.99
472.51	2682.27
472.882	2708.71
473.253	2741.26
473.625	2786
473.997	2804.98
474.369	2857.41
474.74	2848.15
475.112	2877.3
475.484	2957.07
475.855	2995.71
476.227	2975.83
476.598	3100.12
476.97	3086.78
477.341	3185.09
477.713	3212.66
478.084	3228.47
478.455	3273.9
478.827	3312.54
479.198	3407.68
479.569	3391.63
479.94	3478.64
480.311	3513.21
480.682	3585.3
481.053	3628.92
481.424	3685.41
481.795	3708.91
482.166	3752.08
482.537	3771.51
482.908	3847.22
483.279	3895.35
483.65	3946.2
484.021	4021.67
484.391	4031.39
484.762	4084.05
485.133	4122.46
485.503	4142.57
485.874	4226.19
486.244	4286.53
486.615	4321.33
486.985	4355
487.356	4436.13
487.726	4459.18
488.097	4555.9
488.467	4550.93
488.837	4640.41
489.207	4660.3
489.578	4752.28
489.948	4786.85
490.318	4859.62
490.688	4850.13
491.058	4899.62
491.428	4953.4
491.798	5012.38
492.168	5058.71
492.538	5116.11
492.908	5150.01
493.278	5272.94
493.648	5225.94
494.017	5267.74
494.387	5314.52
494.757	5309.78
495.126	5357.46
495.496	5400.85
495.866	5403.56
496.235	5469.32
496.605	5441.98
496.974	5591.12
497.344	5558.58
497.713	5591.35
498.082	5630.45
498.452	5718.13
498.821	5649.65
499.19	5677.68
499.559	5713.38
499.928	5753.83
500.298	5738.92
500.667	5842.42
501.036	5860.72
501.405	5849.65
501.774	5880.83
502.143	5938.46
502.512	5937.33
502.88	5977.78
503.249	5953.37
503.618	5994.28
503.987	6006.25
504.356	6055.97
504.724	6087.38
505.093	6067.5
505.462	6088.96
505.83	6138.23
506.199	6145.69
506.567	6247.38
506.936	6255.97
507.304	6307.72
507.672	6292.8
508.041	6332.57
508.409	6291.44
508.777	6374.61
509.145	6403.98
509.514	6320.6
509.882	6325.57
510.25	6402.85
510.618	6418.67
510.986	6480.37
511.354	6455.73
511.722	6490.08
512.09	6570.08
512.458	6557.88
512.826	6543.87
513.193	6641.72
513.561	6636.52
513.929	6664.77
514.297	6640.59
514.664	6706.35
515.032	6722.62
515.4	6778.66
515.767	6817.53
516.135	6766.46
516.502	6749.06
516.869	6765.78
517.237	6782.05
517.604	6751.55
517.972	6826.12
518.339	6823.41
518.706	6786.12
519.073	6825.22
519.44	6853.46
519.808	6854.82
520.175	6875.84
520.542	6926.68
520.909	6919
521.276	6934.14
521.643	6972.33
522.009	7025.44
522.376	7003.29
522.743	6999.22
523.11	7124.19
523.477	7113.57
523.843	7114.7
524.21	7185.66
524.577	7188.6
524.943	7169.61
525.31	7150.18
525.676	7250.06
526.043	7273.57
526.409	7246.9
526.776	7284.41
527.142	7363.28
527.508	7317.86
527.874	7322.15
528.241	7413.45
528.607	7436.5
528.973	7347.91
529.339	7298.65
529.705	7390.4
530.071	7474.69
530.437	7388.59
530.803	7423.17
531.169	7473.79
531.535	7463.62
531.901	7429.49
532.267	7439.21
532.632	7470.4
532.998	7454.8
533.364	7505.42
533.73	7489.38
534.095	7524.63
534.461	7548.13
534.826	7504.29
535.192	7511.3
535.557	7526.89
535.923	7434.92
536.288	7497.06
536.653	7459.32
537.019	7433.79
537.384	7472.66
537.749	7517.85
538.114	7503.16
538.479	7501.58
538.845	7526.67
539.21	7446.89
539.575	7450.06
539.94	7516.05
540.305	7491.87
540.67	7521.92
541.034	7433.34
541.399	7469.72
541.764	7468.14
542.129	7402.38
542.494	7451.64
542.858	7496.16
543.223	7477.4
543.587	7431.98
543.952	7430.85
544.316	7524.41
544.681	7440.34
545.045	7423.17
545.41	7463.62
545.774	7477.85
546.138	7446.22
546.503	7413.45
546.867	7427.69
547.231	7475.14
547.595	7427.01
547.959	7418.65
548.324	7425.43
548.688	7384.52
549.052	7407.57
549.416	7397.63
549.779	7445.54
550.143	7366.67
550.507	7365.99
550.871	7388.14
551.235	7321.7
551.599	7410.06
551.962	7395.6
552.326	7378.65
552.689	7403.73
553.053	7365.99
553.417	7373.9
553.78	7444.18
554.143	7394.47
554.507	7432.43
554.87	7454.58
555.234	7456.84
555.597	7492.54
555.96	7423.84
556.323	7404.41
556.686	7355.15
557.05	7444.41
557.413	7433.56
557.776	7426.56
558.139	7373.45
558.502	7481.7
558.865	7525.08
559.228	7567.8
559.59	7533.9
559.953	7541.58
560.316	7640.79
560.679	7569.38
561.041	7583.16
561.404	7636.04
561.767	7694.8
562.129	7575.7
562.492	7618.87
562.854	7660.67
563.217	7622.71
563.579	7709.03
563.941	7729.83
564.304	7694.57
564.666	7762.37
565.028	7708.81
565.39	7812.76
565.753	7830.16
566.115	7831.97
566.477	7883.27
566.839	7907
567.201	7878.07
567.563	7897.73
567.925	7979.99
568.287	8027.44
568.648	7970.95
569.01	7930.95
569.372	8078.52
569.734	8016.15
570.095	8044.62
570.457	8109.48
570.819	8068.12
571.18	8164.62
571.542	8141.34
571.903	8152.41
572.265	8170.94
572.626	8171.85
572.987	8235.35
573.349	8217.72
573.71	8217.04
574.071	8229.47
574.432	8236.93
574.794	8310.6
575.155	8230.6
575.516	8288.45
575.877	8305.4
576.238	8354.22
576.599	8363.03
576.96	8396.25
577.32	8372.52
577.681	8410.94
578.042	8395.8
578.403	8442.35
578.763	8424.95
579.124	8463.59
579.485	8541.33
579.845	8520.54
580.206	8457.49
580.566	8563.02
580.927	8548.56
581.287	8592.85
581.648	8542.01
582.008	8572.29
582.368	8558.5
582.728	8642.8
583.089	8609.12
583.449	8595.34
583.809	8591.95
584.169	8670.59
584.529	8630.59
584.889	8698.84
585.249	8641.21
585.609	8671.27
585.969	8737.26
586.329	8661.55
586.688	8735
587.048	8709.23
587.408	8694.32
587.768	8789.91
588.127	8731.15
588.487	8747.2
588.846	8797.37
589.206	8760.98
589.565	8817.03
589.925	8839.17
590.284	8777.93
590.643	8833.52
591.003	8829.68
591.362	8851.83
591.721	8851.38
592.08	8816.8
592.44	8859.74
592.799	8902
593.158	8877.82
593.517	8856.12
593.876	8958.72
594.235	8899.06
594.593	8884.14
594.952	8911.26
595.311	8845.05
595.67	8943.13
596.029	9010.47
596.387	8985.84
596.746	8938.61
597.104	8948.32
597.463	8973.86
597.822	8933.64
598.18	9014.09
598.538	9028.1
598.897	9004.37
599.255	8926.86
599.613	9012.28
599.972	9013.63
600.33	9057.93
600.688	8977.7
601.046	9023.8
601.404	9077.13
601.762	9082.78
602.12	9078.04
602.478	9109.22
602.836	9139.05
603.194	9061.99
603.552	9045.72
603.91	9064.71
604.268	9072.39
604.625	9101.09
604.983	9115.33
605.341	9066.96
605.698	9134.53
606.056	9159.62
606.413	9088.43
606.771	9092.28
607.128	9145.38
607.485	9148.54
607.843	9179.05
608.2	9111.03
608.557	9161.43
608.914	9175.89
609.272	9231.03
609.629	9242.33
609.986	9255.66
610.343	9156.23
610.7	9352.61
611.057	9261.31
611.414	9253.17
611.771	9277.13
612.127	9233.97
612.484	9267.19
612.841	9254.76
613.198	9299.05
613.554	9313.51
613.911	9313.06
614.267	9305.15
614.624	9263.12
614.98	9323.23
615.337	9381.31
615.693	9361.87
616.05	9331.59
616.406	9407.75
616.762	9347.86
617.118	9430.8
617.475	9382.66
617.831	9372.04
618.187	9416.33
618.543	9422.89
618.899	9471.93
619.255	9444.81
619.611	9418.37
619.967	9435.77
620.323	9463.56
620.678	9484.58
621.034	9388.54
621.39	9389.67
621.746	9438.25
622.101	9572.71
622.457	9500.4
622.812	9424.47
623.168	9449.78
623.523	9467.41
623.879	9452.94
624.234	9428.54
624.589	9444.13
624.945	9466.05
625.3	9470.12
625.655	9444.81
626.01	9432.38
626.365	9513.28
626.72	9450.91
627.075	9393.06
627.43	9430.12
627.785	9358.26
628.14	9384.24
628.495	9428.54
628.85	9405.94
629.205	9396.9
629.559	9404.58
629.914	9369.33
630.269	9363.23
630.623	9373.85
630.978	9327.07
631.332	9404.81
631.687	9448.2
632.041	9383.57
632.396	9409.1
632.75	9355.09
633.104	9312.16
633.459	9325.49
633.813	9322.78
634.167	9314.19
634.521	9316
634.875	9320.29
635.229	9274.64
635.583	9261.99
635.937	9218.37
636.291	9170.01
636.645	9216.11
636.999	9203.23
637.352	9167.98
637.706	9218.15
638.06	9185.83
638.413	9108.32
638.767	9131.14
639.121	9158.49
639.474	9132.5
639.828	9169.34
640.181	9139.28
640.534	9150.8
640.888	9087.98
641.241	9090.69
641.594	9023.12
641.947	9085.5
642.301	9075.78
642.654	9093.63
643.007	9123.46
643.36	9030.36
643.713	9015.89
644.066	9002.33
644.419	9047.53
644.771	8942.22
645.124	8888.44
645.477	8867.2
645.83	8775
646.182	8754.43
646.535	8680.53
646.888	8708.56
647.24	8666.98
647.593	8727.99
647.945	8728.89
648.298	8628.56
648.65	8700.65
649.002	8657.03
649.355	8652.96
649.707	8724.83
650.059	8768.89
650.411	8811.38
650.763	8846.63
651.115	8895.67
651.467	8802.34
651.819	8862.45
652.171	8860.64
652.523	8838.95
652.875	8827.2
653.227	8823.13
653.578	8865.61
653.93	8849.57
654.282	8830.36
654.633	8705.62
654.985	8795.33
655.337	8777.03
655.688	8813.64
656.039	8890.92
656.391	8770.02
656.742	8837.14
657.094	8815.45
657.445	8908.33
657.796	8811.6
658.147	8808.44
658.498	8858.61
658.849	8842.34
659.2	8828.55
659.551	8784.26
659.902	8812.96
660.253	8800.53
660.604	8907.2
660.955	8818.61
661.306	8833.98
661.656	8821.55
662.007	8794.2
662.358	8828.55
662.708	8827.2
663.059	8806.41
663.409	8783.81
663.76	8867.65
664.11	8831.04
664.461	8837.14
664.811	8856.12
665.161	8833.52
665.511	8809.34
665.862	8792.62
666.212	8852.51
666.562	8864.26
666.912	8786.75
667.262	8759.63
667.612	8773.41
667.962	8780.19
668.312	8765.28
668.662	8808.44
669.011	8834.88
669.361	8818.38
669.711	8759.4
670.06	8684.83
670.41	8751.95
670.76	8765.73
671.109	8766.18
671.459	8831.04
671.808	8774.09
672.157	8723.7
672.507	8672.85
672.856	8708.1
673.205	8733.41
673.554	8739.29
673.904	8655.9
674.253	8711.27
674.602	8691.16
674.951	8633.08
675.3	8547.43
675.649	8676.01
675.998	8696.81
676.346	8680.99
676.695	8744.94
677.044	8613.64
677.393	8633.53
677.741	8583.59
678.09	8603.02
678.438	8570.93
678.787	8607.99
679.135	8622
679.484	8473.08
679.832	8573.19
680.181	8531.16
680.529	8513.99
680.877	8500.65
681.225	8491.39
681.573	8626.75
681.922	8494.1
682.27	8423.82
682.618	8433.76
682.966	8450.48
683.314	8440.09
683.661	8403.71
684.009	8378.62
684.357	8356.48
684.705	8348.11
685.053	8372.52
685.4	8339.98
685.748	8303.14
686.095	8263.82
686.443	8245.07
686.79	8247.78
687.138	8246.65
687.485	8268.57
687.832	8238.29
688.18	8234.9
688.527	8125.52
688.874	8136.59
689.221	8171.17
689.568	8094.79
689.915	8083.94
690.262	8087.33
690.609	8032.42
690.956	7963.94
691.303	8040.55
691.65	7999.2
691.997	8008.24
692.344	7930.5
692.69	7896.37
693.037	7919.88
693.383	7848.92
693.73	7898.18
694.077	7736.6
694.423	7826.32
694.769	7766.43
695.116	7741.12
695.462	7747.9
695.808	7704.06
696.155	7740.9
696.501	7638.08
696.847	7657.06
697.193	7637.62
697.539	7625.19
697.885	7571.86
698.231	7542.26
698.577	7547.46
698.923	7514.92
699.269	7479.21
699.614	7464.07
699.96	7425.88
700.306	7400.57
700.651	7365.77
700.997	7340.91
701.342	7333
701.688	7332.32
702.033	7315.82
702.379	7311.53
702.724	7300.91
703.069	7241.48
703.415	7177.52
703.76	7147.92
704.105	7202.83
704.45	7149.95
704.795	7169.61
705.14	7078.77
705.485	7087.81
705.83	7076.28
706.175	7021.14
706.52	7031.54
706.865	7037.64
707.209	7012.78
707.554	7000.35
707.899	7020.24
708.243	7008.26
708.588	6953.8
708.932	6874.93
709.277	6861.15
709.621	6871.32
709.966	6817.98
710.31	6849.62
710.654	6780.92
710.998	6794.03
711.342	6789.51
711.687	6815.27
712.031	6754.03
712.375	6702.06
712.719	6738.89
713.063	6720.81
713.407	6736.63
713.75	6718.1
714.094	6691.89
714.438	6618.22
714.782	6681.04
715.125	6608.05
715.469	6632.23
715.812	6617.09
716.156	6616.63
716.499	6570.76
716.843	6637.2
717.186	6591.1
717.53	6565.56
717.873	6549.07
718.216	6553.36
718.559	6480.14
718.902	6451.67
719.246	6532.12
719.589	6454.15
719.932	6455.51
720.275	6497.32
720.617	6427.94
720.96	6415.74
721.303	6449.86
721.646	6473.81
721.989	6382.97
722.331	6438.56
722.674	6438.79
723.016	6420.03
723.359	6435.17
723.701	6401.05
724.044	6312.01
724.386	6334.83
724.729	6380.93
725.071	6327.6
725.413	6396.53
725.755	6361.05
726.097	6337.32
726.439	6308.17
726.782	6341.39
727.124	6341.16
727.465	6328.96
727.807	6310.65
728.149	6279.47
728.491	6270.43
728.833	6250.99
729.175	6288.73
729.516	6284.21
729.858	6255.51
730.199	6328.96
730.541	6313.37
730.882	6207.83
731.224	6254.84
731.565	6277.66
731.906	6263.2
732.248	6266.59
732.589	6182.97
732.93	6244.89
733.271	6256.42
733.612	6244.89
733.953	6255.29
734.294	6286.93
734.635	6167.15
734.976	6235.63
735.317	6197.66
735.658	6239.92
735.999	6185.68
736.339	6256.87
736.68	6221.39
737.021	6241.28
737.361	6236.08
737.702	6286.25
738.042	6233.14
738.383	6239.02
738.723	6188.17
739.063	6236.08
739.404	6256.19
739.744	6252.35
740.084	6225.46
740.424	6284.21
740.764	6235.4
741.104	6269.98
741.444	6232.46
741.784	6264.78
742.124	6269.52
742.464	6289.18
742.804	6307.72
743.143	6295.29
743.483	6330.31
743.823	6301.16
744.162	6293.93
744.502	6339.58
744.841	6337.32
745.181	6378.67
745.52	6379.8
745.86	6347.04
746.199	6425.45
746.538	6434.72
746.877	6450.76
747.216	6487.82
747.556	6567.6
747.895	6508.61
748.234	6574.38
748.573	6565.79
748.911	6599.23
749.25	6606.69
749.589	6719.68
749.928	6681.49
750.267	6749.06
750.605	6773.47
750.944	6812.34
751.283	6841.03
751.621	6909.06
751.96	6948.6
752.298	6943.41
752.636	7021.37
752.975	7017.53
753.313	7145.21
753.651	7199.9
753.989	7235.6
754.327	7302.49
754.666	7279.22
755.004	7420.23
755.342	7488.02
755.679	7561.02
756.017	7647.12
756.355	7657.28
756.693	7819.99
757.031	7873.78
757.368	7922.36
757.706	8007.33
758.044	8071.06
758.381	8187.89
758.719	8242.13
759.056	8330.04
759.394	8479.41
759.731	8490.26
760.068	8581.1
760.405	8619.07
760.743	8715.79
761.08	8879.17
761.417	8933.64
761.754	8968.21
762.091	9168.66
762.428	9219.28
762.765	9259.95
763.102	9441.64
763.438	9423.79
763.775	9553.73
764.112	9694.97
764.449	9777
764.785	9859.71
765.122	9828.98
765.458	9977.68
765.795	10133.15
766.131	10105.13
766.467	10222.87
766.804	10239.14
767.14	10263.54
767.476	10469.41
767.812	10475.06
768.148	10550.99
768.485	10570.2
768.821	10720.93
769.157	10719.35
769.492	10819.24
769.828	10828.05
770.164	10822.85
770.5	10893.13
770.836	10965.22
771.171	10994.82
771.507	11039.79
771.842	10944.88
772.178	11165.21
772.513	11152.33
772.849	11198.66
773.184	11227.13
773.519	11252.44
773.855	11305.55
774.19	11292.9
774.525	11310.97
774.86	11400.46
775.195	11475.26
775.53	11416.51
775.865	11357.3
776.2	11295.38
776.535	11387.36
776.87	11361.37
777.205	11473
777.539	11418.77
777.874	11489.95
778.209	11448.82
778.543	11427.58
778.878	11429.39
779.212	11437.75
779.547	11323.4
779.881	11587.35
780.215	11467.35
780.55	11541.7
780.884	11440.24
781.218	11494.47
781.552	11585.32
781.886	11467.81
782.22	11443.63
782.554	11454.7
782.888	11334.93
783.222	11379.22
783.556	11409.28
783.889	11352.55
784.223	11308.49
784.557	11246.57
784.89	11360.24
785.224	11343.52
785.557	11223.74
785.891	11330.41
786.224	11244.31
786.558	11257.64
786.891	11141.03
787.224	11188.94
787.557	11176.74
787.891	11162.05
788.224	11091.77
788.557	11191.88
788.89	11205.67
789.223	11194.14
789.556	11066.91
789.888	11102.84
790.221	11064.43
790.554	10957.54
790.887	10972.9
791.219	10880.02
791.552	10974.71
791.884	10913.02
792.217	10860.14
792.549	10927.71
792.882	10778.11
793.214	10818.11
793.546	10819.69
793.879	10786.02
794.211	10695.62
794.543	10732.01
794.875	10666.7
795.207	10770.87
795.539	10677.54
795.871	10650.65
796.203	10601.84
796.535	10533.14
796.867	10572.46
797.198	10517.77
797.53	10452.92
797.862	10447.04
798.193	10440.49
798.525	10438.91
798.856	10506.7
799.188	10326.14
799.519	10314.62
799.85	10291.11
800.182	10251.57
800.513	10357.1
800.844	10247.27
801.175	10261.96
801.506	10242.3
801.837	10228.74
802.168	10197.56
802.499	10118.69
802.83	10115.07
803.161	10120.95
803.491	10084.57
803.822	10072.59
804.153	10131.57
804.483	9988.75
804.814	9931.12
805.145	9959.6
805.475	9939.03
805.805	9930.9
806.136	9855.42
806.466	9894.29
806.796	9859.03
807.126	9815.19
807.457	9801.18
807.787	9738.36
808.117	9777.68
808.447	9727.06
808.777	9770.45
809.107	9710.34
809.436	9776.1
809.766	9684.8
810.096	9639.15
810.426	9615.2
810.755	9609.32
811.085	9530.46
811.414	9572.71
811.744	9529.1
812.073	9503.34
812.403	9489.1
812.732	9407.07
813.061	9433.06
813.39	9446.62
813.719	9376.79
814.049	9460.4
814.378	9355.54
814.707	9357.35
815.036	9284.13
815.365	9341.53
815.693	9209.56
816.022	9224.47
816.351	9212.27
816.68	9190.8
817.008	9215.66
817.337	9168.21
817.665	9124.59
817.994	9179.73
818.322	9083.24
818.651	9097.47
818.979	9055.67
819.307	9072.16
819.636	9045.5
819.964	8973.18
820.292	9050.24
820.62	9026.97
820.948	9069
821.276	9066.06
821.604	9061.09
821.932	9014.76
822.259	9041.43
822.587	9052.73
822.915	9027.42
823.243	9026.06
823.57	8917.14
823.898	8964.82
824.225	8927.76
824.553	8916.91
824.88	9015.89
825.207	9064.71
825.535	8991.71
825.862	9037.36
826.189	9018.6
826.516	9001.88
826.843	8985.39
827.17	9028.1
827.497	8978.83
827.824	9015.21
828.151	9056.34
828.478	9033.75
828.805	8971.6
829.131	8996.68
829.458	8955.78
829.785	8962.56
830.111	9007.53
830.438	9037.36
830.764	9020.19
831.09	9002.33
831.417	9006.85
831.743	9035.33
832.069	9030.13
832.395	8979.06
832.722	9007.31
833.048	8910.13
833.374	9015.21
833.7	9014.54
834.026	8944.71
834.351	8965.95
834.677	8992.16
835.003	8979.96
835.329	9006.4
835.654	8879.4
835.98	8858.61
836.306	8904.03
836.631	8889.79
836.956	8926.63
837.282	8881.89
837.607	8909.23
837.932	8914.2
838.258	8877.59
838.583	8848.67
838.908	8742
839.233	8827.88
839.558	8831.94
839.883	8771.15
840.208	8698.61
840.533	8720.53
840.858	8669.46
841.182	8746.52
841.507	8682.57
841.832	8623.59
842.156	8670.37
842.481	8618.62
842.805	8636.69
843.13	8582.46
843.454	8544.94
843.778	8579.52
844.103	8547.66
844.427	8554.21
844.751	8518.5
845.075	8522.35
845.399	8493.87
845.723	8452.07
846.047	8468.79
846.371	8339.07
846.695	8408.68
847.019	8363.25
847.343	8311.96
847.666	8228.57
847.99	8187.67
848.313	8189.93
848.637	8126.2
848.96	8148.57
849.284	8093.43
849.607	8075.8
849.931	8040.33
850.254	7974.11
850.577	7977.5
850.9	7876.94
851.223	7850.95
851.546	7885.53
851.869	7841.46
852.192	7844.17
852.515	7744.97
852.838	7730.28
853.161	7747.68
853.483	7696.15
853.806	7636.72
854.129	7671.75
854.451	7644.4
854.774	7623.84
855.096	7484.18
855.419	7571.64
855.741	7544.75
856.063	7540.68
856.385	7462.94
856.708	7438.08
857.03	7411.42
857.352	7461.81
857.674	7405.54
857.996	7384.3
858.318	7363.96
858.64	7335.94
858.961	7306.56
859.283	7265.66
859.605	7237.18
859.926	7282.83
860.248	7208.48
860.57	7170.74
860.891	7220.91
861.212	7155.38
861.534	7176.39
861.855	7155.15
862.176	7122.84
862.498	7166.68
862.819	7107.47
863.14	7072.67
863.461	7115.38
863.782	7086.23
864.103	7056.4
864.424	7046.68
864.745	7066.34
865.065	7008.49
865.386	6977.53
865.707	6978.66
866.027	7034.7
866.348	6991.99
866.668	6924.65
866.989	6949.96
867.309	6919.22
867.63	6945.66
867.95	6966
868.27	6882.16
868.59	6869.51
868.91	6879.45
869.23	6901.37
869.55	6811.21
869.87	6930.98
870.19	6876.06
870.51	6862.28
870.83	6822.28
871.15	6833.13
871.469	6851.2
871.789	6844.42
872.109	6759
872.428	6742.28
872.748	6816.85
873.067	6789.28
873.386	6821.37
873.706	6753.35
874.025	6731.21
874.344	6714.71
874.663	6695.5
874.982	6661.6
875.301	6691.21
875.62	6642.17
875.939	6664.77
876.258	6640.36
876.577	6655.05
876.896	6666.8
877.214	6608.5
877.533	6633.36
877.852	6577.09
878.17	6584.09
878.489	6583.87
878.807	6608.95
879.125	6577.31
879.444	6555.17
879.762	6527.14
880.08	6525.34
880.398	6523.53
880.716	6518.78
881.034	6528.73
881.352	6509.52
881.67	6491.44
881.988	6488.28
882.306	6486.02
882.624	6398.79
882.941	6402.4
883.259	6366.02
883.577	6376.87
883.894	6345.23
884.212	6347.94
884.529	6355.4
884.846	6370.99
885.164	6289.41
885.481	6288.28
885.798	6308.62
886.115	6227.04
886.432	6254.84
886.75	6206.25
887.067	6243.31
887.383	6235.63
887.7	6227.27
888.017	6181.62
888.334	6162.86
888.651	6245.34
888.967	6159.92
889.284	6088.74
889.6	6108.62
889.917	6100.49
890.233	6125.12
890.55	6093.94
890.866	6131.45
891.182	6040.83
891.498	6022.98
891.815	5967.16
892.131	5963.77
892.447	5927.16
892.763	5928.74
893.079	5885.35
893.395	5943.66
893.71	5885.13
894.026	5878.57
894.342	5902.75
894.657	5858.46
894.973	5785.24
895.289	5800.84
895.604	5823.43
895.92	5755.19
896.235	5744.34
896.55	5764.45
896.865	5682.2
897.181	5674.96
897.496	5702.53
897.811	5664.12
898.126	5680.39
898.441	5631.8
898.756	5672.7
899.071	5579.6
899.386	5587.51
899.7	5554.97
900.015	5540.73
900.33	5550.67
900.644	5483.33
900.959	5496.21
901.273	5495.08
901.588	5461.41
901.902	5403.78
902.216	5402.88
902.531	5401.07
902.845	5350
903.159	5320.85
903.473	5336.44
903.787	5300.74
904.101	5284.01
904.415	5254.86
904.729	5278.82
905.042	5216.9
905.356	5261.87
905.67	5221.42
905.984	5181.64
906.297	5178.03
906.611	5134.86
906.924	5072.72
907.237	5117.69
907.551	5090.12
907.864	5107.75
908.177	5066.39
908.491	5069.78
908.804	4997.92
909.117	4995.43
909.43	4957.69
909.743	4982.78
910.056	4915.66
910.368	4907.3
910.681	4882.89
910.994	4855.55
911.307	4880.41
911.619	4873.18
911.932	4841.99
912.244	4827.98
912.557	4814.65
912.869	4777.13
913.181	4713.63
913.494	4760.64
913.806	4719.73
914.118	4692.39
914.43	4665.05
914.742	4656.69
915.054	4615.56
915.366	4614.88
915.678	4543.02
915.99	4541.21
916.302	4520.42
916.613	4529.23
916.925	4530.14
917.236	4497.59
917.548	4471.15
917.859	4463.47
918.171	4488.1
918.482	4409.91
918.794	4413.3
919.105	4386.64
919.416	4390.48
919.727	4415.79
920.038	4371.27
920.349	4343.93
920.66	4353.64
920.971	4258.28
921.282	4359.29
921.593	4323.59
921.903	4272.74
922.214	4237.94
922.525	4192.06
922.835	4190.26
923.146	4199.52
923.456	4206.98
923.767	4144.61
924.077	4141.44
924.387	4106.19
924.697	4089.02
925.008	4106.42
925.318	4070.49
925.628	4053.09
925.938	4037.04
926.248	4011.5
926.558	4009.02
926.867	3976.25
927.177	3987.1
927.487	3972.86
927.796	3920.66
928.106	3921.56
928.416	3944.84
928.725	3917.95
929.034	3901
929.344	3857.84
929.653	3871.17
929.962	3819.87
930.271	3832.07
930.581	3834.79
930.89	3797.95
931.199	3808.57
931.508	3732.19
931.817	3732.87
932.125	3725.41
932.434	3726.99
932.743	3668.24
933.051	3666.43
933.36	3659.65
933.669	3668.69
933.977	3641.8
934.286	3621.91
934.594	3599.31
934.902	3610.61
935.21	3583.95
935.519	3598.86
935.827	3537.62
936.135	3551.63
936.443	3511.4
936.751	3508.69
937.059	3479.99
937.367	3477.51
937.674	3496.04
937.982	3473.21
938.29	3503.5
938.597	3495.36
938.905	3425.31
939.213	3378.53
939.52	3422.59
939.827	3396.61
940.135	3376.49
940.442	3321.35
940.749	3328.36
941.056	3377.62
941.363	3320.22
941.67	3282.48
941.977	3304.18
942.284	3267.12
942.591	3256.95
942.898	3266.89
943.205	3255.59
943.511	3242.71
943.818	3245.2
944.125	3199.77
944.431	3186.67
944.738	3145.99
945.044	3158.42
945.35	3144.41
945.657	3158.65
945.963	3092.43
946.269	3115.71
946.575	3125.88
946.881	3078.42
947.187	3023.06
947.493	3040.68
947.799	3093.34
948.105	3009.72
948.41	3006.11
948.716	2991.64
949.022	3002.04
949.327	3013.34
949.633	2937.86
949.938	2955.04
950.244	2964.98
950.549	2941.7
950.854	2920.69
951.16	2919.1
951.465	2888.14
951.77	2866.9
952.075	2851.54
952.38	2890.18
952.685	2876.62
952.99	2827.58
953.294	2824.87
953.599	2795.27
953.904	2774.93
954.209	2787.81
954.513	2797.07
954.818	2762.95
955.122	2750.75
955.426	2752.78
955.731	2745.55
956.035	2713.91
956.339	2720.24
956.643	2698.09
956.948	2722.05
957.252	2673.01
957.556	2695.38
957.86	2626
958.163	2643.18
958.467	2673.23
958.771	2677.98
959.075	2632.78
959.378	2579
959.682	2580.58
959.985	2590.3
960.289	2557.98
960.592	2597.98
960.896	2553.92
961.199	2541.26
961.502	2517.98
961.805	2506.01
962.108	2510.08
962.411	2519.79
962.714	2469.62
963.017	2477.53
963.32	2495.16
963.623	2463.07
963.926	2429.85
964.228	2438.66
964.531	2449.29
964.833	2409.29
965.136	2402.96
965.438	2384.88
965.741	2391.21
966.043	2381.49
966.345	2383.75
966.648	2327.03
966.95	2378.78
967.252	2333.58
967.554	2333.58
967.856	2299.01
968.158	2317.09
968.46	2334.71
968.761	2310.31
969.063	2300.82
969.365	2243.19
969.666	2256.07
969.968	2284.77
970.269	2260.36
970.571	2217.43
970.872	2249.29
971.174	2238.22
971.475	2237.77
971.776	2190.08
972.077	2189.86
972.378	2200.93
972.679	2176.75
972.98	2193.02
973.281	2174.72
973.582	2167.49
973.883	2143.53
974.183	2107.6
974.484	2166.81
974.785	2152.34
975.085	2130.65
975.386	2124.1
975.686	2096.98
975.986	2071.44
976.287	2082.97
976.587	2057.88
976.887	2057.66
977.187	1995.96
977.487	2036.19
977.787	1997.09
978.087	2028.28
978.387	2017.88
978.687	2040.94
978.987	2007.72
979.286	1939.02
979.586	2007.04
979.885	2011.11
980.185	1974.72
980.484	1962.52
980.784	1986.93
981.083	1946.25
981.382	1929.53
981.682	1927.49
981.981	1937.21
982.28	1895.63
982.579	1899.02
982.878	1903.54
983.177	1901.96
983.475	1859.02
983.774	1865.8
984.073	1860.15
984.372	1842.52
984.67	1878.91
984.969	1855.86
985.267	1828.51
985.566	1840.49
985.864	1803.43
986.162	1826.25
986.461	1773.15
986.759	1771.56
987.057	1779.02
987.355	1775.86
987.653	1749.87
987.951	1739.93
988.249	1755.52
988.547	1728.17
988.844	1724.11
989.142	1748.06
989.44	1713.49
989.737	1720.04
990.035	1699.02
990.332	1694.96
990.63	1727.5
990.927	1696.31
991.224	1679.81
991.521	1685.46
991.819	1658.12
992.116	1645.01
992.413	1646.82
992.71	1657.67
993.006	1641.4
993.303	1651.57
993.6	1646.6
993.897	1634.62
994.193	1626.93
994.49	1611.79
994.787	1614.28
995.083	1584.9
995.379	1584.9
995.676	1594.17
995.972	1584.22
996.268	1581.29
996.565	1537.67
996.861	1610.21
997.157	1534.96
997.453	1555.07
997.749	1568.41
998.044	1518.46
998.34	1504.23
998.636	1497.22
998.932	1536.32
999.227	1494.06
999.523	1480.5
999.818	1483.44
1000.114	1464.9
1000.409	1478.24
1000.704	1470.33
1001	1452.02
1001.295	1432.59
1001.59	1441.63
1001.885	1427.84
1002.18	1413.83
1002.475	1411.57
1002.77	1409.54
1003.065	1400.95
1003.359	1378.13
1003.654	1393.49
1003.949	1409.31
1004.243	1404.79
1004.538	1355.53
1004.832	1333.38
1005.127	1378.13
1005.421	1337.9
1005.715	1326.15
1006.009	1353.5
1006.304	1314.17
1006.598	1316.66
1006.892	1317.79
1007.186	1316.43
1007.48	1322.99
1007.773	1314.63
1008.067	1275.53
1008.361	1272.82
1008.655	1249.77
1008.948	1247.96
1009.242	1272.37
1009.535	1239.83
1009.829	1248.64
1010.122	1288.19
1010.415	1225.82
1010.708	1210.22
1011.001	1235.08
1011.295	1231.92
1011.588	1184.01
1011.881	1203.44
1012.173	1211.13
1012.466	1179.71
1012.759	1178.81
1013.052	1165.03
1013.344	1171.81
1013.637	1159.15
1013.93	1141.52
1014.222	1156.44
1014.514	1153.5
1014.807	1141.52
1015.099	1160.28
1015.391	1127.51
1015.683	1134.29
1015.976	1144.24
1016.268	1117.34
1016.56	1135.65
1016.851	1099.49
1017.143	1078.7
1017.435	1066.72
1017.727	1084.35
1018.018	1049.32
1018.31	1094.07
1018.602	1069.66
1018.893	1059.49
1019.185	1055.42
1019.476	1030.79
1019.767	1027.85
1020.058	1020.62
1020.35	1030.34
1020.641	1037.12
1020.932	1026.95
1021.223	998.7
1021.514	995.31
1021.804	1003
1022.095	1001.41
1022.386	1010.23
1022.677	979.49
1022.967	1005.93
1023.258	967.52
1023.548	960.96
1023.839	969.1
1024.129	970
1024.419	917.8
1024.709	940.17
1025	942.88
1025.29	928.87
1025.58	946.95
1025.87	938.59
1026.16	938.14
1026.449	930.46
1026.739	893.85
1027.029	886.84
1027.319	893.39
1027.608	895.2
1027.898	885.94
1028.187	883.45
1028.477	876.67
1028.766	884.36
1029.055	846.84
1029.344	871.25
1029.634	847.52
1029.923	853.62
1030.212	826.73
1030.501	874.64
1030.79	827.18
1031.078	829.22
1031.367	823.34
1031.656	804.58
1031.945	807.97
1032.233	819.05
1032.522	818.59
1032.81	806.84
1033.099	817.01
1033.387	799.61
1033.675	779.05
1033.963	774.53
1034.251	790.8
1034.54	805.71
1034.828	791.25
1035.116	775.21
1035.403	772.72
1035.691	769.56
1035.979	781.08
1036.267	773.17
1036.554	747.64
1036.842	732.04
1037.129	732.27
1037.417	745.38
1037.704	760.29
1037.992	744.25
1038.279	732.95
1038.566	741.76
1038.853	741.76
1039.14	741.76
