Data from hue_20_FLMS001491_73.txt Node
Date: Mon Feb 06 15:34:37 GMT 2017
User: dcchb
Spectrometer: FLMS00149
Trigger mode: 0
Integration Time (sec): 2.000000E-2
Scans to average: 10
Electric dark correction enabled: true
Nonlinearity correction enabled: false
Boxcar width: 0
XAxis mode: Wavelengths
Number of Pixels in Spectrum: 2048
>>>>>Begin Spectral Data<<<<<
341.393	-24.15
341.776	-24.15
342.16	-24.15
342.543	-59.63
342.927	-74.32
343.31	-55.11
343.693	-81.55
344.077	-50.14
344.46	-67.09
344.843	-59.18
345.226	-39.07
345.61	-32.74
345.993	-13.98
346.376	-0.2
346.759	5.68
347.142	14.72
347.525	34.83
347.908	66.47
348.291	66.24
348.674	103.75
349.057	107.37
349.44	128.84
349.823	139.23
350.206	154.6
350.588	178.55
350.971	214.49
351.354	241.38
351.737	250.64
352.119	254.71
352.502	268.72
352.884	262.39
353.267	292.22
353.65	284.54
354.032	289.74
354.414	315.5
354.797	330.42
355.179	322.28
355.562	317.99
355.944	326.12
356.326	337.87
356.709	340.81
357.091	355.05
357.473	340.13
357.855	346.01
358.238	330.19
358.62	349.17
359.002	345.78
359.384	344.2
359.766	352.56
360.148	340.13
360.53	345.33
360.912	330.19
361.294	358.44
361.676	341.71
362.057	338.1
362.439	346.01
362.821	329.74
363.203	318.89
363.584	343.07
363.966	322.05
364.348	338.78
364.729	332.9
365.111	326.12
365.493	320.92
365.874	327.7
366.256	300.36
366.637	314.6
367.019	317.31
367.4	333.8
367.781	312.79
368.163	331.09
368.544	311.21
368.925	313.01
369.306	332.45
369.688	327.93
370.069	321.83
370.45	327.93
370.831	318.44
371.212	306.23
371.593	320.25
371.974	322.05
372.355	293.35
372.736	331.77
373.117	324.77
373.498	296.07
373.879	325.22
374.26	327.48
374.641	319.57
375.021	318.66
375.402	341.26
375.783	327.7
376.163	334.48
376.544	332.9
376.925	339.91
377.305	336.52
377.686	330.42
378.066	343.07
378.447	353.69
378.827	336.74
379.208	342.17
379.588	336.97
379.968	345.78
380.349	356.18
380.729	345.56
381.109	347.82
381.489	351.21
381.87	345.33
382.25	344.65
382.63	353.01
383.01	338.55
383.39	350.98
383.77	335.61
384.15	348.95
384.53	352.11
384.91	379
385.29	357.08
385.67	378.55
386.049	368.61
386.429	345.78
386.809	357.98
387.189	365.22
387.568	381.49
387.948	368.38
388.328	372.45
388.707	373.8
389.087	367.48
389.466	389.85
389.846	365.67
390.225	395.27
390.605	380.58
390.984	391.43
391.363	385.1
391.743	383.3
392.122	381.71
392.501	398.66
392.881	404.31
393.26	385.55
393.639	386.91
394.018	397.08
394.397	400.02
394.776	387.81
395.155	407.02
395.534	404.76
395.913	392.33
396.292	395.5
396.671	404.99
397.05	381.94
397.429	399.11
397.808	413.35
398.186	400.02
398.565	394.82
398.944	416.06
399.323	392.33
399.701	423.75
400.08	397.76
400.458	431.88
400.837	414.93
401.215	416.51
401.594	427.36
401.972	398.66
402.351	410.86
402.729	432.56
403.107	426.68
403.486	420.36
403.864	408.38
404.242	415.38
404.62	427.81
404.999	433.24
405.377	427.14
405.755	440.24
406.133	469.85
406.511	438.89
406.889	430.53
407.267	448.38
407.645	462.39
408.023	455.61
408.401	444.54
408.779	440.92
409.156	465.78
409.534	453.12
409.912	467.36
410.29	476.85
410.667	471.65
411.045	463.52
411.422	472.78
411.8	470.07
412.178	481.15
412.555	482.73
412.933	495.61
413.31	513.46
413.687	498.09
414.065	496.06
414.442	515.72
414.819	503.52
415.197	508.26
415.574	507.36
415.951	523.86
416.328	500.58
416.705	517.75
417.082	523.63
417.46	542.16
417.837	537.42
418.214	527.25
418.591	534.93
418.967	547.81
419.344	543.06
419.721	537.42
420.098	549.84
420.475	551.43
420.852	542.39
421.228	564.31
421.605	574.25
421.982	546
422.358	569.5
422.735	585.78
423.111	577.19
423.488	599.79
423.864	579.67
424.241	600.69
424.617	573.57
424.994	618.32
425.37	588.71
425.746	605.66
426.123	581.48
426.499	628.71
426.875	615.61
427.251	618.77
427.627	597.07
428.003	613.12
428.379	607.24
428.756	616.28
429.132	624.64
429.507	649.95
429.883	647.47
430.259	659.45
430.635	676.39
431.011	660.58
431.387	684.3
431.763	686.56
432.138	687.24
432.514	693.34
432.89	714.59
433.265	727.47
433.641	702.61
434.016	710.97
434.392	727.01
434.767	731.99
435.143	730.86
435.518	733.34
435.894	741.25
436.269	755.04
436.644	755.94
437.02	763.62
437.395	765.43
437.77	772.21
438.145	782.83
438.52	763.4
438.895	794.36
439.271	792.78
439.646	817.63
440.021	799.78
440.395	800.46
440.77	816.28
441.145	815.83
441.52	827.13
441.895	831.87
442.27	830.29
442.645	833.45
443.019	853.34
443.394	842.49
443.769	865.54
444.143	849.5
444.518	863.06
444.892	870.51
445.267	867.58
445.641	872.77
446.016	894.02
446.39	856.73
446.764	888.82
447.139	875.03
447.513	887.24
447.887	916.61
448.262	886.33
448.636	913.9
449.01	902.6
449.384	913.22
449.758	927.91
450.132	919.55
450.506	936.05
450.88	908.48
451.254	944.41
451.628	964.97
452.002	960
452.376	967.91
452.75	978.31
453.123	988.93
453.497	1007.46
453.871	990.51
454.244	1010.62
454.618	1045.42
454.992	1035.26
455.365	1038.19
455.739	1042.49
456.112	1054.69
456.486	1078.87
456.859	1081.58
457.232	1077.06
457.606	1113.9
457.979	1106.44
458.352	1135.59
458.725	1126.1
459.099	1148.47
459.472	1161.58
459.845	1190.96
460.218	1190.51
460.591	1205.87
460.964	1196.61
461.337	1195.03
461.71	1243.16
462.083	1241.58
462.456	1272.76
462.829	1264.18
463.201	1287.23
463.574	1276.38
463.947	1289.71
464.32	1338.75
464.692	1328.81
465.065	1332.2
465.438	1353.44
465.81	1388.24
466.183	1373.55
466.555	1420.33
466.928	1421.91
467.3	1406.09
467.672	1427.11
468.045	1463.27
468.417	1486.09
468.789	1497.39
469.161	1494.9
469.534	1532.64
469.906	1545.98
470.278	1588.46
470.65	1576.48
471.022	1618.29
471.394	1659.19
471.766	1653.32
472.138	1695.12
472.51	1723.82
472.882	1738.74
473.253	1768.12
473.625	1797.27
473.997	1818.51
474.369	1858.28
474.74	1856.7
475.112	1892.18
475.484	1926.31
475.855	1972.86
476.227	1979.86
476.598	2057.38
476.97	2059.86
477.341	2065.96
477.713	2144.15
478.084	2128.11
478.455	2199.29
478.827	2223.7
479.198	2333.98
479.569	2291.72
479.94	2357.48
480.311	2376.01
480.682	2450.59
481.053	2494.88
481.424	2553.41
481.795	2554.76
482.166	2623.46
482.537	2658.26
482.908	2703.46
483.279	2737.13
483.65	2805.15
484.021	2875.43
484.391	2884.47
484.762	2900.29
485.133	2940.29
485.503	3054.19
485.874	3072.94
486.244	3096.44
486.615	3157.01
486.985	3260.51
487.356	3306.38
487.726	3326.72
488.097	3404.68
488.467	3385.7
488.837	3469.99
489.207	3531.23
489.578	3591.57
489.948	3617.33
490.318	3682.87
490.688	3709.76
491.058	3773.49
491.428	3834.73
491.798	3885.58
492.168	3948.17
492.538	3949.75
492.908	4008.28
493.278	4074.27
493.648	4108.62
494.017	4127.83
494.387	4177.77
494.757	4256.41
495.126	4300.03
495.496	4294.38
495.866	4355.39
496.235	4370.99
496.605	4453.92
496.974	4504.32
497.344	4512.9
497.713	4545.67
498.082	4576.18
498.452	4627.03
498.821	4645.56
499.19	4675.39
499.559	4728.49
499.928	4722.16
500.298	4791.54
500.667	4836.74
501.036	4851.65
501.405	4875.38
501.774	4890.97
502.143	4959.22
502.512	4956.28
502.88	5030.4
503.249	5004.19
503.618	5053
503.987	5062.95
504.356	5081.93
504.724	5149.72
505.093	5216.84
505.462	5151.53
505.83	5258.65
506.199	5267.69
506.567	5342.03
506.936	5288.02
507.304	5367.8
507.672	5389.94
508.041	5392.2
508.409	5387.91
508.777	5463.61
509.145	5515.59
509.514	5554.91
509.882	5558.3
510.25	5565.53
510.618	5577.28
510.986	5642.59
511.354	5723.95
511.722	5688.47
512.09	5815.02
512.458	5768.46
512.826	5813.21
513.193	5778.18
513.561	5856.6
513.929	5909.48
514.297	5893.43
514.664	5966.2
515.032	6019.76
515.4	6001.45
515.767	6042.81
516.135	6042.58
516.502	6010.49
516.869	6156.7
517.237	6083.03
517.604	6176.81
517.972	6207.1
518.339	6174.56
518.706	6283.93
519.073	6230.6
519.44	6325.51
519.808	6300.43
520.175	6314.21
520.542	6411.84
520.909	6400.31
521.276	6348.56
521.643	6529.12
522.009	6561.21
522.376	6565.28
522.743	6567.77
523.11	6662.9
523.477	6654.32
523.843	6697.48
524.21	6775.67
524.577	6829.23
524.943	6815.67
525.31	6890.02
525.676	6924.14
526.043	6973.63
526.409	6993.06
526.776	7085.04
527.142	7095.89
527.508	7143.8
527.874	7161.65
528.241	7205.26
528.607	7282.1
528.973	7318.71
529.339	7242.78
529.705	7343.34
530.071	7407.29
530.437	7403
530.803	7475.76
531.169	7536.55
531.535	7507.18
531.901	7529.77
532.267	7552.6
532.632	7599.38
532.998	7629.88
533.364	7711.46
533.73	7687.51
534.095	7740.16
534.461	7778.35
534.826	7833.04
535.192	7944
535.557	7933.6
535.923	7976.54
536.288	7960.5
536.653	8083.43
537.019	8047.5
537.384	8068.52
537.749	8126.14
538.114	8170.66
538.479	8108.52
538.845	8156.65
539.21	8198.23
539.575	8227.38
539.94	8265.8
540.305	8293.37
540.67	8329.3
541.034	8323.2
541.399	8410.88
541.764	8468.51
542.129	8478
542.494	8467.15
542.858	8509.18
543.223	8567.49
543.587	8651.33
543.952	8658.56
544.316	8611.1
544.681	8617.43
545.045	8720.7
545.41	8772.23
545.774	8760.7
546.138	8786.01
546.503	8827.14
546.867	8879.12
547.231	8902.39
547.595	9009.96
547.959	8942.84
548.324	8990.3
548.688	9068.49
549.052	9055.16
549.416	9113.46
549.779	9186.23
550.143	9092.44
550.507	9168.83
550.871	9211.09
551.235	9252.67
551.599	9347.81
551.962	9382.15
552.326	9360.91
552.689	9404.98
553.053	9388.03
553.417	9416.5
553.78	9559.55
554.143	9542.6
554.507	9550.74
554.87	9543.73
555.234	9701.24
555.597	9562.94
555.96	9661.24
556.323	9714.8
556.686	9711.64
557.05	9765.87
557.413	9781.69
557.776	9843.16
558.139	9901.01
558.502	9858.53
558.865	9907.56
559.228	10025.75
559.59	10111.4
559.953	10064.17
560.316	10112.98
560.679	10166.31
561.041	10165.18
561.404	10230.72
561.767	10244.73
562.129	10279.08
562.492	10338.29
562.854	10408.34
563.217	10316.59
563.579	10409.25
563.941	10432.3
564.304	10480.66
564.666	10595.91
565.028	10615.12
565.39	10597.72
565.753	10723.36
566.115	10729.69
566.477	10816.92
566.839	10845.62
567.201	10804.26
567.563	10986.63
567.925	10926.07
568.287	10975.56
568.648	10982.56
569.01	11037.7
569.372	11068.89
569.734	11099.62
570.095	11226.85
570.457	11343.91
570.819	11300.07
571.18	11249
571.542	11409.9
571.903	11427.52
572.265	11487.64
572.626	11494.87
572.987	11487.86
573.349	11645.82
573.71	11689.66
574.071	11767.63
574.432	11856.44
574.794	11944.8
575.155	11902.99
575.516	11881.98
575.877	12082.87
576.238	12095.98
576.599	12236.09
576.96	12200.39
577.32	12306.37
577.681	12454.84
578.042	12479.02
578.403	12611.9
578.763	12608.28
579.124	12783.42
579.485	12867.94
579.845	13057.31
580.206	13082.17
580.566	13222.73
580.927	13277.19
581.287	13478.54
581.648	13565.77
582.008	13748.82
582.368	13852.32
582.728	14055.93
583.089	14121.01
583.449	14229.94
583.809	14417.05
584.169	14653.2
584.529	14694.56
584.889	14981.33
585.249	15090.48
585.609	15265.62
585.969	15470.13
586.329	15704.47
586.688	16015.2
587.048	16239.83
587.408	16432.82
587.768	16692.7
588.127	16862.41
588.487	17172.46
588.846	17538.78
589.206	17560.7
589.565	17874.36
589.925	18267.8
590.284	18520.22
590.643	18807.44
591.003	19036.59
591.362	19434.77
591.721	19818.26
592.08	19968.99
592.44	20245.82
592.799	20666.38
593.158	20917.67
593.517	21219.13
593.876	21664.32
594.235	21838.32
594.593	22112.67
594.952	22646.66
595.311	22847.56
595.67	23226.99
596.029	23695.9
596.387	24056.12
596.746	24416.56
597.104	24530.91
597.463	25013.61
597.822	25409.08
598.18	25641.39
598.538	25898.33
598.897	26437.3
599.255	26519.78
599.613	27156.15
599.972	27305.52
600.33	27689.02
600.688	28012.63
601.046	28397.02
601.404	28809.89
601.762	29114.74
602.12	29493.04
602.478	29867.27
602.836	30258.44
603.194	30355.39
603.552	30796.28
603.91	30873.11
604.268	31564.4
604.625	31591.06
604.983	32093.87
605.341	32150.37
605.698	32653.18
606.056	32997.13
606.413	33175.88
606.771	33634.85
607.128	33967.72
607.485	34132.01
607.843	34359.8
608.2	34842.95
608.557	35208.14
608.914	35262.38
609.272	35666.89
609.629	36006.54
609.986	36304.61
610.343	36379.41
610.7	36862.56
611.057	37074.76
611.414	37228.65
611.771	37525.82
612.127	37820.5
612.484	38091.46
612.841	38274.73
613.198	38330.55
613.554	38602.86
613.911	39014.82
614.267	39237.87
614.624	39281.26
614.98	39499.33
615.337	39956.72
615.693	40024.29
616.05	39999.2
616.406	40550.83
616.762	40547.66
617.118	40684.16
617.475	40913.98
617.831	41227.42
618.187	41283.24
618.543	41501.76
618.899	41834.86
619.255	41815.43
619.611	42022.65
619.967	42313.49
620.323	42442.75
620.678	42278.69
621.034	42370.21
621.39	42616.53
621.746	42634.16
622.101	43230.3
622.457	42946.24
622.812	43174.49
623.168	43411.54
623.523	43470.07
623.879	43633.68
624.234	43527.7
624.589	43768.82
624.945	43695.83
625.3	43966.56
625.655	43964.52
626.01	44124.74
626.365	44123.39
626.72	44226.66
627.075	44299.2
627.43	44407.22
627.785	44506.43
628.14	44534.45
628.495	44601.12
628.85	44605.64
629.205	44724.95
629.559	44929.69
629.914	44802.47
630.269	44918.4
630.623	44861
630.978	44739.64
631.332	45011.73
631.687	45102.12
632.041	45048.79
632.396	45187.54
632.75	44965.4
633.104	45079.07
633.459	44979.18
633.813	44961.56
634.167	45075.91
634.521	45150.48
634.875	45235.9
635.229	45146.41
635.583	45077.26
635.937	45083.36
636.291	45071.39
636.645	45091.95
636.999	45030.93
637.352	45266.63
637.706	44973.53
638.06	45171.72
638.413	45108.9
638.767	45065.96
639.121	45122.68
639.474	44882.69
639.828	45059.63
640.181	45103.48
640.534	45013.76
640.888	45023.03
641.241	44910.49
641.594	44985.74
641.947	45124.27
642.301	44954.33
642.654	45026.19
643.007	45023.48
643.36	45114.32
643.713	44972.18
644.066	45136.92
644.419	44743.94
644.771	44551.17
645.124	44146.66
645.477	44182.82
645.83	44030.28
646.182	43806.79
646.535	43693.12
646.888	43875.26
647.24	43677.3
647.593	43770.63
647.945	43810.18
648.298	43570.86
648.65	43527.02
649.002	43454.7
649.355	43696.96
649.707	43577.19
650.059	43743.96
650.411	44239.99
650.763	44298.98
651.115	44643.83
651.467	44586.65
651.819	44573.32
652.171	44387.79
652.523	44517.5
652.875	44472.53
653.227	44237.28
653.578	44620.1
653.93	44495.58
654.282	44341.69
654.633	44145.31
654.985	44315.02
655.337	44296.49
655.688	44318.86
656.039	44364.29
656.391	44073.45
656.742	43963.84
657.094	44171.52
657.445	44355.02
657.796	44176.49
658.147	43931.3
658.498	44070.28
658.849	44215.81
659.2	44237.06
659.551	44113.67
659.902	44196.15
660.253	44119.09
660.604	44283.16
660.955	43966.33
661.306	44039.55
661.656	43973.56
662.007	43932.43
662.358	43959.32
662.708	43896.95
663.059	43939.66
663.409	43700.12
663.76	44099.66
664.11	43897.86
664.461	44009.04
664.811	43990.51
665.161	43850.17
665.511	43957.97
665.862	43815.6
666.212	44168.36
666.562	44040.45
666.912	43868.93
667.262	43880.46
667.612	43929.04
667.962	44016.95
668.312	43997.97
668.662	44123.84
669.011	44019.66
669.361	43853.79
669.711	43770.63
670.06	43868.48
670.41	43700.35
670.76	43736.28
671.109	43874.35
671.459	43873.9
671.808	43816.5
672.157	43787.58
672.507	43467.13
672.856	43630.75
673.205	43625.55
673.554	43680.24
673.904	43526.12
674.253	43792.55
674.602	43589.84
674.951	43211.1
675.3	42790.99
675.649	43437.3
675.998	43514.36
676.346	43418.55
676.695	43621.48
677.044	43284.31
677.393	43368.15
677.741	43472.56
678.09	43331.54
678.438	43182.62
678.787	43426.23
679.135	43357.98
679.484	43026.47
679.832	43259.91
680.181	43152.79
680.529	43103.08
680.877	42979.46
681.225	42889.52
681.573	43245.22
681.922	42928.39
682.27	42872.12
682.618	42727.04
682.966	42732.92
683.314	42791.9
683.661	42743.31
684.009	42515.75
684.357	42329.54
684.705	42329.31
685.053	42373.38
685.4	42310.1
685.748	41999.15
686.095	42020.39
686.443	41966.16
686.79	42044.8
687.138	42053.39
687.485	41913.5
687.832	41892.71
688.18	41723.9
688.527	41731.59
688.874	41628.99
689.221	41517.35
689.568	41497.24
689.915	41337.92
690.262	41436
690.609	41264.25
690.956	40983.13
691.303	40990.59
691.65	40923.92
691.997	40933.19
692.344	40713.99
692.69	40619.07
693.037	40677.38
693.383	40480.55
693.73	40617.72
694.077	40252.53
694.423	40283.26
694.769	40060.44
695.116	40055.25
695.462	39941.8
695.808	39828.13
696.155	39990.16
696.501	39808.02
696.847	39512.21
697.193	39423.4
697.539	39538.42
697.885	39250.97
698.231	39183.4
698.577	39176.85
698.923	39012.56
699.269	39069.74
699.614	38786.13
699.96	38650.76
700.306	38747.71
700.651	38530.54
700.997	38359.92
701.342	38452.8
701.688	38285.12
702.033	38114.05
702.379	38236.31
702.724	37987.5
703.069	38145.69
703.415	37625.25
703.76	37881.52
704.105	37742.31
704.45	37609.89
704.795	37513.17
705.14	37319.5
705.485	37369.44
705.83	37266.84
706.175	37237.02
706.52	37096.68
706.865	36952.95
707.209	36937.59
707.554	36803.81
707.899	36926.29
708.243	36761.77
708.588	36632.96
708.932	36482.46
709.277	36354.33
709.621	36371.05
709.966	36063.71
710.31	36285.4
710.654	35944.39
710.998	36084.5
711.342	36064.39
711.687	35879.99
712.031	35757.28
712.375	35684.51
712.719	35691.97
713.063	35590.05
713.407	35713.44
713.75	35437.06
714.094	35485.42
714.438	35376.95
714.782	35369.72
715.125	35220.35
715.469	35271.42
715.812	34970.41
716.156	34894.03
716.499	34855.61
716.843	34996.4
717.186	34755.95
717.53	34910.97
717.873	34786.68
718.216	34670.3
718.559	34691.09
718.902	34421.27
719.246	34301.27
719.589	34329.07
719.932	34248.85
720.275	34289.75
720.617	34196.64
720.96	34152.8
721.303	34053.37
721.646	34125.91
721.989	33895.41
722.331	34124.33
722.674	33928.4
723.016	33824.45
723.359	33741.29
723.701	33762.76
724.044	33586.04
724.386	33392.82
724.729	33595.76
725.071	33358.93
725.413	33549.43
725.755	33461.52
726.097	33283.45
726.439	33116.22
726.782	33130.23
727.124	33407.06
727.465	33071.48
727.807	33142.89
728.149	32933.85
728.491	32929.56
728.833	33059.5
729.175	32960.74
729.516	32768.21
729.858	32641.88
730.199	32874.19
730.541	32652.28
730.882	32521.43
731.224	32593.3
731.565	32435.11
731.906	32444.82
732.248	32411.15
732.589	32251.61
732.93	32240.31
733.271	32247.77
733.612	32208.45
733.953	32369.12
734.294	31999.19
734.635	32133.65
734.976	32191.27
735.317	31914.22
735.658	31966.19
735.999	31878.06
736.339	31825.86
736.68	32013.88
737.021	31786.76
737.361	31717.16
737.702	31820.89
738.042	31799.64
738.383	31442.59
738.723	31740.44
739.063	31464.29
739.404	31605.3
739.744	31459.09
740.084	31361.01
740.424	31440.78
740.764	31396.94
741.104	31290.28
741.444	31101.58
741.784	31156.72
742.124	31208.47
742.464	31208.47
742.804	31041.02
743.143	30858.65
743.483	30965.09
743.823	30803.51
744.162	30906.11
744.502	30827.24
744.841	30711.76
745.181	30858.88
745.52	30645.32
745.86	30639.45
746.199	30722.38
746.538	30535.27
746.877	30609.39
747.216	30601.03
747.556	30594.7
747.895	30520.36
748.234	30436.06
748.573	30264.77
748.911	30323.52
749.25	30218.22
749.589	30178.22
749.928	30132.8
750.267	30151.55
750.605	30187.26
750.944	30022.52
751.283	30056.87
751.621	29968.51
751.96	29739.36
752.298	29828.85
752.636	29843.99
752.975	29601.74
753.313	29594.28
753.651	29675.63
753.989	29414.17
754.327	29508.18
754.666	29269.09
755.004	29359.03
755.342	29274.74
755.679	29214.18
756.017	29144.12
756.355	29321.97
756.693	29009.43
757.031	28987.51
757.368	28883.79
757.706	28799.95
758.044	28818.25
758.381	28842.21
758.719	28677.47
759.056	28705.71
759.394	28576.23
759.731	28354.31
760.068	28390.02
760.405	28256.23
760.743	28273.18
761.08	28335.33
761.417	28063.02
761.754	28125.62
762.091	27989.57
762.428	27905.74
762.765	27767.66
763.102	27747.32
763.438	27546.65
763.775	27481.57
764.112	27465.97
764.449	27647.44
764.785	27452.64
765.122	27159.77
765.458	27006.55
765.795	27049.26
766.131	26981.01
766.467	27051.97
766.804	26896.27
767.14	26663.28
767.476	26761.58
767.812	26583.28
768.148	26615.15
768.485	26460.35
768.821	26273.46
769.157	26343.06
769.492	26215.38
769.828	26085.67
770.164	25927.93
770.5	25911.21
770.836	25864.43
771.171	25770.2
771.507	25619.02
771.842	25585.34
772.178	25533.37
772.513	25495.18
772.849	25330.44
773.184	25312.13
773.519	25301.74
773.855	25120.5
774.19	24969.99
774.525	24886.15
774.86	24893.61
775.195	24875.98
775.53	24705.14
775.865	24559.61
776.2	24375.66
776.535	24136.79
776.87	24341.54
777.205	24192.16
777.539	24080.07
777.874	24129.56
778.209	23884.37
778.543	23821.32
778.878	23735.68
779.212	23807.09
779.547	23632.85
779.881	23632.85
780.215	23449.36
780.55	23461.33
780.884	23287.55
781.218	23245.29
781.552	23228.8
781.886	23112.87
782.22	23009.59
782.554	23000.1
782.888	22807.79
783.222	22640.34
783.556	22591.98
783.889	22555.59
784.223	22267.24
784.557	22354.69
784.89	22287.58
785.224	22130.52
785.557	22143.63
785.891	21960.81
786.224	21989.28
786.558	21860.7
786.891	21740.02
787.224	21731.21
787.557	21525.56
787.891	21552.68
788.224	21445.34
788.557	21528.73
788.89	21504.32
789.223	21448.28
789.556	21219.58
789.888	21114.05
790.221	21006.48
790.554	20962.19
790.887	20871.8
791.219	20848.29
791.552	20760.84
791.884	20643.55
792.217	20659.37
792.549	20602.65
792.882	20419.38
793.214	20348.87
793.546	20338.25
793.879	20212.83
794.211	20314.3
794.543	20212.83
794.875	20109.1
795.207	20118.6
795.539	20017.81
795.871	19976
796.203	19929
796.535	19709.11
796.867	19712.5
797.198	19632.28
797.53	19602
797.862	19433.87
798.193	19516.8
798.525	19358.16
798.856	19460.08
799.188	19203.59
799.519	19218.05
799.85	19018.29
800.182	19155.23
800.513	19044.5
800.844	18896.25
801.175	18977.16
801.506	18926.31
801.837	18799.31
802.168	18757.73
802.499	18668.46
802.83	18621.69
803.161	18531.29
803.491	18451.75
803.822	18562.7
804.153	18411.75
804.483	18298.08
804.814	18242.26
805.145	18115.03
805.475	18228.02
805.805	18088.37
806.136	18086.78
806.466	18127.46
806.796	17967.47
807.126	17900.35
807.457	17817.41
807.787	17890.18
808.117	17769.05
808.447	17700.81
808.777	17661.26
809.107	17635.5
809.436	17528.83
809.766	17650.86
810.096	17458.1
810.426	17340.14
810.755	17541.49
811.085	17384.66
811.414	17325
811.744	17188.73
812.073	17288.61
812.403	17211.55
812.732	17079.35
813.061	17136.98
813.39	17010.43
813.719	16936.31
814.049	16987.83
814.378	16930.88
814.707	16829.87
815.036	16838.46
815.365	16705.8
815.693	16580.38
816.022	16594.17
816.351	16576.54
816.68	16417
817.008	16518.01
817.337	16321.63
817.665	16270.11
817.994	16288.87
818.322	16341.97
818.651	16369.99
818.979	16147.63
819.307	16346.04
819.636	16167.74
819.964	16170.45
820.292	16207.74
820.62	16158.7
820.948	16120.51
821.276	16095.88
821.604	16106.27
821.932	16097.01
822.259	16089.32
822.587	16063.33
822.915	15983.79
823.243	16045.48
823.57	16051.58
823.898	16017.91
824.225	15925.71
824.553	15968.42
824.88	16054.75
825.207	16003.22
825.535	15885.26
825.862	16055.2
826.189	15829.44
826.516	16073.28
826.843	16103.79
827.17	16097.01
827.497	16071.92
827.824	15952.6
828.151	16050.91
828.478	15941.98
828.805	16014.97
829.131	15988.31
829.458	15936.56
829.785	15814.75
830.111	15853.85
830.438	15959.38
830.764	15988.76
831.09	16010.23
831.417	15847.3
831.743	15911.02
832.069	15902.21
832.395	15852.04
832.722	15924.13
833.048	15806.17
833.374	15860.18
833.7	15736.56
834.026	15729.56
834.351	15771.36
834.677	15822.89
835.003	15738.15
835.329	15735.66
835.654	15738.15
835.98	15642.55
836.306	15710.58
836.631	15657.02
836.956	15672.38
837.282	15646.85
837.607	15481.43
837.932	15626.74
838.258	15565.72
838.583	15566.62
838.908	15455.89
839.233	15524.14
839.558	15531.6
839.883	15401.21
840.208	15315.11
840.533	15280.53
840.858	15421.54
841.182	15269.01
841.507	15361.21
841.832	15117.37
842.156	15171.15
842.481	15178.84
842.805	15166.86
843.13	15080.54
843.454	15010.03
843.778	15042.57
844.103	15026.98
844.427	14942.46
844.751	14958.96
845.075	14927.09
845.399	14889.81
845.723	14765.52
846.047	14767.1
846.371	14717.38
846.695	14713.09
847.019	14533.43
847.343	14482.13
847.666	14347
847.99	14307.45
848.313	14382.02
848.637	14148.13
848.96	14153.78
849.284	14122.37
849.607	14076.27
849.931	14028.81
850.254	13913.11
850.577	13893.67
850.9	13801.25
851.223	13749.5
851.546	13670.86
851.869	13617.75
852.192	13658.88
852.515	13534.36
852.838	13542.27
853.161	13502.95
853.483	13481.48
853.806	13403.52
854.129	13354.71
854.451	13314.71
854.774	13201.94
855.096	13214.6
855.419	13186.8
855.741	13164.43
856.063	13080.36
856.385	13043.53
856.708	12964.66
857.03	12968.5
857.352	12932.12
857.674	12897.77
857.996	12784.1
858.318	12812.35
858.64	12792.91
858.961	12810.99
859.283	12761.05
859.605	12662.75
859.926	12561.51
860.248	12581.39
860.57	12494.61
860.891	12587.27
861.212	12449.42
861.534	12482.41
861.855	12507.72
862.176	12527.16
862.498	12443.99
862.819	12452.58
863.14	12313.83
863.461	12334.62
863.782	12262.3
864.103	12298.24
864.424	12193.83
864.745	12366.26
865.065	12200.84
865.386	12136.21
865.707	12173.72
866.027	12172.59
866.348	12063.67
866.668	12144.34
866.989	12146.15
867.309	11975.08
867.63	12050.33
867.95	12060.73
868.27	11883.56
868.59	11948.19
868.91	11962.2
869.23	11923.78
869.55	11883.11
869.87	11858.25
870.19	11853.73
870.51	11907.06
870.83	11938.7
871.15	11751.36
871.469	11820.51
871.789	11815.76
872.109	11679.95
872.428	11764.46
872.748	11747.97
873.067	11728.76
873.386	11719.27
873.706	11653.51
874.025	11688.99
874.344	11536.45
874.663	11704.58
874.982	11552.27
875.301	11575.54
875.62	11517.01
875.939	11503.91
876.258	11456.45
876.577	11423.46
876.896	11472.27
877.214	11434.76
877.533	11401.31
877.852	11425.72
878.17	11391.14
878.489	11344.14
878.807	11381.42
879.125	11315.89
879.444	11267.08
879.762	11319.5
880.08	11294.19
880.398	11246.74
880.716	11229.56
881.034	11178.49
881.352	11195.89
881.67	11174.88
881.988	11129
882.306	11198.6
882.624	11084.93
882.941	10996.35
883.259	11016.91
883.577	10985.5
883.894	10965.16
884.212	10941.66
884.529	10861.21
884.846	10869.8
885.164	10890.36
885.481	10796.81
885.798	10891.49
886.115	10686.53
886.432	10793.64
886.75	10713.42
887.067	10776.24
887.383	10703.48
887.7	10770.82
888.017	10570.15
888.334	10627.32
888.651	10533.08
888.967	10593.42
889.284	10477.04
889.6	10471.62
889.917	10404.05
890.233	10501.45
890.55	10382.13
890.866	10421.9
891.182	10360.66
891.498	10355.46
891.815	10296.71
892.131	10251.74
892.447	10178.97
892.763	10164.73
893.079	10166.54
893.395	10154.79
893.71	10103.72
894.026	10094.45
894.342	10028.01
894.657	9931.97
894.973	9985.75
895.289	9996.83
895.604	9904.4
895.92	9840.9
896.235	9851.75
896.55	9861.92
896.865	9818.98
897.181	9749.83
897.496	9724.52
897.811	9684.07
898.126	9609.95
898.441	9660.34
898.756	9582.6
899.071	9521.59
899.386	9521.81
899.7	9517.52
900.015	9455.82
900.33	9431.87
900.644	9339.44
900.959	9428.71
901.273	9291.31
901.588	9242.27
901.902	9219.9
902.216	9246.79
902.531	9164.08
902.845	9139.45
903.159	9131.54
903.473	9079.56
903.787	9060.35
904.101	8960.92
904.415	9030.75
904.729	8941.04
905.042	8901.72
905.356	8925.44
905.67	8883.64
905.984	8881.38
906.297	8837.54
906.611	8741.04
906.924	8742.62
907.237	8766.35
907.551	8659.24
907.864	8618.11
908.177	8586.47
908.491	8663.3
908.804	8567.94
909.117	8532.91
909.43	8453.14
909.743	8416.98
910.056	8433.7
910.368	8394.84
910.681	8287.72
910.994	8300.6
911.307	8231.22
911.619	8192.36
911.932	8179.25
912.244	8137.22
912.557	8126.82
912.869	8114.17
913.181	8077.33
913.494	8072.36
913.806	7990.33
914.118	7939.03
914.43	7908.52
914.742	7872.14
915.054	7849.31
915.366	7870.1
915.678	7764.34
915.99	7716.66
916.302	7700.62
916.613	7642.31
916.925	7660.62
917.236	7651.35
917.548	7607.51
917.859	7562.09
918.171	7469.21
918.482	7552.37
918.794	7434.18
919.105	7429.44
919.416	7455.65
919.727	7403.68
920.038	7390.79
920.349	7318.03
920.66	7295.2
920.971	7289.78
921.282	7203.68
921.593	7178.82
921.903	7134.98
922.214	7123.91
922.525	7134.98
922.835	7056.34
923.146	7012.73
923.456	7002.78
923.767	7042.1
924.077	6968.43
924.387	6931.82
924.697	6911.48
925.008	6866.29
925.318	6869.9
925.628	6892.95
925.938	6799.4
926.248	6737.93
926.558	6677.59
926.867	6692.51
927.177	6609.35
927.487	6592.85
927.796	6599.4
928.106	6550.36
928.416	6570.02
928.725	6545.62
929.034	6461.55
929.344	6449.58
929.653	6470.82
929.962	6396.24
930.271	6343.14
930.581	6374.78
930.89	6257.04
931.199	6296.36
931.508	6284.61
931.817	6227.66
932.125	6269.69
932.434	6197.83
932.743	6153.54
933.051	6146.76
933.36	6124.39
933.669	6044.39
933.977	6044.84
934.286	6066.08
934.594	5957.84
934.902	5968.46
935.21	5917.39
935.519	5917.16
935.827	5851.4
936.135	5872.64
936.443	5840.55
936.751	5831.51
937.059	5788.58
937.367	5738.41
937.674	5764.85
937.982	5733.44
938.29	5696.38
938.597	5740.89
938.905	5674.91
939.213	5602.59
939.52	5609.37
939.827	5584.51
940.135	5594.23
940.442	5524.63
940.749	5551.75
941.056	5542.03
941.363	5379.55
941.67	5497.28
941.977	5455.25
942.284	5399.66
942.591	5384.29
942.898	5310.17
943.205	5365.54
943.511	5266.33
943.818	5290.74
944.125	5247.35
944.431	5244.41
944.738	5227.46
945.044	5209.38
945.35	5189.95
945.657	5134.13
945.963	5098.43
946.269	5104.07
946.575	5086.45
946.881	5072.21
947.187	5037.41
947.493	5002.61
947.799	4964.64
948.105	4942.27
948.41	4921.71
948.716	4963.06
949.022	4897.75
949.327	4877.19
949.633	4905.66
949.938	4848.49
950.244	4827.02
950.549	4758.77
950.854	4764.42
951.16	4753.58
951.465	4757.42
951.77	4672.9
952.075	4672.67
952.38	4654.14
952.685	4644.2
952.99	4610.98
953.294	4635.16
953.599	4594.26
953.904	4610.3
954.209	4525.33
954.513	4542.73
954.818	4509.97
955.122	4524.66
955.426	4457.99
955.731	4450.76
956.035	4416.86
956.339	4437.88
956.643	4385.45
956.948	4380.48
957.252	4352.91
957.556	4340.25
957.86	4292.12
958.163	4338.9
958.467	4284.44
958.771	4295.96
959.075	4259.58
959.378	4220.71
959.682	4213.93
959.985	4179.81
960.289	4172.8
960.592	4138.45
960.896	4127.83
961.199	4155.4
961.502	4112.91
961.805	4085.12
962.108	4067.04
962.411	4025.23
962.714	3972.13
963.017	4029.07
963.32	3977.1
963.623	3949.98
963.926	3950.66
964.228	3918.12
964.531	3900.26
964.833	3911.34
965.136	3883.09
965.438	3861.85
965.741	3883.99
966.043	3864.79
966.345	3802.19
966.648	3794.05
966.95	3790.21
967.252	3770.78
967.554	3743.66
967.856	3736.2
968.158	3691.46
968.46	3661.17
968.761	3734.39
969.063	3699.82
969.365	3614.4
969.666	3631.12
969.968	3632.25
970.269	3641.06
970.571	3612.36
970.872	3611.91
971.174	3570.1
971.475	3563.78
971.776	3525.59
972.077	3547.05
972.378	3524.68
972.679	3534.62
972.98	3486.49
973.281	3454.4
973.582	3486.04
973.883	3428.41
974.183	3391.35
974.484	3355.65
974.785	3366.04
975.085	3354.74
975.386	3377.57
975.686	3323.1
975.986	3325.82
976.287	3327.62
976.587	3270.22
976.887	3274.52
977.187	3272.94
977.487	3260.06
977.787	3242.43
978.087	3201.53
978.387	3206.27
978.687	3207.63
978.987	3183.9
979.286	3174.63
979.586	3127.18
979.885	3112.94
980.185	3119.72
980.484	3083.56
980.784	3101.64
981.083	3042.43
981.382	3121.3
981.682	3039.95
981.981	3028.42
982.28	3038.59
982.579	3006.5
982.878	2967.41
983.177	3011.47
983.475	2961.53
983.774	2961.76
984.073	2938.93
984.372	2932.83
984.67	2917.01
984.969	2884.47
985.267	2882.21
985.566	2903.45
985.864	2861.42
986.162	2836.56
986.461	2818.49
986.759	2800.18
987.057	2832.27
987.355	2806.28
987.653	2787.75
987.951	2761.31
988.249	2753.63
988.547	2729.9
988.844	2713.18
989.142	2755.21
989.44	2733.97
989.737	2712.73
990.035	2668.66
990.332	2660.52
990.63	2663.69
990.927	2636.57
991.224	2633.63
991.521	2647.87
991.819	2593.41
992.116	2554.99
992.413	2556.35
992.71	2571.26
993.006	2539.17
993.303	2586.85
993.6	2560.64
993.897	2544.14
994.193	2525.84
994.49	2502.56
994.787	2444.94
995.083	2475.44
995.379	2479.74
995.676	2428.21
995.972	2396.35
996.268	2434.31
996.565	2403.35
996.861	2434.99
997.157	2411.94
997.453	2382.34
997.749	2352.28
998.044	2371.49
998.34	2356.35
998.636	2337.59
998.932	2340.98
999.227	2297.37
999.523	2266.18
999.818	2322.45
1000.114	2304.37
1000.409	2268.9
1000.704	2279.74
1001	2246.07
1001.295	2227.54
1001.59	2194.09
1001.885	2227.09
1002.18	2180.76
1002.475	2174.89
1002.77	2157.49
1003.065	2158.16
1003.359	2146.64
1003.654	2132.63
1003.949	2104.15
1004.243	2144.6
1004.538	2069.35
1004.832	2102.8
1005.127	2090.59
1005.421	2059.41
1005.715	2060.31
1006.009	2025.29
1006.304	2037.04
1006.598	2015.57
1006.892	2013.08
1007.186	1992.97
1007.48	1983.25
1007.773	1969.47
1008.067	1951.84
1008.361	1943.93
1008.655	1930.6
1008.948	1925.18
1009.242	1915.46
1009.535	1901.9
1009.829	1869.13
1010.122	1896.93
1010.415	1853.31
1010.708	1874.56
1011.001	1842.69
1011.295	1818.29
1011.588	1805.4
1011.881	1823.71
1012.173	1804.27
1012.466	1797.72
1012.759	1784.16
1013.052	1773.54
1013.344	1771.28
1013.637	1770.6
1013.93	1757.04
1014.222	1733.54
1014.514	1728.8
1014.807	1722.02
1015.099	1702.58
1015.391	1687.22
1015.683	1700.77
1015.976	1689.25
1016.268	1662.81
1016.56	1677.27
1016.851	1641.34
1017.143	1632.53
1017.435	1609.93
1017.727	1603.83
1018.018	1621.68
1018.31	1599.08
1018.602	1596.37
1018.893	1567.9
1019.185	1549.59
1019.476	1581.91
1019.767	1565.86
1020.058	1563.38
1020.35	1532.42
1020.641	1517.05
1020.932	1492.19
1021.223	1513.43
1021.514	1468.24
1021.804	1449.03
1022.095	1455.36
1022.386	1466.43
1022.677	1458.97
1022.967	1430.5
1023.258	1450.39
1023.548	1424.62
1023.839	1395.25
1024.129	1399.77
1024.419	1417.39
1024.709	1350.5
1025	1382.36
1025.29	1352.76
1025.58	1329.03
1025.87	1346.89
1026.16	1332.2
1026.449	1343.95
1026.739	1328.58
1027.029	1317.06
1027.319	1272.54
1027.608	1293.55
1027.898	1295.36
1028.187	1271.18
1028.477	1262.59
1028.766	1258.3
1029.055	1240.22
1029.344	1211.75
1029.634	1241.8
1029.923	1236.61
1030.212	1225.31
1030.501	1220.79
1030.79	1176.49
1031.078	1175.59
1031.367	1194.8
1031.656	1179.66
1031.945	1183.5
1032.233	1160.45
1032.522	1174.46
1032.81	1141.69
1033.099	1144.63
1033.387	1155.93
1033.675	1125.42
1033.963	1115.25
1034.251	1092.43
1034.54	1092.43
1034.828	1098.08
1035.116	1086.1
1035.403	1075.48
1035.691	1062.37
1035.979	1086.33
1036.267	1064.86
1036.554	1075.25
1036.842	1055.59
1037.129	1058.98
1037.417	1045.42
1037.704	1033
1037.992	1019.66
1038.279	1011.3
1038.566	1002.04
1038.853	1002.04
1039.14	1002.04
