Data from hue_340_FLMS001491_45.txt Node
Date: Mon Feb 06 15:43:10 GMT 2017
User: dcchb
Spectrometer: FLMS00149
Trigger mode: 0
Integration Time (sec): 2.000000E-2
Scans to average: 10
Electric dark correction enabled: true
Nonlinearity correction enabled: false
Boxcar width: 0
XAxis mode: Wavelengths
Number of Pixels in Spectrum: 2048
>>>>>Begin Spectral Data<<<<<
341.393	-17.74
341.776	-17.74
342.16	-17.74
342.543	-73.33
342.927	-57.51
343.31	-70.85
343.693	-47.34
344.077	-70.39
344.46	-63.16
344.843	-62.94
345.226	-50.51
345.61	-33.78
345.993	-18.87
346.376	4.86
346.759	0.56
347.142	11.64
347.525	42.82
347.908	54.57
348.291	77.4
348.674	108.36
349.057	117.62
349.44	116.72
349.823	149.94
350.206	170.96
350.588	190.62
350.971	190.62
351.354	205.31
351.737	221.58
352.119	260.45
352.502	267.68
352.884	251.63
353.267	262.25
353.65	299.99
354.032	295.47
354.414	284.4
354.797	326.88
355.179	327.11
355.562	309.71
355.944	314
356.326	319.65
356.709	325.53
357.091	327.11
357.473	343.61
357.855	335.25
358.238	349.71
358.62	339.77
359.002	353.1
359.384	335.25
359.766	336.6
360.148	331.4
360.53	332.76
360.912	313.1
361.294	344.96
361.676	338.86
362.057	328.24
362.439	344.28
362.821	314.91
363.203	327.34
363.584	314
363.966	328.92
364.348	313.33
364.729	315.13
365.111	297.28
365.493	316.26
365.874	310.84
366.256	330.5
366.637	312.2
367.019	306.09
367.4	325.08
367.781	319.43
368.163	301.35
368.544	306.77
368.925	323.27
369.306	311.29
369.688	318.52
370.069	304.74
370.45	319.65
370.831	309.71
371.212	310.39
371.593	284.63
371.974	319.43
372.355	309.94
372.736	310.84
373.117	306.09
373.498	307.22
373.879	318.75
374.26	306.09
374.641	316.94
375.021	311.29
375.402	321.01
375.783	316.26
376.163	308.58
376.544	308.35
376.925	318.75
377.305	300.67
377.686	312.2
378.066	317.62
378.447	311.29
378.827	314.23
379.208	326.88
379.588	334.57
379.968	313.33
380.349	322.36
380.729	333.44
381.109	330.27
381.489	335.02
381.87	321.23
382.25	325.98
382.63	312.2
383.01	339.99
383.39	335.47
383.77	336.15
384.15	314.68
384.53	337.96
384.91	328.47
385.29	331.86
385.67	319.2
386.049	340.44
386.429	327.34
386.809	346.32
387.189	327.34
387.568	347.22
387.948	349.48
388.328	359.2
388.707	348.35
389.087	349.48
389.466	340.44
389.846	353.32
390.225	359.65
390.605	357.17
390.984	348.58
391.363	351.29
391.743	367.79
392.122	340.22
392.501	332.08
392.881	345.41
393.26	364.17
393.639	345.19
394.018	358.52
394.397	383.83
394.776	370.05
395.155	365.08
395.534	383.61
395.913	360.1
396.292	378.63
396.671	378.86
397.05	385.19
397.429	389.48
397.808	383.83
398.186	377.28
398.565	368.92
398.944	379.99
399.323	373.89
399.701	360.33
400.08	391.52
400.458	388.8
400.837	372.98
401.215	386.09
401.594	389.03
401.972	379.09
402.351	388.58
402.729	382.02
403.107	384.96
403.486	385.64
403.864	361.23
404.242	388.13
404.62	395.81
404.999	393.32
405.377	415.92
405.755	394
406.133	400.78
406.511	408.24
406.889	419.99
407.267	420.44
407.645	423.6
408.023	426.54
408.401	428.58
408.779	439.65
409.156	437.84
409.534	429.71
409.912	431.29
410.29	422.25
410.667	436.26
411.045	437.62
411.422	435.13
411.8	460.21
412.178	470.84
412.555	450.95
412.933	483.72
413.31	464.96
413.687	475.58
414.065	464.06
414.442	497.28
414.819	473.55
415.197	490.5
415.574	481.91
415.951	482.59
416.328	493.66
416.705	506.09
417.082	498.63
417.46	505.18
417.837	506.77
418.214	519.42
418.591	523.04
418.967	532.53
419.344	534.11
419.721	549.7
420.098	523.26
420.475	537.95
420.852	530.95
421.228	554.9
421.605	537.73
421.982	546.09
422.358	584.05
422.735	570.95
423.111	565.97
423.488	567.78
423.864	573.43
424.241	575.69
424.617	595.58
424.994	596.71
425.37	584.5
425.746	587.22
426.123	593.54
426.499	612.75
426.875	612.07
427.251	600.1
427.627	618.85
428.003	666.99
428.379	629.7
428.756	635.58
429.132	626.54
429.507	641.23
429.883	650.04
430.259	646.88
430.635	650.49
431.011	685.29
431.387	677.84
431.763	674.22
432.138	672.19
432.514	683.03
432.89	688
433.265	695.24
433.641	708.34
434.016	719.64
434.392	731.62
434.767	730.94
435.143	740.21
435.518	755.8
435.894	756.7
436.269	757.16
436.644	750.38
437.02	787.21
437.395	764.84
437.77	804.61
438.145	804.84
438.52	787.21
438.895	808.23
439.271	775.46
439.646	817.72
440.021	788.34
440.395	795.8
440.77	809.58
441.145	822.69
441.52	845.97
441.895	853.2
442.27	858.17
442.645	844.38
443.019	865.4
443.394	866.08
443.769	848
444.143	856.81
444.518	859.75
444.892	885.29
445.267	852.97
445.641	861.79
446.016	863.59
446.39	868.56
446.764	897.72
447.139	889.81
447.513	905.17
447.887	905.85
448.262	920.09
448.636	908.79
449.01	915.12
449.384	914.21
449.758	916.93
450.132	914.44
450.506	939.3
450.88	944.27
451.254	943.59
451.628	927.09
452.002	930.48
452.376	944.04
452.75	967.55
453.123	953.31
453.497	981.78
453.871	990.82
454.244	977.04
454.618	983.14
454.992	1015.68
455.365	998.73
455.739	1013.19
456.112	1029.46
456.486	1037.15
456.859	1044.83
457.232	1031.05
457.606	1065.62
457.979	1068.33
458.352	1081.67
458.725	1082.12
459.099	1084.38
459.472	1092.51
459.845	1121.67
460.218	1104.72
460.591	1123.02
460.964	1132.74
461.337	1142.23
461.71	1156.24
462.083	1189.23
462.456	1161.66
462.829	1151.04
463.201	1183.58
463.574	1198.05
463.947	1161.21
464.32	1220.87
464.692	1205.73
465.065	1238.72
465.438	1256.58
465.81	1252.74
466.183	1274.88
466.555	1287.54
466.928	1292.28
467.3	1287.76
467.672	1298.38
468.045	1338.83
468.417	1343.13
468.789	1351.94
469.161	1364.6
469.534	1393.75
469.906	1389.45
470.278	1426.74
470.65	1441.66
471.022	1442.79
471.394	1481.66
471.766	1467.65
472.138	1467.19
472.51	1514.65
472.882	1531.6
473.253	1530.47
473.625	1542.45
473.997	1607.53
474.369	1585.38
474.74	1598.26
475.112	1639.39
475.484	1669.22
475.855	1720.52
476.227	1698.83
476.598	1769.56
476.97	1765.94
477.341	1786.05
477.713	1790.12
478.084	1794.64
478.455	1860.4
478.827	1880.06
479.198	1931.59
479.569	1904.24
479.94	1963
480.311	1983.11
480.682	2046.39
481.053	2059.27
481.424	2111.47
481.795	2090.45
482.166	2099.72
482.537	2171.36
482.908	2187.17
483.279	2224.24
483.65	2234.18
484.021	2286.61
484.391	2315.98
484.762	2302.65
485.133	2334.51
485.503	2383.55
485.874	2439.82
486.244	2417.22
486.615	2488.64
486.985	2518.69
487.356	2526.37
487.726	2550.78
488.097	2614.73
488.467	2619.93
488.837	2672.59
489.207	2685.47
489.578	2705.35
489.948	2751.68
490.318	2749.42
490.688	2778.35
491.058	2851.79
491.428	2860.6
491.798	2915.52
492.168	2930.88
492.538	2971.56
492.908	2979.47
493.278	3053.82
493.648	3015.17
494.017	3062.18
494.387	3080.03
494.757	3116.87
495.126	3121.84
495.496	3167.94
495.866	3166.58
496.235	3177.43
496.605	3231.89
496.974	3261.04
497.344	3245.23
497.713	3260.37
498.082	3306.92
498.452	3349.63
498.821	3342.4
499.19	3367.26
499.559	3408.16
499.928	3383.07
500.298	3423.53
500.667	3472.11
501.036	3481.6
501.405	3441.6
501.774	3468.5
502.143	3510.3
502.512	3544.2
502.88	3521.6
503.249	3577.65
503.618	3596.4
503.987	3585.33
504.356	3598.89
504.724	3561.6
505.093	3607.48
505.462	3668.04
505.83	3666.23
506.199	3691.77
506.567	3720.92
506.936	3697.64
507.304	3723.86
507.672	3734.7
508.041	3762.5
508.409	3785.78
508.777	3805.21
509.145	3801.82
509.514	3824.87
509.882	3848.83
510.25	3869.39
510.618	3864.64
510.986	3856.73
511.354	3865.55
511.722	3948.03
512.09	3928.82
512.458	3927.02
512.826	3945.55
513.193	3963.17
513.561	4002.04
513.929	3962.04
514.297	4014.02
514.664	4015.6
515.032	4041.59
515.4	4013.34
515.767	4032.1
516.135	4116.16
516.502	4030.52
516.869	4078.88
517.237	4145.77
517.604	4111.19
517.972	4117.52
518.339	4126.56
518.706	4141.25
519.073	4157.74
519.44	4171.3
519.808	4170.4
520.175	4185.77
520.542	4232.54
520.909	4178.08
521.276	4254.69
521.643	4220.34
522.009	4279.77
522.376	4317.29
522.743	4320.68
523.11	4338.76
523.477	4395.93
523.843	4404.06
524.21	4383.95
524.577	4417.85
524.943	4430.28
525.31	4469.6
525.676	4497.62
526.043	4468.7
526.409	4525.64
526.776	4579.88
527.142	4555.25
527.508	4591.86
527.874	4623.27
528.241	4618.97
528.607	4611.97
528.973	4687.22
529.339	4635.02
529.705	4735.13
530.071	4738.29
530.437	4760.67
530.803	4750.04
531.169	4809.93
531.535	4816.48
531.901	4821.23
532.267	4836.82
532.632	4845.18
532.998	4850.83
533.364	4948.68
533.73	4887.67
534.095	4997.27
534.461	4961.56
534.826	4976.48
535.192	5031.39
535.557	5043.6
535.923	5018.06
536.288	5038.85
536.653	5130.37
537.019	5103.26
537.384	5099.19
537.749	5157.04
538.114	5202.01
538.479	5160.43
538.845	5169.02
539.21	5205.4
539.575	5198.62
539.94	5260.09
540.305	5265.51
540.67	5289.01
541.034	5299.86
541.399	5334.66
541.764	5315.45
542.129	5360.65
542.494	5414.21
542.858	5384.38
543.223	5384.83
543.587	5437.71
543.952	5450.14
544.316	5469.35
544.681	5484.94
545.045	5566.07
545.41	5527.65
545.774	5544.15
546.138	5656.91
546.503	5621.21
546.867	5649.23
547.231	5632.06
547.595	5709.79
547.959	5737.82
548.324	5719.96
548.688	5703.69
549.052	5720.87
549.416	5742.11
549.779	5779.4
550.143	5784.37
550.507	5830.24
550.871	5847.19
551.235	5813.75
551.599	5837.02
551.962	5863.91
552.326	5913.86
552.689	5944.82
553.053	5886.96
553.417	5977.13
553.78	5985.72
554.143	5985.72
554.507	6028.2
554.87	6037.92
555.234	6086.05
555.597	6095.55
555.96	6090.12
556.323	6134.64
556.686	6141.42
557.05	6182.55
557.413	6212.15
557.776	6152.72
558.139	6233.62
558.502	6193.17
558.865	6257.8
559.228	6373.5
559.59	6261.42
559.953	6314.75
560.316	6423.45
560.679	6372.37
561.041	6321.53
561.404	6417.8
561.767	6402.2
562.129	6343
562.492	6465.71
562.854	6488.98
563.217	6480.17
563.579	6466.16
563.941	6498.02
564.304	6532.82
564.666	6554.06
565.028	6573.05
565.39	6609.2
565.753	6608.98
566.115	6695.76
566.477	6660.95
566.839	6720.84
567.201	6688.75
567.563	6734.63
567.925	6806.94
568.287	6724.46
568.648	6757
569.01	6820.95
569.372	6893.04
569.734	6867.96
570.095	6962.64
570.457	6984.11
570.819	6962.42
571.18	6982.08
571.542	7004.9
571.903	7067.27
572.265	7080.6
572.626	7129.87
572.987	7187.49
573.349	7182.52
573.71	7240.6
574.071	7274.5
574.432	7345.91
574.794	7446.7
575.155	7419.58
575.516	7444.21
575.877	7574.15
576.238	7606.01
576.599	7688.95
576.96	7772.34
577.32	7793.58
577.681	7924.88
578.042	7961.03
578.403	8023.4
578.763	8085.55
579.124	8237.41
579.485	8224.3
579.845	8442.15
580.206	8466.56
580.566	8606.89
580.927	8684.86
581.287	8808.47
581.648	8869.26
582.008	9061.12
582.368	9123.49
582.728	9300.43
583.089	9453.65
583.449	9496.81
583.809	9689.12
584.169	9910.36
584.529	9999.4
584.889	10217.7
585.249	10384.25
585.609	10470.57
585.969	10786.27
586.329	10893.39
586.688	11208.86
587.048	11306.03
587.408	11536.08
587.768	11803.87
588.127	11913.7
588.487	12141.26
588.846	12469.62
589.206	12572.89
589.565	12759.55
589.925	13087.23
590.284	13300.33
590.643	13538.97
591.003	13809.47
591.362	14055.56
591.721	14310.92
592.08	14625.72
592.44	14895.31
592.799	15142.31
593.158	15378.69
593.517	15660.72
593.876	15978.68
594.235	16210.76
594.593	16473.8
594.952	16751.99
595.311	17016.84
595.67	17323.95
596.029	17732.98
596.387	17923.94
596.746	18237.6
597.104	18466.52
597.463	18758.26
597.822	19087.52
598.18	19280.06
598.538	19438.25
598.897	20020.6
599.255	20035.52
599.613	20618.55
599.972	20730.19
600.33	21021.26
600.688	21127.24
601.046	21451.98
601.404	21909.59
601.762	22039.31
602.12	22399.75
602.478	22701.66
602.836	22992.73
603.194	23014.65
603.552	23373.28
603.91	23559.27
604.268	23871.35
604.625	24067.28
604.983	24443.09
605.341	24688.96
605.698	24896.18
606.056	25091.2
606.413	25264.99
606.771	25654.58
607.128	25902.71
607.485	25966.89
607.843	26200.78
608.2	26640.09
608.557	26770.93
608.914	26920.31
609.272	27330.02
609.629	27497.92
609.986	27746.95
610.343	27743.11
610.7	28178.36
611.057	28302.65
611.414	28434.39
611.771	28676.42
612.127	28807.94
612.484	28939.92
612.841	29236.41
613.198	29315.27
613.554	29491.09
613.911	29705.77
614.267	29868.71
614.624	30008.59
614.98	30313.89
615.337	30367
615.693	30613.09
616.05	30728.34
616.406	31018.73
616.762	31053.08
617.118	31188.9
617.475	31283.81
617.831	31566.06
618.187	31551.6
618.543	31705.95
618.899	32020.06
619.255	32038.59
619.611	32075.43
619.967	32359.26
620.323	32562.42
620.678	32457.34
621.034	32533.95
621.39	32623.89
621.746	32820.04
622.101	33161.27
622.457	33087.38
622.812	33197.88
623.168	33316.3
623.523	33292.8
623.879	33569.63
624.234	33391.1
624.589	33647.59
624.945	33694.82
625.3	33988.37
625.655	33922.61
626.01	34010.52
626.365	34088.03
626.72	34144.3
627.075	34125.32
627.43	34236.05
627.785	34226.11
628.14	34439.21
628.495	34377.29
628.85	34444.41
629.205	34414.8
629.559	34558.75
629.914	34458.19
630.269	34518.53
630.623	34479.88
630.978	34613.67
631.332	34667.22
631.687	34707.45
632.041	34674.46
632.396	34820.21
632.75	34679.65
633.104	34729.6
633.459	34573.67
633.813	34777.5
634.167	34627.9
634.521	34676.26
634.875	34784.06
635.229	34822.7
635.583	34671.97
635.937	34815.47
636.291	34661.35
636.645	34699.09
636.999	34751.52
637.352	34832.19
637.706	34683.04
638.06	34833.1
638.413	34893.21
638.767	34732.08
639.121	34772.76
639.474	34654.57
639.828	34686.66
640.181	34736.37
640.534	34739.09
640.888	34708.13
641.241	34667.22
641.594	34812.3
641.947	34875.81
642.301	34631.74
642.654	34725.08
643.007	34669.26
643.36	34769.37
643.713	34722.36
644.066	34817.05
644.419	34549.04
644.771	34374.35
645.124	34210.06
645.477	33940.92
645.83	33940.46
646.182	33767.59
646.535	33695.5
646.888	33719.45
647.24	33655.95
647.593	33762.39
647.945	33580.25
648.298	33588.61
648.65	33582.05
649.002	33547.48
649.355	33619.34
649.707	33583.64
650.059	33754.25
650.411	34116.5
650.763	34121.02
651.115	34400.11
651.467	34367.34
651.819	34344.29
652.171	34363.05
652.523	34313.56
652.875	34244.86
653.227	34257.29
653.578	34387.68
653.93	34344.29
654.282	34189.27
654.633	34124.19
654.985	34142.72
655.337	34275.6
655.688	34214.58
656.039	34339.78
656.391	34044.19
656.742	34049.84
657.094	34041.03
657.445	34212.09
657.796	34191.76
658.147	33964.64
658.498	34140.91
658.849	34008.48
659.2	33991.31
659.551	33928.03
659.902	34104.75
660.253	34000.8
660.604	34107.92
660.955	34044.64
661.306	33896.85
661.656	33933.01
662.007	33982.04
662.358	33895.49
662.708	33921.71
663.059	33964.64
663.409	33796.06
663.76	34023.4
664.11	33980.01
664.461	34098.65
664.811	34019.78
665.161	33928.26
665.511	33916.28
665.862	33940.69
666.212	34104.53
666.562	34066.56
666.912	34002.16
667.262	33888.71
667.612	33842.61
667.962	33976.85
668.312	33809.17
668.662	33980.91
669.011	34036.51
669.361	33853.01
669.711	33823.86
670.06	33718.77
670.41	33730.98
670.76	33747.02
671.109	33844.87
671.459	33825.44
671.808	33717.42
672.157	33858.66
672.507	33550.19
672.856	33716.29
673.205	33817.08
673.554	33759
673.904	33602.17
674.253	33780.02
674.602	33751.77
674.951	33274.72
675.3	33178.45
675.649	33704.76
675.998	33511.32
676.346	33564.2
676.695	33678.1
677.044	33437.2
677.393	33491.21
677.741	33619.34
678.09	33538.89
678.438	33423.64
678.787	33513.58
679.135	33482.85
679.484	33205.12
679.832	33395.85
680.181	33199.47
680.529	33325.79
680.877	33194.49
681.225	33170.54
681.573	33342.06
681.922	33000.15
682.27	32982.52
682.618	32975.07
682.966	32968.51
683.314	32945.91
683.661	32993.14
684.009	32693.94
684.357	32663.43
684.705	32737.56
685.053	32658.69
685.4	32681.06
685.748	32465.02
686.095	32483.33
686.443	32464.12
686.79	32376.89
687.138	32470.22
687.485	32419.6
687.832	32293.73
688.18	32258.47
688.527	32126.27
688.874	32235.42
689.221	32066.39
689.568	32033.4
689.915	31928.99
690.262	31973.74
690.609	31772.16
690.956	31682.67
691.303	31689.9
691.65	31550.02
691.997	31580.07
692.344	31343.02
692.69	31399.74
693.037	31417.82
693.383	31082.46
693.73	31278.16
694.077	31184.6
694.423	30969.47
694.769	30870.49
695.116	30945.74
695.462	30873.65
695.808	30636.14
696.155	30848.79
696.501	30598.4
696.847	30611.51
697.193	30473.44
697.539	30423.95
697.885	30341.69
698.231	30268.02
698.577	30189.83
698.923	30115.25
699.269	30002.04
699.614	29857.18
699.96	29717.75
700.306	29796.84
700.651	29684.08
700.997	29621.48
701.342	29447.7
701.688	29508.26
702.033	29467.59
702.379	29349.62
702.724	29389.17
703.069	29343.75
703.415	29084.55
703.76	29103.08
704.105	29126.8
704.45	29000.48
704.795	28713.93
705.14	28769.3
705.485	28655.86
705.83	28666.93
706.175	28577.21
706.52	28639.59
706.865	28597.33
707.209	28382.87
707.554	28321.18
707.899	28349.88
708.243	28220.16
708.588	28212.93
708.932	28008.42
709.277	27990.56
709.621	27894.97
709.966	27873.5
710.31	27853.39
710.654	27609.1
710.998	27677.13
711.342	27693.62
711.687	27642.55
712.031	27456.79
712.375	27382.67
712.719	27394.87
713.063	27450.24
713.407	27469.45
713.75	27275.55
714.094	27172.05
714.438	27176.57
714.782	27285.05
715.125	27090.93
715.469	27149.68
715.812	26937.48
716.156	26871.72
716.499	26817.94
716.843	26847.99
717.186	26714.89
717.53	26895.68
717.873	26798.5
718.216	26781.78
718.559	26576.59
718.902	26449.59
719.246	26499.98
719.589	26410.27
719.932	26310.61
720.275	26404.62
720.617	26287.78
720.96	26138.41
721.303	26303.38
721.646	26207.33
721.989	25918.3
722.331	26100.9
722.674	25981.35
723.016	26025.19
723.359	26036.26
723.701	26020.9
724.044	25890.73
724.386	25637.18
724.729	25804.86
725.071	25761.47
725.413	25654.58
725.755	25768.7
726.097	25579.33
726.439	25455.94
726.782	25518.54
727.124	25499.33
727.465	25391.99
727.807	25432.44
728.149	25346.57
728.491	25335.72
728.833	25248.49
729.175	25156.29
729.516	25192.44
729.858	25172.11
730.199	25065.89
730.541	25035.84
730.882	25032
731.224	25013.69
731.565	24925.56
731.906	24909.97
732.248	24887.37
732.589	24810.53
732.93	24801.27
733.271	24749.52
733.612	24784.32
733.953	24862.74
734.294	24758.33
734.635	24609.41
734.976	24616.41
735.317	24425.23
735.658	24534.84
735.999	24465.91
736.339	24493.25
736.68	24653.7
737.021	24500.03
737.361	24309.3
737.702	24440.83
738.042	24374.61
738.383	24242.41
738.723	24268.85
739.063	24163.32
739.404	24317.44
739.744	24202.87
740.084	24084.45
740.424	24080.38
740.764	24111.34
741.104	24070.67
741.444	23971.23
741.784	23886.49
742.124	23954.06
742.464	23870.45
742.804	23869.09
743.143	23855.53
743.483	23842.42
743.823	23734.63
744.162	23757.91
744.502	23705.7
744.841	23643.56
745.181	23694.63
745.52	23521.75
745.86	23591.13
746.199	23624.35
746.538	23478.37
746.877	23519.72
747.216	23538.25
747.556	23372.61
747.895	23385.71
748.234	23320.63
748.573	23284.92
748.911	23287.64
749.25	23183.23
749.589	23035.21
749.928	23180.29
750.267	23150.69
750.605	23073.63
750.944	22999.96
751.283	22965.38
751.621	23082.67
751.96	22852.85
752.298	22890.81
752.636	22967.42
752.975	22698.05
753.313	22664.15
753.651	22875.9
753.989	22585.51
754.327	22562.46
754.666	22508.45
755.004	22506.41
755.342	22488.56
755.679	22442.01
756.017	22345.51
756.355	22405.63
756.693	22404.27
757.031	22390.03
757.368	22178.51
757.706	22159.3
758.044	22141.23
758.381	22062.13
758.719	21923.83
759.056	21984.39
759.394	21921.8
759.731	21782.82
760.068	21758.41
760.405	21691.29
760.743	21625.31
761.08	21639.32
761.417	21546.89
761.754	21504.86
762.091	21358.87
762.428	21276.62
762.765	21227.58
763.102	21328.14
763.438	21164.08
763.775	20981.26
764.112	21073.46
764.449	21067.58
764.785	21009.73
765.122	20753.24
765.458	20687.48
765.795	20713.69
766.131	20699
766.467	20517.77
766.804	20501.72
767.14	20538.56
767.476	20415.17
767.812	20403.87
768.148	20444.77
768.485	20255.85
768.821	20110.32
769.157	20133.37
769.492	20090.88
769.828	20005.24
770.164	19751.46
770.5	19779.25
770.836	19791.01
771.171	19644.12
771.507	19586.04
771.842	19559.82
772.178	19524.35
772.513	19426.95
772.849	19307.4
773.184	19371.13
773.519	19315.99
773.855	19179.27
774.19	19153.28
774.525	19064.24
774.86	19086.39
775.195	19000.29
775.53	18926.17
775.865	18746.29
776.2	18623.8
776.535	18590.58
776.87	18622.67
777.205	18430.81
777.539	18461.77
777.874	18413.19
778.209	18291.38
778.543	18162.8
778.878	18100.43
779.212	18063.37
779.547	18023.82
779.881	17985.4
780.215	17859.53
780.55	17862.02
780.884	17796.26
781.218	17776.82
781.552	17731.4
781.886	17568.69
782.22	17486.66
782.554	17455.93
782.888	17384.97
783.222	17263.39
783.556	17163.73
783.889	17113.34
784.223	17030.63
784.557	17034.92
784.89	16974.36
785.224	16886.45
785.557	16887.35
785.891	16840.35
786.224	16840.57
786.558	16790.63
786.891	16600.35
787.224	16492.33
787.557	16441.04
787.891	16477.65
788.224	16502.73
788.557	16386.8
788.89	16362.39
789.223	16326.92
789.556	16192
789.888	16100.93
790.221	16055.28
790.554	15995.4
790.887	15991.1
791.219	15884.22
791.552	15921.28
791.884	15735.52
792.217	15752.02
792.549	15670.89
792.882	15646.71
793.214	15532.36
793.546	15574.39
793.879	15442.64
794.211	15389.31
794.543	15387.28
794.875	15398.58
795.207	15342.08
795.539	15344.57
795.871	15255.98
796.203	15086.95
796.535	14991.13
796.867	14981.19
797.198	15008.98
797.53	14975.76
797.862	14901.19
798.193	14930.12
798.525	14838.59
798.856	14786.39
799.188	14633.85
799.519	14703
799.85	14621.88
800.182	14468.89
800.513	14468.66
800.844	14428.21
801.175	14483.35
801.506	14427.3
801.837	14292.39
802.168	14345.5
802.499	14200.42
802.83	14190.93
803.161	14083.36
803.491	14150.7
803.822	14040.65
804.153	14046.98
804.483	13905.28
804.814	13927.66
805.145	13981.89
805.475	13857.83
805.805	13824.38
806.136	13733.76
806.466	13791.39
806.796	13776.25
807.126	13635.69
807.457	13572.41
807.787	13595.69
808.117	13534.22
808.447	13511.4
808.777	13545.97
809.107	13429.36
809.436	13433.21
809.766	13332.87
810.096	13352.98
810.426	13250.61
810.755	13263.72
811.085	13178.52
811.414	13243.61
811.744	13158.41
812.073	13077.51
812.403	13082.48
812.732	13068.47
813.061	13023.05
813.39	12942.82
813.719	12891.3
814.049	13004.06
814.378	12962.26
814.707	12811.08
815.036	12868.48
815.365	12749.16
815.693	12688.37
816.022	12673
816.351	12708.25
816.68	12587.58
817.008	12652.89
817.337	12543.74
817.665	12519.78
817.994	12540.12
818.322	12461.93
818.651	12415.61
818.979	12470.52
819.307	12413.8
819.636	12405.66
819.964	12273.46
820.292	12369.96
820.62	12369.73
820.948	12299.68
821.276	12343.07
821.604	12227.81
821.932	12336.96
822.259	12329.05
822.587	12220.81
822.915	12290.41
823.243	12291.77
823.57	12260.58
823.898	12130.64
824.225	12194.14
824.553	12178.55
824.88	12202.05
825.207	12215.39
825.535	12257.64
825.862	12184.65
826.189	12177.65
826.516	12247.93
826.843	12173.13
827.17	12281.15
827.497	12226.01
827.824	12240.24
828.151	12255.38
828.478	12222.16
828.805	12296.51
829.131	12124.09
829.458	12110.3
829.785	12086.12
830.111	12104.88
830.438	12141.26
830.764	12139.23
831.09	12145.78
831.417	12041.6
831.743	12120.02
832.069	12125.67
832.395	12065.56
832.722	12107.14
833.048	12046.35
833.374	12054.03
833.7	12040.47
834.026	12068.5
834.351	12033.02
834.677	12049.97
835.003	12042.28
835.329	12019.01
835.654	11903.08
835.98	11964.54
836.306	11985.79
836.631	11865.56
836.956	11867.82
837.282	11848.39
837.607	11871.44
837.932	11827.6
838.258	11880.93
838.583	11772.46
838.908	11809.52
839.233	11775.62
839.558	11700.82
839.883	11665.79
840.208	11669.86
840.533	11748.05
840.858	11668.05
841.182	11678.68
841.507	11649.98
841.832	11614.04
842.156	11564.78
842.481	11631.67
842.805	11586.93
843.13	11501.05
843.454	11473.71
843.778	11483.43
844.103	11393.94
844.427	11377.67
844.751	11471.68
845.075	11475.29
845.399	11352.36
845.723	11287.73
846.047	11295.41
846.371	11172.47
846.695	11217.9
847.019	11031.46
847.343	11034.17
847.666	11061.52
847.99	10941.52
848.313	10962.08
848.637	10918.92
848.96	10961.18
849.284	10881.41
849.607	10719.83
849.931	10706.5
850.254	10664.01
850.577	10577.91
850.9	10585.82
851.223	10522.1
851.546	10476.67
851.869	10470.57
852.192	10441.65
852.515	10327.75
852.838	10276.68
853.161	10274.87
853.483	10282.55
853.806	10199.17
854.129	10186.74
854.451	10233.74
854.774	10100.41
855.096	10101.77
855.419	10047.76
855.741	9993.07
856.063	10002.11
856.385	9993.97
856.708	9909
857.03	9892.73
857.352	9858.61
857.674	9790.36
857.996	9869.01
858.318	9771.38
858.64	9791.27
858.961	9678.28
859.283	9715.34
859.605	9668.56
859.926	9683.25
860.248	9672.4
860.57	9575.68
860.891	9623.36
861.212	9568
861.534	9529.13
861.855	9484.16
862.176	9519.64
862.498	9523.93
862.819	9492.29
863.14	9479.64
863.461	9395.35
863.782	9339.75
864.103	9412.52
864.424	9326.87
864.745	9386.08
865.065	9330.04
865.386	9264.28
865.707	9222.7
866.027	9264.73
866.348	9235.8
866.668	9304.73
866.989	9212.75
867.309	9143.15
867.63	9187.22
867.95	9131.62
868.27	9091.17
868.59	9181.57
868.91	9176.59
869.23	9148.12
869.55	9016.83
869.87	9111.96
870.19	9143.38
870.51	9092.76
870.83	8996.49
871.15	9008.24
871.469	9012.76
871.789	9077.39
872.109	9016.37
872.428	8970.27
872.748	9019.08
873.067	8932.76
873.386	8875.13
873.706	8933.66
874.025	8863.83
874.344	8851.63
874.663	8898.18
874.982	8870.84
875.301	8869.71
875.62	8778.19
875.939	8822.48
876.258	8771.63
876.577	8739.32
876.896	8788.81
877.214	8732.09
877.533	8758.98
877.852	8685.08
878.17	8707
878.489	8732.76
878.807	8758.53
879.125	8641.02
879.444	8598.53
879.762	8637.85
880.08	8665.42
880.398	8616.84
880.716	8582.26
881.034	8613.22
881.352	8583.62
881.67	8501.58
881.988	8541.36
882.306	8542.49
882.624	8470.4
882.941	8455.71
883.259	8454.81
883.577	8385.66
883.894	8345.66
884.212	8366.45
884.529	8380.01
884.846	8335.71
885.164	8406.67
885.481	8313.34
885.798	8328.03
886.115	8265.88
886.432	8329.16
886.75	8165.1
887.067	8255.49
887.383	8190.18
887.7	8198.54
888.017	8138.2
888.334	8133.23
888.651	8102.95
888.967	8157.86
889.284	8090.07
889.6	8041.26
889.917	7982.28
890.233	8000.58
890.55	7954.25
890.866	8040.58
891.182	7980.92
891.498	7963.75
891.815	7896.63
892.131	7899.34
892.447	7772.11
892.763	7784.99
893.079	7801.49
893.395	7791.32
893.71	7800.59
894.026	7756.97
894.342	7713.81
894.657	7643.98
894.973	7608.95
895.289	7634.49
895.604	7547.03
895.92	7559.69
896.235	7581.38
896.55	7543.42
896.865	7498.22
897.181	7454.61
897.496	7462.06
897.811	7447.37
898.126	7456.19
898.441	7429.75
898.756	7368.96
899.071	7293.03
899.386	7346.59
899.7	7226.36
900.015	7256.42
900.33	7184.56
900.644	7189.98
900.959	7146.14
901.273	7203.09
901.588	7142.52
901.902	7072.02
902.216	7062.07
902.531	7029.08
902.845	6985.92
903.159	6988.86
903.473	6954.73
903.787	6926.71
904.101	6856.43
904.415	6872.93
904.729	6856.88
905.042	6767.84
905.356	6802.65
905.67	6768.75
905.984	6819.14
906.297	6737.34
906.611	6730.78
906.924	6676.32
907.237	6669.32
907.551	6658.92
907.864	6632.48
908.177	6594.06
908.491	6622.99
908.804	6578.25
909.117	6503.22
909.43	6475.2
909.743	6432.03
910.056	6442.2
910.368	6424.35
910.681	6374.86
910.994	6334.64
911.307	6326.5
911.619	6285.6
911.932	6259.61
912.244	6258.93
912.557	6212.61
912.869	6185.26
913.181	6200.18
913.494	6177.8
913.806	6132.16
914.118	6124.7
914.43	6106.39
914.742	6049.45
915.054	6052.38
915.366	6081.76
915.678	5967.64
915.99	5992.5
916.302	5959.96
916.613	5893.74
916.925	5880.86
917.236	5884.25
917.548	5844.93
917.859	5870.92
918.171	5788.89
918.482	5794.76
918.794	5799.06
919.105	5718.38
919.416	5688.1
919.727	5639.74
920.038	5682
920.349	5613.3
920.66	5603.58
920.971	5585.73
921.282	5611.04
921.593	5564.49
921.903	5513.87
922.214	5497.82
922.525	5461.89
922.835	5492.4
923.146	5453.08
923.456	5427.77
923.767	5415.79
924.077	5352.74
924.387	5370.14
924.697	5334.44
925.008	5278.84
925.318	5263.03
925.628	5291.95
925.938	5241.33
926.248	5196.13
926.558	5184.16
926.867	5186.42
927.177	5163.82
927.487	5128.34
927.796	5042.01
928.106	5032.98
928.416	5049.02
928.725	5026.2
929.034	5021.45
929.344	5009.47
929.653	5025.52
929.962	4952.07
930.271	4950.04
930.581	4910.27
930.89	4901
931.199	4857.84
931.508	4811.96
931.817	4875.47
932.125	4883.37
932.434	4816.48
932.743	4779.42
933.051	4786.65
933.36	4700.1
933.669	4734
933.977	4673.44
934.286	4658.07
934.594	4626.43
934.902	4605.64
935.21	4608.81
935.519	4562.93
935.827	4564.96
936.135	4542.37
936.443	4537.39
936.751	4552.76
937.059	4516.6
937.367	4454.46
937.674	4453.56
937.982	4484.29
938.29	4399.09
938.597	4405.42
938.905	4381.01
939.213	4341.02
939.52	4324.52
939.827	4352.77
940.135	4309.15
940.442	4332.65
940.749	4268.48
941.056	4298.53
941.363	4215.82
941.67	4256.95
941.977	4186.9
942.284	4171.75
942.591	4155.26
942.898	4199.55
943.205	4118.87
943.511	4133.56
943.818	4073.45
944.125	4053.34
944.431	4075.94
944.738	4066.9
945.044	4040.68
945.35	4029.39
945.657	3993.68
945.963	3990.52
946.269	3974.47
946.575	3958.88
946.881	3872.55
947.187	3913
947.493	3877.53
947.799	3894.7
948.105	3816.96
948.41	3840.01
948.716	3840.24
949.022	3856.73
949.327	3825.32
949.633	3750.3
949.938	3762.5
950.244	3753.46
950.549	3715.5
950.854	3745.33
951.16	3699.45
951.465	3708.49
951.77	3648.15
952.075	3645.44
952.38	3619.68
952.685	3602.5
952.99	3564.77
953.294	3594.37
953.599	3521.15
953.904	3519.79
954.209	3519.34
954.513	3532.9
954.818	3510.53
955.122	3529.74
955.426	3497.87
955.731	3498.55
956.035	3410.19
956.339	3401.38
956.643	3430.08
956.948	3397.31
957.252	3409.97
957.556	3412.68
957.86	3386.24
958.163	3347.37
958.467	3299.69
958.771	3350.08
959.075	3307.6
959.378	3295.17
959.682	3274.6
959.985	3242.29
960.289	3258.56
960.592	3269.18
960.896	3206.58
961.199	3228.28
961.502	3190.09
961.805	3207.94
962.108	3160.26
962.411	3145.79
962.714	3103.31
963.017	3127.71
963.32	3189.63
963.623	3108.73
963.926	3077.77
964.228	3070.31
964.531	3078.9
964.833	3026.47
965.136	3010.43
965.438	3017.21
965.741	3012.24
966.043	3007.27
966.345	2991.9
966.648	3013.82
966.95	2968.85
967.252	2967.04
967.554	2944.44
967.856	2937.66
968.158	2883.88
968.46	2887.95
968.761	2870.55
969.063	2859.02
969.365	2875.07
969.666	2846.37
969.968	2807.04
970.269	2832.81
970.571	2805.01
970.872	2780.83
971.174	2775.86
971.475	2823.99
971.776	2750.78
972.077	2776.09
972.378	2767.05
972.679	2755.97
972.98	2695.41
973.281	2700.61
973.582	2698.57
973.883	2708.97
974.183	2667.61
974.484	2652.92
974.785	2631.68
975.085	2645.69
975.386	2670.33
975.686	2614.51
975.986	2585.81
976.287	2599.82
976.587	2589.2
976.887	2593.04
977.187	2579.48
977.487	2591.91
977.787	2516.88
978.087	2519.14
978.387	2517.56
978.687	2509.43
978.987	2497
979.286	2487.73
979.586	2438.92
979.885	2497.45
980.185	2465.81
980.484	2439.14
980.784	2446.83
981.083	2411.12
981.382	2399.37
981.682	2378.36
981.981	2374.29
982.28	2379.49
982.579	2343.55
982.878	2356.44
983.177	2324.35
983.475	2337.9
983.774	2308.07
984.073	2325.7
984.372	2299.26
984.67	2318.24
984.969	2297.91
985.267	2270.34
985.566	2327.96
985.864	2246.16
986.162	2251.58
986.461	2247.96
986.759	2199.38
987.057	2174.07
987.355	2187.4
987.653	2214.07
987.951	2188.3
988.249	2172.26
988.547	2194.86
988.844	2144.01
989.142	2186.5
989.44	2129.77
989.737	2125.03
990.035	2136.1
990.332	2111.47
990.63	2113.73
990.927	2100.4
991.224	2096.78
991.521	2082.32
991.819	2077.57
992.116	2080.51
992.413	2033.05
992.71	2066.5
993.006	2055.88
993.303	2013.17
993.6	1996.9
993.897	2023.79
994.193	2001.42
994.49	1977.91
994.787	1987.86
995.083	1977.01
995.379	1968.65
995.676	1971.13
995.972	1909.89
996.268	1929.33
996.565	1933.17
996.861	1903.34
997.157	1898.14
997.453	1891.81
997.749	1915.54
998.044	1894.3
998.34	1852.27
998.636	1847.97
998.932	1867.86
999.227	1862.21
999.523	1817.01
999.818	1830.8
1000.114	1796
1000.409	1826.28
1000.704	1795.55
1001	1772.95
1001.295	1765.49
1001.59	1799.16
1001.885	1767.3
1002.18	1738.15
1002.475	1748.77
1002.77	1733.63
1003.065	1693.85
1003.359	1707.19
1003.654	1691.14
1003.949	1685.49
1004.243	1672.16
1004.538	1667.41
1004.832	1644.82
1005.127	1635.78
1005.421	1626.74
1005.715	1639.17
1006.009	1648.43
1006.304	1646.85
1006.598	1611.37
1006.892	1621.77
1007.186	1590.35
1007.48	1605.72
1007.773	1578.38
1008.067	1588.09
1008.361	1546.29
1008.655	1577.47
1008.948	1593.74
1009.242	1530.92
1009.535	1540.19
1009.829	1521.65
1010.122	1533.86
1010.415	1483.92
1010.708	1508.32
1011.001	1491.15
1011.295	1461.54
1011.588	1515.1
1011.881	1474.2
1012.173	1464.03
1012.466	1438.95
1012.759	1445.5
1013.052	1443.69
1013.344	1443.01
1013.637	1415.44
1013.93	1395.78
1014.222	1407.76
1014.514	1393.3
1014.807	1406.18
1015.099	1396.01
1015.391	1374.54
1015.683	1374.31
1015.976	1356.01
1016.268	1355.11
1016.56	1319.85
1016.851	1323.47
1017.143	1308.55
1017.435	1294.99
1017.727	1313.52
1018.018	1297.93
1018.31	1299.97
1018.602	1287.76
1018.893	1276.46
1019.185	1256.58
1019.476	1254.54
1019.767	1246.41
1020.058	1252.96
1020.35	1259.97
1020.641	1216.58
1020.932	1230.14
1021.223	1233.3
1021.514	1191.72
1021.804	1210.02
1022.095	1200.99
1022.386	1186.07
1022.677	1187.65
1022.967	1176.58
1023.258	1180.42
1023.548	1131.16
1023.839	1176.81
1024.129	1149.24
1024.419	1125.06
1024.709	1113.98
1025	1126.64
1025.29	1131.38
1025.58	1104.04
1025.87	1118.73
1026.16	1099.75
1026.449	1088.67
1026.739	1075.11
1027.029	1072.4
1027.319	1073.98
1027.608	1046.64
1027.898	1073.31
1028.187	1049.58
1028.477	1067.66
1028.766	1040.54
1029.055	1031.05
1029.344	1000.99
1029.634	1009.35
1029.923	1002.8
1030.212	990.82
1030.501	1022.68
1030.79	988.11
1031.078	1015.91
1031.367	993.76
1031.656	976.13
1031.945	960.31
1032.233	958.28
1032.522	956.25
1032.81	964.83
1033.099	949.69
1033.387	954.21
1033.675	958.28
1033.963	911.5
1034.251	938.62
1034.54	906.98
1034.828	890.49
1035.116	894.1
1035.403	879.86
1035.691	863.37
1035.979	863.59
1036.267	894.55
1036.554	875.57
1036.842	880.09
1037.129	892.29
1037.417	853.42
1037.704	851.39
1037.992	845.29
1038.279	849.58
1038.566	861.56
1038.853	861.56
1039.14	861.56
