Data from hue_80_FLMS001491_10.txt Node
Date: Mon Feb 06 15:22:23 GMT 2017
User: dcchb
Spectrometer: FLMS00149
Trigger mode: 0
Integration Time (sec): 2.000000E-2
Scans to average: 10
Electric dark correction enabled: true
Nonlinearity correction enabled: false
Boxcar width: 0
XAxis mode: Wavelengths
Number of Pixels in Spectrum: 2048
>>>>>Begin Spectral Data<<<<<
341.393	0.66
341.776	0.66
342.16	0.66
342.543	-64.42
342.927	-73.46
343.31	-83.85
343.693	-68.49
344.077	-59.45
344.46	-56.74
344.843	-55.61
345.226	-52.22
345.61	-33.91
345.993	-14.48
346.376	-7.02
346.759	4.05
347.142	20.1
347.525	51.06
347.908	60.78
348.291	83.15
348.674	97.16
349.057	115.46
349.44	108.01
349.823	131.73
350.206	164.28
350.588	188.68
350.971	202.69
351.354	209.25
351.737	239.3
352.119	244.73
352.502	280.43
352.884	262.35
353.267	275.68
353.65	270.94
354.032	277.94
354.414	322.92
354.797	315.23
355.179	307.55
355.562	298.74
355.944	327.21
356.326	320.43
356.709	338.51
357.091	326.98
357.473	348.23
357.855	341.9
358.238	352.07
358.62	336.93
359.002	333.99
359.384	329.69
359.766	343.93
360.148	326.53
360.53	347.32
360.912	319.07
361.294	340.54
361.676	320.88
362.057	345.97
362.439	321.33
362.821	332.18
363.203	317.49
363.584	344.38
363.966	323.14
364.348	320.43
364.729	307.77
365.111	307.1
365.493	319.53
365.874	321.79
366.256	323.59
366.637	304.16
367.019	331.5
367.4	305.51
367.781	310.03
368.163	325.85
368.544	302.8
368.925	298.51
369.306	313.88
369.688	323.82
370.069	305.51
370.45	305.06
370.831	321.33
371.212	319.3
371.593	310.71
371.974	313.42
372.355	333.76
372.736	300.54
373.117	325.18
373.498	324.05
373.879	328.34
374.26	324.72
374.641	317.72
375.021	304.38
375.402	311.84
375.783	320.2
376.163	327.89
376.544	324.95
376.925	330.6
377.305	311.84
377.686	329.47
378.066	315.01
378.447	324.05
378.827	307.32
379.208	320.43
379.588	336.7
379.968	332.63
380.349	355.68
380.729	316.59
381.109	330.37
381.489	344.61
381.87	338.06
382.25	333.99
382.63	345.06
383.01	357.26
383.39	336.02
383.77	338.06
384.15	325.4
384.53	332.86
384.91	364.95
385.29	348.68
385.67	351.62
386.049	350.03
386.429	348
386.809	344.16
387.189	346.87
387.568	330.15
387.948	348.23
388.328	336.47
388.707	334.21
389.087	341.22
389.466	338.28
389.846	352.07
390.225	345.74
390.605	348.68
390.984	358.62
391.363	374.67
391.743	358.39
392.122	385.51
392.501	365.63
392.881	372.18
393.26	340.77
393.639	351.62
394.018	379.64
394.397	387.09
394.776	386.87
395.155	390.48
395.534	386.19
395.913	381.9
396.292	382.57
396.671	385.74
397.05	412.86
397.429	390.94
397.808	381.67
398.186	392.74
398.565	365.85
398.944	369.92
399.323	378.28
399.701	396.13
400.08	383.25
400.458	395
400.837	398.85
401.215	392.29
401.594	390.26
401.972	392.07
402.351	374.21
402.729	399.52
403.107	380.77
403.486	409.69
403.864	422.35
404.242	420.09
404.62	416.25
404.999	431.84
405.377	396.81
405.755	409.01
406.133	425.51
406.511	417.15
406.889	410.82
407.267	444.49
407.645	414.21
408.023	444.95
408.401	450.6
408.779	435.45
409.156	427.77
409.534	417.83
409.912	445.17
410.29	425.51
410.667	447.21
411.045	454.66
411.422	447.66
411.8	449.69
412.178	458.73
412.555	468
412.933	474.1
413.31	460.31
413.687	458.73
414.065	476.13
414.442	465.74
414.819	480.65
415.197	493.31
415.574	483.36
415.951	475.91
416.328	505.28
416.705	485.4
417.082	482.91
417.46	472.52
417.837	490.82
418.214	498.5
418.591	496.47
418.967	505.06
419.344	513.64
419.721	487.88
420.098	517.94
420.475	511.84
420.852	514.55
421.228	541.67
421.605	531.5
421.982	517.94
422.358	524.72
422.735	533.98
423.111	548.22
423.488	522.23
423.864	558.84
424.241	537.82
424.617	540.99
424.994	547.77
425.37	550.93
425.746	564.94
426.123	572.4
426.499	567.2
426.875	587.32
427.251	586.64
427.627	567.2
428.003	571.95
428.379	597.48
428.756	583.25
429.132	621.21
429.507	580.31
429.883	586.64
430.259	602.91
430.635	635
431.011	627.77
431.387	630.25
431.763	625.05
432.138	637.48
432.514	637.48
432.89	653.53
433.265	638.16
433.641	670.93
434.016	676.8
434.392	660.76
434.767	695.79
435.143	663.47
435.518	676.58
435.894	698.5
436.269	699.4
436.644	696.24
437.02	699.18
437.395	700.31
437.77	716.58
438.145	730.81
438.52	701.44
438.895	744.15
439.271	725.16
439.646	751.6
440.021	729.23
440.395	756.58
440.77	726.52
441.145	765.39
441.52	765.62
441.895	756.8
442.27	797.71
442.645	772.17
443.019	780.3
443.394	808.1
443.769	814.2
444.143	787.99
444.518	796.35
444.892	799.96
445.267	799.06
445.641	820.98
446.016	810.13
446.39	805.16
446.764	818.5
447.139	813.75
447.513	822.11
447.887	814.65
448.262	830.02
448.636	853.75
449.01	866.4
449.384	857.14
449.758	892.84
450.132	891.49
450.506	893.97
450.88	870.02
451.254	887.42
451.628	906.4
452.002	897.36
452.376	915.44
452.75	929.45
453.123	923.35
453.497	916.57
453.871	932.84
454.244	945.95
454.618	957.25
454.992	972.16
455.365	986.85
455.739	1007.87
456.112	1013.74
456.486	1027.98
456.859	1033.86
457.232	1040.41
457.606	1038.38
457.979	1059.39
458.352	1060.3
458.725	1051.26
459.099	1096.91
459.472	1110.69
459.845	1129.9
460.218	1122.67
460.591	1126.51
460.964	1140.97
461.337	1173.29
461.71	1173.74
462.083	1195.43
462.456	1213.74
462.829	1224.59
463.201	1251.7
463.574	1247.86
463.947	1303.23
464.32	1273.85
464.692	1304.13
465.065	1299.39
465.438	1320.86
465.81	1369.22
466.183	1371.25
466.555	1412.15
466.928	1415.54
467.3	1436.11
467.672	1438.59
468.045	1465.94
468.417	1483.11
468.789	1515.65
469.161	1518.59
469.534	1526.95
469.906	1606.27
470.278	1623.45
470.65	1641.07
471.022	1665.48
471.394	1726.04
471.766	1728.3
472.138	1769.66
472.51	1797.68
472.882	1829.99
473.253	1874.29
473.625	1920.61
473.997	1968.52
474.369	1957.67
474.74	2019.59
475.112	2073.15
475.484	2120.61
475.855	2164
476.227	2219.14
476.598	2281.28
476.97	2303.2
477.341	2380.04
477.713	2440.37
478.084	2483.08
478.455	2570.99
478.827	2623.65
479.198	2736.41
479.569	2728.28
479.94	2862.51
480.311	2887.59
480.682	3012.34
481.053	3081.71
481.424	3183.63
481.795	3262.5
482.166	3323.29
482.537	3403.74
482.908	3551.76
483.279	3615.26
483.65	3747.68
484.021	3847.57
484.391	3959.43
484.762	4059.09
485.133	4121.69
485.503	4225.64
485.874	4308.35
486.244	4462.47
486.615	4570.71
486.985	4671.5
487.356	4877.6
487.726	4963.25
488.097	5080.53
488.467	5189
488.837	5327.3
489.207	5490.24
489.578	5577.92
489.948	5763.45
490.318	5877.35
490.688	5963.9
491.058	6103.1
491.428	6250.89
491.798	6403.21
492.168	6602.75
492.538	6684.1
492.908	6829.86
493.278	6968.39
493.648	7048.16
494.017	7196.18
494.387	7375.39
494.757	7543.74
495.126	7635.04
495.496	7716.85
495.866	7880.46
496.235	8047.91
496.605	8258.53
496.974	8284.06
497.344	8445.41
497.713	8635.69
498.082	8674.33
498.452	8901.45
498.821	8956.81
499.19	9070.93
499.559	9254.88
499.928	9359.06
500.298	9414.43
500.667	9595.67
501.036	9651.03
501.405	9839.05
501.774	9896.67
502.143	10049.89
502.512	10110.91
502.88	10355.87
503.249	10375.08
503.618	10462.54
503.987	10539.14
504.356	10675.86
504.724	10787.05
505.093	10949.53
505.462	10991.34
505.83	11127.83
506.199	11221.84
506.567	11372.12
506.936	11405.79
507.304	11607.36
507.672	11713.8
508.041	11757.19
508.409	11929.84
508.777	11897.3
509.145	12102.04
509.514	12123.96
509.882	12329.83
510.25	12302.04
510.618	12393.78
510.986	12412.99
511.354	12561.92
511.722	12728.46
512.09	12900.89
512.458	12871.51
512.826	12933.66
513.193	13091.85
513.561	13058.85
513.929	13209.36
514.297	13365.51
514.664	13384.94
515.032	13480.99
515.4	13633.3
515.767	13675.78
516.135	13650.7
516.502	13649.8
516.869	13906.29
517.237	13886.85
517.604	13941.77
517.972	14054.53
518.339	14144.7
518.706	14224.92
519.073	14258.37
519.44	14275.99
519.808	14390.12
520.175	14427.18
520.542	14544.91
520.909	14678.7
521.276	14621.07
521.643	14719.6
522.009	14840.5
522.376	14868.75
522.743	14991.68
523.11	15068.74
523.477	15162.53
523.843	15236.2
524.21	15402.07
524.577	15437.32
524.943	15492.69
525.31	15545.79
525.676	15671.66
526.043	15710.99
526.409	15709.86
526.776	15927.25
527.142	15827.14
527.508	15836.41
527.874	16004.99
528.241	15975.16
528.607	16026.91
528.973	16223.74
529.339	16016.06
529.705	16257.64
530.071	16179.67
530.437	16249.73
530.803	16344.64
531.169	16457.18
531.535	16304.87
531.901	16401.59
532.267	16396.39
532.632	16422.38
532.998	16556.84
533.364	16622.15
533.73	16523.39
534.095	16677.74
534.461	16648.36
534.826	16751.18
535.192	16675.93
535.557	16823.27
535.923	16750.05
536.288	16800
536.653	16800.45
537.019	16682.26
537.384	16680.68
537.749	16884.51
538.114	16820.79
538.479	16730.62
538.845	16787.79
539.21	16848.13
539.575	16780.34
539.94	16809.71
540.305	16865.53
540.67	16786.66
541.034	16854.23
541.399	16877.28
541.764	16840.22
542.129	16743.95
542.494	16732.88
542.858	16818.75
543.223	16903.72
543.587	16818.75
543.952	16826.21
544.316	16704.18
544.681	16738.98
545.045	16699.89
545.41	16837.74
545.774	16774.01
546.138	16795.48
546.503	16792.76
546.867	16718.42
547.231	16784.18
547.595	16784.4
547.959	16818.98
548.324	16696.04
548.688	16761.81
549.052	16771.52
549.416	16804.29
549.779	16785.99
550.143	16790.73
550.507	16731.75
550.871	16717.29
551.235	16777.85
551.599	16812.43
551.962	16804.97
552.326	16719.55
552.689	16715.03
553.053	16727.23
553.417	16705.99
553.78	16833.44
554.143	16800.45
554.507	16789.6
554.87	16792.54
555.234	16908.69
555.597	16710.96
555.96	16719.09
556.323	16844.06
556.686	16787.57
557.05	16775.82
557.413	16825.31
557.776	16778.3
558.139	16892.2
558.502	16966.32
558.865	16903.72
559.228	16986.66
559.59	17007
559.953	16943.5
560.316	17147.33
560.679	17003.38
561.041	17077.28
561.404	17016.71
561.767	17146.43
562.129	17167.22
562.492	17316.37
562.854	17193.21
563.217	17183.71
563.579	17242.24
563.941	17327.89
564.304	17368.34
564.666	17335.12
565.028	17395.23
565.39	17385.74
565.753	17602.23
566.115	17490.6
566.477	17531.95
566.839	17605.4
567.201	17595.68
567.563	17635.45
567.925	17668.45
568.287	17698.5
568.648	17647.66
569.01	17744.38
569.372	17854.66
569.734	17684.04
570.095	17737.6
570.457	17879.52
570.819	17809.24
571.18	17941.21
571.542	17951.38
571.903	17945.95
572.265	18036.57
572.626	18062.34
572.987	18062.11
573.349	18019.85
573.71	18121.32
574.071	18129.9
574.432	18277.47
574.794	18258.71
575.155	18241.31
575.516	18152.95
575.877	18255.78
576.238	18243.57
576.599	18368.99
576.96	18358.6
577.32	18302.78
577.681	18345.72
578.042	18422.78
578.403	18376.23
578.763	18416.9
579.124	18322.67
579.485	18472.95
579.845	18512.95
580.206	18350.46
580.566	18424.81
580.927	18376.23
581.287	18422.78
581.648	18436.11
582.008	18583.23
582.368	18426.85
582.728	18514.53
583.089	18372.84
583.449	18334.87
583.809	18357.92
584.169	18502.32
584.529	18350.46
584.889	18515.66
585.249	18389.78
585.609	18443.79
585.969	18468.88
586.329	18421.65
586.688	18397.24
587.048	18456
587.408	18397.02
587.768	18287.41
588.127	18355.21
588.487	18359.28
588.846	18378.26
589.206	18217.13
589.565	18239.28
589.925	18322.89
590.284	18337.36
590.643	18310.46
591.003	18315.89
591.362	18317.24
591.721	18371.93
592.08	18402.21
592.44	18333.52
592.799	18351.37
593.158	18304.36
593.517	18259.39
593.876	18361.54
594.235	18253.52
594.593	18310.69
594.952	18276.12
595.311	18218.72
595.67	18246.96
596.029	18348.66
596.387	18272.95
596.746	18386.17
597.104	18286.06
597.463	18248.55
597.822	18298.71
598.18	18241.54
598.538	18217.36
598.897	18341.2
599.255	18184.82
599.613	18465.26
599.972	18308.43
600.33	18357.7
600.688	18293.29
601.046	18242.22
601.404	18351.37
601.762	18299.17
602.12	18453.29
602.478	18354.31
602.836	18277.25
603.194	18345.04
603.552	18334.19
603.91	18310.92
604.268	18365.83
604.625	18269.11
604.983	18433.4
605.341	18260.52
605.698	18363.34
606.056	18369.22
606.413	18377.13
606.771	18397.47
607.128	18465.04
607.485	18399.5
607.843	18352.05
608.2	18406.73
608.557	18578.93
608.914	18307.3
609.272	18505.94
609.629	18548.42
609.986	18682.66
610.343	18514.75
610.7	18625.94
611.057	18650.79
611.414	18586.16
611.771	18632.26
612.127	18668.65
612.484	18630.68
612.841	18712.49
613.198	18574.64
613.554	18619.16
613.911	18741.87
614.267	18755.88
614.624	18733.5
614.98	18769.44
615.337	18814.86
615.693	18872.71
616.05	18831.36
616.406	18900.51
616.762	18822.32
617.118	18807.63
617.475	18843.78
617.831	18919.71
618.187	18968.98
618.543	18973.05
618.899	18994.74
619.255	18955.19
619.611	18945.7
619.967	19152.48
620.323	19224.79
620.678	19053.95
621.034	19088.52
621.39	18897.57
621.746	18998.58
622.101	19226.37
622.457	19013.95
622.812	19059.6
623.168	19112.25
623.523	19151.8
623.879	19157.67
624.234	18975.31
624.589	19052.59
624.945	19110.9
625.3	19040.84
625.655	19165.13
626.01	19116.09
626.365	19153.15
626.72	19113.38
627.075	19054.4
627.43	19109.99
627.785	19077.68
628.14	19073.83
628.495	19120.84
628.85	19105.92
629.205	19067.28
629.559	19171.91
629.914	19113.83
630.269	19179.14
630.623	18977.79
630.978	18985.7
631.332	19135.53
631.687	19052.37
632.041	18965.14
632.396	18986.15
632.75	18992.93
633.104	19035.64
633.459	18815.99
633.813	18906.16
634.167	18884.01
634.521	18899.38
634.875	18876.78
635.229	18728.98
635.583	18690.79
635.937	18722.88
636.291	18750
636.645	18667.52
636.999	18656.67
637.352	18732.37
637.706	18620.97
638.06	18707.29
638.413	18572.6
638.767	18613.73
639.121	18619.61
639.474	18545.71
639.828	18500.29
640.181	18509.78
640.534	18535.54
640.888	18428.65
641.241	18525.6
641.594	18573.73
641.947	18453.29
642.301	18503
642.654	18476.11
643.007	18478.82
643.36	18417.13
643.713	18431.14
644.066	18534.19
644.419	18406.73
644.771	18332.61
645.124	18086.06
645.477	18135.33
645.83	18038.16
646.182	17868.89
646.535	17901.21
646.888	17842
647.24	17802
647.593	17845.17
647.945	17839.74
648.298	17726.07
648.65	17708.45
649.002	17672.97
649.355	17699.41
649.707	17642.46
650.059	17761.55
650.411	18132.62
650.763	17980.08
651.115	18197.25
651.467	18139.17
651.819	18224.14
652.171	18108.21
652.523	18260.52
652.875	18137.81
653.227	18126.06
653.578	18236.79
653.93	18163.58
654.282	18044.03
654.633	17998.38
654.985	18104.59
655.337	18124.48
655.688	18072.05
656.039	18126.29
656.391	18068.66
656.742	18077.93
657.094	18165.16
657.445	18156.57
657.796	18059.85
658.147	18091.26
658.498	18124.03
658.849	18112.73
659.2	18151.82
659.551	18040.42
659.902	18113.63
660.253	18180.75
660.604	18241.99
660.955	18127.42
661.306	18216.91
661.656	18140.3
662.007	18227.76
662.358	18088.55
662.708	18202.9
663.059	18145.72
663.409	18060.3
663.76	18187.76
664.11	18146.85
664.461	18258.71
664.811	18246.51
665.161	18214.65
665.511	18144.82
665.862	18212.39
666.212	18254.2
666.562	18270.01
666.912	18187.3
667.262	18204.03
667.612	18152.05
667.962	18196.34
668.312	18146.18
668.662	18214.65
669.011	18227.08
669.361	18161.54
669.711	18143.92
670.06	18061.21
670.41	18145.5
670.76	18104.37
671.109	18149.57
671.459	18052.39
671.808	18103.46
672.157	18079.28
672.507	18039.06
672.856	17995.22
673.205	18016.91
673.554	18064.6
673.904	17932.62
674.253	18027.76
674.602	18014.88
674.951	17771.5
675.3	17688.33
675.649	17908.44
675.998	17919.29
676.346	17925.84
676.695	17999.29
677.044	17824.83
677.393	17917.25
677.741	17989.8
678.09	17952.06
678.438	17863.92
678.787	17849.91
679.135	17728.56
679.484	17745.73
679.832	17805.62
680.181	17657.37
680.529	17754.55
680.877	17623.7
681.225	17597.72
681.573	17716.58
681.922	17550.94
682.27	17522.46
682.618	17585.06
682.966	17483.59
683.314	17453.09
683.661	17427.1
684.009	17276.37
684.357	17275.24
684.705	17327.21
685.053	17267.1
685.4	17252.64
685.748	17167.44
686.095	17096.26
686.443	17097.84
686.79	17075.24
687.138	17048.58
687.485	17134.68
687.832	16987.56
688.18	17016.04
688.527	16915.7
688.874	16861.69
689.221	16833.22
689.568	16811.52
689.915	16735.37
690.262	16721.13
690.609	16726.55
690.956	16541.02
691.303	16550.06
691.65	16565.88
691.997	16539.21
692.344	16412.89
692.69	16358.88
693.037	16318.88
693.383	16282.04
693.73	16200.92
694.077	16139.67
694.423	16162.95
694.769	16077.3
695.116	16066
695.462	16065.78
695.808	15962.73
696.155	15936.74
696.501	15768.61
696.847	15812.45
697.193	15652
697.539	15735.17
697.885	15480.93
698.231	15550.99
698.577	15576.75
698.923	15483.87
699.269	15430.54
699.614	15376.08
699.96	15206.37
700.306	15236.87
700.651	15213.6
700.997	15136.76
701.342	15165.69
701.688	15144.45
702.033	15013.83
702.379	14999.82
702.724	14958.91
703.069	15010.89
703.415	14825.36
703.76	14851.8
704.105	14811.8
704.45	14780.16
704.795	14673.72
705.14	14516.44
705.485	14542.43
705.83	14482.77
706.175	14565.48
706.52	14455.65
706.865	14373.85
707.209	14301.76
707.554	14336.11
707.899	14310.12
708.243	14245.94
708.588	14210.46
708.932	14095.89
709.277	14026.51
709.621	14073.51
709.966	13999.39
710.31	14082.78
710.654	13853.63
710.998	13913.07
711.342	13954.65
711.687	13875.33
712.031	13819.96
712.375	13857.47
712.719	13770.92
713.063	13739.96
713.407	13796.69
713.75	13734.77
714.094	13728.66
714.438	13648.21
714.782	13720.76
715.125	13552.62
715.469	13608.44
715.812	13483.02
716.156	13445.73
716.499	13443.93
716.843	13473.08
717.186	13344.95
717.53	13386.75
717.873	13327.09
718.216	13410.71
718.559	13319.18
718.902	13262.91
719.246	13271.28
719.589	13233.76
719.932	13177.72
720.275	13159.19
720.617	13155.57
720.96	13168.45
721.303	13133.43
721.646	13071.96
721.989	13063.6
722.331	13110.83
722.674	13011.62
723.016	13119.41
723.359	13063.37
723.701	13038.29
724.044	12987.44
724.386	12945.86
724.729	12955.35
725.071	12883.26
725.413	12936.37
725.755	12965.52
726.097	12942.02
726.439	12841.46
726.782	12890.95
727.124	12902.02
727.465	12803.27
727.807	12906.54
728.149	12833.32
728.491	12799.2
728.833	12754.68
729.175	12834.68
729.516	12749.71
729.858	12787.67
730.199	12773.89
730.541	12755.81
730.882	12759.65
731.224	12799.88
731.565	12711.29
731.906	12729.37
732.248	12798.29
732.589	12692.99
732.93	12636.72
733.271	12689.37
733.612	12730.27
733.953	12678.3
734.294	12705.87
734.635	12607.11
734.976	12680.78
735.317	12581.8
735.658	12669.26
735.999	12641.24
736.339	12660.22
736.68	12620.9
737.021	12700.67
737.361	12645.3
737.702	12696.6
738.042	12652.31
738.383	12682.82
738.723	12691.63
739.063	12683.95
739.404	12769.59
739.744	12730.05
740.084	12750.39
740.424	12740.67
740.764	12662.93
741.104	12745.41
741.444	12789.48
741.784	12830.83
742.124	12711.52
742.464	12795.13
742.804	12771.63
743.143	12739.09
743.483	12846.2
743.823	12728.69
744.162	12848.69
744.502	12891.85
744.841	12890.27
745.181	12934.79
745.52	12988.34
745.86	13024.5
746.199	13000.1
746.538	13049.81
746.877	13090.94
747.216	13081.45
747.556	13096.36
747.895	13197.6
748.234	13178.85
748.573	13261.33
748.911	13312.4
749.25	13370.93
749.589	13395.11
749.928	13454.1
750.267	13596.24
750.605	13639.18
750.944	13640.53
751.283	13680.76
751.621	13800.3
751.96	13870.58
752.298	13930.92
752.636	14091.82
752.975	14106.73
753.313	14147.18
753.651	14347.18
753.989	14408.87
754.327	14456.33
754.666	14537.68
755.004	14780.84
755.342	14826.04
755.679	14928.41
756.017	14919.59
756.355	15005.02
756.693	15080.95
757.031	15275.29
757.368	15335.63
757.706	15470.77
758.044	15527.94
758.381	15685.9
758.719	15792.79
759.056	15939.45
759.394	16059
759.731	16123.4
760.068	16297.64
760.405	16358.88
760.743	16416.28
761.08	16645.2
761.417	16698.76
761.754	16868.92
762.091	16928.81
762.428	16992.76
762.765	17111.17
763.102	17281.34
763.438	17283.83
763.775	17314.56
764.112	17467.1
764.449	17644.49
764.785	17675.91
765.122	17778.05
765.458	17817.6
765.795	17870.48
766.131	17984.6
766.467	18096.69
766.804	18037.48
767.14	18082.22
767.476	18219.17
767.812	18270.69
768.148	18428.65
768.485	18430.01
768.821	18368.09
769.157	18486.28
769.492	18542.78
769.828	18702.32
770.164	18518.59
770.5	18550.68
770.836	18796.55
771.171	18711.13
771.507	18762.2
771.842	18807.85
772.178	18755.2
772.513	18846.72
772.849	18816.89
773.184	18805.37
773.519	18917.68
773.855	18815.76
774.19	18867.29
774.525	18847.17
774.86	19078.13
775.195	18936.66
775.53	18884.46
775.865	18849.21
776.2	18814.86
776.535	18731.24
776.87	18796.33
777.205	18759.72
777.539	18802.2
777.874	18805.82
778.209	18751.13
778.543	18679.04
778.878	18677.69
779.212	18707.52
779.547	18570.35
779.881	18696.67
780.215	18670.46
780.55	18677.69
780.884	18549.33
781.218	18545.94
781.552	18588.65
781.886	18516.79
782.22	18401.31
782.554	18459.16
782.888	18252.61
783.222	18252.61
783.556	18203.35
783.889	18155.67
784.223	18130.81
784.557	18095.1
784.89	18200.41
785.224	18000.64
785.557	17997.48
785.891	17898.27
786.224	17939.4
786.558	17988.67
786.891	17738.28
787.224	17803.13
787.557	17768.33
787.891	17772.17
788.224	17681.1
788.557	17791.61
788.89	17578.05
789.223	17632.29
789.556	17602.46
789.888	17495.12
790.221	17443.14
790.554	17317.27
790.887	17372.86
791.219	17332.41
791.552	17276.37
791.884	17191.4
792.217	17299.64
792.549	17120.67
792.882	17018.07
793.214	17018.75
793.546	17049.93
793.879	16931.52
794.211	16804.29
794.543	16936.49
794.875	16757.06
795.207	16805.65
795.539	16789.83
795.871	16679.77
796.203	16550.96
796.535	16560.68
796.867	16599.78
797.198	16492.21
797.53	16549.16
797.862	16364.98
798.193	16370.63
798.525	16235.72
798.856	16374.7
799.188	16099.9
799.519	16122.5
799.85	16010.86
800.182	16026.23
800.513	16004.08
800.844	15841.38
801.175	16014.03
801.506	16014.93
801.837	15837.08
802.168	15862.85
802.499	15797.76
802.83	15671.89
803.161	15733.13
803.491	15642.06
803.822	15576.75
804.153	15551.89
804.483	15466.47
804.814	15376.3
805.145	15387.15
805.475	15396.87
805.805	15340.6
806.136	15303.09
806.466	15335.85
806.796	15274.16
807.126	15195.29
807.457	14975.19
807.787	15165.01
808.117	15032.13
808.447	15020.38
808.777	14931.34
809.107	14842.53
809.436	14906.26
809.766	14897.67
810.096	14817.22
810.426	14836.88
810.755	14778.81
811.085	14735.87
811.414	14749.2
811.744	14606.61
812.073	14572.71
812.403	14678.92
812.732	14472.6
813.061	14574.74
813.39	14454.07
813.719	14423.34
814.049	14523.67
814.378	14421.3
814.707	14352.83
815.036	14342.66
815.365	14277.8
815.693	14171.14
816.022	14168.88
816.351	14155.55
816.68	14071.48
817.008	14081.88
817.337	14021.09
817.665	14009.11
817.994	13994.87
818.322	14084.81
818.651	13885.95
818.979	13974.99
819.307	13924.37
819.636	13939.96
819.964	13813.86
820.292	13926.4
820.62	13843.69
820.948	13822.67
821.276	13911.71
821.604	13718.5
821.932	13832.16
822.259	13806.18
822.587	13747.87
822.915	13767.08
823.243	13798.49
823.57	13732.51
823.898	13808.44
824.225	13654.32
824.553	13713.07
824.88	13729.57
825.207	13700.87
825.535	13719.63
825.862	13763.69
826.189	13712.39
826.516	13768.44
826.843	13781.77
827.17	13720.3
827.497	13798.04
827.824	13829
828.151	13821.54
828.478	13723.92
828.805	13848.89
829.131	13739.51
829.458	13765.5
829.785	13620.19
830.111	13676.69
830.438	13772.51
830.764	13688.44
831.09	13733.86
831.417	13660.87
831.743	13789.23
832.069	13718.5
832.395	13655.9
832.722	13779.51
833.048	13655.67
833.374	13696.8
833.7	13593.07
834.026	13655.9
834.351	13709
834.677	13564.83
835.003	13632.17
835.329	13612.06
835.654	13593.07
835.98	13488.67
836.306	13499.29
836.631	13400.54
836.956	13552.85
837.282	13549.23
837.607	13391.27
837.932	13409.12
838.258	13466.3
838.583	13416.81
838.908	13322.35
839.233	13329.58
839.558	13335.91
839.883	13233.99
840.208	13222.01
840.533	13247.55
840.858	13192.41
841.182	13217.27
841.507	13182.24
841.832	13139.08
842.156	13112.86
842.481	13084.39
842.805	13150.37
843.13	13112.86
843.454	13080.32
843.778	12980.66
844.103	12900.21
844.427	12809.14
844.751	12935.24
845.075	12865.86
845.399	12838.97
845.723	12840.78
846.047	12751.06
846.371	12689.82
846.695	12779.99
847.019	12537.51
847.343	12568.92
847.666	12538.87
847.99	12463.61
848.313	12391.07
848.637	12241.47
848.96	12281.02
849.284	12332.99
849.607	12179.55
849.931	12135.49
850.254	12009.39
850.577	11986.34
850.9	11932.33
851.223	11924.19
851.546	11773.01
851.869	11770.52
852.192	11903.18
852.515	11658.66
852.838	11702.5
853.161	11689.85
853.483	11588.61
853.806	11600.58
854.129	11524.2
854.451	11491.21
854.774	11446.01
855.096	11427.48
855.419	11388.16
855.741	11367.14
856.063	11274.49
856.385	11341.61
856.708	11299.35
857.03	11187.71
857.352	11186.36
857.674	11212.35
857.996	11148.62
858.318	11040.15
858.64	11052.12
858.961	11094.16
859.283	11028.85
859.605	10967.61
859.926	10955.18
860.248	10921.96
860.57	10803.09
860.891	10872.92
861.212	10792.92
861.534	10750.89
861.855	10804.9
862.176	10775.07
862.498	10747.5
862.819	10781.17
863.14	10710.66
863.461	10607.39
863.782	10635.86
864.103	10655.3
864.424	10572.36
864.745	10607.62
865.065	10451.69
865.386	10449.43
865.707	10482.42
866.027	10552.02
866.348	10441.97
866.668	10442.42
866.989	10387.96
867.309	10450.33
867.63	10385.02
867.95	10370.56
868.27	10285.82
868.59	10338.25
868.91	10358.58
869.23	10278.13
869.55	10224.8
869.87	10336.44
870.19	10342.31
870.51	10250.34
870.83	10214.41
871.15	10139.38
871.469	10141.19
871.789	10225.25
872.109	10225.25
872.428	10140.51
872.748	10154.97
873.067	10125.14
873.386	10139.38
873.706	10083.79
874.025	10060.06
874.344	10062.09
874.663	10065.03
874.982	10045.37
875.301	10014.86
875.62	9949.55
875.939	9936.45
876.258	9930.35
876.577	9948.88
876.896	9977.35
877.214	9825.49
877.533	9927.41
877.852	9935.77
878.17	9932.15
878.489	9846.05
878.807	9860.74
879.125	9830.46
879.444	9789.56
879.762	9809.45
880.08	9763.8
880.398	9738.94
880.716	9734.87
881.034	9740.07
881.352	9670.47
881.67	9623.24
881.988	9631.82
882.306	9686.06
882.624	9605.16
882.941	9533.52
883.259	9524.03
883.577	9486.29
883.894	9451.49
884.212	9537.59
884.529	9480.41
884.846	9493.75
885.164	9435.9
885.481	9430.47
885.798	9432.28
886.115	9323.36
886.432	9384.37
886.75	9264.83
887.067	9359.74
887.383	9234.77
887.7	9276.8
888.017	9162.23
888.334	9267.99
888.651	9222.12
888.967	9125.17
889.284	9131.5
889.6	9152.51
889.917	9042.01
890.233	9052.4
890.55	9072.06
890.866	9022.57
891.182	8957.72
891.498	8905.29
891.815	8963.82
892.131	8842.01
892.447	8922.69
892.763	8808.12
893.079	8812.64
893.395	8788.68
893.71	8759.53
894.026	8760.89
894.342	8692.41
894.657	8645.63
894.973	8674.79
895.289	8621.68
895.604	8625.52
895.92	8572.64
896.235	8538.29
896.55	8460.1
896.865	8461.01
897.181	8424.4
897.496	8461.91
897.811	8442.02
898.126	8376.71
898.441	8308.24
898.756	8362.48
899.071	8237.28
899.386	8281.8
899.7	8222.14
900.015	8164.52
900.33	8156.61
900.644	8115.03
900.959	8136.27
901.273	8037.97
901.588	8024.41
901.902	7947.35
902.216	7945.99
902.531	7973.11
902.845	7950.29
903.159	7885.43
903.473	7932.66
903.787	7786.22
904.101	7752.78
904.415	7835.94
904.729	7772.66
905.042	7655.38
905.356	7735.15
905.67	7694.02
905.984	7681.59
906.297	7661.71
906.611	7543.29
906.924	7568.37
907.237	7550.75
907.551	7483.86
907.864	7501.26
908.177	7432.56
908.491	7393.24
908.804	7388.04
909.117	7290.64
909.43	7318.66
909.743	7263.98
910.056	7231.21
910.368	7224.2
910.681	7170.19
910.994	7160.02
911.307	7087.48
911.619	7055.39
911.932	7124.32
912.244	7011.1
912.557	7015.62
912.869	6983.08
913.181	6959.8
913.494	6980.59
913.806	6901.95
914.118	6856.75
914.43	6882.06
914.742	6816.08
915.054	6746.02
915.366	6813.82
915.678	6839.58
915.99	6694.27
916.302	6667.16
916.613	6732.46
916.925	6633.03
917.236	6653.14
917.548	6568.85
917.859	6628.06
918.171	6517.78
918.482	6491.79
918.794	6446.6
919.105	6499.93
919.416	6373.38
919.727	6440.95
920.038	6422.42
920.349	6356.88
920.66	6298.13
920.971	6299.26
921.282	6267.62
921.593	6228.3
921.903	6179.94
922.214	6150.11
922.525	6141.52
922.835	6160.28
923.146	6083.44
923.456	6057
923.767	6031.92
924.077	6042.09
924.387	5962.09
924.697	5907.85
925.008	5930.68
925.318	5923.45
925.628	5944.69
925.938	5888.19
926.248	5817.01
926.558	5802.32
926.867	5835.31
927.177	5823.56
927.487	5757.35
927.796	5737.69
928.106	5719.16
928.416	5660.4
928.725	5670.12
929.034	5637.58
929.344	5645.26
929.653	5590.35
929.962	5596.22
930.271	5523.68
930.581	5534.53
930.89	5534.76
931.199	5484.81
931.508	5444.36
931.817	5433.97
932.125	5428.54
932.434	5387.87
932.743	5362.78
933.051	5319.17
933.36	5330.24
933.669	5276.01
933.977	5269.45
934.286	5296.57
934.594	5250.24
934.902	5229.45
935.21	5197.59
935.519	5191.26
935.827	5162.79
936.135	5109.46
936.443	5108.1
936.751	5086.86
937.059	5027.42
937.367	5028.55
937.674	4998.05
937.982	5012.51
938.29	5016.8
938.597	4963.25
938.905	4882.12
939.213	4888.22
939.52	4861.78
939.827	4894.09
940.135	4832.4
940.442	4834.89
940.749	4811.38
941.056	4844.15
941.363	4760.76
941.67	4756.47
941.977	4738.17
942.284	4680.54
942.591	4674.67
942.898	4688.9
943.205	4659.98
943.511	4623.82
943.818	4635.8
944.125	4581.33
944.431	4535.91
944.738	4590.37
945.044	4511.73
945.35	4532.97
945.657	4516.03
945.963	4495.69
946.269	4479.42
946.575	4434.22
946.881	4392.64
947.187	4392.19
947.493	4379.31
947.799	4330.04
948.105	4342.24
948.41	4324.39
948.716	4332.98
949.022	4314.9
949.327	4252.76
949.633	4212.08
949.938	4225.41
950.244	4234
950.549	4167.56
950.854	4184.96
951.16	4199.2
951.465	4163.04
951.77	4128.46
952.075	4124.62
952.38	4087.56
952.685	4088.01
952.99	4040.11
953.294	4044.4
953.599	3998.75
953.904	4030.39
954.209	3965.98
954.513	3975.93
954.818	3928.02
955.122	3932.54
955.426	3927.57
955.731	3888.25
956.035	3848.02
956.339	3848.47
956.643	3847.34
956.948	3883.27
957.252	3821.35
957.556	3808.7
957.86	3803.95
958.163	3773.22
958.467	3766.44
958.771	3752.43
959.075	3705.88
959.378	3700.23
959.682	3729.83
959.985	3664.07
960.289	3661.81
960.592	3644.64
960.896	3642.38
961.199	3636.95
961.502	3588.14
961.805	3591.08
962.108	3581.13
962.411	3553.11
962.714	3553.11
963.017	3488.93
963.32	3519.89
963.623	3492.1
963.926	3484.87
964.228	3453.45
964.531	3470.63
964.833	3444.87
965.136	3396.96
965.438	3401.25
965.741	3401.25
966.043	3394.25
966.345	3358.77
966.648	3345.43
966.95	3380.01
967.252	3294.81
967.554	3283.74
967.856	3303.63
968.158	3239.45
968.46	3250.07
968.761	3232.9
969.063	3218.88
969.365	3196.96
969.666	3212.78
969.968	3199.45
970.269	3159.9
970.571	3210.07
970.872	3136.85
971.174	3139.34
971.475	3136.63
971.776	3072.67
972.077	3068.38
972.378	3083.75
972.679	3091.66
972.98	3051.88
973.281	3030.41
973.582	3040.36
973.883	3009.62
974.183	3019.12
974.484	3009.4
974.785	2972.11
975.085	2972.56
975.386	2945.9
975.686	2926.91
975.986	2934.15
976.287	2905.22
976.587	2890.98
976.887	2925.33
977.187	2882.4
977.487	2856.41
977.787	2838.33
978.087	2813.47
978.387	2831.78
978.687	2820.93
978.987	2789.74
979.286	2765.34
979.586	2796.75
979.885	2778.44
980.185	2751.55
980.484	2729.86
980.784	2721.95
981.083	2698.22
981.382	2735.51
981.682	2672.68
981.981	2687.37
982.28	2646.47
982.579	2686.24
982.878	2622.06
983.177	2636.75
983.475	2627.26
983.774	2578.45
984.073	2598.79
984.372	2576.64
984.67	2581.61
984.969	2568.96
985.267	2556.75
985.566	2546.81
985.864	2513.14
986.162	2534.16
986.461	2499.13
986.759	2481.73
987.057	2503.2
987.355	2486.47
987.653	2458.9
987.951	2453.25
988.249	2405.57
988.547	2428.62
988.844	2439.92
989.142	2433.14
989.44	2367.83
989.737	2409.41
990.035	2356.08
990.332	2368.29
990.63	2335.52
990.927	2325.12
991.224	2326.93
991.521	2318.34
991.819	2312.92
992.116	2294.39
992.413	2271.56
992.71	2259.14
993.006	2277.44
993.303	2240.38
993.6	2235.86
993.897	2226.14
994.193	2206.48
994.49	2202.41
994.787	2211.23
995.083	2185.47
995.379	2153.15
995.676	2160.16
995.972	2134.17
996.268	2147.73
996.565	2144.11
996.861	2133.49
997.157	2118.35
997.453	2140.95
997.749	2119.7
998.044	2092.36
998.34	2099.14
998.636	2077.9
998.932	2052.81
999.227	2048.97
999.523	2021.63
999.818	2025.02
1000.114	2006.26
1000.409	2027.05
1000.704	2011.01
1001	2019.14
1001.295	1949.99
1001.59	1970.56
1001.885	1939.6
1002.18	1975.3
1002.475	1914.96
1002.77	1905.25
1003.065	1920.39
1003.359	1939.37
1003.654	1886.26
1003.949	1906.6
1004.243	1867.06
1004.538	1872.48
1004.832	1866.15
1005.127	1838.13
1005.421	1842.2
1005.715	1831.58
1006.009	1807.4
1006.304	1831.8
1006.598	1785.25
1006.892	1787.74
1007.186	1767.4
1007.48	1752.71
1007.773	1738.25
1008.067	1731.01
1008.361	1713.16
1008.655	1731.24
1008.948	1693.73
1009.242	1681.98
1009.535	1694.86
1009.829	1684.24
1010.122	1665.25
1010.415	1657.8
1010.708	1641.3
1011.001	1646.5
1011.295	1625.71
1011.588	1657.12
1011.881	1617.34
1012.173	1606.27
1012.466	1594.75
1012.759	1594.29
1013.052	1585.48
1013.344	1543.45
1013.637	1568.31
1013.93	1561.75
1014.222	1559.27
1014.514	1552.49
1014.807	1544.8
1015.099	1561.98
1015.391	1516.78
1015.683	1494.86
1015.976	1509.1
1016.268	1479.49
1016.56	1479.04
1016.851	1470
1017.143	1451.93
1017.435	1424.58
1017.727	1465.48
1018.018	1422.55
1018.31	1403.79
1018.602	1411.25
1018.893	1406.28
1019.185	1388.2
1019.476	1372.83
1019.767	1398.37
1020.058	1354.98
1020.35	1344.13
1020.641	1363.34
1020.932	1370.12
1021.223	1325.15
1021.514	1357.46
1021.804	1297.35
1022.095	1346.84
1022.386	1291.93
1022.677	1288.09
1022.967	1294.64
1023.258	1275.88
1023.548	1275.21
1023.839	1260.07
1024.129	1270.23
1024.419	1255.77
1024.709	1249.9
1025	1232.27
1025.29	1228.65
1025.58	1206.73
1025.87	1220.52
1026.16	1197.69
1026.449	1176
1026.739	1191.82
1027.029	1182.33
1027.319	1208.99
1027.608	1136.45
1027.898	1136
1028.187	1132.84
1028.477	1164.93
1028.766	1136
1029.055	1107.3
1029.344	1110.92
1029.634	1120.86
1029.923	1080.18
1030.212	1114.08
1030.501	1087.87
1030.79	1068.66
1031.078	1094.65
1031.367	1066.85
1031.656	1062.78
1031.945	1055.33
1032.233	1043.35
1032.522	1055.78
1032.81	1028.43
1033.099	1044.03
1033.387	1040.18
1033.675	1002.22
1033.963	1018.26
1034.251	1004.25
1034.54	997.47
1034.828	1003.58
1035.116	970.58
1035.403	968.1
1035.691	960.86
1035.979	948.66
1036.267	968.77
1036.554	939.85
1036.842	947.08
1037.129	973.97
1037.417	925.39
1037.704	919.28
1037.992	930.36
1038.279	931.26
1038.566	929
1038.853	929
1039.14	929
