Data from hue_24_FLMS001491_00023.txt Node
Date: Tue Feb 07 17:12:01 GMT 2017
User: dcchb
Spectrometer: FLMS00149
Trigger mode: 0
Integration Time (sec): 2.000000E-2
Scans to average: 10
Electric dark correction enabled: true
Nonlinearity correction enabled: false
Boxcar width: 0
XAxis mode: Wavelengths
Number of Pixels in Spectrum: 2048
>>>>>Begin Spectral Data<<<<<
341.393	-19.49
341.776	-19.49
342.16	-19.49
342.543	-68.53
342.927	-85.93
343.31	-56.55
343.693	-71.47
344.077	-68.98
344.46	-59.04
344.843	-52.94
345.226	-62.43
345.61	-50.68
345.993	-17.68
346.376	-1.64
346.759	27.97
347.142	19.6
347.525	43.33
347.908	55.31
348.291	77.68
348.674	114.06
349.057	103.44
349.44	146.83
349.823	153.84
350.206	162.65
350.588	206.94
350.971	208.53
351.354	220.5
351.737	224.12
352.119	238.36
352.502	280.84
352.884	269.54
353.267	284.68
353.65	313.83
354.032	302.53
354.414	333.49
354.797	308.41
355.179	327.17
355.562	327.39
355.944	338.24
356.326	331.91
356.709	344.57
357.091	335.08
357.473	330.1
357.855	363.78
358.238	356.09
358.62	347.96
359.002	350.67
359.384	348.86
359.766	344.79
360.148	329.43
360.53	346.6
360.912	351.35
361.294	345.02
361.676	335.53
362.057	346.6
362.439	342.08
362.821	333.04
363.203	342.99
363.584	307.05
363.966	346.38
364.348	328.52
364.729	347.73
365.111	336.21
365.493	357.9
365.874	298.24
366.256	320.61
366.637	304.79
367.019	317
367.4	338.01
367.781	320.39
368.163	321.29
368.544	337.11
368.925	308.64
369.306	321.97
369.688	308.41
370.069	339.14
370.45	314.74
370.831	325.58
371.212	309.31
371.593	299.14
371.974	317.9
372.355	311.57
372.736	335.3
373.117	320.84
373.498	319.26
373.879	337.56
374.26	328.3
374.641	326.49
375.021	312.93
375.402	332.36
375.783	326.94
376.163	345.47
376.544	338.24
376.925	331.23
377.305	339.82
377.686	328.75
378.066	343.66
378.447	327.39
378.827	329.43
379.208	344.34
379.588	344.79
379.968	328.75
380.349	338.92
380.729	321.29
381.109	336.66
381.489	347.28
381.87	350.22
382.25	338.92
382.63	355.87
383.01	346.15
383.39	327.39
383.77	340.27
384.15	356.09
384.53	342.99
384.91	369.65
385.29	363.1
385.67	375.3
386.049	358.35
386.429	364.45
386.809	365.36
387.189	371.69
387.568	360.84
387.948	379.82
388.328	363.55
388.707	375.53
389.087	357
389.466	381.18
389.846	374.85
390.225	371.46
390.605	355.64
390.984	366.94
391.363	370.56
391.743	366.26
392.122	371.23
392.501	358.35
392.881	390.22
393.26	372.82
393.639	364.45
394.018	374.85
394.397	389.54
394.776	359.71
395.155	385.02
395.534	385.7
395.913	398.13
396.292	418.46
396.671	399.03
397.05	385.24
397.429	402.87
397.808	413.94
398.186	382.08
398.565	396.77
398.944	402.87
399.323	411.46
399.701	402.19
400.08	388.41
400.458	396.09
400.837	410.78
401.215	396.32
401.594	403.77
401.972	406.49
402.351	373.27
402.729	399.93
403.107	420.05
403.486	403.77
403.864	428.18
404.242	428.86
404.62	429.31
404.999	417.79
405.377	426.82
405.755	438.58
406.133	433.83
406.511	442.87
406.889	415.07
407.267	457.11
407.645	460.04
408.023	441.51
408.401	455.98
408.779	454.62
409.156	451.01
409.534	462.08
409.912	441.97
410.29	462.08
410.667	468.63
411.045	479.25
411.422	481.74
411.8	458.91
412.178	479.25
412.555	461.17
412.933	471.57
413.31	490.33
413.687	490.1
414.065	508.63
414.442	501.4
414.819	495.98
415.197	494.39
415.574	509.99
415.951	485.35
416.328	481.06
416.705	512.25
417.082	527.84
417.46	506.6
417.837	517.22
418.214	508.86
418.591	516.77
418.967	512.25
419.344	522.64
419.721	524.9
420.098	517.22
420.475	526.48
420.852	516.31
421.228	565.35
421.605	556.09
421.982	553.15
422.358	554.96
422.735	543.88
423.111	563.54
423.488	561.06
423.864	563.54
424.241	583.21
424.617	572.36
424.994	563.09
425.37	562.19
425.746	584.56
426.123	564.45
426.499	599.25
426.875	571.45
427.251	606.93
427.627	596.76
428.003	587.95
428.379	595.18
428.756	593.15
429.132	637.21
429.507	620.27
429.883	630.66
430.259	636.08
430.635	622.3
431.011	634.96
431.387	668.4
431.763	668.63
432.138	656.42
432.514	638.8
432.89	658.46
433.265	687.84
433.641	687.16
434.016	680.15
434.392	696.42
434.767	712.24
435.143	694.61
435.518	713.6
435.894	723.31
436.269	715.63
436.644	722.18
437.02	713.6
437.395	710.89
437.77	707.04
438.145	737.55
438.52	736.87
438.895	745.01
439.271	757.21
439.646	762.64
440.021	759.47
440.395	743.2
440.77	769.41
441.145	786.59
441.52	808.28
441.895	794.95
442.27	798.57
442.645	797.66
443.019	799.24
443.394	822.97
443.769	838.34
444.143	809.64
444.518	805.12
444.892	836.53
445.267	832.24
445.641	819.13
446.016	831.79
446.39	837.44
446.764	834.95
447.139	842.41
447.513	874.72
447.887	861.84
448.262	861.39
448.636	868.62
449.01	885.8
449.384	884.44
449.758	888.06
450.132	880.6
450.506	890.09
450.88	909.07
451.254	877.89
451.628	907.49
452.002	894.38
452.376	934.61
452.75	942.07
453.123	956.75
453.497	954.04
453.871	941.84
454.244	998.11
454.618	985
454.992	974.38
455.365	999.47
455.739	1006.24
456.112	1035.17
456.486	1034.49
456.859	1041.95
457.232	1034.94
457.606	1064.32
457.979	1046.7
458.352	1062.29
458.725	1071.78
459.099	1098.9
459.472	1120.37
459.845	1105.23
460.218	1120.14
460.591	1129.18
460.964	1135.51
461.337	1164.66
461.71	1171.89
462.083	1208.27
462.456	1214.15
462.829	1204.21
463.201	1240.59
463.574	1235.17
463.947	1251.89
464.32	1257.54
464.692	1275.16
465.065	1264.54
465.438	1296.41
465.81	1309.74
466.183	1335.73
466.555	1348.83
466.928	1361.49
467.3	1358.33
467.672	1385.44
468.045	1424.99
468.417	1433.58
468.789	1418.44
469.161	1467.02
469.534	1478.55
469.906	1522.84
470.278	1540.24
470.65	1540.02
471.022	1559.45
471.394	1579.34
471.766	1602.84
472.138	1610.97
472.51	1651.2
472.882	1683.74
473.253	1716.06
473.625	1705.21
473.997	1782.72
474.369	1776.39
474.74	1766.22
475.112	1832.44
475.484	1828.6
475.855	1871.98
476.227	1913.34
476.598	1965.77
476.97	2002.6
477.341	2033.79
477.713	2075.6
478.084	2107.46
478.455	2134.12
478.827	2147.68
479.198	2203.28
479.569	2245.53
479.94	2311.75
480.311	2311.75
480.682	2365.53
481.053	2424.74
481.424	2458.41
481.795	2499.09
482.166	2537.28
482.537	2588.12
482.908	2667.9
483.279	2673.77
483.65	2728.23
484.021	2795.35
484.391	2856.37
484.762	2863.37
485.133	2920.54
485.503	2952.86
485.874	3024.95
486.244	3050.71
486.615	3111.73
486.985	3155.34
487.356	3262.68
487.726	3293.19
488.097	3369.35
488.467	3353.08
488.837	3442.79
489.207	3481.89
489.578	3526.86
489.948	3597.36
490.318	3656.8
490.688	3645.95
491.058	3749.22
491.428	3769.79
491.798	3866.06
492.168	3924.36
492.538	3962.78
492.908	3974.08
493.278	4045.94
493.648	4069.22
494.017	4108.54
494.387	4133.62
494.757	4200.29
495.126	4269.44
495.496	4248.42
495.866	4299.27
496.235	4374.74
496.605	4379.94
496.974	4423.33
497.344	4472.59
497.713	4526.15
498.082	4584.23
498.452	4605.47
498.821	4614.29
499.19	4632.14
499.559	4694.51
499.928	4703.55
500.298	4755.3
500.667	4828.74
501.036	4796.2
501.405	4819.7
501.774	4865.13
502.143	4904
502.512	5026.7
502.88	4950.32
503.249	4984.67
503.618	5043.88
503.987	5074.16
504.356	5130.66
504.724	5133.37
505.093	5121.84
505.462	5152.12
505.83	5205.46
506.199	5249.52
506.567	5271.67
506.936	5251.33
507.304	5322.29
507.672	5392.8
508.041	5400.71
508.409	5459.91
508.777	5473.7
509.145	5565.45
509.514	5509.18
509.882	5533.58
510.25	5500.59
510.618	5580.81
510.986	5571.55
511.354	5631.21
511.722	5682.05
512.09	5757.08
512.458	5710.08
512.826	5743.07
513.193	5745.1
513.561	5808.38
513.929	5840.02
514.297	5898.32
514.664	5945.32
515.032	5923.18
515.4	5954.14
515.767	5996.62
516.135	6024.87
516.502	5968.83
516.869	6087.92
517.237	6086.34
517.604	6110.97
517.972	6129.73
518.339	6134.7
518.706	6136.51
519.073	6178.76
519.44	6203.17
519.808	6228.48
520.175	6278.87
520.542	6300.57
520.909	6358.65
521.276	6397.29
521.643	6404.52
522.009	6402.71
522.376	6469.38
522.743	6522.71
523.11	6563.84
523.477	6654.01
523.843	6596.15
524.21	6743.72
524.577	6702.82
524.943	6728.81
525.31	6789.37
525.676	6905.3
526.043	6830.72
526.409	6891.06
526.776	6943.72
527.142	6993.88
527.508	7024.17
527.874	7110.49
528.241	7132.19
528.607	7091.96
528.973	7161.34
529.339	7181.68
529.705	7289.24
530.071	7349.13
530.437	7317.94
530.803	7446.3
531.169	7455.34
531.535	7382.12
531.901	7424.16
532.267	7446.08
532.632	7525.17
532.998	7565.62
533.364	7561.33
533.73	7617.82
534.095	7673.64
534.461	7705.5
534.826	7786.41
535.192	7738.5
535.557	7818.72
535.923	7906.63
536.288	7802.68
536.653	7960.41
537.019	7917.7
537.384	7869.79
537.749	7974.65
538.114	7999.06
538.479	8017.13
538.845	8048.32
539.21	8135.32
539.575	8085.61
539.94	8101.88
540.305	8211.93
540.67	8185.72
541.034	8267.3
541.399	8362.21
541.764	8296.22
542.129	8329.22
542.494	8375.77
542.858	8448.53
543.223	8442.43
543.587	8495.31
543.952	8493.28
544.316	8486.5
544.681	8491.7
545.045	8569.89
545.41	8712.26
545.774	8751.58
546.138	8691.69
546.503	8643.33
546.867	8695.76
547.231	8770.11
547.595	8833.84
547.959	8861.86
548.324	8888.07
548.688	8898.47
549.052	8869.77
549.416	8968.97
549.779	8973.49
550.143	8988.63
550.507	9074.51
550.871	9158.57
551.235	9087.39
551.599	9146.14
551.962	9151.34
552.326	9183.2
552.689	9208.74
553.053	9227.05
553.417	9270.43
553.78	9381.84
554.143	9378
554.507	9317.44
554.87	9416.42
555.234	9542.97
555.597	9454.38
555.96	9461.16
556.323	9558.56
556.686	9512.46
557.05	9622.06
557.413	9564.89
557.776	9619.58
558.139	9710.42
558.502	9761.27
558.865	9703.87
559.228	9783.87
559.59	9834.94
559.953	9873.13
560.316	9927.37
560.679	9969.62
561.041	9979.12
561.404	9975.73
561.767	10019.57
562.129	10071.09
562.492	10148.83
562.854	10145.44
563.217	10173.24
563.579	10231.09
563.941	10221.14
564.304	10271.54
564.666	10333.46
565.028	10360.35
565.39	10442.61
565.753	10416.84
566.115	10506.56
566.477	10521.47
566.839	10633.11
567.201	10657.52
567.563	10735.93
567.925	10730.28
568.287	10695.48
568.648	10718.76
569.01	10895.7
569.372	10859.77
569.734	10817.06
570.095	10929.6
570.457	10952.88
570.819	11018.18
571.18	11088.01
571.542	11127.33
571.903	11170.95
572.265	11172.76
572.626	11273.55
572.987	11277.39
573.349	11328.23
573.71	11403.26
574.071	11532.97
574.432	11519.41
574.794	11595.34
575.155	11623.59
575.516	11618.4
575.877	11787.66
576.238	11792.63
576.599	11877.6
576.96	11929.57
577.32	12048.21
577.681	12141.32
578.042	12237.81
578.403	12255.44
578.763	12428.09
579.124	12501.54
579.485	12663.57
579.845	12761.64
580.206	12834.18
580.566	12879.83
580.927	13079.15
581.287	13250.22
581.648	13294.96
582.008	13471.45
582.368	13559.81
582.728	13748.28
583.089	13889.07
583.449	14042.51
583.809	14156.18
584.169	14430.3
584.529	14530.86
584.889	14757.07
585.249	14891.98
585.609	15075.48
585.969	15317.05
586.329	15414
586.688	15713.2
587.048	15827.55
587.408	16075.9
587.768	16306.41
588.127	16523.35
588.487	16772.16
588.846	17156.33
589.206	17180.28
589.565	17579.82
589.925	17890.09
590.284	17986.82
590.643	18406.69
591.003	18648.04
591.362	18943.17
591.721	19259.32
592.08	19484.85
592.44	19762.81
592.799	20082.81
593.158	20293.87
593.517	20594.2
593.876	20876.68
594.235	21150.57
594.593	21543.78
594.952	21897.45
595.311	22114.84
595.67	22413.14
596.029	22852.9
596.387	23167.92
596.746	23455.82
597.104	23585.99
597.463	24031.85
597.822	24428.45
598.18	24628.67
598.538	24922.9
598.897	25367.86
599.255	25352.95
599.613	26153.61
599.972	26197.45
600.33	26548.62
600.688	26776.19
601.046	27200.13
601.404	27492.33
601.762	27733.23
602.12	28175.25
602.478	28457.5
602.836	28751.05
603.194	28739.3
603.552	29259.51
603.91	29483.01
604.268	29837.8
604.625	29991.02
604.983	30368.41
605.341	30466.71
605.698	30839.81
606.056	31198.22
606.413	31329.52
606.771	31804.08
607.128	31955.94
607.485	32159.1
607.843	32257.4
608.2	32748.23
608.557	33104.38
608.914	33158.62
609.272	33700.3
609.629	33874.99
609.986	34099.16
610.343	34076.11
610.7	34673.83
611.057	34710.9
611.414	35058.68
611.771	35154.5
612.127	35488.95
612.484	35656.18
612.841	35959.68
613.198	36031.76
613.554	36223.17
613.911	36587.46
614.267	36778.19
614.624	36847.56
614.98	37155.8
615.337	37274.22
615.693	37607.99
616.05	37504.49
616.406	37862.22
616.762	37777.48
617.118	37932.73
617.475	38069.45
617.831	38450.46
618.187	38590.79
618.543	38756.21
618.899	39014.74
619.255	39144.68
619.611	39174.73
619.967	39495.18
620.323	39625.57
620.678	39593.25
621.034	39609.75
621.39	39750.08
621.746	39771.1
622.101	40354.81
622.457	40090.87
622.812	40277.08
623.168	40380.12
623.523	40491.76
623.879	40790.51
624.234	40610.85
624.589	40927.68
624.945	41035.93
625.3	41053.55
625.655	41149.6
626.01	41251.74
626.365	41377.61
626.72	41373.54
627.075	41423.26
627.43	41476.82
627.785	41360.21
628.14	41717.72
628.495	41735.34
628.85	41691.73
629.205	41611.73
629.559	41848.56
629.914	41864.83
630.269	41818.05
630.623	41758.62
630.978	41879.52
631.332	42033.19
631.687	42157.03
632.041	41957.03
632.396	42192.51
632.75	41962.23
633.104	42184.37
633.459	42011.04
633.813	42075.9
634.167	42078.84
634.521	42112.51
634.875	42200.19
635.229	42122.9
635.583	42044.26
635.937	42123.36
636.291	42071.15
636.645	42174.43
636.999	42128.33
637.352	42253.52
637.706	42005.17
638.06	42339.4
638.413	42188.66
638.767	42123.36
639.121	42127.65
639.474	41902.34
639.828	41915.9
640.181	41972.85
640.534	42077.48
640.888	42062.57
641.241	41878.39
641.594	41926.75
641.947	42089.46
642.301	41981.44
642.654	41919.75
643.007	41980.53
643.36	42007.43
643.713	41884.94
644.066	42206.07
644.419	41813.99
644.771	41627.32
645.124	41324.28
645.477	41270.04
645.83	41014.91
646.182	40981.24
646.535	40904.4
646.888	40948.7
647.24	40721.81
647.593	41023.5
647.945	40843.39
648.298	40790.96
648.65	40748.02
649.002	40614.02
649.355	40849.72
649.707	40687.01
650.059	40879.77
650.411	41289.93
650.763	41338.07
651.115	41788.45
651.467	41616.02
651.819	41529.7
652.171	41537.83
652.523	41341.23
652.875	41490.83
653.227	41426.88
653.578	41565.4
653.93	41565.4
654.282	41199.76
654.633	41208.58
654.985	41272.53
655.337	41375.35
655.688	41387.33
656.039	41554.56
656.391	41119.54
656.742	41242.93
657.094	41208.35
657.445	41326.31
657.796	41334.9
658.147	41207
658.498	41279.08
658.849	41381.23
659.2	41387.56
659.551	41305.98
659.902	41313.89
660.253	41324.96
660.604	41281.12
660.955	41167
661.306	41274.34
661.656	41302.36
662.007	41177.84
662.358	41147.56
662.708	41405.86
663.059	41310.27
663.409	40980.79
663.76	41236.83
664.11	41240.89
664.461	41299.87
664.811	41310.95
665.161	41245.19
665.511	41090.16
665.862	41249.03
666.212	41289.93
666.562	41212.19
666.912	41118.18
667.262	41171.52
667.612	41139.65
667.962	41251.06
668.312	41174.91
668.662	41248.12
669.011	41009.49
669.361	41090.84
669.711	41133.78
670.06	41045.87
670.41	41069.6
670.76	41023.5
671.109	41101.24
671.459	40873.45
671.808	40949.15
672.157	40999.54
672.507	40803.39
672.856	40789.61
673.205	40898.76
673.554	40996.83
673.904	40850.39
674.253	40941.69
674.602	40856.5
674.951	40363.18
675.3	40173.12
675.649	40805.2
675.998	40749.83
676.346	40761.36
676.695	40782.83
677.044	40541.25
677.393	40666.9
677.741	40729.04
678.09	40680
678.438	40534.47
678.787	40676.61
679.135	40603.17
679.484	40365.66
679.832	40542.15
680.181	40254.7
680.529	40484.75
680.877	40274.59
681.225	40214.03
681.573	40471.87
681.922	40129.96
682.27	40099.91
682.618	40187.36
682.966	40068.27
683.314	40112.11
683.661	40011.32
684.009	39783.53
684.357	39622.63
684.705	39618.11
685.053	39833.47
685.4	39781.04
685.748	39353.49
686.095	39509.41
686.443	39331.79
686.79	39292.02
687.138	39460.83
687.485	39418.79
687.832	39185.35
688.18	39267.84
688.527	39001.4
688.874	39048.41
689.221	39020.16
689.568	38859.49
689.915	38731.81
690.262	38940.16
690.609	38593.05
690.956	38576.56
691.303	38569.55
691.65	38326.17
691.997	38370.46
692.344	38116.46
692.69	38071.03
693.037	37904.71
693.383	37725.73
693.73	37956.46
694.077	37737.26
694.423	37748.56
694.769	37613.19
695.116	37425.63
695.462	37362.12
695.808	37267.21
696.155	37518.28
696.501	37123.04
696.847	37224.73
697.193	36878.07
697.539	37033.32
697.885	36748.36
698.231	36706.55
698.577	36775.25
698.923	36616.38
699.269	36576.38
699.614	36312.66
699.96	36274.47
700.306	36134.36
700.651	36086.45
700.997	36017.75
701.342	36056.17
701.688	35936.85
702.033	35741.15
702.379	35768.27
702.724	35721.26
703.069	35720.13
703.415	35275.17
703.76	35334.16
704.105	35379.35
704.45	35316.98
704.795	35046.93
705.14	34931.68
705.485	34799.93
705.83	34754.51
706.175	34892.13
706.52	34898.91
706.865	34726.71
707.209	34582.76
707.554	34448.53
707.899	34515.19
708.243	34366.72
708.588	34406.72
708.932	33962.89
709.277	34106.17
709.621	34064.58
709.966	33790.24
710.31	33928.09
710.654	33836.12
710.998	33705.72
711.342	33771.94
711.687	33603.13
712.031	33510.25
712.375	33440.65
712.719	33415.79
713.063	33471.15
713.407	33486.52
713.75	33261.22
714.094	33229.35
714.438	33065.97
714.782	33145.96
715.125	33057.38
715.469	33048.11
715.812	32773.32
716.156	32788.91
716.499	32642.7
716.843	32765.41
717.186	32423.95
717.53	32691.06
717.873	32675.69
718.216	32700.33
718.559	32383.27
718.902	32256.5
719.246	32213.11
719.589	32195.03
719.932	32030.29
720.275	32157.06
720.617	31924.3
720.96	31962.72
721.303	32089.5
721.646	32014.92
721.989	31689.28
722.331	31929.5
722.674	31810.86
723.016	31779.67
723.359	31674.36
723.701	31662.39
724.044	31530.41
724.386	31375.62
724.729	31550.07
725.071	31382.62
725.413	31405.9
725.755	31253.59
726.097	31153.02
726.439	31109.41
726.782	31070.76
727.124	31220.14
727.465	31043.87
727.807	30923.88
728.149	30925.23
728.491	30789.42
728.833	30870.32
729.175	30730.21
729.516	30740.83
729.858	30769.76
730.199	30693.15
730.541	30757.55
730.882	30622.19
731.224	30647.95
731.565	30427.39
731.906	30442.98
732.248	30434.17
732.589	30365.7
732.93	30204.8
733.271	30286.15
733.612	30377.9
733.953	30212.48
734.294	30160.73
734.635	30093.39
734.976	30195.31
735.317	29995.54
735.658	30025.14
735.999	29995.99
736.339	29883.68
736.68	29975.43
737.021	29816.33
737.361	29661.76
737.702	29813.4
738.042	29858.14
738.383	29832.15
738.723	29783.57
739.063	29521.65
739.404	29725.94
739.744	29654.76
740.084	29458.38
740.424	29445.04
740.764	29366.63
741.104	29478.94
741.444	29407.08
741.784	29275.33
742.124	29308.33
742.464	29303.13
742.804	29315.1
743.143	29120.53
743.483	29224.94
743.823	29103.59
744.162	28965.96
744.502	29041.21
744.841	28828.11
745.181	29143.36
745.52	28956.7
745.86	28930.71
746.199	28927.09
746.538	28899.75
746.877	28924.83
747.216	28800.54
747.556	28719.64
747.895	28701.34
748.234	28620.89
748.573	28590.15
748.911	28665.86
749.25	28585.86
749.589	28409.82
749.928	28473.32
750.267	28469.25
750.605	28361.46
750.944	28351.74
751.283	28250.5
751.621	28265.41
751.96	28081.69
752.298	28177.06
752.636	28128.24
752.975	28066.55
753.313	27905.2
753.651	28059.54
753.989	27876.72
754.327	27794.47
754.666	27811.19
755.004	27693.45
755.342	27798.31
755.679	27630.18
756.017	27500.92
756.355	27634.7
756.693	27477.41
757.031	27526.45
757.368	27403.52
757.706	27413.91
758.044	27301.37
758.381	27292.33
758.719	27107.93
759.056	27200.36
759.394	26992.45
759.731	26985.67
760.068	26850.99
760.405	26783.19
760.743	26622.29
761.08	26840.37
761.417	26585.01
761.754	26627.49
762.091	26556.76
762.428	26422.07
762.765	26340.27
763.102	26415.75
763.438	26216.2
763.775	25998.81
764.112	26095.08
764.449	26096.66
764.785	25935.76
765.122	25722.88
765.458	25686.95
765.795	25709.55
766.131	25587.52
766.467	25588.2
766.804	25469.33
767.14	25229.34
767.476	25348.88
767.812	25310.01
768.148	25222.33
768.485	25125.84
768.821	24911.15
769.157	25012.39
769.492	24937.82
769.828	24861.44
770.164	24582.12
770.5	24570.14
770.836	24532.86
771.171	24329.93
771.507	24328.57
771.842	24208.35
772.178	24224.17
772.513	24120.21
772.849	24144.62
773.184	24011.74
773.519	23882.93
773.855	23877.96
774.19	23839.99
774.525	23688.59
774.86	23696.72
775.195	23525.88
775.53	23505.54
775.865	23268.71
776.2	23217.64
776.535	23019.23
776.87	23112.1
777.205	23046.12
777.539	22769.97
777.874	22917.08
778.209	22730.65
778.543	22605
778.878	22555.96
779.212	22491.56
779.547	22440.94
779.881	22486.13
780.215	22180.15
780.55	22306.7
780.884	22116.88
781.218	21955.98
781.552	22007.95
781.886	21885.92
782.22	21837.56
782.554	21738.13
782.888	21468.76
783.222	21512.6
783.556	21420.4
783.889	21371.13
784.223	21260.18
784.557	21219.5
784.89	21172.95
785.224	20991.26
785.557	20942.67
785.891	20963.91
786.224	20803.46
786.558	20933.63
786.891	20712.62
787.224	20715.11
787.557	20520.08
787.891	20503.36
788.224	20386.75
788.557	20427.88
788.89	20411.16
789.223	20285.51
789.556	20169.36
789.888	20135.91
790.221	20055.46
790.554	19860.66
790.887	19844.85
791.219	19778.86
791.552	19740.22
791.884	19652.08
792.217	19718.52
792.549	19588.13
792.882	19457.74
793.214	19439.21
793.546	19421.13
793.879	19243.28
794.211	19178.2
794.543	19205.09
794.875	19148.37
795.207	19162.38
795.539	19027.47
795.871	19077.41
796.203	18865.89
796.535	18657.98
796.867	18749.73
797.198	18677.42
797.53	18629.06
797.862	18366.47
798.193	18534.15
798.525	18394.94
798.856	18440.36
799.188	18230.65
799.519	18109.07
799.85	18155.62
800.182	18080.82
800.513	18043.31
800.844	17867.72
801.175	18028.17
801.506	17991.56
801.837	17825.92
802.168	17906.37
802.499	17798.35
802.83	17692.59
803.161	17721.51
803.491	17593.15
803.822	17655.3
804.153	17456.21
804.483	17398.81
804.814	17336.44
805.145	17281.3
805.475	17273.61
805.805	17274.52
806.136	17234.07
806.466	17176.67
806.796	17150
807.126	17046.73
807.457	16994.07
807.787	17000.4
808.117	16908.88
808.447	16771.25
808.777	16870.23
809.107	16749.56
809.436	16657.81
809.766	16630.69
810.096	16598.83
810.426	16528.77
810.755	16581.65
811.085	16420.53
811.414	16476.8
811.744	16374.2
812.073	16342.79
812.403	16300.98
812.732	16233.64
813.061	16248.1
813.39	16111.84
813.719	16092.4
814.049	16106.86
814.378	16025.06
814.707	16038.39
815.036	15902.35
815.365	15848.11
815.693	15784.39
816.022	15822.35
816.351	15715.01
816.68	15643.83
817.008	15708.01
817.337	15626.43
817.665	15522.02
817.994	15526.99
818.322	15668.01
818.651	15424.17
818.979	15402.93
819.307	15485.19
819.636	15443.15
819.964	15357.73
820.292	15358.86
820.62	15315.02
820.948	15280.67
821.276	15345.75
821.604	15315.7
821.932	15281.12
822.259	15253.1
822.587	15232.31
822.915	15206.32
823.243	15226.21
823.57	15155.48
823.898	15252.88
824.225	15200
824.553	15098.76
824.88	15285.64
825.207	15219.2
825.535	15195.48
825.862	15217.85
826.189	15234.12
826.516	15233.22
826.843	15273.21
827.17	15223.05
827.497	15181.24
827.824	15281.58
828.151	15239.99
828.478	15135.36
828.805	15266.21
829.131	15273.21
829.458	15235.7
829.785	15133.33
830.111	15074.12
830.438	15235.48
830.764	15250.62
831.09	15189.6
831.417	15107.34
831.743	15084.07
832.069	15149.15
832.395	15093.56
832.722	15066.67
833.048	15017.85
833.374	15080.68
833.7	14910.06
834.026	15019.44
834.351	14988.25
834.677	15050.4
835.003	15066.44
835.329	15050.62
835.654	14909.16
835.98	14831.64
836.306	14890.17
836.631	14872.77
836.956	14908.93
837.282	14847.24
837.607	14850.4
837.932	14755.94
838.258	14721.14
838.583	14728.82
838.908	14634.36
839.233	14671.87
839.558	14596.85
839.883	14633.01
840.208	14548.49
840.533	14549.39
840.858	14511.88
841.182	14560.24
841.507	14567.47
841.832	14392.11
842.156	14413.12
842.481	14378.32
842.805	14368.61
843.13	14339.68
843.454	14287.93
843.778	14290.87
844.103	14214.71
844.427	14172.68
844.751	14170.19
845.075	14174.26
845.399	14080.48
845.723	14077.31
846.047	13987.37
846.371	13902.85
846.695	13984.21
847.019	13761.84
847.343	13779.02
847.666	13632.58
847.99	13586.03
848.313	13638
848.637	13602.75
848.96	13536.31
849.284	13501.28
849.607	13391.46
849.931	13416.99
850.254	13342.19
850.577	13230.33
850.9	13152.14
851.223	13098.58
851.546	13019.26
851.869	12892.26
852.192	12938.59
852.515	12821.3
852.838	12850
853.161	12891.13
853.483	12786.95
853.806	12749.89
854.129	12725.03
854.451	12613.85
854.774	12617.46
855.096	12538.37
855.419	12466.06
855.741	12526.17
856.063	12433.51
856.385	12409.33
856.708	12387.19
857.03	12339.96
857.352	12326.85
857.674	12225.38
857.996	12221.09
858.318	12135.22
858.64	12199.4
858.961	12113.52
859.283	12101.32
859.605	12029.01
859.926	12022.45
860.248	11964.37
860.57	11906.52
860.891	12000.76
861.212	11917.6
861.534	11894.77
861.855	11800.76
862.176	11875.79
862.498	11808.45
862.819	11793.08
863.14	11758.73
863.461	11657.26
863.782	11660.43
864.103	11666.98
864.424	11731.84
864.745	11684.61
865.065	11583.37
865.386	11513.77
865.707	11556.48
866.027	11583.82
866.348	11571.16
866.668	11554.89
866.989	11456.59
867.309	11323.49
867.63	11406.65
867.95	11445.52
868.27	11355.35
868.59	11342.47
868.91	11297.5
869.23	11266.31
869.55	11267.44
869.87	11361.9
870.19	11306.76
870.51	11225.19
870.83	11283.49
871.15	11186.54
871.469	11196.03
871.789	11120.33
872.109	11130.05
872.428	11137.5
872.748	11200.78
873.067	11033.33
873.386	11097.96
873.706	11073.78
874.025	11023.16
874.344	10961.01
874.663	11017.05
874.982	10921.01
875.301	10980.67
875.62	10931.18
875.939	10916.04
876.258	10940.67
876.577	10865.65
876.896	10853.22
877.214	10810.28
877.533	10835.14
877.852	10807.12
878.17	10860.67
878.489	10770.96
878.807	10815.48
879.125	10725.09
879.444	10737.97
879.762	10722.37
880.08	10727.8
880.398	10651.64
880.716	10742.71
881.034	10643.05
881.352	10615.26
881.67	10546.33
881.988	10554.24
882.306	10663.39
882.624	10503.62
882.941	10483.28
883.259	10483.51
883.577	10446.22
883.894	10436.28
884.212	10445.54
884.529	10329.84
884.846	10346.34
885.164	10338.88
885.481	10354.93
885.798	10375.49
886.115	10192.22
886.432	10215.72
886.75	10227.47
887.067	10250.97
887.383	10199.9
887.7	10184.08
888.017	10077.64
888.334	10115.61
888.651	10088.49
888.967	9997.19
889.284	10011.21
889.6	10055.05
889.917	9882.17
890.233	9868.61
890.55	9892.56
890.866	9883.53
891.182	9853.7
891.498	9807.82
891.815	9765.56
892.131	9825.67
892.447	9730.54
892.763	9715.17
893.079	9652.8
893.395	9590.65
893.71	9635.62
894.026	9632.68
894.342	9502.52
894.657	9527.38
894.973	9528.96
895.289	9548.84
895.604	9453.48
895.92	9404.44
896.235	9347.04
896.55	9337.55
896.865	9340.49
897.181	9247.84
897.496	9272.69
897.811	9241.73
898.126	9318.12
898.441	9147.5
898.756	9126.03
899.071	9058.69
899.386	9066.37
899.7	9005.58
900.015	8953.61
900.33	8926.04
900.644	8933.04
900.959	8939.14
901.273	8891.01
901.588	8860.05
901.902	8801.29
902.216	8803.1
902.531	8759.71
902.845	8746.15
903.159	8661.64
903.473	8668.42
903.787	8600.62
904.101	8601.07
904.415	8555.42
904.729	8456.44
905.042	8442.43
905.356	8514.97
905.67	8499.16
905.984	8392.94
906.297	8352.04
906.611	8318.14
906.924	8301.87
907.237	8314.53
907.551	8207.41
907.864	8193.63
908.177	8203.34
908.491	8193.85
908.804	8124.48
909.117	8086.74
909.43	8014.2
909.743	7961.32
910.056	8010.58
910.368	7893.97
910.681	7952.73
910.994	7870.02
911.307	7850.13
911.619	7823.47
911.932	7836.57
912.244	7769
912.557	7704.83
912.869	7701.21
913.181	7624.38
913.494	7683.13
913.806	7537.6
914.118	7563.59
914.43	7516.13
914.742	7519.97
915.054	7471.39
915.366	7463.7
915.678	7451.95
915.99	7376.92
916.302	7314.78
916.613	7285.18
916.925	7284.05
917.236	7220.54
917.548	7184.39
917.859	7258.06
918.171	7147.78
918.482	7107.1
918.794	7070.94
919.105	7083.37
919.416	7046.31
919.727	6982.13
920.038	7002.25
920.349	6951.17
920.66	6938.52
920.971	6916.15
921.282	6883.6
921.593	6848.13
921.903	6846.77
922.214	6739.2
922.525	6750.27
922.835	6735.13
923.146	6657.62
923.456	6649.71
923.767	6656.72
924.077	6572.2
924.387	6608.58
924.697	6564.06
925.008	6521.35
925.318	6497.4
925.628	6473.45
925.938	6484.07
926.248	6329.95
926.558	6402.26
926.867	6387.8
927.177	6357.97
927.487	6355.71
927.796	6294.24
928.106	6268.48
928.416	6206.33
928.725	6202.04
929.034	6151.87
929.344	6169.5
929.653	6137.18
929.962	6091.31
930.271	6085.43
930.581	6002.72
930.89	5965.89
931.199	5954.14
931.508	5946.45
931.817	5981.03
932.125	5945.1
932.434	5924.53
932.743	5871.2
933.051	5796.18
933.36	5816.97
933.669	5795.05
933.977	5778.77
934.286	5753.01
934.594	5727.7
934.902	5677.53
935.21	5714.82
935.519	5681.6
935.827	5633.69
936.135	5584.2
936.443	5524.54
936.751	5568.61
937.059	5526.58
937.367	5475.73
937.674	5438.22
937.982	5471.66
938.29	5409.29
938.597	5408.39
938.905	5355.28
939.213	5318.9
939.52	5317.32
939.827	5304.44
940.135	5305.57
940.442	5243.42
940.749	5272.8
941.056	5277.32
941.363	5207.94
941.67	5163.2
941.977	5171.11
942.284	5154.16
942.591	5182.18
942.898	5143.31
943.205	5078.91
943.511	5047.04
943.818	5046.36
944.125	5027.61
944.431	5007.95
944.738	5007.5
945.044	4985.58
945.35	4917.78
945.657	4905.8
945.963	4849.08
946.269	4812.7
946.575	4866.93
946.881	4789.65
947.187	4888.63
947.493	4776.77
947.799	4767.95
948.105	4749.42
948.41	4750.33
948.716	4720.27
949.022	4646.15
949.327	4590.56
949.633	4621.06
949.938	4617.9
950.244	4628.07
950.549	4529.32
950.854	4518.92
951.16	4556.43
951.465	4520.95
951.77	4492.03
952.075	4491.35
952.38	4409.77
952.685	4427.4
952.99	4388.3
953.294	4389.43
953.599	4346.72
953.904	4335.65
954.209	4360.73
954.513	4301.75
954.818	4289.55
955.122	4244.13
955.426	4250
955.731	4264.92
956.035	4207.52
956.339	4161.87
956.643	4154.18
956.948	4153.51
957.252	4144.02
957.556	4128.65
957.86	4113.06
958.163	4103.11
958.467	4105.37
958.771	4115.09
959.075	4041.42
959.378	4035.09
959.682	4014.75
959.985	3996.67
960.289	3965.71
960.592	3952.61
960.896	3964.81
961.199	3903.34
961.502	3901.31
961.805	3911.71
962.108	3884.36
962.411	3881.65
962.714	3830.8
963.017	3784.25
963.32	3828.09
963.623	3778.15
963.926	3833.74
964.228	3768.21
964.531	3711.71
964.833	3717.13
965.136	3709.9
965.438	3698.6
965.741	3683.69
966.043	3694.08
966.345	3629.23
966.648	3616.57
966.95	3617.25
967.252	3595.56
967.554	3598.27
967.856	3622.9
968.158	3514.2
968.46	3523.24
968.761	3507.2
969.063	3516.01
969.365	3481.89
969.666	3463.13
969.968	3464.03
970.269	3445.95
970.571	3459.51
970.872	3448.21
971.174	3414.54
971.475	3386.97
971.776	3349.01
972.077	3345.84
972.378	3346.3
972.679	3343.13
972.98	3328.9
973.281	3308.56
973.582	3293.42
973.883	3268.78
974.183	3257.03
974.484	3238.05
974.785	3222.91
975.085	3212.06
975.386	3208.9
975.686	3185.4
975.986	3157.15
976.287	3157.15
976.587	3129.35
976.887	3139.97
977.187	3111.27
977.487	3101.78
977.787	3100.2
978.087	3054.55
978.387	3057.26
978.687	3023.14
978.987	3003.71
979.286	2997.83
979.586	2998.51
979.885	3007.55
980.185	2985.63
980.484	2968.45
980.784	2955.35
981.083	2954.67
981.382	2903.6
981.682	2918.96
981.981	2931.62
982.28	2889.81
982.579	2873.31
982.878	2828.12
983.177	2816.14
983.475	2798.51
983.774	2832.64
984.073	2810.72
984.372	2789.02
984.67	2768.46
984.969	2788.34
985.267	2732.75
985.566	2753.54
985.864	2753.09
986.162	2702.47
986.461	2721.45
986.759	2729.36
987.057	2646.43
987.355	2670.83
987.653	2648.24
987.951	2670.83
988.249	2647.33
988.547	2636.71
988.844	2653.66
989.142	2635.81
989.44	2595.58
989.737	2574.79
990.035	2584.51
990.332	2539.09
990.63	2529.59
990.927	2530.05
991.224	2527.33
991.521	2512.19
991.819	2513.1
992.116	2476.71
992.413	2464.51
992.71	2489.37
993.006	2463.16
993.303	2456.6
993.6	2445.98
993.897	2456.83
994.193	2413.21
994.49	2387.68
994.787	2397.17
995.083	2377.51
995.379	2347.45
995.676	2342.25
995.972	2351.97
996.268	2350.39
996.565	2303.39
996.861	2320.33
997.157	2279.66
997.453	2271.3
997.749	2303.61
998.044	2236.04
998.34	2244.63
998.636	2233.56
998.932	2203.95
999.227	2223.39
999.523	2179.77
999.818	2212.54
1000.114	2218.19
1000.409	2164.86
1000.704	2148.59
1001	2187.46
1001.295	2132.32
1001.59	2115.59
1001.885	2122.83
1002.18	2112.2
1002.475	2087.35
1002.77	2075.6
1003.065	2063.17
1003.359	2056.84
1003.654	2050.74
1003.949	2026.1
1004.243	2021.59
1004.538	2021.36
1004.832	1996.28
1005.127	1979.55
1005.421	1991.76
1005.715	1964.19
1006.009	1991.3
1006.304	1960.12
1006.598	1939.55
1006.892	1952.89
1007.186	1952.21
1007.48	1898.65
1007.773	1933.9
1008.067	1902.27
1008.361	1843.06
1008.655	1864.98
1008.948	1862.27
1009.242	1824.75
1009.535	1865.43
1009.829	1802.16
1010.122	1808.71
1010.415	1799.67
1010.708	1793.34
1011.001	1768.94
1011.295	1776.17
1011.588	1763.51
1011.881	1730.75
1012.173	1721.03
1012.466	1728.26
1012.759	1719.22
1013.052	1732.55
1013.344	1680.35
1013.637	1680.58
1013.93	1646.68
1014.222	1684.42
1014.514	1669.28
1014.807	1643.29
1015.099	1635.38
1015.391	1634.93
1015.683	1624.53
1015.976	1617.98
1016.268	1611.65
1016.56	1588.83
1016.851	1580.24
1017.143	1567.59
1017.435	1562.39
1017.727	1538.89
1018.018	1550.64
1018.31	1521.94
1018.602	1509.51
1018.893	1517.19
1019.185	1518.77
1019.476	1517.42
1019.767	1475.61
1020.058	1453.69
1020.35	1478.32
1020.641	1450.75
1020.932	1467.02
1021.223	1424.76
1021.514	1424.31
1021.804	1392.45
1022.095	1413.01
1022.386	1416.18
1022.677	1407.59
1022.967	1403.3
1023.258	1337.99
1023.548	1352
1023.839	1343.86
1024.129	1344.31
1024.419	1342.06
1024.709	1323.07
1025	1325.11
1025.29	1311.1
1025.58	1284.88
1025.87	1291.43
1026.16	1293.92
1026.449	1266.35
1026.739	1277.88
1027.029	1277.2
1027.319	1254.83
1027.608	1240.36
1027.898	1248.95
1028.187	1229.29
1028.477	1199.91
1028.766	1225.22
1029.055	1182.06
1029.344	1199.69
1029.634	1186.35
1029.923	1171.44
1030.212	1165.79
1030.501	1159.69
1030.79	1148.39
1031.078	1144.77
1031.367	1164.88
1031.656	1140.48
1031.945	1142.74
1032.233	1114.72
1032.522	1137.99
1032.81	1114.94
1033.099	1097.32
1033.387	1097.77
1033.675	1075.85
1033.963	1086.02
1034.251	1074.94
1034.54	1050.99
1034.828	1051.44
1035.116	1036.98
1035.403	1057.32
1035.691	1055.51
1035.979	1022.29
1036.267	1038.79
1036.554	1006.47
1036.842	1001.95
1037.129	995.17
1037.417	982.74
1037.704	1016.19
1037.992	982.29
1038.279	984.55
1038.566	979.8
1038.853	979.8
1039.14	979.8
