Data from hue_200_FLMS001491_00091.txt Node
Date: Tue Feb 07 16:44:12 GMT 2017
User: dcchb
Spectrometer: FLMS00149
Trigger mode: 0
Integration Time (sec): 2.000000E-2
Scans to average: 10
Electric dark correction enabled: true
Nonlinearity correction enabled: false
Boxcar width: 0
XAxis mode: Wavelengths
Number of Pixels in Spectrum: 2048
>>>>>Begin Spectral Data<<<<<
341.393	0.61
341.776	0.61
342.16	0.61
342.543	-68.77
342.927	-64.7
343.31	-88.2
343.693	-76.45
344.077	-72.39
344.46	-52.27
344.843	-62.67
345.226	-59.96
345.61	-19.28
345.993	-20.18
346.376	-14.08
346.759	20.49
347.142	29.53
347.525	46.48
347.908	65.24
348.291	89.19
348.674	106.82
349.057	107.72
349.44	118.12
349.823	141.85
350.206	161.96
350.588	193.37
350.971	219.36
351.354	229.75
351.737	252.13
352.119	240.38
352.502	251.67
352.884	279.02
353.267	249.64
353.65	271.79
354.032	284.67
354.414	297.32
354.797	302.52
355.179	296.87
355.562	317.21
355.944	324.44
356.326	330.32
356.709	339.36
357.091	336.42
357.473	344.33
357.855	332.58
358.238	345.91
358.62	330.32
359.002	331.9
359.384	340.49
359.766	331.22
360.148	347.04
360.53	329.19
360.912	331.45
361.294	324.67
361.676	318.79
362.057	312.92
362.439	316.53
362.821	325.12
363.203	353.82
363.584	343.42
363.966	321.28
364.348	318.79
364.729	321.73
365.111	316.31
365.493	300.71
365.874	316.31
366.256	312.24
366.637	332.58
367.019	305.46
367.4	314.27
367.781	319.92
368.163	312.69
368.544	299.36
368.925	301.84
369.306	314.27
369.688	316.08
370.069	306.81
370.45	310.88
370.831	311.33
371.212	307.27
371.593	305.23
371.974	288.51
372.355	288.51
372.736	315.63
373.117	305.01
373.498	309.07
373.879	287.38
374.26	313.14
374.641	310.88
375.021	318.34
375.402	322.63
375.783	339.13
376.163	316.31
376.544	333.48
376.925	317.21
377.305	309.53
377.686	299.81
378.066	298.23
378.447	295.97
378.827	315.18
379.208	329.64
379.588	319.92
379.968	316.98
380.349	338.23
380.729	333.71
381.109	339.81
381.489	347.72
381.87	331.9
382.25	330.99
382.63	334.38
383.01	325.8
383.39	334.16
383.77	344.78
384.15	324.67
384.53	328.73
384.91	342.97
385.29	334.16
385.67	341.62
386.049	326.47
386.429	347.04
386.809	344.33
387.189	323.54
387.568	343.65
387.948	347.49
388.328	350.2
388.707	350.65
389.087	353.14
389.466	359.47
389.846	355.63
390.225	343.42
390.605	364.44
390.984	370.32
391.363	373.03
391.743	389.98
392.122	357.89
392.501	371.67
392.881	371.9
393.26	375.51
393.639	341.62
394.018	376.19
394.397	370.77
394.776	386.59
395.155	388.17
395.534	397.43
395.913	359.02
396.292	376.42
396.671	378.22
397.05	403.31
397.429	399.69
397.808	387.04
398.186	388.17
398.565	399.69
398.944	395.85
399.323	387.94
399.701	415.06
400.08	401.05
400.458	417.77
400.837	415.29
401.215	401.27
401.594	409.41
401.972	430.43
402.351	406.02
402.729	399.69
403.107	440.82
403.486	438.11
403.864	418.45
404.242	440.6
404.62	460.03
404.999	436.3
405.377	446.92
405.755	453.02
406.133	461.16
406.511	446.25
406.889	465.91
407.267	479.24
407.645	465.68
408.023	467.26
408.401	511.33
408.779	479.92
409.156	501.39
409.534	498.67
409.912	521.72
410.29	501.39
410.667	554.72
411.045	536.64
411.422	535.06
411.8	556.75
412.178	549.29
412.555	571.44
412.933	581.83
413.31	586.35
413.687	583.87
414.065	584.09
414.442	615.96
414.819	622.06
415.197	654.6
415.574	614.15
415.951	642.62
416.328	645.34
416.705	669.74
417.082	659.57
417.46	693.47
417.837	685.56
418.214	706.13
418.591	714.03
418.967	716.29
419.344	732.57
419.721	750.87
420.098	759.46
420.475	767.82
420.852	782.06
421.228	784.32
421.605	781.83
421.982	808.72
422.358	845.1
422.735	837.65
423.111	853.01
423.488	868.16
423.864	884.88
424.241	907.25
424.617	914.48
424.994	924.2
425.37	919
425.746	970.98
426.123	995.16
426.499	992.9
426.875	1008.04
427.251	1004.2
427.627	1053.69
428.003	1041.03
428.379	1079.9
428.756	1065.21
429.132	1083.74
429.507	1105.44
429.883	1117.19
430.259	1113.57
430.635	1148.6
431.011	1161.25
431.387	1175.49
431.763	1163.74
432.138	1220.46
432.514	1204.42
432.89	1259.33
433.265	1280.35
433.641	1258.65
434.016	1326.45
434.392	1358.99
434.767	1369.16
435.143	1389.72
435.518	1393.34
435.894	1440.12
436.269	1470.17
436.644	1474.47
437.02	1496.16
437.395	1507.91
437.77	1579.32
438.145	1589.94
438.52	1627.91
438.895	1629.04
439.271	1639.43
439.646	1724.18
440.021	1721.24
440.395	1748.13
440.77	1729.15
441.145	1768.7
441.52	1795.81
441.895	1821.35
442.27	1904.74
442.645	1850.73
443.019	1896.15
443.394	1890.5
443.769	1915.36
444.143	1917.17
444.518	1976.83
444.892	1984.28
445.267	1998.07
445.641	2031.74
446.016	2035.13
446.39	2062.47
446.764	2062.47
447.139	2084.39
447.513	2104.51
447.887	2123.72
448.262	2119.65
448.636	2133.43
449.01	2147.22
449.384	2216.82
449.758	2189.48
450.132	2226.31
450.506	2284.16
450.88	2264.05
451.254	2269.47
451.628	2310.15
452.002	2351.05
452.376	2349.02
452.75	2343.82
453.123	2414.1
453.497	2449.58
453.871	2476.93
454.244	2490.94
454.618	2526.19
454.992	2529.58
455.365	2569.81
455.739	2638.05
456.112	2655
456.486	2590.14
456.859	2644.38
457.232	2742.91
457.606	2732.96
457.979	2762.79
458.352	2793.08
458.725	2839.63
459.099	2864.49
459.472	2905.39
459.845	2938.38
460.218	2939.74
460.591	2981.09
460.964	2990.81
461.337	3126.85
461.71	3158.94
462.083	3168.89
462.456	3157.81
462.829	3193.74
463.201	3234.42
463.574	3285.04
463.947	3329.33
464.32	3376.34
464.692	3430.35
465.065	3405.94
465.438	3433.74
465.81	3515.77
466.183	3523
466.555	3624.24
466.928	3637.8
467.3	3612.94
467.672	3741.53
468.045	3773.62
468.417	3816.1
468.789	3828.3
469.161	3853.84
469.534	3948.3
469.906	4025.81
470.278	4021.07
470.65	4081.86
471.022	4130.89
471.394	4217.67
471.766	4276.65
472.138	4284.11
472.51	4354.17
472.882	4444.78
473.253	4503.99
473.625	4543.99
473.997	4643.88
474.369	4618.57
474.74	4710.99
475.112	4759.13
475.484	4815.17
475.855	4930.65
476.227	4983.08
476.598	5088.38
476.97	5160.47
477.341	5209.51
477.713	5277.3
478.084	5351.2
478.455	5466
478.827	5475.27
479.198	5622.61
479.569	5654.47
479.94	5797.74
480.311	5816.27
480.682	5959.09
481.053	6063.95
481.424	6107.57
481.795	6162.93
482.166	6287
482.537	6354.34
482.908	6485.41
483.279	6550.72
483.65	6653.77
484.021	6772.18
484.391	6773.31
484.762	6828.9
485.133	6956.81
485.503	6976.92
485.874	7157.71
486.244	7186.18
486.615	7309.79
486.985	7344.37
487.356	7515.89
487.726	7559.05
488.097	7684.93
488.467	7666.85
488.837	7906.16
489.207	7905.26
489.578	8029.32
489.948	8102.32
490.318	8159.49
490.688	8171.01
491.058	8342.99
491.428	8385.02
491.798	8451.91
492.168	8598.35
492.538	8562.64
492.908	8707.27
493.278	8780.04
493.648	8766.03
494.017	8906.14
494.387	8968.51
494.757	9053.02
495.126	9040.14
495.496	9128.95
495.866	9122.18
496.235	9198.56
496.605	9309.97
496.974	9312.23
497.344	9341.83
497.713	9339.34
498.082	9397.65
498.452	9553.35
498.821	9640.58
499.19	9592.22
499.559	9654.36
499.928	9657.75
500.298	9764.19
500.667	9763.74
501.036	9733.01
501.405	9853.68
501.774	9853.23
502.143	9884.42
502.512	9799.9
502.88	10006.45
503.249	9970.06
503.618	9992.44
503.987	9992.44
504.356	10050.06
504.724	10109.27
505.093	10076.27
505.462	10071.98
505.83	10198.08
506.199	10180.9
506.567	10278.98
506.936	10253.9
507.304	10353.33
507.672	10359.66
508.041	10395.59
508.409	10401.69
508.777	10516.26
509.145	10520.1
509.514	10413.67
509.882	10468.35
510.25	10522.14
510.618	10629.71
510.986	10530.73
511.354	10573.89
511.722	10650.04
512.09	10687.56
512.458	10618.86
512.826	10671.06
513.193	10704.05
513.561	10699.08
513.929	10768.69
514.297	10770.04
514.664	10787.44
515.032	10851.4
515.4	10835.12
515.767	10804.84
516.135	10875.8
516.502	10685.75
516.869	10910.15
517.237	10841.9
517.604	10909.25
517.972	10883.71
518.339	10904.28
518.706	10894.11
519.073	10978.17
519.44	10897.04
519.808	10967.78
520.175	10779.31
520.542	10981.56
520.909	10991.96
521.276	10970.26
521.643	10983.37
522.009	10977.72
522.376	11177.94
522.743	11058.4
523.11	11096.13
523.477	11058.62
523.843	11147.43
524.21	11137.72
524.577	11215.23
524.943	11162.57
525.31	11121.44
525.676	11193.99
526.043	11184.95
526.409	11081.22
526.776	11235.11
527.142	11200.54
527.508	11205.06
527.874	11179.75
528.241	11175.23
528.607	11172.52
528.973	11215.23
529.339	11123.93
529.705	11125.06
530.071	11213.42
530.437	11165.51
530.803	11218.17
531.169	11159.41
531.535	11086.19
531.901	11033.76
532.267	11056.81
532.632	11042.12
532.998	11015.91
533.364	10979.53
533.73	10964.16
534.095	11003.71
534.461	10976.36
534.826	10927.55
535.192	10910.15
535.557	10931.17
535.923	10860.43
536.288	10781.11
536.653	10713.77
537.019	10725.3
537.384	10624.96
537.749	10674.45
538.114	10606.2
538.479	10572.76
538.845	10570.95
539.21	10492.99
539.575	10467.22
539.94	10517.17
540.305	10426.77
540.67	10371.41
541.034	10333.89
541.399	10345.87
541.764	10245.76
542.129	10250.06
542.494	10217.97
542.858	10148.82
543.223	10087.8
543.587	10071.98
543.952	10031.08
544.316	9998.08
544.681	9875.38
545.045	9935.49
545.41	9850.74
545.774	9862.72
546.138	9752.22
546.503	9738.2
546.867	9734.36
547.231	9747.24
547.595	9627.92
547.959	9579.34
548.324	9601.26
548.688	9466.8
549.052	9460.25
549.416	9477.65
549.779	9414.82
550.143	9410.98
550.507	9388.16
550.871	9310.19
551.235	9320.81
551.599	9234.94
551.962	9252.79
552.326	9157.43
552.689	9151.33
553.053	9146.13
553.417	9056.87
553.78	9070.88
554.143	8975.29
554.507	9040.14
554.87	9007.6
555.234	9014.83
555.597	8860.71
555.96	8863.88
556.323	8896.87
556.686	8797.66
557.05	8773.26
557.413	8785.01
557.776	8766.7
558.139	8786.59
558.502	8808.29
558.865	8707.72
559.228	8730.77
559.59	8689.42
559.953	8619.36
560.316	8686.03
560.679	8689.42
561.041	8663.66
561.404	8674.28
561.767	8637.89
562.129	8608.06
562.492	8649.65
562.854	8568.29
563.217	8530.55
563.579	8535.3
563.941	8593.15
564.304	8552.47
564.666	8514.28
565.028	8676.09
565.39	8608.74
565.753	8568.97
566.115	8572.59
566.477	8572.13
566.839	8545.02
567.201	8603.32
567.563	8571
567.925	8605.13
568.287	8534.39
568.648	8596.77
569.01	8608.97
569.372	8626.14
569.734	8624.34
570.095	8559.25
570.457	8653.49
570.819	8586.82
571.18	8599.7
571.542	8580.49
571.903	8585.47
572.265	8552.7
572.626	8591.12
572.987	8568.07
573.349	8622.75
573.71	8560.61
574.071	8632.02
574.432	8651.91
574.794	8606.26
575.155	8649.65
575.516	8596.99
575.877	8560.16
576.238	8598.35
576.599	8584.11
576.96	8653.04
577.32	8576.43
577.681	8589.08
578.042	8596.31
578.403	8628.63
578.763	8577.33
579.124	8606.48
579.485	8642.19
579.845	8633.83
580.206	8561.06
580.566	8574.39
580.927	8598.35
581.287	8634.73
581.648	8681.51
582.008	8619.14
582.368	8653.04
582.728	8588.18
583.089	8660.49
583.449	8565.81
583.809	8561.51
584.169	8634.5
584.529	8554.51
584.889	8684.67
585.249	8521.06
585.609	8580.49
585.969	8612.81
586.329	8491.23
586.688	8552.02
587.048	8512.93
587.408	8405.13
587.768	8502.3
588.127	8495.75
588.487	8504.56
588.846	8582.08
589.206	8478.35
589.565	8497.79
589.925	8575.07
590.284	8494.85
590.643	8477.22
591.003	8482.64
591.362	8534.39
591.721	8498.69
592.08	8474.96
592.44	8495.07
592.799	8468.18
593.158	8482.42
593.517	8466.83
593.876	8522.19
594.235	8409.65
594.593	8481.06
594.952	8451.23
595.311	8439.71
595.67	8419.14
596.029	8503.21
596.387	8413.72
596.746	8465.92
597.104	8384.12
597.463	8395.64
597.822	8435.19
598.18	8358.81
598.538	8387.73
598.897	8371.91
599.255	8341.18
599.613	8415.75
599.972	8356.77
600.33	8384.79
600.688	8411.23
601.046	8395.41
601.404	8434.74
601.762	8392.25
602.12	8378.92
602.478	8387.28
602.836	8373.49
603.194	8328.52
603.552	8363.1
603.91	8343.21
604.268	8417.56
604.625	8312.25
604.983	8324.46
605.341	8310.22
605.698	8362.65
606.056	8438.13
606.413	8358.81
606.771	8383.44
607.128	8409.2
607.485	8364.91
607.843	8413.04
608.2	8387.28
608.557	8425.92
608.914	8384.12
609.272	8443.78
609.629	8372.14
609.986	8421.18
610.343	8397.9
610.7	8501.63
611.057	8398.13
611.414	8426.15
611.771	8419.6
612.127	8435.41
612.484	8394.51
612.841	8457.79
613.198	8464.11
613.554	8474.96
613.911	8479.93
614.267	8426.15
614.624	8473.83
614.98	8421.85
615.337	8525.13
615.693	8511.57
616.05	8498.46
616.406	8487.39
616.762	8450.78
617.118	8480.61
617.475	8506.37
617.831	8535.75
618.187	8531.91
618.543	8516.54
618.899	8488.29
619.255	8545.92
619.611	8503.89
619.967	8533.26
620.323	8554.28
620.678	8537.78
621.034	8536.43
621.39	8532.13
621.746	8490.55
622.101	8582.75
622.457	8498.46
622.812	8512.93
623.168	8492.81
623.523	8594.73
623.879	8564
624.234	8496.2
624.589	8559.03
624.945	8538.24
625.3	8538.91
625.655	8540.27
626.01	8534.17
626.365	8568.97
626.72	8508.63
627.075	8442.65
627.43	8518.58
627.785	8512.47
628.14	8419.37
628.495	8444.45
628.85	8483.77
629.205	8458.92
629.559	8484.9
629.914	8473.15
630.269	8413.95
630.623	8472.25
630.978	8451.23
631.332	8413.27
631.687	8443.55
632.041	8419.82
632.396	8430.44
632.75	8321.07
633.104	8447.39
633.459	8360.61
633.813	8304.8
634.167	8353.38
634.521	8349.09
634.875	8341.63
635.229	8286.94
635.583	8292.37
635.937	8286.94
636.291	8310.67
636.645	8285.14
636.999	8253.95
637.352	8206.04
637.706	8240.84
638.06	8252.14
638.413	8234.29
638.767	8216.44
639.121	8237.23
639.474	8135.53
639.828	8192.48
640.181	8229.32
640.534	8175.53
640.888	8185.02
641.241	8129.66
641.594	8137.12
641.947	8191.35
642.301	8127.4
642.654	8135.99
643.007	8141.64
643.36	8158.58
643.713	8116.78
644.066	8110.68
644.419	8077.91
644.771	8077.46
645.124	8030.68
645.477	8001.53
645.83	7933.28
646.182	7904.58
646.535	7903.45
646.888	7825.71
647.24	7860.74
647.593	7831.14
647.945	7859.84
648.298	7807.86
648.65	7830.46
649.002	7839.95
649.355	7862.77
649.707	7862.77
650.059	7843.79
650.411	7953.84
650.763	7964.92
651.115	8051.24
651.467	7998.59
651.819	8040.62
652.171	8102.99
652.523	8034.97
652.875	8002.88
653.227	8000.17
653.578	8061.64
653.93	8008.31
654.282	7935.09
654.633	7955.43
654.985	8018.25
655.337	8029.55
655.688	7992.26
656.039	8040.85
656.391	8022.54
656.742	7992.94
657.094	8013.5
657.445	8056.44
657.796	8123.33
658.147	7963.34
658.498	8042.66
658.849	8047.63
659.2	8077.46
659.551	8008.08
659.902	8077.23
660.253	8022.54
660.604	8103.45
660.955	8051.47
661.306	8047.18
661.656	8021.41
662.007	8074.75
662.358	8112.26
662.708	8091.47
663.059	8078.81
663.409	8065.03
663.76	8099.15
664.11	8076.33
664.461	8130.11
664.811	8158.13
665.161	8152.03
665.511	8122.43
665.862	8082.43
666.212	8084.46
666.562	8113.84
666.912	8110.68
667.262	8089.43
667.612	8092.6
667.962	8123.33
668.312	8185.48
668.662	8158.81
669.011	8074.97
669.361	8141.41
669.711	8091.24
670.06	8081.07
670.41	8060.73
670.76	8091.47
671.109	8079.49
671.459	8053.5
671.808	8010.34
672.157	8095.54
672.507	8035.65
672.856	8041.98
673.205	8013.73
673.554	8062.77
673.904	8031.13
674.253	8043.56
674.602	8046.95
674.951	7916.11
675.3	7877.69
675.649	8022.32
675.998	7994.07
676.346	7963.34
676.695	8055.76
677.044	7939.83
677.393	7974.18
677.741	7962.43
678.09	7941.19
678.438	7924.92
678.787	7938.48
679.135	7921.98
679.484	7859.84
679.832	7883.34
680.181	7839.95
680.529	7874.52
680.877	7819.38
681.225	7820.29
681.573	7831.59
681.922	7829.78
682.27	7761.08
682.618	7810.12
682.966	7771.93
683.314	7737.81
683.661	7680.86
684.009	7706.62
684.357	7678.37
684.705	7667.07
685.053	7690.12
685.4	7675.89
685.748	7625.49
686.095	7581.65
686.443	7603.8
686.79	7570.58
687.138	7526.96
687.485	7607.86
687.832	7464.82
688.18	7505.95
688.527	7496.46
688.874	7426.85
689.221	7408.55
689.568	7360.64
689.915	7421.2
690.262	7366.29
690.609	7367.87
690.956	7306.18
691.303	7361.54
691.65	7304.82
691.997	7263.69
692.344	7258.27
692.69	7151.61
693.037	7272.73
693.383	7117.48
693.73	7149.57
694.077	7096.01
694.423	7124.04
694.769	7052.4
695.116	7046.98
695.462	7027.09
695.808	6997.03
696.155	7023.25
696.501	6905.06
696.847	6963.59
697.193	6937.37
697.539	6842.01
697.885	6837.94
698.231	6831.84
698.577	6799.07
698.923	6781.45
699.269	6762.92
699.614	6742.8
699.96	6695.57
700.306	6695.8
700.651	6645.63
700.997	6588.46
701.342	6629.59
701.688	6563.37
702.033	6528.8
702.379	6567.44
702.724	6549.14
703.069	6520.66
703.415	6430.27
703.76	6451.51
704.105	6417.39
704.45	6449.03
704.795	6373.55
705.14	6370.16
705.485	6383.94
705.83	6348.91
706.175	6340.55
706.52	6267.34
706.865	6274.34
707.209	6232.31
707.554	6222.14
707.899	6180.33
708.243	6199.09
708.588	6200.9
708.932	6131.97
709.277	6136.72
709.621	6135.36
709.966	6056.49
710.31	6136.04
710.654	6056.27
710.998	6032.99
711.342	6061.24
711.687	5995.48
712.031	5995.48
712.375	5988.7
712.719	6019.88
713.063	6000.22
713.407	5971.98
713.75	5976.95
714.094	5933.78
714.438	5907.57
714.782	5892.88
715.125	5884.52
715.469	5852.43
715.812	5856.27
716.156	5903.05
716.499	5838.42
716.843	5849.27
717.186	5813.11
717.53	5790.51
717.873	5873
718.216	5841.58
718.559	5767.91
718.902	5741.47
719.246	5806.1
719.589	5788.25
719.932	5793.9
720.275	5795.03
720.617	5738.31
720.96	5792.32
721.303	5761.13
721.646	5764.75
721.989	5725.65
722.331	5716.84
722.674	5744.41
723.016	5729.95
723.359	5711.87
723.701	5729.04
724.044	5687.01
724.386	5675.03
724.729	5675.26
725.071	5677.07
725.413	5710.29
725.755	5650.4
726.097	5706.9
726.439	5628.26
726.782	5654.7
727.124	5669.38
727.465	5654.02
727.807	5650.63
728.149	5631.65
728.491	5659.67
728.833	5625.54
729.175	5564.75
729.516	5635.71
729.858	5639.56
730.199	5626.9
730.541	5604.53
730.882	5634.58
731.224	5623.74
731.565	5645.88
731.906	5641.59
732.248	5632.32
732.589	5602.49
732.93	5619.67
733.271	5630.52
733.612	5665.32
733.953	5648.37
734.294	5619.44
734.635	5620.57
734.976	5649.5
735.317	5678.42
735.658	5684.07
735.999	5660.12
736.339	5595.04
736.68	5637.75
737.021	5632.32
737.361	5620.57
737.702	5716.16
738.042	5654.92
738.383	5682.94
738.723	5745.32
739.063	5694.92
739.404	5755.94
739.744	5712.32
740.084	5750.74
740.424	5776.27
740.764	5752.09
741.104	5802.71
741.444	5785.31
741.784	5729.27
742.124	5793.68
742.464	5817.4
742.804	5828.25
743.143	5884.75
743.483	5906.89
743.823	5897.4
744.162	5910.51
744.502	5970.62
744.841	5974.24
745.181	6018.08
745.52	6079.32
745.86	6089.26
746.199	6126.1
746.538	6140.11
746.877	6163.61
747.216	6235.7
747.556	6261.23
747.895	6259.2
748.234	6317.05
748.573	6396.6
748.911	6410.16
749.25	6502.13
749.589	6579.19
749.928	6628.91
750.267	6693.99
750.605	6738.51
750.944	6791.62
751.283	6871.61
751.621	7024.83
751.96	6972.4
752.298	7082.68
752.636	7187.99
752.975	7314.31
753.313	7384.37
753.651	7518.83
753.989	7595.89
754.327	7717.47
754.666	7732.38
755.004	7884.92
755.342	8061.41
755.679	8154.74
756.017	8310.45
756.355	8471.57
756.693	8512.93
757.031	8677.67
757.368	8847.61
757.706	8922.86
758.044	9104.55
758.381	9268.84
758.719	9443.3
759.056	9627.02
759.394	9709.96
759.731	9863.17
760.068	10037.18
760.405	10230.39
760.743	10357.4
761.08	10541.12
761.417	10676.71
761.754	10792.41
762.091	11060.2
762.428	11215.23
762.765	11312.63
763.102	11552.85
763.438	11665.84
763.775	11889.11
764.112	12031.93
764.449	12208.65
764.785	12428.08
765.122	12518.02
765.458	12596.89
765.795	12847.5
766.131	13024.45
766.467	13167.04
766.804	13335.17
767.14	13468.05
767.476	13657.2
767.812	13715.5
768.148	13915.27
768.485	13981.93
768.821	14034.14
769.157	14271.87
769.492	14356.84
769.828	14567.91
770.164	14583.95
770.5	14719.99
770.836	14822.59
771.171	14966.99
771.507	15132.64
771.842	15111.85
772.178	15297.83
772.513	15320.43
772.849	15412.86
773.184	15512.29
773.519	15625.96
773.855	15635.45
774.19	15770.36
774.525	15850.13
774.86	15992.05
775.195	15979.85
775.53	16093.29
775.865	16068.89
776.2	16067.3
776.535	15998.6
776.87	16279.95
777.205	16229.11
777.539	16362.66
777.874	16476.11
778.209	16360.4
778.543	16508.2
778.878	16467.74
779.212	16563.56
779.547	16549.55
779.881	16605.37
780.215	16707.29
780.55	16696.21
780.884	16591.13
781.218	16679.04
781.552	16792.71
781.886	16805.82
782.22	16648.53
782.554	16756.32
782.888	16673.39
783.222	16670.23
783.556	16633.39
783.889	16613.5
784.223	16612.83
784.557	16596.56
784.89	16713.39
785.224	16606.05
785.557	16557.46
785.891	16627.29
786.224	16583.22
786.558	16639.27
786.891	16488.31
787.224	16517.69
787.557	16507.97
787.891	16528.53
788.224	16552.49
788.557	16579.15
788.89	16634.75
789.223	16604.69
789.556	16515.88
789.888	16467.97
790.221	16405.37
790.554	16372.38
790.887	16446.5
791.219	16417.35
791.552	16284.25
791.884	16270.01
792.217	16326.73
792.549	16281.08
792.882	16252.38
793.214	16122.67
793.546	16283.57
793.879	16169
794.211	16154.31
794.543	16146.4
794.875	16089.68
795.207	16142.78
795.539	16061.88
795.871	16072.05
796.203	15988.66
796.535	15894.88
796.867	15818.27
797.198	15853.98
797.53	15779.85
797.862	15828.44
798.193	15919.28
798.525	15720.87
798.856	15758.61
799.188	15644.04
799.519	15536.47
799.85	15576.47
800.182	15538.96
800.513	15576.24
800.844	15409.02
801.175	15603.81
801.506	15533.08
801.837	15490.37
802.168	15357.49
802.499	15344.84
802.83	15285.86
803.161	15258.74
803.491	15304.39
803.822	15287.44
804.153	15200.66
804.483	15120.89
804.814	15047.44
805.145	15056.93
805.475	15039.76
805.805	15084.05
806.136	14998.18
806.466	15011.06
806.796	15043.15
807.126	14875.02
807.457	14849.93
807.787	14884.51
808.117	14842.25
808.447	14700.79
808.777	14789.82
809.107	14681.58
809.436	14659.43
809.766	14725.64
810.096	14653.78
810.426	14558.42
810.755	14647
811.085	14556.61
811.414	14519.1
811.744	14440.68
812.073	14386.44
812.403	14378.76
812.732	14284.53
813.061	14401.81
813.39	14277.52
813.719	14261.02
814.049	14296.28
814.378	14243.4
814.707	14130.41
815.036	14245.43
815.365	14106.9
815.693	14052.44
816.022	14088.82
816.351	14074.81
816.68	14058.99
817.008	14002.73
817.337	13979
817.665	13869.62
817.994	13965.21
818.322	13914.14
818.651	13873.91
818.979	13809.06
819.307	13824.88
819.636	13867.81
819.964	13768.38
820.292	13844.54
820.62	13818.78
820.948	13791.66
821.276	13677.99
821.604	13738.1
821.932	13777.65
822.259	13786.01
822.587	13727.93
822.915	13769.28
823.243	13747.14
823.57	13668.27
823.898	13716.4
824.225	13681.6
824.553	13699
824.88	13723.41
825.207	13777.19
825.535	13717.76
825.862	13791.43
826.189	13716.4
826.516	13762.05
826.843	13814.48
827.17	13829.62
827.497	13790.08
827.824	13771.09
828.151	13768.83
828.478	13752.11
828.805	13836.18
829.131	13775.84
829.458	13750.98
829.785	13662.62
830.111	13702.39
830.438	13857.19
830.764	13853.12
831.09	13817.42
831.417	13664.65
831.743	13785.78
832.069	13805.44
832.395	13683.41
832.722	13736.74
833.048	13679.34
833.374	13717.31
833.7	13732.45
834.026	13668.72
834.351	13683.41
834.677	13652
835.003	13640.25
835.329	13654.49
835.654	13666.01
835.98	13509.63
836.306	13581.27
836.631	13626.01
836.956	13566.13
837.282	13612
837.607	13576.52
837.932	13513.92
838.258	13494.94
838.583	13477.99
838.908	13336.98
839.233	13469.18
839.558	13424.44
839.883	13391.44
840.208	13287.72
840.533	13391.67
840.858	13281.16
841.182	13329.97
841.507	13309.86
841.832	13179.7
842.156	13209.98
842.481	13252.91
842.805	13172.01
843.13	13158.45
843.454	13118.23
843.778	13127.04
844.103	13033.71
844.427	13063.54
844.751	12979.7
845.075	12967.95
845.399	12899.93
845.723	12871
846.047	12922.75
846.371	12772.93
846.695	12857.67
847.019	12737
847.343	12719.82
847.666	12572.03
847.99	12568.19
848.313	12519.15
848.637	12468.75
848.96	12412.94
849.284	12382.65
849.607	12298.36
849.931	12303.79
850.254	12205.71
850.577	12212.49
850.9	12079.39
851.223	12067.86
851.546	12060.63
851.869	11928.66
852.192	11927.53
852.515	11830.58
852.838	11819.05
853.161	11803.46
853.483	11808.88
853.806	11791.48
854.129	11700.41
854.451	11645.5
854.774	11514.65
855.096	11482.34
855.419	11545.39
855.741	11500.87
856.063	11390.59
856.385	11380.87
856.708	11318.5
857.03	11338.61
857.352	11269.46
857.674	11257.49
857.996	11213.42
858.318	11154.44
858.64	11206.87
858.961	11171.84
859.283	11077.83
859.605	11059.07
859.926	11062.92
860.248	11012.3
860.57	10994.89
860.891	11012.07
861.212	10915.8
861.534	10892.98
861.855	10925.52
862.176	10908.34
862.498	10912.41
862.819	10891.17
863.14	10797.39
863.461	10784.28
863.782	10757.39
864.103	10810.04
864.424	10758.29
864.745	10739.99
865.065	10694.79
865.386	10662.47
865.707	10654.56
866.027	10658.63
866.348	10554.45
866.668	10670.38
866.989	10623.83
867.309	10492.76
867.63	10598.97
867.95	10570.72
868.27	10489.37
868.59	10556.26
868.91	10504.74
869.23	10495.7
869.55	10412.31
869.87	10530.27
870.19	10446.43
870.51	10496.6
870.83	10391.52
871.15	10379.32
871.469	10357.4
871.789	10358.3
872.109	10334.12
872.428	10363.5
872.748	10329.6
873.067	10293.44
873.386	10288.47
873.706	10279.43
874.025	10151.53
874.344	10196.95
874.663	10198.08
874.982	10149.94
875.301	10148.59
875.62	10097.07
875.939	10177.29
876.258	10077.86
876.577	10096.16
876.896	10130.96
877.214	10085.09
877.533	10059.55
877.852	9951.31
878.17	10052.77
878.489	9957.63
878.807	10004.41
879.125	9970.29
879.444	9993.11
879.762	9983.17
880.08	9926.9
880.398	9880.8
880.716	9867.69
881.034	9837.86
881.352	9843.51
881.67	9836.05
881.988	9752.67
882.306	9734.36
882.624	9799.67
882.941	9686.68
883.259	9709.28
883.577	9695.95
883.894	9653.69
884.212	9628.15
884.529	9590.64
884.846	9628.38
885.164	9562.39
885.481	9575.5
885.798	9598.1
886.115	9497.31
886.432	9461.15
886.75	9488.04
887.067	9536.85
887.383	9402.39
887.7	9448.49
888.017	9399.46
888.334	9348.16
888.651	9350.19
888.967	9305.22
889.284	9319.68
889.6	9246.92
889.917	9240.82
890.233	9174.15
890.55	9175.06
890.866	9162.17
891.182	9154.26
891.498	9139.12
891.815	9101.16
892.131	9031.78
892.447	9016.42
892.763	9002.63
893.079	8933.48
893.395	8894.61
893.71	8867.72
894.026	8883.99
894.342	8862.07
894.657	8840.15
894.973	8764.9
895.289	8729.19
895.604	8750.21
895.92	8632.7
896.235	8623.88
896.55	8662.98
896.865	8623.21
897.181	8633.83
897.496	8584.56
897.811	8524
898.126	8472.47
898.441	8489.42
898.756	8468.41
899.071	8382.99
899.386	8432.48
899.7	8366.72
900.015	8280.62
900.33	8193.39
900.644	8255.31
900.959	8214.18
901.273	8191.35
901.588	8196.78
901.902	8125.14
902.216	8129.43
902.531	8073.84
902.845	8081.75
903.159	8061.19
903.473	7996.1
903.787	7941.87
904.101	7878.59
904.415	7859.84
904.729	7859.84
905.042	7818.93
905.356	7790.23
905.67	7798.59
905.984	7700.97
906.297	7739.84
906.611	7706.85
906.924	7610.35
907.237	7626.4
907.551	7540.75
907.864	7578.94
908.177	7572.39
908.491	7547.53
908.804	7506.17
909.117	7463.69
909.43	7352.05
909.743	7371.49
910.056	7403.58
910.368	7291.04
910.681	7265.5
910.994	7299.62
911.307	7244.26
911.619	7161.55
911.932	7167.65
912.244	7104.83
912.557	7099.18
912.869	7056.02
913.181	7042.23
913.494	7041.1
913.806	7026.86
914.118	6904.61
914.43	6918.39
914.742	6908
915.054	6869.58
915.366	6816.02
915.678	6830.48
915.99	6791.84
916.302	6747.1
916.613	6706.19
916.925	6694.44
917.236	6668.23
917.548	6639.98
917.859	6660.09
918.171	6615.57
918.482	6604.05
918.794	6533.99
919.105	6546.88
919.416	6486.54
919.727	6439.99
920.038	6430.72
920.349	6415.35
920.66	6396.82
920.971	6362.47
921.282	6352.08
921.593	6326.99
921.903	6267.11
922.214	6217.39
922.525	6240.44
922.835	6198.64
923.146	6170.84
923.456	6185.08
923.767	6163.61
924.077	6131.97
924.387	6111.63
924.697	6030.05
925.008	6061.01
925.318	6046.1
925.628	5953.67
925.938	5943.73
926.248	5926.55
926.558	5917.97
926.867	5869.61
927.177	5900.57
927.487	5862.6
927.796	5803.17
928.106	5790.96
928.416	5753.22
928.725	5798.65
929.034	5695.15
929.344	5721.59
929.653	5712.55
929.962	5668.93
930.271	5661.02
930.581	5627.58
930.89	5612.44
931.199	5520.91
931.508	5539.9
931.817	5518.88
932.125	5516.17
932.434	5506.68
932.743	5402.5
933.051	5438.2
933.36	5413.12
933.669	5345.78
933.977	5360.01
934.286	5345.55
934.594	5324.99
934.902	5337.87
935.21	5312.78
935.519	5261.26
935.827	5242.73
936.135	5219.23
936.443	5162.96
936.751	5141.49
937.059	5153.69
937.367	5114.82
937.674	5135.61
937.982	5118.44
938.29	5037.09
938.597	5100.81
938.905	5016.97
939.213	4997.09
939.52	4975.84
939.827	5021.94
940.135	4951.21
940.442	4917.09
940.749	4892.91
941.056	4916.64
941.363	4858.56
941.67	4829.18
941.977	4764.78
942.284	4803.87
942.591	4827.6
942.898	4755.06
943.205	4751.22
943.511	4739.69
943.818	4731.1
944.125	4683.42
944.431	4704.89
944.738	4651.56
945.044	4630.77
945.35	4567.49
945.657	4533.37
945.963	4533.82
946.269	4528.4
946.575	4559.81
946.881	4475.97
947.187	4534.95
947.493	4509.42
947.799	4449.3
948.105	4474.61
948.41	4389.42
948.716	4403.88
949.022	4364.56
949.327	4355.3
949.633	4321.85
949.938	4290.21
950.244	4322.75
950.549	4261.96
950.854	4274.62
951.16	4225.81
951.465	4192.81
951.77	4159.14
952.075	4227.16
952.38	4176.77
952.685	4174.96
952.99	4121.18
953.294	4129.76
953.599	4109.2
953.904	4075.08
954.209	4038.02
954.513	4042.31
954.818	4010.9
955.122	4016.32
955.426	3988.3
955.731	4013.16
956.035	3948.98
956.339	3975.64
956.643	3970.67
956.948	3926.15
957.252	3868.98
957.556	3861.3
957.86	3887.06
958.163	3872.37
958.467	3837.34
958.771	3791.02
959.075	3832.82
959.378	3815.42
959.682	3779.49
959.985	3747.63
960.289	3731.13
960.592	3722.77
960.896	3728.19
961.199	3686.16
961.502	3708.76
961.805	3645.03
962.108	3635.77
962.411	3587.18
962.714	3591.25
963.017	3640.96
963.32	3592.15
963.623	3575.65
963.926	3596.67
964.228	3531.59
964.531	3510.12
964.833	3515.09
965.136	3485.49
965.438	3446.84
965.741	3460.4
966.043	3432.83
966.345	3440.97
966.648	3404.36
966.95	3354.64
967.252	3373.63
967.554	3356.68
967.856	3361.42
968.158	3320.07
968.46	3306.51
968.761	3294.53
969.063	3301.09
969.365	3302.89
969.666	3275.1
969.968	3228.32
970.269	3232.61
970.571	3273.06
970.872	3233.29
971.174	3200.75
971.475	3158.49
971.776	3156.46
972.077	3175.44
972.378	3152.39
972.679	3141.77
972.98	3135.67
973.281	3060.19
973.582	3082.79
973.883	3079.62
974.183	3023.35
974.484	3064.26
974.785	3024.26
975.085	3053.41
975.386	3020.87
975.686	3053.41
975.986	2986.52
976.287	2966.63
976.587	2986.52
976.887	2967.76
977.187	2902.68
977.487	2904.26
977.787	2902.23
978.087	2873.3
978.387	2870.81
978.687	2871.72
978.987	2833.08
979.286	2865.16
979.586	2834.21
979.885	2834.66
980.185	2801.89
980.484	2799.4
980.784	2759.86
981.083	2765.51
981.382	2761.21
981.682	2749.91
981.981	2750.59
982.28	2733.64
982.579	2709.91
982.878	2709.91
983.177	2685.06
983.475	2697.49
983.774	2658.16
984.073	2690.03
984.372	2634.89
984.67	2613.65
984.969	2599.18
985.267	2618.39
985.566	2580.2
985.864	2574.1
986.162	2563.93
986.461	2565.51
986.759	2558.51
987.057	2494.78
987.355	2492.29
987.653	2510.82
987.951	2498.62
988.249	2482.58
988.547	2446.87
988.844	2444.16
989.142	2443.93
989.44	2424.72
989.737	2405.06
990.035	2408.68
990.332	2430.37
990.63	2398.06
990.927	2424.5
991.224	2356.25
991.521	2345.63
991.819	2348.12
992.116	2343.82
992.413	2346.76
992.71	2302.92
993.006	2336.37
993.303	2300.66
993.6	2287.78
993.897	2310.83
994.193	2276.71
994.49	2267.67
994.787	2242.36
995.083	2239.19
995.379	2229.25
995.676	2203.94
995.972	2184.28
996.268	2194.45
996.565	2170.27
996.861	2165.07
997.157	2151.06
997.453	2141.34
997.749	2138.63
998.044	2142.7
998.34	2071.29
998.636	2115.81
998.932	2118.07
999.227	2096.15
999.523	2089.14
999.818	2054.56
1000.114	2072.87
1000.409	2071.51
1000.704	1996.26
1001	2003.72
1001.295	2011.4
1001.59	1979.09
1001.885	1996.71
1002.18	1982.7
1002.475	1951.74
1002.77	1965.08
1003.065	1926.88
1003.359	1941.35
1003.654	1903.16
1003.949	1913.1
1004.243	1888.47
1004.538	1852.31
1004.832	1860.22
1005.127	1846.43
1005.421	1857.73
1005.715	1855.7
1006.009	1831.75
1006.304	1835.14
1006.598	1820.67
1006.892	1814.12
1007.186	1802.82
1007.48	1791.07
1007.773	1796.49
1008.067	1773.44
1008.361	1741.13
1008.655	1763.72
1008.948	1750.17
1009.242	1721.92
1009.535	1708.13
1009.829	1725.99
1010.122	1701.58
1010.415	1685.53
1010.708	1676.72
1011.001	1679.66
1011.295	1649.15
1011.588	1638.3
1011.881	1636.04
1012.173	1648.7
1012.466	1600.11
1012.759	1623.39
1013.052	1614.58
1013.344	1594.92
1013.637	1613.22
1013.93	1581.58
1014.222	1591.3
1014.514	1553.33
1014.807	1534.58
1015.099	1536.39
1015.391	1534.13
1015.683	1522.38
1015.976	1530.74
1016.268	1506.56
1016.56	1516.73
1016.851	1495.03
1017.143	1455.71
1017.435	1462.26
1017.727	1460
1018.018	1476.05
1018.31	1417.52
1018.602	1449.83
1018.893	1427.46
1019.185	1448.48
1019.476	1384.53
1019.767	1379.1
1020.058	1394.92
1020.35	1393.79
1020.641	1355.37
1020.932	1347.92
1021.223	1334.13
1021.514	1366.45
1021.804	1312.66
1022.095	1326.45
1022.386	1300.91
1022.677	1314.25
1022.967	1307.24
1023.258	1288.94
1023.548	1303.62
1023.839	1295.04
1024.129	1260.24
1024.419	1275.38
1024.709	1258.65
1025	1238.99
1025.29	1215.04
1025.58	1248.03
1025.87	1229.95
1026.16	1218.43
1026.449	1196.51
1026.739	1212.78
1027.029	1180.69
1027.319	1190.41
1027.608	1168.26
1027.898	1176.62
1028.187	1149.28
1028.477	1157.87
1028.766	1145.21
1029.055	1154.93
1029.344	1126
1029.634	1139.11
1029.923	1136.85
1030.212	1111.31
1030.501	1107.02
1030.79	1118.32
1031.078	1096.17
1031.367	1071.09
1031.656	1084.42
1031.945	1052.33
1032.233	1045.33
1032.522	1064.99
1032.81	1049.39
1033.099	1039.9
1033.387	1050.52
1033.675	1004.87
1033.963	1027.02
1034.251	1017.3
1034.54	1022.28
1034.828	990.64
1035.116	974.14
1035.403	982.73
1035.691	1005.33
1035.979	971.88
1036.267	963.97
1036.554	960.58
1036.842	954.03
1037.129	934.59
1037.417	949.28
1037.704	933.01
1037.992	901.15
1038.279	918.32
1038.566	913.35
1038.853	913.35
1039.14	913.35
