Data from hue_90_FLMS001491_3.txt Node
Date: Mon Feb 06 15:24:35 GMT 2017
User: dcchb
Spectrometer: FLMS00149
Trigger mode: 0
Integration Time (sec): 2.000000E-2
Scans to average: 10
Electric dark correction enabled: true
Nonlinearity correction enabled: false
Boxcar width: 0
XAxis mode: Wavelengths
Number of Pixels in Spectrum: 2048
>>>>>Begin Spectral Data<<<<<
341.393	3.76
341.776	3.76
342.16	3.76
342.543	-48.9
342.927	-66.75
343.31	-55.9
343.693	-67.88
344.077	-58.16
344.46	-57.03
344.843	-65.17
345.226	-34.89
345.61	-16.36
345.993	-10.71
346.376	-15
346.759	9.18
347.142	7.6
347.525	35.17
347.908	59.35
348.291	79.24
348.674	71.55
349.057	119.01
349.44	122.85
349.823	170.31
350.206	160.59
350.588	197.88
350.971	201.94
351.354	234.71
351.737	227.03
352.119	249.63
352.502	266.8
352.884	251.21
353.267	282.17
353.65	294.14
354.032	306.12
354.414	306.35
354.797	326.46
355.179	305.9
355.562	323.52
355.944	330.08
356.326	329.62
356.709	326.23
357.091	333.01
357.473	321.49
357.855	333.47
358.238	335.27
358.62	360.36
359.002	355.39
359.384	367.14
359.766	318.78
360.148	329.85
360.53	347.02
360.912	322.84
361.294	331.66
361.676	328.27
362.057	335.73
362.439	329.85
362.821	335.73
363.203	330.3
363.584	324.88
363.966	339.12
364.348	331.88
364.729	332.11
365.111	340.47
365.493	321.26
365.874	322.84
366.256	314.26
366.637	306.12
367.019	306.12
367.4	319.45
367.781	306.8
368.163	322.39
368.544	323.52
368.925	309.51
369.306	305.67
369.688	309.74
370.069	294.14
370.45	306.8
370.831	315.61
371.212	311.32
371.593	317.87
371.974	346.35
372.355	316.29
372.736	309.51
373.117	322.84
373.498	321.94
373.879	311.77
374.26	317.65
374.641	330.53
375.021	322.62
375.402	337.31
375.783	320.81
376.163	333.47
376.544	325.1
376.925	323.3
377.305	326.91
377.686	334.6
378.066	307.7
378.447	317.87
378.827	316.29
379.208	332.34
379.588	330.98
379.968	333.92
380.349	323.3
380.729	326.01
381.109	353.8
381.489	342.28
381.87	361.04
382.25	332.34
382.63	342.05
383.01	347.7
383.39	342.73
383.77	348.38
384.15	340.7
384.53	346.35
384.91	353.58
385.29	337.99
385.67	355.16
386.049	354.03
386.429	350.64
386.809	355.39
387.189	353.35
387.568	368.72
387.948	349.06
388.328	354.48
388.707	364.43
389.087	359.91
389.466	370.75
389.846	372.11
390.225	375.5
390.605	354.26
390.984	360.58
391.363	364.2
391.743	376.18
392.122	366.69
392.501	359.23
392.881	388.83
393.26	360.58
393.639	385.67
394.018	378.21
394.397	378.89
394.776	383.41
395.155	385.89
395.534	372.33
395.913	384.31
396.292	388.83
396.671	366.91
397.05	396.74
397.429	412.79
397.808	394.71
398.186	370.3
398.565	392.67
398.944	405.78
399.323	371.43
399.701	405.1
400.08	381.83
400.458	410.3
400.837	429.06
401.215	413.69
401.594	403.97
401.972	399
402.351	405.33
402.729	417.98
403.107	424.08
403.486	436.74
403.864	412.56
404.242	407.36
404.62	417.08
404.999	431.32
405.377	419.34
405.755	443.52
406.133	421.15
406.511	433.35
406.889	433.35
407.267	450.52
407.645	447.36
408.023	436.51
408.401	458.43
408.779	436.29
409.156	441.26
409.534	453.24
409.912	450.3
410.29	440.13
410.667	469.96
411.045	440.36
411.422	463.18
411.8	439.68
412.178	468.83
412.555	478.77
412.933	477.64
413.31	466.8
413.687	469.06
414.065	476.29
414.442	498.89
414.819	486.91
415.197	506.12
415.574	500.02
415.951	497.76
416.328	499.11
416.705	515.16
417.082	534.59
417.46	528.71
417.837	502.95
418.214	504.08
418.591	513.8
418.967	510.86
419.344	516.74
419.721	517.19
420.098	524.87
420.475	525.33
420.852	540.92
421.228	531.65
421.605	547.25
421.982	551.31
422.358	509.05
422.735	528.04
423.111	545.89
423.488	581.37
423.864	549.05
424.241	563.29
424.617	563.06
424.994	563.97
425.37	566.68
425.746	563.97
426.123	576.4
426.499	577.98
426.875	585.44
427.251	603.74
427.627	603.97
428.003	583.85
428.379	589.05
428.756	596.74
429.132	614.59
429.507	611.65
429.883	609.62
430.259	632.44
430.635	614.81
431.011	634.93
431.387	659.56
431.763	661.37
432.138	646.23
432.514	660.24
432.89	649.84
433.265	670.41
433.641	677.41
434.016	682.61
434.392	669.28
434.767	700.69
435.143	677.86
435.518	705.43
435.894	708.6
436.269	710.86
436.644	729.39
437.02	726.9
437.395	717.86
437.77	737.75
438.145	719.9
438.52	727.13
438.895	713.34
439.271	773.91
439.646	749.05
440.021	764.41
440.395	760.8
440.77	749.73
441.145	789.95
441.52	797.18
441.895	802.83
442.27	806.22
442.645	789.5
443.019	781.36
443.394	814.36
443.769	810.06
444.143	835.15
444.518	829.95
444.892	825.88
445.267	850.51
445.641	827.01
446.016	807.58
446.39	840.12
446.764	831.98
447.139	827.69
447.513	841.93
447.887	861.81
448.262	851.64
448.636	876.05
449.01	897.07
449.384	884.86
449.758	878.99
450.132	893.9
450.506	903.62
450.88	899.1
451.254	933.22
451.628	938.87
452.002	963.05
452.376	939.78
452.75	963.51
453.123	934.81
453.497	960.12
453.871	957.18
454.244	964.41
454.618	985.43
454.992	998.53
455.365	992.43
455.739	998.99
456.112	1044.18
456.486	1031.98
456.859	1038.98
457.232	1039.66
457.606	1061.58
457.979	1093.67
458.352	1091.19
458.725	1100.9
459.099	1103.62
459.472	1135.93
459.845	1167.12
460.218	1146.1
460.591	1165.53
460.964	1159.66
461.337	1167.79
461.71	1202.37
462.083	1224.06
462.456	1212.54
462.829	1234.91
463.201	1279.43
463.574	1248.47
463.947	1248.92
464.32	1331.18
464.692	1325.53
465.065	1336.38
465.438	1353.33
465.81	1376.15
466.183	1414.79
466.555	1431.06
466.928	1438.3
467.3	1436.04
467.672	1452.31
468.045	1521.23
468.417	1516.94
468.789	1539.31
469.161	1544.73
469.534	1589.7
469.906	1620.21
470.278	1605.3
470.65	1631.28
471.022	1715.8
471.394	1723.71
471.766	1720.1
472.138	1779.08
472.51	1809.59
472.882	1900.43
473.253	1901.79
473.625	1922.35
473.997	1961.22
474.369	1950.15
474.74	2013.65
475.112	2064.95
475.484	2096.81
475.855	2166.41
476.227	2209.57
476.598	2276.24
476.97	2305.84
477.341	2377.03
477.713	2444.82
478.084	2436.24
478.455	2540.19
478.827	2584.48
479.198	2680.97
479.569	2697.02
479.94	2772.72
480.311	2825.38
480.682	2926.62
481.053	3019.27
481.424	3125.26
481.795	3157.8
482.166	3269.89
482.537	3299.94
482.908	3427.85
483.279	3483.21
483.65	3579.03
484.021	3706.71
484.391	3756.88
484.762	3817.89
485.133	3927.95
485.503	3992.58
485.874	4153.7
486.244	4219.92
486.615	4370.65
486.985	4441.61
487.356	4613.13
487.726	4651.32
488.097	4811.54
488.467	4861.71
488.837	5025.09
489.207	5102.61
489.578	5259.44
489.948	5305.54
490.318	5469.6
490.688	5544.18
491.058	5683.38
491.428	5821.46
491.798	5910.27
492.168	6099.42
492.538	6151.62
492.908	6290.82
493.278	6444.49
493.648	6529.46
494.017	6587.09
494.387	6682
494.757	6822.33
495.126	6922.9
495.496	7012.39
495.866	7159.28
496.235	7286.05
496.605	7370.79
496.974	7483.33
497.344	7571.02
497.713	7646.49
498.082	7786.38
498.452	7935.75
498.821	7984.11
499.19	8088.52
499.559	8119.02
499.928	8287.38
500.298	8359.92
500.667	8522.18
501.036	8476.75
501.405	8627.94
501.774	8693.25
502.143	8848.04
502.512	8826.35
502.88	8966.69
503.249	9024.08
503.618	9160.58
503.987	9185.21
504.356	9280.12
504.724	9310.63
505.093	9400.57
505.462	9436.96
505.83	9536.61
506.199	9628.14
506.567	9707.91
506.936	9725.08
507.304	9834.68
507.672	9928.24
508.041	9947.45
508.409	10024.06
508.777	10212.3
509.145	10155.35
509.514	10182.92
509.882	10283.94
510.25	10358.51
510.618	10397.16
510.986	10417.49
511.354	10613.42
511.722	10640.09
512.09	10666.75
512.458	10562.35
512.826	10757.37
513.193	10791.04
513.561	10779.07
513.929	10754.21
514.297	10876.01
514.664	11001.21
515.032	10950.36
515.4	11088.66
515.767	11088.44
516.135	11145.61
516.502	11084.6
516.869	11163.46
517.237	11161.88
517.604	11201.43
517.972	11254.31
518.339	11351.93
518.706	11331.37
519.073	11358.26
519.44	11386.96
519.808	11502.44
520.175	11460.86
520.542	11509.44
520.909	11579.72
521.276	11587.18
521.643	11614.53
522.009	11659.95
522.376	11728.19
522.743	11737.91
523.11	11836.67
523.477	11843.67
523.843	11905.36
524.21	11955.99
524.577	12013.38
524.943	12024.23
525.31	12033.72
525.676	12061.52
526.043	12021.52
526.409	12130.67
526.776	12165.47
527.142	12129.54
527.508	12248.63
527.874	12189.43
528.241	12255.64
528.607	12207.28
528.973	12319.82
529.339	12276.65
529.705	12281.63
530.071	12317.78
530.437	12275.52
530.803	12301.74
531.169	12387.61
531.535	12299.25
531.901	12258.58
532.267	12323.88
532.632	12358.91
532.998	12344.68
533.364	12316.65
533.73	12285.69
534.095	12344.68
534.461	12359.82
534.826	12339.7
535.192	12343.77
535.557	12428.74
535.923	12302.19
536.288	12346.94
536.653	12289.76
537.019	12184.45
537.384	12239.14
537.749	12207.5
538.114	12238.69
538.479	12144.68
538.845	12065.59
539.21	12114.4
539.575	12169.54
539.94	12102.65
540.305	12114.62
540.67	12035.08
541.034	12109.43
541.399	12049.09
541.764	12089.77
542.129	12063.1
542.494	12005.48
542.858	11996.44
543.223	11914.86
543.587	11958.02
543.952	11852.48
544.316	11877.8
544.681	11816.1
545.045	11870.79
545.41	11821.07
545.774	11866.95
546.138	11770.68
546.503	11755.76
546.867	11711.47
547.231	11676.22
547.595	11629.67
547.959	11650.46
548.324	11626.73
548.688	11573.85
549.052	11605.26
549.416	11603.45
549.779	11552.83
550.143	11474.87
550.507	11510.12
550.871	11511.93
551.235	11453.4
551.599	11506.28
551.962	11464.92
552.326	11464.7
552.689	11418.15
553.053	11309.45
553.417	11333.4
553.78	11463.57
554.143	11371.37
554.507	11351.03
554.87	11325.95
555.234	11451.14
555.597	11326.85
555.96	11325.04
556.323	11361.88
556.686	11230.35
557.05	11266.74
557.413	11315.32
557.776	11305.38
558.139	11305.83
558.502	11278.26
558.865	11222.67
559.228	11302.67
559.59	11348.32
559.953	11344.93
560.316	11349
560.679	11283.46
561.041	11357.58
561.404	11324.36
561.767	11410.24
562.129	11309.22
562.492	11399.16
562.854	11369.11
563.217	11319.39
563.579	11337.02
563.941	11383.8
564.304	11404.36
564.666	11400.75
565.028	11377.47
565.39	11494.08
565.753	11433.51
566.115	11479.84
566.477	11512.61
566.839	11543.34
567.201	11485.94
567.563	11560.97
567.925	11615.88
568.287	11536.34
568.648	11566.62
569.01	11554.19
569.372	11642.1
569.734	11643.45
570.095	11624.69
570.457	11719.38
570.819	11720.96
571.18	11720.74
571.542	11714.41
571.903	11760.06
572.265	11727.74
572.626	11713.28
572.987	11799.6
573.349	11739.27
573.71	11798.93
574.071	11783.56
574.432	11825.82
574.794	11910.34
575.155	11832.82
575.516	11705.14
575.877	11832.82
576.238	11855.87
576.599	11880.73
576.96	11802.54
577.32	11769.32
577.681	11861.98
578.042	11922.54
578.403	11902.65
578.763	11894.29
579.124	11883.44
579.485	11908.98
579.845	11901.07
580.206	11858.59
580.566	11909.21
580.927	11885.7
581.287	11884.8
581.648	11804.8
582.008	11921.41
582.368	11886.16
582.728	11836.89
583.089	11940.17
583.449	11875.54
583.809	11850
584.169	11837.57
584.529	11872.6
584.889	11900.39
585.249	11845.03
585.609	11745.14
585.969	11794.41
586.329	11852.03
586.688	11833.28
587.048	11741.98
587.408	11808.64
587.768	11798.25
588.127	11799.15
588.487	11765.03
588.846	11811.81
589.206	11697.91
589.565	11804.58
589.925	11759.38
590.284	11687.97
590.643	11758.48
591.003	11708.99
591.362	11746.05
591.721	11737.69
592.08	11650
592.44	11754.63
592.799	11751.92
593.158	11711.25
593.517	11688.87
593.876	11711.25
594.235	11621.76
594.593	11691.59
594.952	11750.34
595.311	11678.03
595.67	11710.79
596.029	11706.27
596.387	11785.37
596.746	11739.04
597.104	11719.16
597.463	11622.21
597.822	11718.25
598.18	11632.83
598.538	11619.72
598.897	11674.18
599.255	11638.03
599.613	11775.65
599.972	11732.94
600.33	11743.56
600.688	11688.65
601.046	11668.31
601.404	11654.75
601.762	11728.19
602.12	11610.23
602.478	11691.59
602.836	11761.87
603.194	11700.85
603.552	11667.86
603.91	11689.1
604.268	11711.25
604.625	11664.24
604.983	11713.96
605.341	11590.8
605.698	11665.37
606.056	11819.94
606.413	11719.83
606.771	11692.72
607.128	11732.49
607.485	11610.68
607.843	11657.24
608.2	11734.75
608.557	11730.68
608.914	11759.38
609.272	11738.36
609.629	11822.88
609.986	11845.48
610.343	11769.55
610.7	11873.95
611.057	11838.7
611.414	11780.85
611.771	11848.87
612.127	11834.41
612.484	11813.62
612.841	11890
613.198	11814.75
613.554	11862.2
613.911	11960.73
614.267	11910.56
614.624	11898.36
614.98	11907.85
615.337	11954.4
615.693	11824.69
616.05	11960.5
616.406	12005.48
616.762	11912.6
617.118	11922.54
617.475	11875.08
617.831	11977
618.187	11938.81
618.543	11998.02
618.899	12025.14
619.255	12043.67
619.611	12018.13
619.967	12078.69
620.323	12165.92
620.678	12035.53
621.034	11994.63
621.39	12008.19
621.746	12010.9
622.101	12038.24
622.457	12025.59
622.812	12030.56
623.168	12109.65
623.523	12007.51
623.879	12069.2
624.234	12038.24
624.589	12021.29
624.945	12083.44
625.3	12127.96
625.655	12126.6
626.01	12168.86
626.365	12081.63
626.72	11962.09
627.075	12031.01
627.43	12043.89
627.785	11991.46
628.14	12065.59
628.495	11993.72
628.85	11960.05
629.205	11988.98
629.559	12056.55
629.914	12000.05
630.269	11972.03
630.623	11947.17
630.978	11964.57
631.332	12004.35
631.687	11960.73
632.041	11946.04
632.396	11899.72
632.75	11877.57
633.104	11941.3
633.459	11875.54
633.813	11777.46
634.167	11826.5
634.521	11878.25
634.875	11862.88
635.229	11761.87
635.583	11855.2
635.937	11720.29
636.291	11776.1
636.645	11754.18
636.999	11662.89
637.352	11715.99
637.706	11710.79
638.06	11814.75
638.413	11695.2
638.767	11662.43
639.121	11689.1
639.474	11621.53
639.828	11676.67
640.181	11710.34
640.534	11651.81
640.888	11520.97
641.241	11601.42
641.594	11586.96
641.947	11640.97
642.301	11573.17
642.654	11549.22
643.007	11550.57
643.36	11541.98
643.713	11471.7
644.066	11525.49
644.419	11562.55
644.771	11369.79
645.124	11321.43
645.477	11336.79
645.83	11232.84
646.182	11146.06
646.535	11143.8
646.888	11207.53
647.24	11095.44
647.593	11181.09
647.945	11128.89
648.298	11158.72
648.65	11048.21
649.002	11097.7
649.355	11094.76
649.707	11150.36
650.059	11147.19
650.411	11195.1
650.763	11278.94
651.115	11451.14
651.467	11360.97
651.819	11363.23
652.171	11449.56
652.523	11370.92
652.875	11302.67
653.227	11266.06
653.578	11345.38
653.93	11329.56
654.282	11324.59
654.633	11312.39
654.985	11310.58
655.337	11335.21
655.688	11311.48
656.039	11312.84
656.391	11313.29
656.742	11345.83
657.094	11316.68
657.445	11335.89
657.796	11304.02
658.147	11312.84
658.498	11309.45
658.849	11289.11
659.2	11298.38
659.551	11281.88
659.902	11355.55
660.253	11275.32
660.604	11303.35
660.955	11272.61
661.306	11360.07
661.656	11288.21
662.007	11337.02
662.358	11294.76
662.708	11327.75
663.059	11286.85
663.409	11248.21
663.76	11338.15
664.11	11289.56
664.461	11393.74
664.811	11380.41
665.161	11264.48
665.511	11369.11
665.862	11377.24
666.212	11357.81
666.562	11406.85
666.912	11375.66
667.262	11343.57
667.612	11454.76
667.962	11375.66
668.312	11295.44
668.662	11415.66
669.011	11290.47
669.361	11269.68
669.711	11388.09
670.06	11363.23
670.41	11348.77
670.76	11273.07
671.109	11279.39
671.459	11314.19
671.808	11339.96
672.157	11245.5
672.507	11233.97
672.856	11229
673.205	11284.14
673.554	11339.5
673.904	11202.33
674.253	11318.04
674.602	11262.44
674.951	11066.29
675.3	11046.63
675.649	11221.54
675.998	11207.3
676.346	11243.46
676.695	11211.37
677.044	11118.49
677.393	11144.25
677.741	11192.62
678.09	11105.39
678.438	11095.22
678.787	11127.31
679.135	11084.82
679.484	10999.17
679.832	11082.34
680.181	11064.03
680.529	11077.14
680.877	11059.96
681.225	10972.73
681.573	11080.98
681.922	10944.49
682.27	10957.37
682.618	10867.2
682.966	10821.78
683.314	10932.51
683.661	10832.4
684.009	10770.25
684.357	10824.04
684.705	10786.52
685.053	10748.11
685.4	10715.11
685.748	10730.71
686.095	10722.8
686.443	10614.33
686.79	10684.38
687.138	10629.69
687.485	10586.3
687.832	10638.05
688.18	10579.98
688.527	10452.07
688.874	10488.45
689.221	10456.59
689.568	10417.27
689.915	10385.86
690.262	10366.42
690.609	10437.15
690.956	10326.2
691.303	10311.28
691.65	10259.31
691.997	10263.83
692.344	10180.44
692.69	10221.79
693.037	10197.84
693.383	10102.25
693.73	10154.9
694.077	10113.77
694.423	10067.45
694.769	10114.68
695.116	10003.04
695.462	9963.95
695.808	9942.93
696.155	9907.68
696.501	9829.94
696.847	9801.01
697.193	9825.42
697.539	9723.73
697.885	9706.78
698.231	9671.75
698.577	9625.2
698.923	9647.35
699.269	9616.39
699.614	9542.94
699.96	9506.11
700.306	9515.82
700.651	9472.89
700.997	9384.75
701.342	9443.06
701.688	9368.93
702.033	9373
702.379	9293.46
702.724	9344.53
703.069	9297.52
703.415	9231.54
703.76	9203.52
704.105	9154.48
704.45	9182.72
704.795	9091.88
705.14	9119.45
705.485	9067.25
705.83	9051.65
706.175	8966.69
706.52	8912.68
706.865	8909.06
707.209	8917.42
707.554	8885.11
707.899	8937.53
708.243	8853.69
708.588	8815.95
708.932	8766.92
709.277	8755.62
709.621	8725.34
709.966	8739.35
710.31	8711.32
710.654	8672
710.998	8673.81
711.342	8677.43
711.687	8693.47
712.031	8598.79
712.375	8551.33
712.719	8570.09
713.063	8544.78
713.407	8548.17
713.75	8547.71
714.094	8506.13
714.438	8528.05
714.782	8530.54
715.125	8417.55
715.469	8478.56
715.812	8447.83
716.156	8385.01
716.499	8378.45
716.843	8389.98
717.186	8382.52
717.53	8398.56
717.873	8371.9
718.216	8401.28
718.559	8310.43
718.902	8257.1
719.246	8334.61
719.589	8221.85
719.932	8208.29
720.275	8182.52
720.617	8216.2
720.96	8192.92
721.303	8219.36
721.646	8205.35
721.989	8152.47
722.331	8209.64
722.674	8218.23
723.016	8161.51
723.359	8150.89
723.701	8179.36
724.044	8118.57
724.386	8139.14
724.729	8166.93
725.071	8114.5
725.413	8118.8
725.755	8089.19
726.097	8161.28
726.439	8027.05
726.782	8048.97
727.124	8184.33
727.465	8059.59
727.807	8065.69
728.149	8048.07
728.491	8040.16
728.833	8011.46
729.175	8021.63
729.516	8029.08
729.858	8006.48
730.199	7955.41
730.541	7967.84
730.882	7961.51
731.224	8030.66
731.565	7966.94
731.906	7955.19
732.248	8010.1
732.589	7965.58
732.93	7933.49
733.271	7943.89
733.612	7959.03
733.953	7971.91
734.294	7985.02
734.635	7948.86
734.976	7938.01
735.317	7875.64
735.658	7941.4
735.999	7996.77
736.339	8015.75
736.68	7997.9
737.021	8006.03
737.361	7908.18
737.702	7953.6
738.042	7940.5
738.383	7962.64
738.723	7980.27
739.063	7958.8
739.404	7994.06
739.744	8029.08
740.084	7957.45
740.424	8069.99
740.764	8006.94
741.104	8035.41
741.444	7977.33
741.784	8019.37
742.124	8080.15
742.464	8098.46
742.804	8017.56
743.143	8101.4
743.483	8128.74
743.823	8047.84
744.162	8148.63
744.502	8181.85
744.841	8126.48
745.181	8201.96
745.52	8192.02
745.86	8274.5
746.199	8273.82
746.538	8295.74
746.877	8420.94
747.216	8333.03
747.556	8357.89
747.895	8417.55
748.234	8437.89
748.573	8500.48
748.911	8571.67
749.25	8607.15
749.589	8611.44
749.928	8664.77
750.267	8728.05
750.605	8827.03
750.944	8841.49
751.283	8879.91
751.621	8935.27
751.96	9050.07
752.298	9137.53
752.636	9218.43
752.975	9237.19
753.313	9300.01
753.651	9440.8
753.989	9418.42
754.327	9608.02
754.666	9599.44
755.004	9750.62
755.342	9895.25
755.679	9947.9
756.017	10044.4
756.355	10215.92
756.693	10235.13
757.031	10455.23
757.368	10490.26
757.706	10590.82
758.044	10696.36
758.381	10852.74
758.719	10905.62
759.056	11165.72
759.394	11196.01
759.731	11299.73
760.068	11466.28
760.405	11515.77
760.743	11719.83
761.08	11877.34
761.417	11976.78
761.754	12158.24
762.091	12170.67
762.428	12417.89
762.765	12492.24
763.102	12742.41
763.438	12837.77
763.775	12789.18
764.112	13133.13
764.449	13223.3
764.785	13322.73
765.122	13412.67
765.458	13402.95
765.795	13630.52
766.131	13766.33
766.467	13933.11
766.804	13932.2
767.14	14105.53
767.476	14234.8
767.812	14298.3
768.148	14466.88
768.485	14510.72
768.821	14567.89
769.157	14684.5
769.492	14804.27
769.828	14947.09
770.164	14929.92
770.5	15021.22
770.836	15257.59
771.171	15107.09
771.507	15371.26
771.842	15297.37
772.178	15381.66
772.513	15514.54
772.849	15419.17
773.184	15603.35
773.519	15717.02
773.855	15701.42
774.19	15684.02
774.525	15777.58
774.86	15892.38
775.195	15939.16
775.53	15912.27
775.865	15954.3
776.2	15967.86
776.535	15903.23
776.87	16080.4
777.205	16028.19
777.539	16028.19
777.874	16133.95
778.209	16026.84
778.543	16215.31
778.878	16162.65
779.212	16122.2
779.547	16175.76
779.881	16264.57
780.215	16137.34
780.55	16293.27
780.884	16215.76
781.218	16299.15
781.552	16279.26
781.886	16118.14
782.22	16319.94
782.554	16267.06
782.888	16120.85
783.222	16152.94
783.556	16107.97
783.889	16194.52
784.223	15990.68
784.557	16054.63
784.89	16135.99
785.224	16027.97
785.557	16032.71
785.891	15999.72
786.224	16040.62
786.558	16087.4
786.891	15942.55
787.224	15925.37
787.557	15909.55
787.891	15830.23
788.224	15978.03
788.557	15916.56
788.89	15827.07
789.223	15874.98
789.556	15700.97
789.888	15800.86
790.221	15745.72
790.554	15642.89
790.887	15694.19
791.219	15616.45
791.552	15621.43
791.884	15599.73
792.217	15623.01
792.549	15501.43
792.882	15541.65
793.214	15516.34
793.546	15455.1
793.879	15336.69
794.211	15326.52
794.543	15366.06
794.875	15322
795.207	15349.12
795.539	15227.99
795.871	15273.19
796.203	15173.98
796.535	15069.12
796.867	15075.45
797.198	15083.13
797.53	15073.19
797.862	14958.17
798.193	15075.45
798.525	14910.03
798.856	14987.54
799.188	14872.52
799.519	14813.54
799.85	14727.21
800.182	14775.57
800.513	14756.82
800.844	14667.55
801.175	14647.21
801.506	14666.87
801.837	14592.3
802.168	14597.05
802.499	14495.58
802.83	14503.94
803.161	14522.25
803.491	14414.9
803.822	14428.46
804.153	14318.18
804.483	14277.73
804.814	14237.51
805.145	14209.71
805.475	14229.37
805.805	14186.89
806.136	14200.45
806.466	14123.61
806.796	14149.6
807.126	13974.46
807.457	14022.6
807.787	14009.49
808.117	13968.59
808.447	13931.53
808.777	13922.04
809.107	13888.36
809.436	13811.76
809.766	13810.85
810.096	13761.81
810.426	13758.2
810.755	13741.47
811.085	13753
811.414	13691.76
811.744	13601.37
812.073	13634.36
812.403	13558.65
812.732	13560.91
813.061	13527.92
813.39	13423.29
813.719	13462.84
814.049	13411.99
814.378	13389.17
814.707	13344.65
815.036	13278.44
815.365	13299.68
815.693	13188.72
816.022	13237.53
816.351	13184.65
816.68	13109.4
817.008	13154.6
817.337	13097.2
817.665	13026.01
817.994	13076.18
818.322	13005.22
818.651	12949.41
818.979	12895.62
819.307	12983.08
819.636	12923.42
819.964	12907.6
820.292	12964.55
820.62	12907.15
820.948	12917.77
821.276	13001.61
821.604	12895.4
821.932	12920.71
822.259	12916.64
822.587	12901.95
822.915	12799.35
823.243	12922.97
823.57	12847.94
823.898	12867.37
824.225	12909.86
824.553	12869.63
824.88	12902.17
825.207	12933.36
825.535	12878.22
825.862	12922.06
826.189	12903.08
826.516	12961.61
826.843	12895.4
827.17	12969.07
827.497	12865.79
827.824	12944.89
828.151	12915.73
828.478	12850.42
828.805	12972.91
829.131	12813.59
829.458	12831.89
829.785	12761.16
830.111	12885.9
830.438	12942.63
830.764	12927.48
831.09	12846.58
831.417	12821.95
831.743	12968.84
832.069	12866.7
832.395	12794.38
832.722	12870.76
833.048	12814.72
833.374	12857.2
833.7	12769.3
834.026	12843.65
834.351	12878.9
834.677	12666.02
835.003	12732.24
835.329	12751.9
835.654	12716.19
835.98	12706.7
836.306	12766.81
836.631	12706.25
836.956	12625.57
837.282	12714.38
837.607	12585.12
837.932	12524.56
838.258	12606.82
838.583	12576.99
838.908	12606.59
839.233	12545.57
839.558	12531.34
839.883	12513.26
840.208	12461.73
840.533	12456.76
840.858	12443.43
841.182	12420.15
841.507	12371.79
841.832	12371.57
842.156	12323.66
842.481	12350.1
842.805	12322.98
843.13	12270.33
843.454	12217.22
843.778	12149.43
844.103	12163.66
844.427	12102.87
844.751	12237.11
845.075	12012.25
845.399	12007.51
845.723	12045.93
846.047	12077.79
846.371	11934.52
846.695	12004.35
847.019	11813.84
847.343	11771.81
847.666	11759.83
847.99	11704.92
848.313	11720.96
848.637	11584.02
848.96	11579.95
849.284	11524.58
849.607	11449.78
849.931	11492.95
850.254	11318.71
850.577	11341.31
850.9	11217.93
851.223	11311.03
851.546	11127.53
851.869	11132.5
852.192	11201.65
852.515	11062
852.838	11012.28
853.161	11042.11
853.483	10965.95
853.806	10930.02
854.129	10933.64
854.451	10908.33
854.774	10797.15
855.096	10770.48
855.419	10801.44
855.741	10695.45
856.063	10627.43
856.385	10632.4
856.708	10585.17
857.03	10577.26
857.352	10457.49
857.674	10555.34
857.996	10487.32
858.318	10364.61
858.64	10464.5
858.961	10463.14
859.283	10295.92
859.605	10344.73
859.926	10328.01
860.248	10290.94
860.57	10241
860.891	10255.69
861.212	10178.4
861.534	10154.22
861.855	10148.12
862.176	10151.74
862.498	10128.46
862.819	10044.62
863.14	10030.84
863.461	10029.71
863.782	9964.62
864.103	10002.59
864.424	9962.37
864.745	9981.8
865.065	9946.09
865.386	9888.02
865.707	9937.06
866.027	9938.19
866.348	9895.02
866.668	9887.34
866.989	9902.25
867.309	9843.05
867.63	9813.44
867.95	9837.62
868.27	9743.61
868.59	9792.88
868.91	9737.74
869.23	9770.28
869.55	9700.23
869.87	9741.35
870.19	9677.4
870.51	9704.97
870.83	9595.37
871.15	9604.18
871.469	9623.84
871.789	9643.28
872.109	9593.56
872.428	9511.08
872.748	9614.35
873.067	9564.86
873.386	9554.92
873.706	9579.55
874.025	9440.57
874.344	9524.41
874.663	9558.99
874.982	9492.32
875.301	9516.73
875.62	9427.01
875.939	9380.69
876.258	9452.55
876.577	9411.42
876.896	9345.43
877.214	9316.73
877.533	9337.07
877.852	9324.64
878.17	9256.4
878.489	9302.27
878.807	9307.47
879.125	9251.65
879.444	9267.47
879.762	9230.63
880.08	9222.27
880.398	9173.69
880.716	9171.43
881.034	9227.02
881.352	9145.89
881.67	9174.36
881.988	9158.54
882.306	9147.02
882.624	9084.65
882.941	8982.96
883.259	9043.07
883.577	9041.03
883.894	8936.4
884.212	9008.94
884.529	8951.09
884.846	8897.99
885.164	8901.38
885.481	8970.3
885.798	8902.96
886.115	8802.4
886.432	8864.09
886.75	8871.32
887.067	8783.19
887.383	8778.44
887.7	8783.64
888.017	8765.33
888.334	8710.19
888.651	8634.72
888.967	8729.18
889.284	8615.28
889.6	8591.78
889.917	8483.31
890.233	8516.98
890.55	8509.07
890.866	8565.79
891.182	8519.47
891.498	8469.52
891.815	8441.95
892.131	8388.17
892.447	8352.24
892.763	8335.29
893.079	8355.18
893.395	8327.15
893.71	8287.83
894.026	8203.54
894.342	8196.76
894.657	8224.11
894.973	8102.75
895.289	8194.73
895.604	8120.38
895.92	8101.62
896.235	8071.34
896.55	8080.83
896.865	8036.99
897.181	8006.03
897.496	7939.37
897.811	7956.77
898.126	7940.95
898.441	7903.44
898.756	7864.79
899.071	7829.31
899.386	7803.1
899.7	7792.93
900.015	7726.04
900.33	7770.56
900.644	7596.33
900.959	7626.38
901.273	7648.98
901.588	7564.69
901.902	7498.25
902.216	7476.78
902.531	7501.64
902.845	7485.37
903.159	7415.54
903.473	7390
903.787	7350.91
904.101	7330.34
904.415	7280.85
904.729	7278.82
905.042	7233.85
905.356	7219.16
905.67	7192.04
905.984	7230.69
906.297	7261.42
906.611	7104.14
906.924	7140.52
907.237	7088.77
907.551	7083.8
907.864	7033.85
908.177	7015.55
908.491	6971.26
908.804	6921.77
909.117	6911.6
909.43	6904.59
909.743	6824.14
910.056	6882.45
910.368	6864.59
910.681	6785.27
910.994	6777.14
911.307	6721.55
911.619	6653.3
911.932	6698.04
912.244	6603.13
912.557	6620.98
912.869	6598.84
913.181	6566.52
913.494	6562
913.806	6521.78
914.118	6561.32
914.43	6453.3
914.742	6482.68
915.054	6421.22
915.366	6372.86
915.678	6354.32
915.99	6304.61
916.302	6285.85
916.613	6282.91
916.925	6268.68
917.236	6242.01
917.548	6245.85
917.859	6226.42
918.171	6209.02
918.482	6112.97
918.794	6092.64
919.105	6102.58
919.416	6025.52
919.727	6059.42
920.038	6047.89
920.349	5996.14
920.66	5945.07
920.971	5967.67
921.282	5932.41
921.593	5881.34
921.903	5825.52
922.214	5826.43
922.525	5854
922.835	5795.7
923.146	5778.29
923.456	5761.35
923.767	5731.74
924.077	5685.87
924.387	5679.99
924.697	5696.49
925.008	5662.82
925.318	5673.66
925.628	5607.68
925.938	5645.42
926.248	5524.29
926.558	5534.23
926.867	5554.35
927.177	5479.77
927.487	5454.91
927.796	5394.58
928.106	5394.35
928.416	5427.8
928.725	5390.96
929.034	5370.62
929.344	5385.99
929.653	5345.09
929.962	5290.17
930.271	5238.87
930.581	5196.61
930.89	5205.65
931.199	5174.69
931.508	5209.5
931.817	5146.22
932.125	5179.67
932.434	5152.32
932.743	5030.29
933.051	5055.6
933.36	5047.01
933.669	5011.31
933.977	5027.13
934.286	4990.07
934.594	4990.97
934.902	4891.76
935.21	4915.72
935.519	4903.06
935.827	4864.87
936.135	4811.99
936.443	4840.01
936.751	4837.08
937.059	4820.58
937.367	4822.39
937.674	4809.96
937.982	4733.12
938.29	4689.96
938.597	4794.37
938.905	4672.56
939.213	4677.76
939.52	4629.4
939.827	4686.8
940.135	4590.75
940.442	4626.46
940.749	4570.87
941.056	4569.51
941.363	4515.28
941.67	4515.95
941.977	4506.92
942.284	4453.13
942.591	4447.26
942.898	4408.39
943.205	4442.74
943.511	4406.58
943.818	4400.48
944.125	4324.1
944.431	4367.03
944.738	4346.92
945.044	4285.68
945.35	4244.32
945.657	4293.36
945.963	4277.54
946.269	4207.94
946.575	4217.21
946.881	4190.99
947.187	4167.04
947.493	4129.52
947.799	4159.13
948.105	4099.47
948.41	4085.68
948.716	4108.73
949.022	4101.05
949.327	4081.39
949.633	4031.67
949.938	4021.28
950.244	4053.37
950.549	4002.07
950.854	3943.77
951.16	4011.56
951.465	3916.2
951.77	3922.3
952.075	3921.62
952.38	3869.19
952.685	3873.49
952.99	3819.02
953.294	3860.6
953.599	3809.98
953.904	3805.01
954.209	3794.39
954.513	3770.66
954.818	3762.98
955.122	3789.42
955.426	3724.56
955.731	3712.81
956.035	3692.93
956.339	3677.56
956.643	3681.17
956.948	3657.9
957.252	3632.36
957.556	3665.81
957.86	3598.92
958.163	3594.17
958.467	3568.18
958.771	3554.4
959.075	3583.78
959.378	3532.25
959.682	3520.5
959.985	3517.79
960.289	3488.19
960.592	3489.77
960.896	3449.77
961.199	3432.37
961.502	3453.16
961.805	3409.32
962.108	3398.47
962.411	3396.66
962.714	3323.67
963.017	3350.11
963.32	3339.26
963.623	3312.37
963.926	3294.52
964.228	3288.64
964.531	3269.43
964.833	3311.47
965.136	3231.69
965.438	3241.86
965.741	3233.5
966.043	3207.97
966.345	3193.73
966.648	3186.5
966.95	3197.12
967.252	3173.84
967.554	3128.42
967.856	3122.09
968.158	3073.05
968.46	3106.27
968.761	3100.17
969.063	3122.32
969.365	3071.47
969.666	3050.46
969.968	3028.76
970.269	2993.51
970.571	3043.23
970.872	2998.93
971.174	2979.05
971.475	2974.75
971.776	2991.25
972.077	2946.05
972.378	2947.18
972.679	2966.62
972.98	2916.45
973.281	2936.56
973.582	2896.34
973.883	2864.7
974.183	2864.92
974.484	2855.21
974.785	2863.79
975.085	2852.5
975.386	2855.43
975.686	2795.55
975.986	2812.27
976.287	2763.01
976.587	2767.53
976.887	2783.57
977.187	2739.96
977.487	2727.3
977.787	2701.09
978.087	2696.34
978.387	2712.39
978.687	2697.92
978.987	2697.47
979.286	2657.47
979.586	2674.65
979.885	2623.58
980.185	2629.9
980.484	2624.93
980.784	2615.44
981.083	2588.1
981.382	2570.92
981.682	2568.44
981.981	2572.05
982.28	2570.47
982.579	2548.32
982.878	2542.22
983.177	2542
983.475	2522.33
983.774	2456.57
984.073	2480.53
984.372	2445.5
984.67	2447.76
984.969	2464.26
985.267	2466.07
985.566	2436.46
985.864	2412.51
986.162	2412.96
986.461	2372.73
986.759	2402.79
987.057	2379.29
987.355	2361.66
987.653	2353.3
987.951	2373.64
988.249	2325.96
988.547	2343.36
988.844	2333.64
989.142	2271.04
989.44	2297.93
989.737	2267.65
990.035	2261.1
990.332	2256.13
990.63	2249.12
990.927	2252.29
991.224	2230.82
991.521	2205.28
991.819	2205.06
992.116	2220.65
992.413	2191.04
992.71	2167.09
993.006	2170.48
993.303	2151.27
993.6	2158.05
993.897	2139.97
994.193	2126.86
994.49	2126.41
994.787	2124.83
995.083	2090.03
995.379	2094.78
995.676	2068.56
995.972	2086.19
996.268	2065.62
996.565	2064.72
996.861	2026.08
997.157	2039.41
997.453	2056.81
997.749	2009.13
998.044	2029.47
998.34	1982.69
998.636	1992.18
998.932	1965.97
999.227	1987.43
999.523	1955.8
999.818	1963.03
1000.114	1929.58
1000.409	1934.33
1000.704	1884.84
1001	1894.33
1001.295	1871.96
1001.59	1893.65
1001.885	1873.54
1002.18	1846.65
1002.475	1872.41
1002.77	1829.47
1003.065	1824.05
1003.359	1844.16
1003.654	1810.26
1003.949	1778.4
1004.243	1802.81
1004.538	1783.6
1004.832	1788.57
1005.127	1788.79
1005.421	1763.48
1005.715	1758.51
1006.009	1719.64
1006.304	1744.5
1006.598	1685.07
1006.892	1702.92
1007.186	1700.89
1007.48	1699.53
1007.773	1702.24
1008.067	1687.55
1008.361	1659.31
1008.655	1677.39
1008.948	1629.02
1009.242	1638.74
1009.535	1624.96
1009.829	1609.82
1010.122	1612.08
1010.415	1576.6
1010.708	1585.86
1011.001	1619.08
1011.295	1537.5
1011.588	1568.01
1011.881	1556.03
1012.173	1579.53
1012.466	1542.25
1012.759	1495.7
1013.052	1491.4
1013.344	1526.88
1013.637	1508.12
1013.93	1493.89
1014.222	1508.58
1014.514	1473.77
1014.807	1446.88
1015.099	1431.06
1015.391	1463.38
1015.683	1458.86
1015.976	1450.95
1016.268	1429.93
1016.56	1447.33
1016.851	1400.78
1017.143	1432.87
1017.435	1404.17
1017.727	1391.97
1018.018	1378.86
1018.31	1397.39
1018.602	1346.55
1018.893	1330.73
1019.185	1306.55
1019.476	1320.78
1019.767	1315.36
1020.058	1295.25
1020.35	1317.39
1020.641	1305.19
1020.932	1307.23
1021.223	1276.04
1021.514	1303.38
1021.804	1258.41
1022.095	1267.23
1022.386	1249.37
1022.677	1255.25
1022.967	1229.26
1023.258	1229.49
1023.548	1233.78
1023.839	1171.86
1024.129	1210.28
1024.419	1207.12
1024.709	1183.84
1025	1149.72
1025.29	1170.96
1025.58	1173.44
1025.87	1166.21
1026.16	1161.24
1026.449	1149.94
1026.739	1126.21
1027.029	1152.88
1027.319	1115.82
1027.608	1122.15
1027.898	1118.76
1028.187	1085.31
1028.477	1107.68
1028.766	1092.77
1029.055	1079.43
1029.344	1082.6
1029.634	1083.5
1029.923	1081.02
1030.212	1062.26
1030.501	1039.44
1030.79	1022.49
1031.078	1057.51
1031.367	1031.98
1031.656	1017.06
1031.945	1033.79
1032.233	1015.93
1032.522	1001.92
1032.81	1017.06
1033.099	994.24
1033.387	974.35
1033.675	990.17
1033.963	992.66
1034.251	946.33
1034.54	987.46
1034.828	979.1
1035.116	940
1035.403	942.94
1035.691	966.67
1035.979	945.43
1036.267	952.21
1036.554	897.29
1036.842	908.37
1037.129	886.67
1037.417	882.15
1037.704	916.05
1037.992	918.08
1038.279	886.22
1038.566	883.51
1038.853	883.51
1039.14	883.51
