Data from hue_40_FLMS001491_28.txt Node
Date: Mon Feb 06 15:07:40 GMT 2017
User: dcchb
Spectrometer: FLMS00149
Trigger mode: 0
Integration Time (sec): 2.000000E-2
Scans to average: 10
Electric dark correction enabled: true
Nonlinearity correction enabled: false
Boxcar width: 0
XAxis mode: Wavelengths
Number of Pixels in Spectrum: 2048
>>>>>Begin Spectral Data<<<<<
341.393	-9.08
341.776	-9.08
342.16	-9.08
342.543	-71.23
342.927	-72.81
343.31	-50.21
343.693	-78.23
344.077	-64
344.46	-56.99
344.843	-46.59
345.226	-44.56
345.61	-41.62
345.993	-27.16
346.376	5.38
346.759	18.04
347.142	44.48
347.525	33.4
347.908	58.49
348.291	50.35
348.674	94.19
349.057	105.04
349.44	118.15
349.823	135.55
350.206	143
350.588	205.6
350.971	214.87
351.354	229.33
351.737	233.62
352.119	248.76
352.502	253.74
352.884	255.32
353.267	276.56
353.65	299.61
354.032	306.84
354.414	301.87
354.797	311.59
355.179	329.44
355.562	325.15
355.944	324.02
356.326	313.85
356.709	324.92
357.091	337.8
357.473	340.74
357.855	331.7
358.238	349.1
358.62	345.26
359.002	331.47
359.384	359.5
359.766	349.33
360.148	342.1
360.53	361.08
360.912	347.52
361.294	352.04
361.676	318.82
362.057	345.49
362.439	343.45
362.821	325.37
363.203	304.81
363.584	323.56
363.966	329.67
364.348	325.6
364.729	313.4
365.111	311.59
365.493	325.15
365.874	309.33
366.256	305.49
366.637	319.05
367.019	319.95
367.4	327.86
367.781	324.47
368.163	328.99
368.544	316.11
368.925	326.95
369.306	314.07
369.688	324.92
370.069	320.63
370.45	303.45
370.831	303.23
371.212	308.88
371.593	301.87
371.974	320.4
372.355	325.6
372.736	317.69
373.117	342.32
373.498	327.18
373.879	331.25
374.26	339.38
374.641	326.95
375.021	323.34
375.402	331.02
375.783	307.07
376.163	334.86
376.544	320.4
376.925	327.63
377.305	321.53
377.686	307.75
378.066	334.19
378.447	317.24
378.827	335.09
379.208	346.16
379.588	352.49
379.968	348.65
380.349	357.01
380.729	343.45
381.109	345.26
381.489	338.71
381.87	330.57
382.25	342.1
382.63	324.69
383.01	326.5
383.39	340.06
383.77	350.91
384.15	336.22
384.53	331.93
384.91	355.88
385.29	364.92
385.67	369.89
386.049	355.65
386.429	355.88
386.809	368.54
387.189	363.11
387.568	360.85
387.948	343
388.328	364.69
388.707	365.6
389.087	366.95
389.466	359.5
389.846	369.89
390.225	362.66
390.605	352.04
390.984	388.2
391.363	371.02
391.743	353.62
392.122	394.52
392.501	373.51
392.881	381.42
393.26	371.47
393.639	369.44
394.018	376.44
394.397	387.52
394.776	366.05
395.155	375.99
395.534	373.96
395.913	372.38
396.292	394.75
396.671	378.48
397.05	386.16
397.429	380.51
397.808	370.34
398.186	406.95
398.565	399.27
398.944	389.78
399.323	402.43
399.701	419.61
400.08	410.12
400.458	400.85
400.837	408.31
401.215	424.58
401.594	410.79
401.972	402.66
402.351	418.03
402.729	429.55
403.107	413.73
403.486	421.19
403.864	417.12
404.242	417.12
404.62	402.43
404.999	422.55
405.377	432.71
405.755	433.17
406.133	419.38
406.511	442.43
406.889	458.48
407.267	441.98
407.645	436.1
408.023	430.68
408.401	422.09
408.779	458.93
409.156	435.65
409.534	442.88
409.912	463.22
410.29	441.3
410.667	452.15
411.045	468.42
411.422	463.45
411.8	454.18
412.178	472.04
412.555	486.05
412.933	492.83
413.31	499.38
413.687	497.35
414.065	478.14
414.442	485.82
414.819	477.46
415.197	498.48
415.574	482.66
415.951	507.06
416.328	530.79
416.705	507.51
417.082	515.42
417.46	507.51
417.837	521.07
418.214	517.23
418.591	509.55
418.967	534.86
419.344	509.1
419.721	533.73
420.098	540.73
420.475	549.1
420.852	525.14
421.228	522.2
421.605	530.79
421.982	554.07
422.358	571.47
422.735	581.19
423.111	568.98
423.488	588.42
423.864	598.36
424.241	562.43
424.617	585.48
424.994	578.47
425.37	571.02
425.746	602.65
426.123	583.45
426.499	614.18
426.875	591.35
427.251	589.09
427.627	620.96
428.003	623.44
428.379	615.99
428.756	618.92
429.132	619.15
429.507	629.55
429.883	620.28
430.259	630
430.635	626.83
431.011	651.01
431.387	644.91
431.763	639.26
432.138	662.99
432.514	695.31
432.89	687.62
433.265	692.82
433.641	676.55
434.016	700.96
434.392	710
434.767	717.45
435.143	722.2
435.518	725.14
435.894	706.83
436.269	710.9
436.644	737.79
437.02	743.67
437.395	720.62
437.77	766.49
438.145	765.59
438.52	774.17
438.895	772.37
439.271	757
439.646	771.46
440.021	778.47
440.395	790.22
440.77	777.56
441.145	786.38
441.52	792.25
441.895	787.96
442.27	819.6
442.645	821.18
443.019	803.33
443.394	826.6
443.769	819.6
444.143	844
444.518	855.08
444.892	815.76
445.267	832.25
445.641	851.23
446.016	862.08
446.39	847.17
446.764	857.11
447.139	865.02
447.513	868.18
447.887	879.03
448.262	874.74
448.636	886.94
449.01	910.89
449.384	926.71
449.758	901.4
450.132	923.32
450.506	917.67
450.88	934.17
451.254	921.97
451.628	934.4
452.002	945.24
452.376	945.47
452.75	957.22
453.123	958.35
453.497	968.07
453.871	983.66
454.244	1009.87
454.618	1017.33
454.992	994.28
455.365	999.48
455.739	1034.73
456.112	1036.54
456.486	1035.64
456.859	1060.04
457.232	1036.99
457.606	1078.8
457.979	1105.47
458.352	1140.04
458.725	1113.15
459.099	1122.87
459.472	1166.03
459.845	1138.91
460.218	1194.28
460.591	1168.74
460.964	1189.76
461.337	1203.99
461.71	1219.36
462.083	1257.1
462.456	1239.25
462.829	1232.92
463.201	1266.59
463.574	1309.3
463.947	1312.69
464.32	1325.35
464.692	1332.35
465.065	1330.54
465.438	1376.19
465.81	1385.46
466.183	1409.86
466.555	1421.39
466.928	1423.2
467.3	1460.03
467.672	1488.05
468.045	1487.83
468.417	1515.85
468.789	1522.63
469.161	1558.11
469.534	1571.67
469.906	1597.66
470.278	1642.4
470.65	1645.56
471.022	1703.87
471.394	1718.33
471.766	1727.37
472.138	1789.97
472.51	1830.87
472.882	1841.72
473.253	1850.08
473.625	1880.36
473.997	1928.27
474.369	1980.24
474.74	2012.56
475.112	2058.89
475.484	2076.74
475.855	2147.92
476.227	2187.47
476.598	2261.82
476.97	2303.4
477.341	2332.33
477.713	2377.97
478.084	2417.97
478.455	2535.71
478.827	2549.27
479.198	2660.23
479.569	2673.79
479.94	2729.38
480.311	2782.48
480.682	2862.71
481.053	3016.38
481.424	3053.89
481.795	3096.6
482.166	3154
482.537	3269.02
482.908	3354.67
483.279	3405.07
483.65	3510.6
484.021	3573.42
484.391	3694.1
484.762	3762.8
485.133	3906.75
485.503	3882.12
485.874	4045.95
486.244	4108.55
486.615	4272.84
486.985	4285.49
487.356	4431.93
487.726	4528.88
488.097	4676.22
488.467	4734.97
488.837	4866.72
489.207	4946.72
489.578	5043.67
489.948	5152.14
490.318	5260.61
490.688	5402.75
491.058	5558.23
491.428	5609.08
491.798	5767.26
492.168	5885.45
492.538	5985.56
492.908	6142.62
493.278	6168.61
493.648	6277.31
494.017	6355.72
494.387	6534.7
494.757	6591.2
495.126	6690.4
495.496	6809.5
495.866	6839.78
496.235	7015.14
496.605	7138.98
496.974	7172.88
497.344	7291.74
497.713	7411.29
498.082	7464.39
498.452	7645.18
498.821	7667.33
499.19	7757.27
499.559	7975.34
499.928	8009.46
500.298	8111.83
500.667	8210.82
501.036	8249.91
501.405	8383.24
501.774	8470.47
502.143	8572.61
502.512	8584.14
502.88	8738.94
503.249	8825.26
503.618	8920.4
503.987	8934.41
504.356	9085.14
504.724	9117.91
505.093	9212.82
505.462	9332.59
505.83	9372.14
506.199	9438.81
506.567	9631.34
506.936	9681.28
507.304	9772.36
507.672	9844.9
508.041	9949.98
508.409	9992.69
508.777	10054.38
509.145	10228.84
509.514	10242.17
509.882	10347.48
510.25	10323.75
510.618	10493.02
510.986	10590.41
511.354	10579.11
511.722	10724.65
512.09	10775.04
512.458	10788.83
512.826	10929.84
513.193	11068.14
513.561	11035.83
513.929	11159.21
514.297	11177.06
514.664	11322.15
515.032	11407.57
515.4	11465.42
515.767	11578.18
516.135	11636.49
516.502	11566.89
516.869	11733.21
517.237	11832.41
517.604	11837.39
517.972	11977.72
518.339	12071.05
518.706	12069.24
519.073	12124.16
519.44	12249.13
519.808	12350.14
520.175	12391.72
520.542	12532.96
520.909	12673.97
521.276	12589.68
521.643	12716.23
522.009	12787.19
522.376	12898.6
522.743	12992.38
523.11	13014.53
523.477	13217.24
523.843	13355.31
524.21	13330.45
524.577	13437.12
524.943	13486.61
525.31	13616.55
525.676	13666.26
526.043	13740.16
526.409	13948.97
526.776	14061.51
527.142	14097.67
527.508	14113.03
527.874	14264.22
528.241	14289.3
528.607	14389.18
528.973	14561.61
529.339	14501.72
529.705	14669.63
530.071	14691.77
530.437	14830.53
530.803	14946.91
531.169	14990.3
531.535	14964.99
531.901	15064.42
532.267	15021.48
532.632	15258.09
532.998	15262.61
533.364	15387.58
533.73	15455.82
534.095	15531.75
534.461	15551.41
534.826	15729.04
535.192	15693.1
535.557	15853.55
535.923	15834.8
536.288	15889.71
536.653	16076.82
537.019	16040.21
537.384	16125.18
537.749	16190.49
538.114	16254.9
538.479	16291.28
538.845	16359.53
539.21	16426.42
539.575	16482.01
539.94	16512.52
540.305	16537.38
540.67	16670.93
541.034	16726.52
541.399	16788.22
541.764	16848.1
542.129	16907.31
542.494	16918.61
542.858	16919.96
543.223	17066.18
543.587	17183.01
543.952	17213.06
544.316	17223.01
544.681	17369.44
545.045	17336.22
545.41	17432.27
545.774	17474.07
546.138	17571.02
546.503	17636.33
546.867	17669.1
547.231	17816.66
547.595	17808.3
547.959	17825.7
548.324	17874.52
548.688	17920.84
549.052	18040.84
549.416	18087.62
549.779	18121.52
550.143	18115.64
550.507	18250.55
550.871	18319.48
551.235	18276.77
551.599	18492.13
551.962	18511.34
552.326	18521.5
552.689	18786.58
553.053	18586.81
553.417	18707.71
553.78	18950.65
554.143	18916.3
554.507	18976.86
554.87	19030.64
555.234	19195.16
555.597	19094.82
555.96	19237.19
556.323	19296.63
556.686	19320.13
557.05	19591.31
557.413	19410.29
557.776	19523.96
558.139	19604.19
558.502	19671.53
558.865	19682.15
559.228	19935.93
559.59	19912.88
559.953	19962.6
560.316	20212.53
560.679	20128.92
561.041	20322.14
561.404	20346.09
561.767	20497.5
562.129	20434.22
562.492	20630.15
562.854	20560.32
563.217	20556.25
563.579	20676.02
563.941	20783.59
564.304	20961.89
564.666	21120.53
565.028	21060.87
565.39	21142.68
565.753	21307.87
566.115	21360.98
566.477	21382.45
566.839	21480.97
567.201	21557.36
567.563	21536.57
567.925	21780.85
568.287	21797.8
568.648	21894.52
569.01	22007.74
569.372	22125.25
569.734	22064.69
570.095	22294.06
570.457	22317.79
570.819	22372.25
571.18	22347.84
571.542	22551.46
571.903	22577.44
572.265	22718.23
572.626	22714.61
572.987	22795.97
573.349	22932.69
573.71	23017.88
574.071	23200.25
574.432	23275.96
574.794	23417.65
575.155	23374.48
575.516	23587.13
575.877	23672.78
576.238	23763.85
576.599	23838.88
576.96	23930.18
577.32	24010.85
577.681	24256.27
578.042	24291.52
578.403	24433.21
578.763	24554.11
579.124	24675.92
579.485	24829.59
579.845	25046.53
580.206	25029.13
580.566	25156.36
580.927	25318.84
581.287	25569.23
581.648	25620.07
582.008	25814.65
582.368	25899.16
582.728	26173.96
583.089	26240.85
583.449	26459.15
583.809	26565.36
584.169	26814.85
584.529	26822.76
584.889	27111.34
585.249	27231.56
585.609	27306.58
585.969	27682.62
586.329	27842.62
586.688	28070.18
587.048	28048.26
587.408	28340.46
587.768	28483.95
588.127	28692.76
588.487	28734.12
588.846	29063.37
589.206	29130.04
589.565	29306.31
589.925	29715.33
590.284	29740.64
590.643	30057.25
591.003	30220.18
591.362	30551.92
591.721	30557.35
592.08	30762.99
592.44	31063.77
592.799	31176.09
593.158	31272.81
593.517	31533.37
593.876	31706.24
594.235	31749.18
594.593	32024.2
594.952	32496.73
595.311	32327.92
595.67	32602.72
596.029	32922.03
596.387	33179.2
596.746	33384.39
597.104	33432.98
597.463	33513.65
597.822	33861.89
598.18	33902.8
598.538	33927.88
598.897	34270.24
599.255	34251.71
599.613	34759.04
599.972	34867.74
600.33	34936.67
600.688	34909.77
601.046	35279.03
601.404	35558.34
601.762	35626.59
602.12	35843.99
602.478	35984.55
602.836	36224.09
603.194	36043.08
603.552	36351.09
603.91	36310.42
604.268	36530.75
604.625	36631.54
604.983	36853.45
605.341	36823.4
605.698	37097.51
606.056	37225.87
606.413	37314
606.771	37450.95
607.128	37836.7
607.485	37627.44
607.843	37747.67
608.2	38098.62
608.557	38278.5
608.914	38235.79
609.272	38489.57
609.629	38518.27
609.986	38774.08
610.343	38732.95
610.7	39076.44
611.057	38994.41
611.414	38942.21
611.771	39127.52
612.127	39315.53
612.484	39440.05
612.841	39749.19
613.198	39514.62
613.554	39649.54
613.911	39880.49
614.267	39980.6
614.624	39873.71
614.98	40208.84
615.337	40381.04
615.693	40332.23
616.05	40422.17
616.406	40689.28
616.762	40544.88
617.118	40768.15
617.475	40705.1
617.831	40876.17
618.187	41016.96
618.543	41094.02
618.899	41327.91
619.255	41387.8
619.611	41322.71
619.967	41601.8
620.323	41701.23
620.678	41488.81
621.034	41490.62
621.39	41573.78
621.746	41437.74
622.101	42052.19
622.457	41780.1
622.812	41807.45
623.168	41944.62
623.523	42017.16
623.879	42116.82
624.234	41945.07
624.589	42152.3
624.945	42198.4
625.3	42300.31
625.655	42195.46
626.01	42257.6
626.365	42319.52
626.72	42243.59
627.075	42314.55
627.43	42424.15
627.785	42322.01
628.14	42406.3
628.495	42407.66
628.85	42481.55
629.205	42322.46
629.559	42592.74
629.914	42422.57
630.269	42537.82
630.623	42495.56
630.978	42418.73
631.332	42529.23
631.687	42710.92
632.041	42421.44
632.396	42576.01
632.75	42423.93
633.104	42601.78
633.459	42314.55
633.813	42290.82
634.167	42387.32
634.521	42434.77
634.875	42566.07
635.229	42456.47
635.583	42260.32
635.937	42181
636.291	42219.64
636.645	42457.6
636.999	42138.28
637.352	42216.93
637.706	42019.42
638.06	42212.41
638.413	42210.37
638.767	42117.49
639.121	42192.75
639.474	41998.18
639.828	41892.64
640.181	41929.48
640.534	42072.98
640.888	42049.02
641.241	41791.18
641.594	41965.63
641.947	42173.99
642.301	41945.07
642.654	41889.03
643.007	42067.55
643.36	41821.23
643.713	41813.1
644.066	41908.01
644.419	41681.35
644.771	41341.92
645.124	41070.97
645.477	40893.57
645.83	40773.57
646.182	40570.87
646.535	40502.85
646.888	40572.22
647.24	40466.01
647.593	40712.33
647.945	40525.67
648.298	40430.31
648.65	40369.97
649.002	40274.6
649.355	40434.83
649.707	40496.29
650.059	40523.86
650.411	40974.93
650.763	40952.78
651.115	41448.36
651.467	41339.44
651.819	41178.08
652.171	41256.95
652.523	41059.89
652.875	41159.1
653.227	41055.15
653.578	41265.09
653.93	41124.07
654.282	40966.34
654.633	40970.86
654.985	41005.43
655.337	40982.61
655.688	41019.9
656.039	41142.83
656.391	40786.46
656.742	40941.48
657.094	40726.57
657.445	40978.54
657.796	40889.96
658.147	40832.78
658.498	40703.07
658.849	40827.58
659.2	40756.17
659.551	40672.11
659.902	40751.65
660.253	40748.94
660.604	40883.85
660.955	40456.07
661.306	40832.78
661.656	40673.92
662.007	40760.24
662.358	40629.4
662.708	40757.08
663.059	40570.64
663.409	40413.13
663.76	40729.28
664.11	40563.86
664.461	40655.39
664.811	40671.88
665.161	40471.66
665.511	40551.21
665.862	40574.71
666.212	40762.95
666.562	40670.07
666.912	40602.05
667.262	40632.34
667.612	40652.45
667.962	40616.29
668.312	40577.2
668.662	40754.14
669.011	40679.79
669.361	40391.44
669.711	40583.75
670.06	40502.4
670.41	40515.5
670.76	40334.94
671.109	40531.1
671.459	40453.36
671.808	40353.25
672.157	40400.7
672.507	40097.43
672.856	40238
673.205	40186.25
673.554	40250.65
673.904	40243.19
674.253	40345.11
674.602	40349.41
674.951	39666.71
675.3	39425.81
675.649	40105.34
675.998	40067.6
676.346	40111.9
676.695	40259.92
677.044	39871
677.393	40027.38
677.741	40132.46
678.09	40006.82
678.438	39839.14
678.787	40025.35
679.135	39940.38
679.484	39616.77
679.832	39868.97
680.181	39733.83
680.529	39691.57
680.877	39684.56
681.225	39696.54
681.573	39878.01
681.922	39519.14
682.27	39394.85
682.618	39443.67
682.966	39250.9
683.314	39472.37
683.661	39277.57
684.009	39182.2
684.357	39236.44
684.705	38980.18
685.053	39171.36
685.4	39100.85
685.748	38871.93
686.095	38805.04
686.443	38539.51
686.79	38573.41
687.138	38670.58
687.485	38788.09
687.832	38591.03
688.18	38638.72
688.527	38403.47
688.874	38327.76
689.221	38285.73
689.568	38107.88
689.915	38116.7
690.262	38031.05
690.609	37807.1
690.956	37894.78
691.303	37722.58
691.65	37622.47
691.997	37723.71
692.344	37374.34
692.69	37397.84
693.037	37278.98
693.383	37083.05
693.73	37330.73
694.077	37118.53
694.423	36938.87
694.769	36937.07
695.116	36784.08
695.462	36729.39
695.808	36590.41
696.155	36810.74
696.501	36532.1
696.847	36542.73
697.193	36229.06
697.539	36291.88
697.885	36082.85
698.231	35979.35
698.577	35894.61
698.923	35897.09
699.269	35747.94
699.614	35591.56
699.96	35631.34
700.306	35617.1
700.651	35566.03
700.997	35441.96
701.342	35286.04
701.688	35284.91
702.033	35059.37
702.379	35148.41
702.724	34920.62
703.069	34952.94
703.415	34693.73
703.76	34717.69
704.105	34701.64
704.45	34588.65
704.795	34474.98
705.14	34349.56
705.485	34186.86
705.83	34243.35
706.175	34266.18
706.52	34025.28
706.865	33972.85
707.209	33967.2
707.554	33864.38
707.899	33939.18
708.243	33666.64
708.588	33699.86
708.932	33484.5
709.277	33356.37
709.621	33378.29
709.966	33300.1
710.31	33404.28
710.654	33036.6
710.998	33130.84
711.342	33082.48
711.687	32990.28
712.031	32874.35
712.375	32618.31
712.719	32823.5
713.063	32634.58
713.407	32790.28
713.75	32497.41
714.094	32537.18
714.438	32461.25
714.782	32485.66
715.125	32296.51
715.469	32389.39
715.812	32160.47
716.156	32099.9
716.499	31955.28
716.843	32012.9
717.186	31849.29
717.53	32114.37
717.873	31959.8
718.216	31829.63
718.559	31729.07
718.902	31649.29
719.246	31557.32
719.589	31481.84
719.932	31360.49
720.275	31322.07
720.617	31333.15
720.96	31347.16
721.303	31395.97
721.646	31322.3
721.989	31158.01
722.331	31224.45
722.674	31104.9
723.016	31078.46
723.359	31061.06
723.701	31031.01
724.044	30814.74
724.386	30618.59
724.729	30896.09
725.071	30697.91
725.413	30671.47
725.755	30685.93
726.097	30567.52
726.439	30457.01
726.782	30308.54
727.124	30568.65
727.465	30343.11
727.807	30346.5
728.149	30301.53
728.491	30204.14
728.833	30099.28
729.175	30041.2
729.516	30007.08
729.858	29999.39
730.199	30029.9
730.541	29923.24
730.882	29828.55
731.224	29874.2
731.565	29736.8
731.906	29759.18
732.248	29747.65
732.589	29627.43
732.93	29570.71
733.271	29658.84
733.612	29504.94
733.953	29517.6
734.294	29344.72
734.635	29346.76
734.976	29401.22
735.317	29240.77
735.658	29328.9
735.999	29210.71
736.339	29188.79
736.68	29422.91
737.021	29179.76
737.361	28978.63
737.702	29109.7
738.042	29041.23
738.383	28885.07
738.723	29050.72
739.063	28889.37
739.404	28923.72
739.744	28735.02
740.084	28811.4
740.424	28763.5
740.764	28675.59
741.104	28672.65
741.444	28515.14
741.784	28407.8
742.124	28515.37
742.464	28351.08
742.804	28379.78
743.143	28307.24
743.483	28336.16
743.823	28293.45
744.162	28244.64
744.502	28266.56
744.841	28041.71
745.181	28148.82
745.52	28066.34
745.86	28125.77
746.199	28026.57
746.538	28017.3
746.877	27961.48
747.216	28025.66
747.556	27869.28
747.895	27855.27
748.234	27876.06
748.573	27729.85
748.911	27679.91
749.25	27655.5
749.589	27512.91
749.928	27645.78
750.267	27622.28
750.605	27509.06
750.944	27439.69
751.283	27374.61
751.621	27376.19
751.96	27230.43
752.298	27380.93
752.636	27224.1
752.975	27098.45
753.313	27177.55
753.651	27121.73
753.989	26905.24
754.327	26976.2
754.666	26769.88
755.004	26947.27
755.342	26933.03
755.679	26760.38
756.017	26597
756.355	26653.27
756.693	26495.08
757.031	26493.72
757.368	26441.97
757.706	26363.33
758.044	26262.54
758.381	26359.49
758.719	26135.32
759.056	26212.6
759.394	25988.88
759.731	25959.05
760.068	25854.42
760.405	25842.44
760.743	25832.05
761.08	25656.46
761.417	25576.01
761.754	25425.5
762.091	25546.18
762.428	25455.11
762.765	25232.51
763.102	25361.55
763.438	25139.18
763.775	24991.39
764.112	25095.34
764.449	25091.05
764.785	24905.29
765.122	24862.81
765.458	24663.94
765.795	24757.5
766.131	24643.6
766.467	24564.51
766.804	24437.28
767.14	24350.96
767.476	24333.1
767.812	24332.88
768.148	24268.25
768.485	24044.98
768.821	24034.81
769.157	23930.85
769.492	23924.75
769.828	23969.72
770.164	23594.37
770.5	23661.03
770.836	23606.12
771.171	23350.98
771.507	23410.87
771.842	23257.88
772.178	23268.27
772.513	23167.94
772.849	23061.95
773.184	22956.19
773.519	22902.86
773.855	22875.29
774.19	22746.25
774.525	22655.86
774.86	22607.27
775.195	22534.96
775.53	22443.21
775.865	22351.69
776.2	22216.55
776.535	22070.11
776.87	22036.44
777.205	22054.07
777.539	21981.53
777.874	21979.72
778.209	21809.33
778.543	21807.52
778.878	21619.5
779.212	21641.2
779.547	21458.83
779.881	21497.92
780.215	21459.51
780.55	21312.17
780.884	21224.03
781.218	21160.53
781.552	21164.37
781.886	21063.58
782.22	20917.37
782.554	20876.02
782.888	20708.34
783.222	20677.61
783.556	20518.51
783.889	20549.7
784.223	20323.27
784.557	20319.65
784.89	20304.96
785.224	20145.19
785.557	20027.68
785.891	20018.87
786.224	19992.2
786.558	19818.19
786.891	19741.13
787.224	19708.82
787.557	19648.71
787.891	19592.89
788.224	19621.59
788.557	19479.45
788.89	19353.57
789.223	19417.75
789.556	19233.35
789.888	19188.61
790.221	19114.03
790.554	19046.46
790.887	19024.09
791.219	18809.86
791.552	18995.16
791.884	18817.54
792.217	18661.84
792.549	18671.11
792.882	18560.37
793.214	18461.85
793.546	18431.79
793.879	18403.77
794.211	18193.15
794.543	18453.71
794.875	18204.68
795.207	18386.37
795.539	18164.9
795.871	18121.74
796.203	18003.78
796.535	18009.43
796.867	17964.01
797.198	17937.11
797.53	17877.45
797.862	17641.75
798.193	17690.79
798.525	17537.58
798.856	17606.05
799.188	17483.79
799.519	17437.47
799.85	17362.21
800.182	17329.22
800.513	17229.11
800.844	17180.3
801.175	17297.81
801.506	17164.03
801.837	17117.02
802.168	17048.77
802.499	16975.56
802.83	16817.14
803.161	16862.57
803.491	16876.58
803.822	16761.55
804.153	16781.89
804.483	16549.35
804.814	16528.34
805.145	16542.8
805.475	16540.99
805.805	16440.2
806.136	16409.47
806.466	16456.47
806.796	16378.51
807.126	16189.59
807.457	16195.24
807.787	16217.84
808.117	16121.79
808.447	16130.83
808.777	16055.58
809.107	16002.25
809.436	15888.35
809.766	16027.11
810.096	15903.04
810.426	15855.36
810.755	15826.89
811.085	15758.64
811.414	15769.71
811.744	15586.44
812.073	15640.22
812.403	15560.23
812.732	15505.31
813.061	15420.57
813.39	15268.71
813.719	15346.45
814.049	15373.34
814.378	15402.26
814.707	15285.88
815.036	15287.01
815.365	15202.72
815.693	15089.05
816.022	15145.77
816.351	15156.4
816.68	14976.96
817.008	15144.87
817.337	14804.31
817.665	14833.47
817.994	14868.72
818.322	14784.88
818.651	14700.36
818.979	14730.42
819.307	14699.23
819.636	14728.38
819.964	14657.88
820.292	14713.24
820.62	14605.22
820.948	14634.38
821.276	14593.7
821.604	14591.44
821.932	14611.55
822.259	14634.6
822.587	14481.61
822.915	14530.42
823.243	14575.62
823.57	14431.44
823.898	14478.22
824.225	14438.9
824.553	14481.38
824.88	14490.65
825.207	14505.79
825.535	14508.95
825.862	14525.9
826.189	14447.94
826.516	14518.67
826.843	14498.11
827.17	14486.58
827.497	14581.27
827.824	14530.42
828.151	14452.91
828.478	14514.15
828.805	14530.42
829.131	14433.25
829.458	14447.71
829.785	14436.64
830.111	14402.52
830.438	14476.64
830.764	14475.96
831.09	14493.36
831.417	14338.34
831.743	14456.75
832.069	14453.59
832.395	14454.72
832.722	14414.04
833.048	14389.18
833.374	14337.66
833.7	14312.58
834.026	14420.14
834.351	14375.85
834.677	14441.84
835.003	14363.2
835.329	14286.36
835.654	14254.72
835.98	14164.1
836.306	14197.78
836.631	14182.18
836.956	14200.04
837.282	14198.91
837.607	14162.3
837.932	14141.51
838.258	14114.84
838.583	14084.56
838.908	13997.1
839.233	14046.14
839.558	13944.22
839.883	13918.91
840.208	13876.88
840.533	13971.12
840.858	13869.65
841.182	13906.26
841.507	13826.26
841.832	13791.69
842.156	13775.41
842.481	13750.1
842.805	13695.87
843.13	13605.25
843.454	13618.13
843.778	13576.78
844.103	13571.8
844.427	13518.47
844.751	13540.39
845.075	13467.85
845.399	13411.13
845.723	13314.86
846.047	13355.31
846.371	13332.49
846.695	13279.38
847.019	13156.22
847.343	13186.73
847.666	13104.47
847.99	12993.97
848.313	13039.16
848.637	12887.98
848.96	12905.61
849.284	12851.82
849.607	12734.31
849.931	12689.79
850.254	12633.98
850.577	12556.01
850.9	12528.67
851.223	12362.12
851.546	12550.36
851.869	12351.05
852.192	12442.12
852.515	12359.18
852.838	12283.93
853.161	12349.92
853.483	12202.12
853.806	12107.89
854.129	12135.91
854.451	12062.24
854.774	11981.56
855.096	11926.88
855.419	11902.7
855.741	11939.98
856.063	11794.68
856.385	11815.01
856.708	11772.76
857.03	11746.32
857.352	11771.85
857.674	11685.3
857.996	11636.49
858.318	11629.71
858.64	11606.21
858.961	11545.87
859.283	11499.32
859.605	11422.93
859.926	11433.1
860.248	11360.56
860.57	11352.65
860.891	11397.85
861.212	11335.93
861.534	11282.6
861.855	11257.74
862.176	11258.19
862.498	11229.94
862.819	11275.59
863.14	11147.01
863.461	11148.14
863.782	11054.13
864.103	11097.97
864.424	11107.24
864.745	11071.98
865.065	11046.45
865.386	10979.78
865.707	10991.31
866.027	10930.52
866.348	10980.69
866.668	10957.64
866.989	10966.22
867.309	10862.95
867.63	10918.77
867.95	10857.98
868.27	10775.49
868.59	10795.15
868.91	10807.36
869.23	10837.64
869.55	10748.38
869.87	10822.5
870.19	10773.01
870.51	10767.58
870.83	10716.96
871.15	10694.14
871.469	10672.45
871.789	10677.87
872.109	10650.53
872.428	10577.76
872.748	10620.92
873.067	10721.26
873.386	10597.65
873.706	10648.94
874.025	10499.57
874.344	10496.63
874.663	10544.77
874.982	10441.04
875.301	10487.14
875.62	10434.71
875.939	10406.92
876.258	10410.31
876.577	10397.65
876.896	10327.14
877.214	10327.82
877.533	10368.27
877.852	10276.98
878.17	10311.78
878.489	10238.56
878.807	10283.76
879.125	10254.83
879.444	10256.19
879.762	10233.36
880.08	10178.9
880.398	10213.93
880.716	10155.62
881.034	10113.82
881.352	10145
881.67	10095.29
881.988	10098
882.306	10134.83
882.624	10100.71
882.941	9959.7
883.259	9990.66
883.577	10027.72
883.894	9879.7
884.212	9850.77
884.529	9929.19
884.846	9868.62
885.164	9890.55
885.481	9841.51
885.798	9816.2
886.115	9734.39
886.432	9751.11
886.75	9758.57
887.067	9709.98
887.383	9705.69
887.7	9707.27
888.017	9599.25
888.334	9642.42
888.651	9592.25
888.967	9549.54
889.284	9464.34
889.6	9471.8
889.917	9481.74
890.233	9544.57
890.55	9502.31
890.866	9442.42
891.182	9321.52
891.498	9354.74
891.815	9355.42
892.131	9246.72
892.447	9309.54
892.763	9222.31
893.079	9263.22
893.395	9255.76
893.71	9175.99
894.026	9131.02
894.342	9171.92
894.657	9072.04
894.973	9067.29
895.289	9026.16
895.604	8992.49
895.92	8968.76
896.235	8925.37
896.55	8896.67
896.865	8898.71
897.181	8888.99
897.496	8813.06
897.811	8759.05
898.126	8746.17
898.441	8776.45
898.756	8681.09
899.071	8639.5
899.386	8698.94
899.7	8628.21
900.015	8579.39
900.33	8561.09
900.644	8552.73
900.959	8470.02
901.273	8404.93
901.588	8470.24
901.902	8433.18
902.216	8368.33
902.531	8284.94
902.845	8300.3
903.159	8227.54
903.473	8282.68
903.787	8168.33
904.101	8163.13
904.415	8188.67
904.729	8162.45
905.042	8024.61
905.356	8077.94
905.67	8005.85
905.984	7997.04
906.297	7966.08
906.611	7897.15
906.924	7895.8
907.237	7900.31
907.551	7873.2
907.864	7830.71
908.177	7836.36
908.491	7735.57
908.804	7695.35
909.117	7732.18
909.43	7648.12
909.743	7602.02
910.056	7576.48
910.368	7499.87
910.681	7485.41
910.994	7528.12
911.307	7444.28
911.619	7448.35
911.932	7423.27
912.244	7343.95
912.557	7329.26
912.869	7351.63
913.181	7273.66
913.494	7222.14
913.806	7199.77
914.118	7179.66
914.43	7149.15
914.742	7152.31
915.054	7073.44
915.366	7084.29
915.678	7051.75
915.99	7032.32
916.302	7005.2
916.613	6954.13
916.925	6942.37
917.236	6911.41
917.548	6887.91
917.859	6924.97
918.171	6801.13
918.482	6802.49
918.794	6800.23
919.105	6764.53
919.416	6729.5
919.727	6696.05
920.038	6613.8
920.349	6630.74
920.66	6574.25
920.971	6565.21
921.282	6539.22
921.593	6489.73
921.903	6466.23
922.214	6457.87
922.525	6533.35
922.835	6397.98
923.146	6331.09
923.456	6349.62
923.767	6311.2
924.077	6376.51
924.387	6284.76
924.697	6266.69
925.008	6231.21
925.318	6140.36
925.628	6191.89
925.938	6140.36
926.248	6128.38
926.558	6089.06
926.867	6076.86
927.177	6053.36
927.487	5995.96
927.796	5946.69
928.106	5924.55
928.416	5938.33
928.725	5928.84
929.034	5914.38
929.344	5881.16
929.653	5883.19
929.962	5795.29
930.271	5825.57
930.581	5708.73
930.89	5716.19
931.199	5694.05
931.508	5667.38
931.817	5678.68
932.125	5630.77
932.434	5587.83
932.743	5562.75
933.051	5512.36
933.36	5544.9
933.669	5497.89
933.977	5513.94
934.286	5444.33
934.594	5505.8
934.902	5431.23
935.21	5382.64
935.519	5372.7
935.827	5393.94
936.135	5322.98
936.443	5311
936.751	5293.6
937.059	5255.86
937.367	5194.85
937.674	5216.09
937.982	5207.5
938.29	5139.48
938.597	5146.04
938.905	5157.79
939.213	5082.76
939.52	5077.11
939.827	5052.48
940.135	5100.39
940.442	5013.39
940.749	5009.77
941.056	5028.75
941.363	4968.19
941.67	4954.4
941.977	4922.54
942.284	4886.83
942.591	4848.87
942.898	4835.99
943.205	4854.29
943.511	4840.51
943.818	4806.38
944.125	4731.58
944.431	4736.33
944.738	4706.27
945.044	4735.43
945.35	4666.5
945.657	4676.9
945.963	4638.71
946.269	4604.36
946.575	4639.38
946.881	4616.33
947.187	4557.13
947.493	4533.85
947.799	4582.66
948.105	4529.1
948.41	4536.11
948.716	4481.2
949.022	4429.22
949.327	4423.57
949.633	4361.65
949.938	4370.46
950.244	4400.52
950.549	4341.76
950.854	4380.63
951.16	4287.98
951.465	4279.39
951.77	4298.83
952.075	4272.61
952.38	4165.27
952.685	4231.26
952.99	4173.18
953.294	4196.46
953.599	4176.8
953.904	4145.16
954.209	4139.28
954.513	4121.21
954.818	4125.05
955.122	4080.75
955.426	4063.81
955.731	4049.12
956.035	4044.15
956.339	3993.75
956.643	4009.34
956.948	3988.1
957.252	3955.11
957.556	4005.95
957.86	3897.26
958.163	3942.9
958.467	3923.02
958.771	3889.12
959.075	3872.17
959.378	3826.98
959.682	3820.42
959.985	3771.61
960.289	3767.77
960.592	3753.08
960.896	3726.64
961.199	3734.1
961.502	3765.06
961.805	3705.4
962.108	3692.52
962.411	3668.56
962.714	3658.17
963.017	3629.24
963.32	3647.32
963.623	3624.72
963.926	3592.41
964.228	3562.12
964.531	3588.56
964.833	3532.97
965.136	3499.75
965.438	3476.48
965.741	3516.48
966.043	3482.13
966.345	3445.74
966.648	3445.06
966.95	3487.32
967.252	3406.42
967.554	3405.29
967.856	3395.8
968.158	3391.73
968.46	3355.35
968.761	3369.36
969.063	3355.12
969.365	3336.14
969.666	3325.97
969.968	3298.85
970.269	3284.39
970.571	3269.7
970.872	3227.67
971.174	3247.78
971.475	3236.71
971.776	3257.73
972.077	3203.94
972.378	3179.76
972.679	3151.97
972.98	3162.81
973.281	3170.95
973.582	3135.47
973.883	3113.1
974.183	3124.85
974.484	3074.45
974.785	3070.39
975.085	3096.6
975.386	3079.42
975.686	2996.04
975.986	3019.77
976.287	3042.14
976.587	3012.99
976.887	2988.13
977.187	2993.1
977.487	2971.86
977.787	2925.98
978.087	2911.97
978.387	2942.93
978.687	2900.22
978.987	2932.31
979.286	2863.16
979.586	2836.49
979.885	2851.63
980.185	2847.57
980.484	2847.79
980.784	2809.83
981.083	2786.33
981.382	2773.44
981.682	2797.4
981.981	2728.47
982.28	2762.6
982.579	2721.69
982.878	2747.68
983.177	2692.54
983.475	2708.59
983.774	2666.78
984.073	2702.71
984.372	2647.8
984.67	2652.77
984.969	2656.16
985.267	2623.62
985.566	2650.28
985.864	2601.25
986.162	2631.3
986.461	2587.23
986.759	2580.45
987.057	2537.29
987.355	2584.97
987.653	2539.33
987.951	2549.72
988.249	2520.34
988.547	2462.72
988.844	2488.03
989.142	2497.29
989.44	2468.37
989.737	2471.76
990.035	2421.59
990.332	2453.23
990.63	2401.02
990.927	2430.85
991.224	2389.5
991.521	2373.68
991.819	2373
992.116	2388.82
992.413	2374.36
992.71	2338.43
993.006	2353.12
993.303	2329.84
993.6	2319.44
993.897	2319.9
994.193	2283.29
994.49	2288.94
994.787	2280.58
995.083	2274.93
995.379	2239.22
995.676	2253.91
995.972	2223.4
996.268	2260.69
996.565	2190.41
996.861	2182.73
997.157	2160.13
997.453	2176.4
997.749	2154.48
998.044	2160.13
998.34	2140.47
998.636	2151.54
998.932	2149.28
999.227	2119
999.523	2096.17
999.818	2069.28
1000.114	2047.81
1000.409	2097.3
1000.704	2046.46
1001	2074.25
1001.295	2026.57
1001.59	2034.03
1001.885	2019.79
1002.18	1986.35
1002.475	2001.71
1002.77	1982.5
1003.065	1968.49
1003.359	1948.38
1003.654	1949.96
1003.949	1942.51
1004.243	1929.62
1004.538	1933.92
1004.832	1926.91
1005.127	1896.63
1005.421	1879.23
1005.715	1879.46
1006.009	1847.82
1006.304	1812.79
1006.598	1839.68
1006.892	1856.41
1007.186	1800.81
1007.48	1824.77
1007.773	1836.52
1008.067	1784.09
1008.361	1773.7
1008.655	1764.43
1008.948	1767.37
1009.242	1745.67
1009.535	1735.73
1009.829	1740.48
1010.122	1708.84
1010.415	1714.94
1010.708	1733.02
1011.001	1707.71
1011.295	1729.4
1011.588	1660.48
1011.881	1679.46
1012.173	1653.7
1012.466	1658.22
1012.759	1613.93
1013.052	1647.82
1013.344	1601.72
1013.637	1620.48
1013.93	1613.02
1014.222	1575.96
1014.514	1611.21
1014.807	1587.71
1015.099	1570.31
1015.391	1575.51
1015.683	1542.97
1015.976	1553.14
1016.268	1534.61
1016.56	1516.08
1016.851	1521.27
1017.143	1541.84
1017.435	1492.12
1017.727	1507.71
1018.018	1468.62
1018.31	1449.19
1018.602	1447.38
1018.893	1436.3
1019.185	1425
1019.476	1469.3
1019.767	1438.11
1020.058	1420.71
1020.35	1421.39
1020.641	1375.29
1020.932	1378.23
1021.223	1381.16
1021.514	1371.9
1021.804	1371.22
1022.095	1359.47
1022.386	1329.19
1022.677	1318.12
1022.967	1311.34
1023.258	1342.52
1023.548	1313.82
1023.839	1325.12
1024.129	1294.84
1024.419	1280.38
1024.709	1293.48
1025	1258.91
1025.29	1259.81
1025.58	1278.34
1025.87	1248.96
1026.16	1232.92
1026.449	1216.42
1026.739	1220.72
1027.029	1213.03
1027.319	1213.49
1027.608	1212.58
1027.898	1176.65
1028.187	1193.37
1028.477	1176.42
1028.766	1154.05
1029.055	1153.15
1029.344	1154.5
1029.634	1133.26
1029.923	1130.1
1030.212	1095.75
1030.501	1136.42
1030.79	1092.81
1031.078	1083.32
1031.367	1065.01
1031.656	1107.95
1031.945	1090.78
1032.233	1044
1032.522	1067.73
1032.81	1061.62
1033.099	1057.78
1033.387	1053.49
1033.675	1057.78
1033.963	1038.57
1034.251	1030.66
1034.54	1025.69
1034.828	1018.24
1035.116	1002.42
1035.403	994.73
1035.691	1002.64
1035.979	952.7
1036.267	987.05
1036.554	974.85
1036.842	965.81
1037.129	979.14
1037.417	961.97
1037.704	967.62
1037.992	962.42
1038.279	965.13
1038.566	934.4
1038.853	934.4
1039.14	934.4
