Data from hue_00_FLMS001491_7.txt Node
Date: Mon Feb 06 15:29:12 GMT 2017
User: dcchb
Spectrometer: FLMS00149
Trigger mode: 0
Integration Time (sec): 2.000000E-2
Scans to average: 10
Electric dark correction enabled: true
Nonlinearity correction enabled: false
Boxcar width: 0
XAxis mode: Wavelengths
Number of Pixels in Spectrum: 2048
>>>>>Begin Spectral Data<<<<<
341.393	-15
341.776	-15
342.16	-15
342.543	-62.91
342.927	-58.84
343.31	-69.69
343.693	-52.29
344.077	-77.37
344.46	-52.06
344.843	-49.57
345.226	-32.63
345.61	-32.63
345.993	-21.33
346.376	-20.88
346.759	-10.93
347.142	32.46
347.525	42.85
347.908	71.78
348.291	63.87
348.674	100.93
349.057	107.48
349.44	115.39
349.823	153.36
350.206	144.54
350.588	192
350.971	206.92
351.354	216.63
351.737	228.61
352.119	259.57
352.502	267.93
352.884	257.99
353.267	293.69
353.65	286.46
354.032	283.75
354.414	283.07
354.797	310.42
355.179	325.33
355.562	314.94
355.944	319.91
356.326	334.82
356.709	304.77
357.091	333.69
357.473	348.83
357.855	333.92
358.238	351.54
358.62	326.69
359.002	321.04
359.384	323.3
359.766	345.89
360.148	337.99
360.53	326.46
360.912	326.46
361.294	347.48
361.676	316.07
362.057	347.48
362.439	315.84
362.821	315.16
363.203	318.1
363.584	314.94
363.966	307.48
364.348	341.6
364.729	307.7
365.111	323.3
365.493	311.09
365.874	325.78
366.256	304.77
366.637	290.76
367.019	296.4
367.4	302.51
367.781	306.12
368.163	314.26
368.544	298.44
368.925	322.62
369.306	334.37
369.688	295.5
370.069	293.24
370.45	322.39
370.831	311.77
371.212	313.58
371.593	291.88
371.974	295.5
372.355	308.61
372.736	303.18
373.117	305.44
373.498	313.58
373.879	314.26
374.26	314.03
374.641	327.14
375.021	287.82
375.402	327.14
375.783	322.17
376.163	324.88
376.544	326.46
376.925	313.13
377.305	320.13
377.686	315.16
378.066	304.31
378.447	332.56
378.827	335.5
379.208	329.85
379.588	316.74
379.968	328.27
380.349	320.81
380.729	348.83
381.109	323.07
381.489	334.82
381.87	338.44
382.25	325.56
382.63	327.59
383.01	333.92
383.39	353.13
383.77	344.31
384.15	346.12
384.53	347.93
384.91	354.93
385.29	354.71
385.67	362.17
386.049	370.08
386.429	345.89
386.809	347.25
387.189	361.94
387.568	345.89
387.948	342.05
388.328	351.54
388.707	328.95
389.087	346.12
389.466	355.84
389.846	358.78
390.225	360.58
390.605	350.41
390.984	350.19
391.363	352
391.743	363.3
392.122	351.09
392.501	363.3
392.881	354.03
393.26	348.15
393.639	363.75
394.018	337.31
394.397	367.59
394.776	377.98
395.155	358.32
395.534	387.7
395.913	363.75
396.292	367.14
396.671	363.3
397.05	368.04
397.429	389.96
397.808	374.37
398.186	396.74
398.565	383.18
398.944	387.7
399.323	371.88
399.701	384.54
400.08	391.54
400.458	421.15
400.837	397.19
401.215	404.2
401.594	399.23
401.972	389.96
402.351	379.11
402.729	413.46
403.107	414.14
403.486	410.98
403.864	388.83
404.242	407.36
404.62	395.61
404.999	396.74
405.377	409.17
405.755	397.87
406.133	430.41
406.511	402.39
406.889	442.39
407.267	424.54
407.645	427.02
408.023	426.57
408.401	418.66
408.779	427.47
409.156	430.64
409.534	423.41
409.912	424.08
410.29	443.75
410.667	434.93
411.045	434.93
411.422	448.04
411.8	428.15
412.178	455.27
412.555	440.13
412.933	480.81
413.31	475.61
413.687	469.51
414.065	474.48
414.442	493.24
414.819	457.76
415.197	480.58
415.574	495.72
415.951	468.83
416.328	492.56
416.705	494.37
417.082	486.68
417.46	503.4
417.837	495.5
418.214	493.24
418.591	531.88
418.967	514.93
419.344	497.53
419.721	492.78
420.098	508.83
420.475	512.44
420.852	531.2
421.228	528.49
421.605	531.88
421.982	506.12
422.358	519.22
422.735	517.42
423.111	527.36
423.488	539.79
423.864	548.38
424.241	544.31
424.617	573.69
424.994	544.08
425.37	531.2
425.746	574.36
426.123	575.49
426.499	570.07
426.875	554.02
427.251	565.32
427.627	599.9
428.003	587.24
428.379	589.96
428.756	588.83
429.132	595.15
429.507	607.13
429.883	613.23
430.259	630.63
430.635	624.31
431.011	601.03
431.387	619.11
431.763	623.4
432.138	620.24
432.514	640.58
432.89	640.35
433.265	643.74
433.641	641.25
434.016	671.31
434.392	656.85
434.767	667.92
435.143	664.76
435.518	688.94
435.894	681.48
436.269	689.84
436.644	702.04
437.02	707.02
437.395	712.89
437.77	706.34
438.145	718.09
438.52	721.93
438.895	720.8
439.271	722.16
439.646	736.39
440.021	733.46
440.395	761.7
440.77	735.94
441.145	752.66
441.52	768.26
441.895	766.22
442.27	758.99
442.645	773.23
443.019	761.93
443.394	763.06
443.769	779.1
444.143	770.52
444.518	800.12
444.892	791.31
445.267	794.24
445.641	773.68
446.016	804.19
446.39	801.02
446.764	796.73
447.139	811.65
447.513	811.65
447.887	814.81
448.262	819.78
448.636	834.02
449.01	840.12
449.384	826.33
449.758	834.92
450.132	838.31
450.506	839.67
450.88	855.94
451.254	851.19
451.628	877.18
452.002	880.34
452.376	881.25
452.75	888.03
453.123	922.38
453.497	894.13
453.871	889.61
454.244	907.69
454.618	927.8
454.992	949.49
455.365	932.55
455.739	965.99
456.112	974.8
456.486	993.34
456.859	962.83
457.232	1016.39
457.606	993.56
457.979	1016.39
458.352	1021.36
458.725	1012.09
459.099	1023.84
459.472	1049.61
459.845	1056.61
460.218	1044.86
460.591	1043.73
460.964	1074.69
461.337	1085.08
461.71	1076.72
462.083	1115.59
462.456	1147.23
462.829	1110.62
463.201	1145.87
463.574	1156.04
463.947	1140.45
464.32	1191.3
464.692	1196.95
465.065	1184.97
465.438	1177.29
465.81	1213.67
466.183	1240.33
466.555	1251.41
466.928	1272.65
467.3	1257.06
467.672	1296.38
468.045	1286.44
468.417	1328.02
468.789	1312.88
469.161	1321.91
469.534	1367.11
469.906	1378.86
470.278	1375.92
470.65	1425.19
471.022	1402.82
471.394	1432.19
471.766	1455.92
472.138	1448.01
472.51	1497.05
472.882	1507.45
473.253	1544.06
473.625	1568.24
473.997	1599.87
474.369	1632.19
474.74	1631.06
475.112	1649.36
475.484	1656.37
475.855	1688.23
476.227	1725.29
476.598	1774.78
476.97	1751.51
477.341	1794.9
477.713	1821.11
478.084	1880.54
478.455	1929.58
478.827	1907.44
479.198	1953.31
479.569	1972.97
479.94	2005.29
480.311	2036.47
480.682	2083.7
481.053	2114.66
481.424	2142.91
481.795	2156.92
482.166	2233.75
482.537	2226.75
482.908	2287.76
483.279	2321.44
483.65	2353.98
484.021	2408.21
484.391	2448.21
484.762	2438.27
485.133	2487.53
485.503	2527.31
485.874	2566.4
486.244	2600.75
486.615	2661.09
486.985	2708.54
487.356	2747.41
487.726	2764.59
488.097	2838.48
488.467	2842.33
488.837	2874.87
489.207	2932.72
489.578	2961.42
489.948	3013.17
490.318	3027.86
490.688	3052.26
491.058	3104.24
491.428	3194.86
491.798	3193.73
492.168	3265.59
492.538	3255.2
492.908	3299.49
493.278	3347.85
493.648	3310.56
494.017	3398.02
494.387	3426.49
494.757	3496.32
495.126	3506.49
495.496	3498.35
495.866	3535.64
496.235	3600.95
496.605	3612.48
496.974	3672.14
497.344	3646.6
497.713	3702.19
498.082	3715.52
498.452	3786.71
498.821	3773.38
499.19	3786.26
499.559	3876.2
499.928	3871
500.298	3885.46
500.667	3924.11
501.036	3936.53
501.405	3969.08
501.774	3963.88
502.143	4012.92
502.512	4015.18
502.88	4042.75
503.249	4137.21
503.618	4101.5
503.987	4161.61
504.356	4170.2
504.724	4144.67
505.093	4191.44
505.462	4200.03
505.83	4268.96
506.199	4243.87
506.567	4305.79
506.936	4293.36
507.304	4329.52
507.672	4382.17
508.041	4396.18
508.409	4381.49
508.777	4436.41
509.145	4443.19
509.514	4432.79
509.882	4483.41
510.25	4473.02
510.618	4552.56
510.986	4508.95
511.354	4602.73
511.722	4611.32
512.09	4633.47
512.458	4623.07
512.826	4655.84
513.193	4689.51
513.561	4737.87
513.929	4733.35
514.297	4760.92
514.664	4785.33
515.032	4790.3
515.4	4779.22
515.767	4861.26
516.135	4843.4
516.502	4875.72
516.869	4892.89
517.237	4937.19
517.604	4896.28
517.972	4964.3
518.339	4977.86
518.706	4949.84
519.073	5000.69
519.44	5004.98
519.808	5023.51
520.175	5038.2
520.542	5137.41
520.909	5084.3
521.276	5186.22
521.643	5230.96
522.009	5185.54
522.376	5201.13
522.743	5248.14
523.11	5275.26
523.477	5300.34
523.843	5369.27
524.21	5372.66
524.577	5403.84
524.943	5401.36
525.31	5480.22
525.676	5474.35
526.043	5500.34
526.409	5536.04
526.776	5575.59
527.142	5567
527.508	5605.19
527.874	5670.73
528.241	5691.97
528.607	5668.92
528.973	5769.03
529.339	5803.83
529.705	5849.7
530.071	5898.07
530.437	5900.33
530.803	5902.13
531.169	5926.31
531.535	5994.56
531.901	5974.45
532.267	5976.93
532.632	6052.64
532.998	6046.31
533.364	6070.72
533.73	6093.31
534.095	6163.37
534.461	6175.8
534.826	6251.95
535.192	6246.76
535.557	6309.35
535.923	6306.87
536.288	6337.15
536.653	6293.08
537.019	6326.3
537.384	6310.03
537.749	6413.31
538.114	6385.96
538.479	6385.06
538.845	6467.99
539.21	6497.6
539.575	6484.94
539.94	6555.68
540.305	6553.42
540.67	6580.31
541.034	6571.04
541.399	6676.58
541.764	6608.56
542.129	6710.25
542.494	6734.43
542.858	6691.72
543.223	6682.9
543.587	6772.39
543.952	6803.13
544.316	6865.27
544.681	6895.55
545.045	6887.42
545.41	6901.88
545.774	6920.86
546.138	6979.62
546.503	7013.06
546.867	6926.29
547.231	7043.35
547.595	7074.53
547.959	7102.1
548.324	7111.37
548.688	7139.16
549.052	7132.38
549.416	7169.67
549.779	7162.89
550.143	7242.66
550.507	7250.35
550.871	7262.55
551.235	7311.59
551.599	7315.43
551.962	7376.67
552.326	7360.85
552.689	7392.94
553.053	7382.55
553.417	7402.21
553.78	7494.86
554.143	7457.35
554.507	7553.16
554.87	7538.25
555.234	7633.16
555.597	7558.59
555.96	7588.87
556.323	7602.65
556.686	7645.82
557.05	7626.38
557.413	7753.38
557.776	7741.41
558.139	7816.66
558.502	7776.66
558.865	7824.12
559.228	7861.18
559.59	7885.81
559.953	7872.02
560.316	7958.12
560.679	7989.99
561.041	8076.54
561.404	8086.26
561.767	8097.56
562.129	8093.04
562.492	8168.74
562.854	8132.13
563.217	8189.98
563.579	8184.11
563.941	8262.75
564.304	8306.36
564.666	8392.01
565.028	8350.43
565.39	8379.13
565.753	8338.91
566.115	8444.44
566.477	8429.75
566.839	8475.17
567.201	8509.75
567.563	8486.7
567.925	8579.58
568.287	8623.19
568.648	8607.82
569.01	8693.25
569.372	8774.6
569.734	8732.34
570.095	8793.13
570.457	8852.79
570.819	8869.96
571.18	8882.17
571.542	8918.1
571.903	8935.27
572.265	8995.16
572.626	8971.43
572.987	9126
573.349	9147.7
573.71	9117.64
574.071	9274.7
574.432	9326.68
574.794	9347.24
575.155	9284.87
575.516	9385.88
575.877	9436.96
576.238	9507.46
576.599	9625.42
576.96	9713.33
577.32	9652.09
577.681	9830.39
578.042	9877.17
578.403	9929.15
578.763	9953.33
579.124	10043.04
579.485	10189.7
579.845	10271.96
580.206	10328.68
580.566	10389.7
580.927	10505.4
581.287	10632.18
581.648	10701.33
582.008	10875.11
582.368	10923.92
582.728	11117.82
583.089	11239.62
583.449	11345.61
583.809	11453.4
584.169	11587.63
584.529	11668.31
584.889	12043.21
585.249	12085.02
585.609	12172.02
585.969	12418.8
586.329	12492.24
586.688	12819.92
587.048	12899.92
587.408	13055.17
587.768	13324.31
588.127	13463.97
588.487	13677.97
588.846	13833
589.206	14026.44
589.565	14265.08
589.925	14544.17
590.284	14738.74
590.643	14947.09
591.003	15192.06
591.362	15458.04
591.721	15649.45
592.08	15852.15
592.44	16064.13
592.799	16276.55
593.158	16485.13
593.517	16804.22
593.876	17113.14
594.235	17346.8
594.593	17572.56
594.952	17808.03
595.311	18048.03
595.67	18443.27
596.029	18717.62
596.387	18965.74
596.746	19349.24
597.104	19440.53
597.463	19627.87
597.822	20002.33
598.18	20162.1
598.538	20459.49
598.897	20786.94
599.255	20882.3
599.613	21403.65
599.972	21583.75
600.33	21872.79
600.688	21976.51
601.046	22312.32
601.404	22624.18
601.762	22798.41
602.12	23208.57
602.478	23336.25
602.836	23657.37
603.194	23761.78
603.552	24058.27
603.91	24255.32
604.268	24559.95
604.625	24606.05
604.983	25032.7
605.341	25185.24
605.698	25483.54
606.056	25912.23
606.413	25880.36
606.771	26188.61
607.128	26362.39
607.485	26632.44
607.843	26690.29
608.2	27086.43
608.557	27295.69
608.914	27407.56
609.272	27820.43
609.629	27960.99
609.986	28138.38
610.343	28313.07
610.7	28630.35
611.057	28711.02
611.414	28821.08
611.771	28995.31
612.127	29350.56
612.484	29384.45
612.841	29772.69
613.198	29682.52
613.554	29772.92
613.911	30303.75
614.267	30404.09
614.624	30605.66
614.98	30775.6
615.337	30886.79
615.693	31056.73
616.05	31011.98
616.406	31428.47
616.762	31341.92
617.118	31575.58
617.475	31691.29
617.831	31850.83
618.187	31961.11
618.543	32109.35
618.899	32369.69
619.255	32450.59
619.611	32428.22
619.967	32646.29
620.323	32915.89
620.678	32838.37
621.034	32914.98
621.39	33037.92
621.746	33080.18
622.101	33671.12
622.457	33303.67
622.812	33496.89
623.168	33600.84
623.523	33665.47
623.879	33815.98
624.234	33677
624.589	33914.05
624.945	34063.65
625.3	34049.87
625.655	34195.17
626.01	34272.01
626.365	34438.78
626.72	34393.14
627.075	34270.2
627.43	34508.61
627.785	34458.67
628.14	34560.59
628.495	34656.41
628.85	34740.47
629.205	34815.27
629.559	34846.91
629.914	34870.86
630.269	34846.91
630.623	34801.71
630.978	34760.81
631.332	35033.8
631.687	35122.61
632.041	34912.22
632.396	35034.47
632.75	34941.82
633.104	35078.31
633.459	34949.05
633.813	34973.46
634.167	35121.93
634.521	34967.13
634.875	35024.08
635.229	35107.01
635.583	35006.45
635.937	35056.85
636.291	34956.28
636.645	35026.56
636.999	35021.14
637.352	35093.91
637.706	34967.81
638.06	35118.54
638.413	35124.87
638.767	34981.37
639.121	35031.54
639.474	35045.77
639.828	35015.94
640.181	35049.16
640.534	35137.07
640.888	34984.98
641.241	34783.63
641.594	34886.68
641.947	34933.01
642.301	34855.04
642.654	34855.5
643.007	34962.16
643.36	34810.3
643.713	34940.24
644.066	34989.05
644.419	34775.27
644.771	34639.46
645.124	34293.93
645.477	34366.02
645.83	34008.74
646.182	33933.26
646.535	33988.17
646.888	33981.62
647.24	33843.55
647.593	33918.35
647.945	33878.35
648.298	33740.5
648.65	33752.47
649.002	33810.78
649.355	33823.21
649.707	33780.27
650.059	33909.53
650.411	34261.61
650.763	34316.53
651.115	34617.31
651.467	34663.18
651.819	34549.29
652.171	34431.33
652.523	34571.44
652.875	34482.17
653.227	34387.94
653.578	34626.58
653.93	34494.83
654.282	34402.17
654.633	34375.51
654.985	34445.34
655.337	34344.55
655.688	34365.34
656.039	34526.01
656.391	34137.32
656.742	34230.65
657.094	34361.95
657.445	34291.22
657.796	34221.61
658.147	34244.89
658.498	34241.95
658.849	34348.39
659.2	34251.44
659.551	34197.43
659.902	34396.98
660.253	34262.52
660.604	34317.88
660.955	34047.83
661.306	34233.14
661.656	34197.43
662.007	34156.98
662.358	34215.29
662.708	34106.82
663.059	34107.72
663.409	33925.12
663.76	34161.05
664.11	34109.53
664.461	34139.13
664.811	34275.62
665.161	34128.96
665.511	34095.29
665.862	34168.51
666.212	34252.57
666.562	34190.88
666.912	34185.91
667.262	34259.13
667.612	34141.16
667.962	34256.42
668.312	34210.77
668.662	34239.69
669.011	34196.98
669.361	34112.24
669.711	34089.19
670.06	34033.14
670.41	33918.35
670.76	33930.77
671.109	34096.65
671.459	33886.03
671.808	33953.37
672.157	34051.22
672.507	33814.85
672.856	33862.98
673.205	33952.92
673.554	33993.6
673.904	33888.52
674.253	34019.59
674.602	33979.81
674.951	33346.16
675.3	33285.37
675.649	33726.94
675.998	33798.8
676.346	33697.11
676.695	33887.61
677.044	33604
677.393	33631.12
677.741	33820.27
678.09	33571.01
678.438	33529.2
678.787	33729.88
679.135	33537.34
679.484	33477
679.832	33645.36
680.181	33362.88
680.529	33486.04
680.877	33452.82
681.225	33343.9
681.573	33589.77
681.922	33200.17
682.27	33221.87
682.618	33248.31
682.966	33212.38
683.314	33299.6
683.661	32971.48
684.009	33029.56
684.357	32897.81
684.705	32804.48
685.053	32927.41
685.4	32776.45
685.748	32699.17
686.095	32672.73
686.443	32557.7
686.79	32494.2
687.138	32618.94
687.485	32585.73
687.832	32496.24
688.18	32531.04
688.527	32285.17
688.874	32291.95
689.221	32213.98
689.568	32198.39
689.915	32031.62
690.262	31966.31
690.609	31910.94
690.956	31877.04
691.303	31712.3
691.65	31754.79
691.997	31694.9
692.344	31470.05
692.69	31434.12
693.037	31497.17
693.383	31223.5
693.73	31306.89
694.077	31205.42
694.423	31138.76
694.769	31078.87
695.116	31022.38
695.462	31029.83
695.808	30881.59
696.155	30858.76
696.501	30730.86
696.847	30759.56
697.193	30426.69
697.539	30630.52
697.885	30359.79
698.231	30235.05
698.577	30357.99
698.923	30355.28
699.269	30139.46
699.614	29906.47
699.96	29912.8
700.306	29918.9
700.651	29828.96
700.997	29696.54
701.342	29662.64
701.688	29647.72
702.033	29523.88
702.379	29507.61
702.724	29385.36
703.069	29483.43
703.415	29182.2
703.76	29100.17
704.105	29165.02
704.45	29107.85
704.795	29001.19
705.14	28923.9
705.485	28829.67
705.83	28805.03
706.175	28714.19
706.52	28569.56
706.865	28522.33
707.209	28451.14
707.554	28521.2
707.899	28573.63
708.243	28367.76
708.588	28327.98
708.932	28205.28
709.277	28066.07
709.621	28133.41
709.966	28017.26
710.31	27989.46
710.654	27799.64
710.998	27926.41
711.342	27858.62
711.687	27795.12
712.031	27520.77
712.375	27716.25
712.719	27525.75
713.063	27540.21
713.407	27622.69
713.75	27460.89
714.094	27417.73
714.438	27315.13
714.782	27227.67
715.125	27250.72
715.469	27177.73
715.812	27065.64
716.156	26895.25
716.499	26901.81
716.843	26993.33
717.186	26739.78
717.53	26908.13
717.873	26897.51
718.216	26822.49
718.559	26680.34
718.902	26554.92
719.246	26553.34
719.589	26515.15
719.932	26388.83
720.275	26355.38
720.617	26373.91
720.96	26288.49
721.303	26373.69
721.646	26285.33
721.989	26091.66
722.331	26198.1
722.674	26201.49
723.016	26188.61
723.359	26150.41
723.701	26164.43
724.044	25863.87
724.386	25733.02
724.729	25921.95
725.071	25752.46
725.413	25733.48
725.755	26029.97
726.097	25673.36
726.439	25632.69
726.782	25579.58
727.124	25757.66
727.465	25615.74
727.807	25553.14
728.149	25477.89
728.491	25362.41
728.833	25555.18
729.175	25416.65
729.516	25344.56
729.858	25306.59
730.199	25374.84
730.541	25301.62
730.882	25224.34
731.224	25305.46
731.565	25114.96
731.906	25138.92
732.248	25208.97
732.589	25130.33
732.93	24963.78
733.271	24937.56
733.612	24936.66
733.953	24948.41
734.294	24923.33
734.635	24742.09
734.976	24883.1
735.317	24638.14
735.658	24637.01
735.999	24728.08
736.339	24637.23
736.68	24700.96
737.021	24504.81
737.361	24336.45
737.702	24559.95
738.042	24511.36
738.383	24385.26
738.723	24532.38
739.063	24328.77
739.404	24252.84
739.744	24292.38
740.084	24173.29
740.424	24256.23
740.764	24237.24
741.104	24211.93
741.444	24147.53
741.784	24090.81
742.124	24174.87
742.464	24023.92
742.804	24016.91
743.143	23924.48
743.483	23950.47
743.823	23852.85
744.162	23839.51
744.502	24001.09
744.841	23813.75
745.181	23879.51
745.52	23830.02
745.86	23748.44
746.199	23639.97
746.538	23707.31
746.877	23745.28
747.216	23640.42
747.556	23522.91
747.895	23538.05
748.234	23482.69
748.573	23343.71
748.911	23377.15
749.25	23459.19
749.589	23214.22
749.928	23221.68
750.267	23371.28
750.605	23327.21
750.944	23220.77
751.283	23125.18
751.621	23104.39
751.96	22964.28
752.298	23089.7
752.636	23054
752.975	22912.99
753.313	23007.45
753.651	23068.69
753.989	22907.11
754.327	22757.73
754.666	22675.48
755.004	22649.26
755.342	22713.22
755.679	22674.57
756.017	22455.14
756.355	22548.02
756.693	22419.66
757.031	22447.46
757.368	22271.42
757.706	22159.56
758.044	22416.5
758.381	22169.28
758.719	22161.37
759.056	22240.69
759.394	22103.06
759.731	22027.58
760.068	21899.23
760.405	21859.91
760.743	21777.42
761.08	21942.62
761.417	21768.83
761.754	21689.51
762.091	21639.12
762.428	21523.19
762.765	21363.65
763.102	21467.83
763.438	21387.15
763.775	21233.93
764.112	21326.36
764.449	21311.45
764.785	21087.72
765.122	21081.17
765.458	21033.71
765.795	20955.75
766.131	20896.99
766.467	20888.41
766.804	20800.5
767.14	20673.72
767.476	20637.79
767.812	20515.53
768.148	20555.98
768.485	20481.18
768.821	20303.34
769.157	20217.01
769.492	20235.99
769.828	20278.48
770.164	19950.58
770.5	19993.06
770.836	20050.01
771.171	19858.38
771.507	19848.88
771.842	19825.16
772.178	19767.76
772.513	19651.6
772.849	19594.65
773.184	19438.5
773.519	19435.56
773.855	19360.08
774.19	19290.03
774.525	19382.91
774.86	19218.62
775.195	19278.28
775.53	19106.53
775.865	18968.23
776.2	18837.16
776.535	18764.17
776.87	18794.68
777.205	18658.86
777.539	18569.14
777.874	18690.27
778.209	18445.31
778.543	18382.26
778.878	18283.73
779.212	18377.51
779.547	18215.71
779.881	18200.34
780.215	18046.9
780.55	18071.53
780.884	17999.44
781.218	17903.63
781.552	17983.85
781.886	17805.32
782.22	17671.77
782.554	17745.44
782.888	17540.92
783.222	17538.89
783.556	17411.89
783.889	17414.37
784.223	17298.9
784.557	17249.41
784.89	17291.89
785.224	17163.76
785.557	17088.51
785.891	17081.27
786.224	16905.01
786.558	16950.43
786.891	16862.97
787.224	16749.08
787.557	16683.54
787.891	16701.4
788.224	16597.67
788.557	16679.7
788.89	16538.69
789.223	16439.03
789.556	16371.46
789.888	16321.52
790.221	16300.5
790.554	16142.77
790.887	16230
791.219	15996.33
791.552	16069.1
791.884	16020.51
792.217	15915.43
792.549	15913.62
792.882	15787.97
793.214	15721.99
793.546	15706.85
793.879	15618.71
794.211	15619.39
794.543	15672.72
794.875	15475.44
795.207	15557.25
795.539	15437.7
795.871	15501.2
796.203	15315.22
796.535	15226.18
796.867	15208.1
797.198	15193.41
797.53	15124.26
797.862	14977.15
798.193	15108.44
798.525	15032.74
798.856	14994.78
799.188	14730.6
799.519	14803.14
799.85	14722.69
800.182	14772.63
800.513	14703.26
800.844	14586.88
801.175	14640.66
801.506	14595.69
801.837	14543.49
802.168	14431.63
802.499	14404.28
802.83	14385.53
803.161	14356.6
803.491	14323.38
803.822	14225.53
804.153	14229.37
804.483	14110.5
804.814	14012.88
805.145	14094.46
805.475	14088.13
805.805	13980.79
806.136	14046.55
806.466	13985.54
806.796	13928.59
807.126	13849.04
807.457	13858.53
807.787	13702.15
808.117	13689.27
808.447	13660.57
808.777	13737.86
809.107	13626.22
809.436	13607.02
809.766	13594.81
810.096	13520.24
810.426	13429.62
810.755	13479.33
811.085	13376.29
811.414	13416.74
811.744	13278.21
812.073	13298.32
812.403	13264.43
812.732	13239.12
813.061	13170.64
813.39	13132.68
813.719	13040.93
814.049	13132.45
814.378	13064.43
814.707	13043.19
815.036	12970.87
815.365	12941.27
815.693	12853.36
816.022	12889.07
816.351	12788.05
816.68	12698.11
817.008	12741.5
817.337	12595.97
817.665	12661.05
817.994	12666.93
818.322	12756.87
818.651	12579.25
818.979	12555.52
819.307	12613.59
819.636	12585.35
819.964	12500.15
820.292	12568.4
820.62	12477.55
820.948	12443.2
821.276	12515.97
821.604	12433.94
821.932	12376.99
822.259	12453.6
822.587	12450.44
822.915	12404.56
823.243	12421.74
823.57	12351.23
823.898	12448.63
824.225	12336.54
824.553	12410.44
824.88	12297.9
825.207	12402.75
825.535	12420.38
825.862	12373.38
826.189	12388.97
826.516	12418.57
826.843	12492.92
827.17	12433.26
827.497	12385.13
827.824	12403.43
828.151	12419.93
828.478	12349.87
828.805	12368.18
829.131	12384.9
829.458	12301.96
829.785	12273.72
830.111	12299.25
830.438	12377.22
830.764	12322.08
831.09	12337.9
831.417	12282.3
831.743	12278.91
832.069	12261.06
832.395	12176.09
832.722	12211.57
833.048	12160.5
833.374	12289.08
833.7	12170.89
834.026	12180.61
834.351	12250.89
834.677	12172.7
835.003	12257.22
835.329	12139.03
835.654	12096.32
835.98	12055.19
836.306	12104.68
836.631	12114.85
836.956	12047.51
837.282	12167.5
837.607	12024.68
837.932	12022.65
838.258	11995.31
838.583	11981.07
838.908	11914.86
839.233	11982.43
839.558	11887.06
839.883	11926.38
840.208	11858.81
840.533	11810.23
840.858	11807.06
841.182	11842.54
841.507	11897.23
841.832	11753.73
842.156	11715.09
842.481	11714.64
842.805	11718.93
843.13	11691.81
843.454	11633.06
843.778	11606.84
844.103	11592.38
844.427	11550.8
844.751	11558.71
845.075	11488.88
845.399	11480.74
845.723	11442.1
846.047	11476.45
846.371	11337.24
846.695	11400.29
847.019	11236.91
847.343	11147.42
847.666	11116.01
847.99	11103.35
848.313	11056.8
848.637	11035.33
848.96	10929.35
849.284	10979.97
849.607	10883.7
849.931	10869.69
850.254	10788.56
850.577	10758.28
850.9	10728.67
851.223	10627.88
851.546	10640.09
851.869	10636.25
852.192	10642.35
852.515	10498.17
852.838	10402.35
853.161	10436.93
853.483	10426.99
853.806	10390.83
854.129	10362.58
854.451	10234.67
854.774	10267.67
855.096	10220.89
855.419	10211.85
855.741	10257.5
856.063	10171.85
856.385	10076.49
856.708	10066.32
857.03	10038.07
857.352	10028.8
857.674	10017.05
857.996	9935.47
858.318	9866.1
858.64	9903.16
858.961	9903.16
859.283	9750.17
859.605	9769.15
859.926	9800.56
860.248	9824.97
860.57	9725.08
860.891	9730.51
861.212	9690.28
861.534	9645.54
861.855	9622.94
862.176	9589.04
862.498	9627.91
862.819	9621.58
863.14	9601.7
863.461	9553.79
863.782	9462.72
864.103	9561.25
864.424	9515.82
864.745	9471.3
865.065	9471.3
865.386	9409.84
865.707	9429.72
866.027	9401.48
866.348	9421.36
866.668	9364.87
866.989	9369.16
867.309	9292.55
867.63	9286.68
867.95	9247.13
868.27	9286.9
868.59	9184.31
868.91	9224.98
869.23	9229.05
869.55	9230.86
869.87	9256.17
870.19	9200.13
870.51	9187.47
870.83	9270.86
871.15	9187.7
871.469	9108.83
871.789	9123.74
872.109	9158.09
872.428	9057.98
872.748	9069.06
873.067	9074.25
873.386	9041.26
873.706	9045.78
874.025	9034.48
874.344	8944.76
874.663	8973.69
874.982	9009.4
875.301	8921.94
875.62	8939.57
875.939	8920.36
876.258	8959.23
876.577	8848.95
876.896	8887.37
877.214	8866.57
877.533	8878.78
877.852	8869.96
878.17	8841.49
878.489	8878.33
878.807	8824.32
879.125	8827.48
879.444	8794.94
879.762	8707.93
880.08	8751.55
880.398	8762.17
880.716	8710.87
881.034	8608.5
881.352	8713.13
881.67	8691.44
881.988	8630.87
882.306	8641.27
882.624	8605.11
882.941	8547.94
883.259	8491.22
883.577	8585.68
883.894	8481.05
884.212	8523.08
884.529	8516.75
884.846	8455.51
885.164	8488.05
885.481	8402.86
885.798	8419.13
886.115	8315.18
886.432	8335.29
886.75	8286.93
887.067	8323.31
887.383	8274.73
887.7	8278.34
888.017	8263.88
888.334	8278.34
888.651	8175.07
888.967	8185.24
889.284	8197.21
889.6	8117.22
889.917	8027.05
890.233	8105.92
890.55	8082.87
890.866	8070.66
891.182	8049.2
891.498	8030.66
891.815	7949.31
892.131	7934.85
892.447	7938.69
892.763	7861.63
893.079	7880.61
893.395	7928.52
893.71	7858.01
894.026	7840.61
894.342	7852.82
894.657	7775.08
894.973	7718.81
895.289	7775.98
895.604	7730.11
895.92	7592.94
896.235	7687.17
896.55	7607.4
896.865	7556.78
897.181	7585.7
897.496	7540.06
897.811	7569.21
898.126	7476.55
898.441	7504.12
898.756	7432.71
899.071	7428.87
899.386	7440.85
899.7	7328.99
900.015	7340.29
900.33	7267.75
900.644	7277.46
900.959	7282.66
901.273	7223.45
901.588	7244.7
901.902	7217.58
902.216	7145.49
902.531	7116.79
902.845	7132.61
903.159	7075.21
903.473	7044.93
903.787	7016.68
904.101	7030.01
904.415	6982.78
904.729	6950.47
905.042	6888.55
905.356	6896.23
905.67	6846.29
905.984	6895.78
906.297	6814.2
906.611	6853.75
906.924	6780.3
907.237	6757.25
907.551	6773.07
907.864	6695.56
908.177	6681.32
908.491	6687.42
908.804	6627.09
909.117	6659.4
909.43	6564.26
909.743	6559.74
910.056	6511.61
910.368	6557.03
910.681	6521.1
910.994	6481.1
911.307	6469.12
911.619	6369.24
911.932	6364.95
912.244	6323.14
912.557	6344.83
912.869	6267.32
913.181	6266.64
913.494	6247.21
913.806	6246.3
914.118	6214.89
914.43	6226.87
914.742	6153.65
915.054	6110.49
915.366	6108.46
915.678	6085.86
915.99	6056.93
916.302	6018.97
916.613	5959.98
916.925	5995.69
917.236	5994.79
917.548	5844.96
917.859	5927.22
918.171	5896.03
918.482	5832.98
918.794	5836.15
919.105	5804.06
919.416	5759.31
919.727	5794.11
920.038	5775.13
920.349	5739.43
920.66	5737.39
920.971	5676.38
921.282	5642.7
921.593	5621.46
921.903	5587.11
922.214	5563.61
922.525	5545.98
922.835	5480.68
923.146	5461.47
923.456	5526.32
923.767	5436.38
924.077	5453.11
924.387	5454.01
924.697	5347.35
925.008	5370.85
925.318	5328.36
925.628	5339.21
925.938	5308.93
926.248	5245.88
926.558	5241.36
926.867	5270.29
927.177	5176.73
927.487	5245.65
927.796	5092.44
928.106	5154.58
928.416	5136.73
928.725	5120.91
929.034	5116.16
929.344	5056.05
929.653	5046.34
929.962	5012.21
930.271	4986.22
930.581	4986.45
930.89	4982.16
931.199	4888.83
931.508	4933.57
931.817	4916.4
932.125	4903.29
932.434	4849.05
932.743	4804.76
933.051	4747.59
933.36	4826.68
933.669	4755.72
933.977	4760.02
934.286	4776.96
934.594	4738.55
934.902	4660.13
935.21	4653.8
935.519	4666.46
935.827	4618.55
936.135	4618.78
936.443	4600.92
936.751	4572.9
937.059	4571.77
937.367	4508.95
937.674	4515.28
937.982	4518.89
938.29	4501.94
938.597	4474.6
938.905	4505.56
939.213	4412.45
939.52	4394.38
939.827	4424.88
940.135	4353.47
940.442	4367.94
940.749	4359.8
941.056	4345.11
941.363	4292.68
941.67	4235.28
941.977	4282.51
942.284	4272.12
942.591	4220.37
942.898	4232.35
943.205	4217.66
943.511	4190.09
943.818	4123.2
944.125	4105.8
944.431	4130.2
944.738	4094.72
945.044	4116.64
945.35	4054.95
945.657	4013.6
945.963	4016.53
946.269	4054.27
946.575	4031.67
946.881	3998.68
947.187	3976.99
947.493	3964.56
947.799	3924.56
948.105	3902.41
948.41	3884.33
948.716	3918.23
949.022	3914.16
949.327	3870.55
949.633	3857.44
949.938	3827.84
950.244	3832.58
950.549	3780.83
950.854	3752.81
951.16	3751.91
951.465	3734.05
951.77	3706.48
952.075	3727.95
952.38	3701.29
952.685	3702.64
952.99	3634.4
953.294	3630.55
953.599	3635.75
953.904	3615.64
954.209	3578.35
954.513	3603.89
954.818	3568.18
955.122	3489.32
955.426	3544.68
955.731	3518.01
956.035	3504.68
956.339	3516.88
956.643	3458.36
956.948	3400.5
957.252	3449.99
957.556	3417.68
957.86	3405.7
958.163	3439.15
958.467	3409.77
958.771	3381.97
959.075	3371.8
959.378	3342.88
959.682	3360.28
959.985	3342.88
960.289	3282.09
960.592	3259.72
960.896	3266.04
961.199	3224.92
961.502	3235.54
961.805	3190.79
962.108	3193.05
962.411	3178.59
962.714	3205.25
963.017	3148.53
963.32	3153.73
963.623	3156.22
963.926	3119.38
964.228	3126.16
964.531	3094.75
964.833	3087.74
965.136	3068.08
965.438	3075.31
965.741	3055.65
966.043	3048.42
966.345	3002.77
966.648	3011.81
966.95	3011.14
967.252	3003.45
967.554	2976.11
967.856	2905.38
968.158	2946.5
968.46	2943.34
968.761	2938.37
969.063	2906.96
969.365	2911.48
969.666	2886.84
969.968	2883.46
970.269	2876
970.571	2894.98
970.872	2868.99
971.174	2824.7
971.475	2841.42
971.776	2806.85
972.077	2817.92
972.378	2762.78
972.679	2789.22
972.98	2778.37
973.281	2760.52
973.582	2735.89
973.883	2723.69
974.183	2685.49
974.484	2720.75
974.785	2664.7
975.085	2670.81
975.386	2676.46
975.686	2673.52
975.986	2655.89
976.287	2636.23
976.587	2588.32
976.887	2594.88
977.187	2579.28
977.487	2570.7
977.787	2586.29
978.087	2603.46
978.387	2558.27
978.687	2540.41
978.987	2519.62
979.286	2503.35
979.586	2511.26
979.885	2490.25
980.185	2509.23
980.484	2450.47
980.784	2471.26
981.083	2467.87
981.382	2441.66
981.682	2453.86
981.981	2418.83
982.28	2393.75
982.579	2421.09
982.878	2412.06
983.177	2381.55
983.475	2387.2
983.774	2351.49
984.073	2327.09
984.372	2345.62
984.67	2348.1
984.969	2293.87
985.267	2322.79
985.566	2289.35
985.864	2289.35
986.162	2268.1
986.461	2266.52
986.759	2271.49
987.057	2249.12
987.355	2229.91
987.653	2236.92
987.951	2210.25
988.249	2204.83
988.547	2221.55
988.844	2179.74
989.142	2192.63
989.44	2130.03
989.737	2154.43
990.035	2149.92
990.332	2133.19
990.63	2151.5
990.927	2124.15
991.224	2113.98
991.521	2124.83
991.819	2107.2
992.116	2052.29
992.413	2104.27
992.71	2057.71
993.006	2047.55
993.303	2068.34
993.6	2027.88
993.897	2046.42
994.193	2003.25
994.49	2027.43
994.787	1991.5
995.083	1991.28
995.379	1984.27
995.676	1975.91
995.972	1982.91
996.268	1959.19
996.565	1958.51
996.861	1959.19
997.157	1939.98
997.453	1898.17
997.749	1923.71
998.044	1907.66
998.34	1948.56
998.636	1860.43
998.932	1868.11
999.227	1815.23
999.523	1848.68
999.818	1852.75
1000.114	1827.66
1000.409	1812.52
1000.704	1843.48
1001	1796.03
1001.295	1784.95
1001.59	1807.1
1001.885	1805.74
1002.18	1774.11
1002.475	1782.69
1002.77	1751.06
1003.065	1718.97
1003.359	1736.14
1003.654	1730.72
1003.949	1722.13
1004.243	1721.23
1004.538	1710.38
1004.832	1689.14
1005.127	1702.47
1005.421	1671.51
1005.715	1653.66
1006.009	1648.69
1006.304	1642.81
1006.598	1624.51
1006.892	1640.1
1007.186	1656.14
1007.48	1622.92
1007.773	1597.16
1008.067	1582.92
1008.361	1569.82
1008.655	1560.1
1008.948	1576.82
1009.242	1583.15
1009.535	1561.46
1009.829	1531.63
1010.122	1543.83
1010.415	1534.34
1010.708	1514.9
1011.001	1514
1011.295	1499.54
1011.588	1505.19
1011.881	1482.36
1012.173	1465.87
1012.466	1489.59
1012.759	1483.04
1013.052	1474.9
1013.344	1420.44
1013.637	1463.61
1013.93	1435.13
1014.222	1433.55
1014.514	1397.39
1014.807	1389.03
1015.099	1398.75
1015.391	1361.91
1015.683	1379.09
1015.976	1342.25
1016.268	1366.66
1016.56	1351.74
1016.851	1368.01
1017.143	1351.29
1017.435	1334.57
1017.727	1319.65
1018.018	1287.34
1018.31	1297.96
1018.602	1299.99
1018.893	1297.28
1019.185	1284.63
1019.476	1263.16
1019.767	1251.86
1020.058	1265.87
1020.35	1248.24
1020.641	1247.34
1020.932	1221.35
1021.223	1217.96
1021.514	1221.58
1021.804	1213.22
1022.095	1208.47
1022.386	1189.49
1022.677	1200.56
1022.967	1165.76
1023.258	1177.74
1023.548	1175.93
1023.839	1151.52
1024.129	1138.42
1024.419	1165.31
1024.709	1161.47
1025	1154.46
1025.29	1130.28
1025.58	1101.58
1025.87	1119.21
1026.16	1080.34
1026.449	1141.81
1026.739	1093.22
1027.029	1096.38
1027.319	1083.05
1027.608	1079.66
1027.898	1070.17
1028.187	1083.28
1028.477	1051.19
1028.766	1039.44
1029.055	1050.74
1029.344	1039.66
1029.634	1016.39
1029.923	1021.13
1030.212	1018.42
1030.501	993.34
1030.79	1005.31
1031.078	979.78
1031.367	992.21
1031.656	980
1031.945	970.06
1032.233	977.52
1032.522	972.32
1032.81	955.82
1033.099	953.79
1033.387	964.64
1033.675	960.34
1033.963	937.29
1034.251	918.31
1034.54	913.56
1034.828	919.21
1035.116	941.81
1035.403	904.3
1035.691	901.81
1035.979	906.56
1036.267	908.59
1036.554	889.38
1036.842	895.26
1037.129	882.6
1037.417	894.58
1037.704	881.93
1037.992	892.1
1038.279	882.38
1038.566	867.01
1038.853	867.01
1039.14	867.01
