Data from hue_310_FLMS001491_43.txt Node
Date: Mon Feb 06 15:49:44 GMT 2017
User: dcchb
Spectrometer: FLMS00149
Trigger mode: 0
Integration Time (sec): 2.000000E-2
Scans to average: 10
Electric dark correction enabled: true
Nonlinearity correction enabled: false
Boxcar width: 0
XAxis mode: Wavelengths
Number of Pixels in Spectrum: 2048
>>>>>Begin Spectral Data<<<<<
341.393	-15.8
341.776	-15.8
342.16	-15.8
342.543	-54.45
342.927	-87.44
343.31	-72.75
343.693	-62.81
344.077	-56.03
344.46	-60.1
344.843	-46.76
345.226	-54.45
345.61	-42.7
345.993	-22.13
346.376	-3.6
346.759	18.77
347.142	41.59
347.525	42.72
347.908	34.82
348.291	68.03
348.674	104.87
349.057	110.52
349.44	131.54
349.823	141.25
350.206	168.15
350.588	201.14
350.971	238.2
351.354	225.32
351.737	237.3
352.119	262.61
352.502	272.1
352.884	279.55
353.267	273.91
353.65	316.39
354.032	297.86
354.414	307.8
354.797	299.22
355.179	310.29
355.562	318.42
355.944	318.2
356.326	346.22
356.709	339.44
357.091	321.36
357.473	332.66
357.855	343.51
358.238	331.3
358.62	342.15
359.002	349.16
359.384	342.15
359.766	343.06
360.148	323.85
360.53	322.04
360.912	337.63
361.294	338.54
361.676	335.15
362.057	333.34
362.439	308.71
362.821	340.12
363.203	326.56
363.584	338.08
363.966	320.46
364.348	334.24
364.729	322.72
365.111	321.81
365.493	333.79
365.874	328.82
366.256	320.23
366.637	322.94
367.019	311.64
367.4	306.45
367.781	320.68
368.163	323.4
368.544	311.64
368.925	316.39
369.306	304.41
369.688	323.17
370.069	321.59
370.45	316.39
370.831	322.49
371.212	331.53
371.593	319.33
371.974	307.12
372.355	309.61
372.736	322.49
373.117	314.81
373.498	323.4
373.879	307.12
374.26	312.77
374.641	314.58
375.021	319.78
375.402	306.22
375.783	335.82
376.163	343.73
376.544	301.7
376.925	320.46
377.305	324.98
377.686	328.37
378.066	324.98
378.447	315.94
378.827	319.55
379.208	334.02
379.588	327.92
379.968	323.17
380.349	353.23
380.729	336.28
381.109	360.91
381.489	327.01
381.87	336.28
382.25	316.16
382.63	335.37
383.01	343.51
383.39	331.53
383.77	346.22
384.15	350.51
384.53	337.86
384.91	339.21
385.29	349.16
385.67	354.36
386.049	338.31
386.429	336.5
386.809	349.61
387.189	361.59
387.568	355.03
387.948	355.26
388.328	360
388.707	371.53
389.087	374.24
389.466	366.56
389.846	369.5
390.225	364.52
390.605	350.51
390.984	369.27
391.363	377.18
391.743	369.95
392.122	368.14
392.501	372.43
392.881	375.37
393.26	377.41
393.639	393.9
394.018	378.31
394.397	363.62
394.776	391.64
395.155	382.38
395.534	385.99
395.913	391.64
396.292	378.31
396.671	384.64
397.05	395.48
397.429	418.31
397.808	395.48
398.186	392.32
398.565	380.12
398.944	389.61
399.323	393.22
399.701	426.9
400.08	403.85
400.458	395.94
400.837	407.24
401.215	414.69
401.594	395.94
401.972	414.01
402.351	423.96
402.729	401.81
403.107	431.87
403.486	411.53
403.864	424.86
404.242	419.66
404.62	429.16
404.999	435.93
405.377	442.94
405.755	440.23
406.133	422.38
406.511	449.49
406.889	458.31
407.267	458.53
407.645	448.59
408.023	456.5
408.401	470.06
408.779	490.62
409.156	450.17
409.534	486.56
409.912	482.49
410.29	481.58
410.667	488.14
411.045	504.63
411.422	527.46
411.8	507.12
412.178	543.95
412.555	537.63
412.933	522.71
413.31	547.34
413.687	528.36
414.065	566.78
414.442	590.96
414.819	560
415.197	572.43
415.574	567.46
415.951	590.51
416.328	600.45
416.705	601.58
417.082	612.2
417.46	643.39
417.837	621.47
418.214	629.38
418.591	634.57
418.967	632.77
419.344	681.35
419.721	659.88
420.098	666.44
420.475	674.57
420.852	664.4
421.228	692.43
421.605	681.13
421.982	711.86
422.358	721.35
422.735	722.26
423.111	706.66
423.488	736.72
423.864	721.58
424.241	747.11
424.617	759.54
424.994	762.48
425.37	774.91
425.746	751.86
426.123	764.97
426.499	797.96
426.875	802.7
427.251	822.37
427.627	825.08
428.003	821.91
428.379	831.18
428.756	836.83
429.132	871.18
429.507	863.27
429.883	868.69
430.259	894.68
430.635	873.89
431.011	901.91
431.387	912.53
431.763	931.74
432.138	907.11
432.514	949.14
432.89	961.34
433.265	955.02
433.641	963.15
434.016	975.13
434.392	996.15
434.767	1007.22
435.143	1013.32
435.518	1013.09
435.894	1036.6
436.269	1067.56
436.644	1062.13
437.02	1069.14
437.395	1068.69
437.77	1117.5
438.145	1110.04
438.52	1092.64
438.895	1128.57
439.271	1125.41
439.646	1156.59
440.021	1146.42
440.395	1148.01
440.77	1163.15
441.145	1146.65
441.52	1168.57
441.895	1169.93
442.27	1178.29
442.645	1199.76
443.019	1203.15
443.394	1188.23
443.769	1211.73
444.143	1195.24
444.518	1178.06
444.892	1211.28
445.267	1206.54
445.641	1223.94
446.016	1253.77
446.39	1204.5
446.764	1247.21
447.139	1242.02
447.513	1266.65
447.887	1257.83
448.262	1281.79
448.636	1268.46
449.01	1265.97
449.384	1271.85
449.758	1292.64
450.132	1300.54
450.506	1314.1
450.88	1311.39
451.254	1308
451.628	1301.9
452.002	1330.6
452.376	1324.73
452.75	1332.86
453.123	1336.25
453.497	1360.66
453.871	1384.38
454.244	1366.08
454.618	1375.35
454.992	1405.17
455.365	1402.69
455.739	1440.43
456.112	1435.46
456.486	1430.26
456.859	1444.72
457.232	1479.52
457.606	1493.53
457.979	1462.57
458.352	1477.94
458.725	1497.83
459.099	1496.92
459.472	1493.76
459.845	1509.35
460.218	1537.15
460.591	1560.43
460.964	1550.71
461.337	1574.21
461.71	1585.51
462.083	1617.37
462.456	1587.99
462.829	1598.16
463.201	1657.15
463.574	1614.66
463.947	1630.48
464.32	1645.39
464.692	1684.72
465.065	1681.78
465.438	1709.8
465.81	1710.48
466.183	1711.61
466.555	1740.53
466.928	1752.28
467.3	1737.6
467.672	1766.52
468.045	1794.32
468.417	1782.79
468.789	1806.52
469.161	1818.27
469.534	1856.91
469.906	1875.67
470.278	1889.23
470.65	1886.07
471.022	1909.79
471.394	1938.27
471.766	1946.86
472.138	1963.8
472.51	1984.37
472.882	2018.72
473.253	2026.18
473.625	2055.55
473.997	2068.89
474.369	2075.21
474.74	2084.71
475.112	2094.87
475.484	2115.21
475.855	2183.91
476.227	2195.89
476.598	2211.26
476.97	2212.39
477.341	2315.21
477.713	2284.02
478.084	2257.81
478.455	2328.77
478.827	2343.46
479.198	2404.47
479.569	2394.53
479.94	2413.06
480.311	2421.19
480.682	2474.75
481.053	2535.77
481.424	2550.23
481.795	2551.36
482.166	2604.92
482.537	2611.02
482.908	2669.32
483.279	2705.03
483.65	2707.29
484.021	2750.22
484.391	2786.83
484.762	2777.79
485.133	2776.66
485.503	2839.04
485.874	2860.73
486.244	2907.06
486.615	2931.24
486.985	2940.95
487.356	2989.31
487.726	2992.93
488.097	3032.48
488.467	3076.32
488.837	3042.65
489.207	3161.96
489.578	3100.05
489.948	3141.17
490.318	3196.09
490.688	3175.52
491.058	3206.94
491.428	3266.37
491.798	3267.5
492.168	3366.48
492.538	3349.3
492.908	3358.34
493.278	3382.52
493.648	3387.95
494.017	3420.04
494.387	3426.36
494.757	3464.56
495.126	3485.57
495.496	3474.95
495.866	3536.19
496.235	3508.17
496.605	3603.54
496.974	3598.79
497.344	3633.36
497.713	3600.37
498.082	3660.71
498.452	3679.01
498.821	3677.43
499.19	3707.94
499.559	3767.15
499.928	3712.01
500.298	3752.01
500.667	3769.41
501.036	3785.9
501.405	3787.49
501.774	3795.62
502.143	3769.41
502.512	3827.03
502.88	3876.07
503.249	3861.38
503.618	3876.07
503.987	3875.17
504.356	3904.77
504.724	3902.28
505.093	3915.39
505.462	3930.53
505.83	3936.41
506.199	3968.5
506.567	3966.69
506.936	3961.94
507.304	4055.5
507.672	4029.51
508.041	4009.4
508.409	4059.12
508.777	4040.81
509.145	4099.34
509.514	4121.49
509.882	4076.07
510.25	4097.53
510.618	4180.24
510.986	4148.83
511.354	4156.74
511.722	4187.93
512.09	4173.69
512.458	4192.22
512.826	4174.14
513.193	4179.11
513.561	4262.73
513.929	4196.97
514.297	4242.16
514.664	4291.65
515.032	4215.04
515.4	4289.62
515.767	4292.1
516.135	4289.84
516.502	4314.7
516.869	4363.06
517.237	4378.88
517.604	4301.14
517.972	4335.49
518.339	4378.43
518.706	4384.76
519.073	4417.3
519.44	4423.17
519.808	4455.26
520.175	4456.62
520.542	4475.83
520.909	4466.34
521.276	4424.53
521.643	4462.5
522.009	4502.04
522.376	4516.51
522.743	4546.11
523.11	4554.24
523.477	4608.03
523.843	4609.38
524.21	4623.62
524.577	4640.34
524.943	4688.48
525.31	4642.83
525.676	4733.22
526.043	4710.62
526.409	4735.03
526.776	4822.26
527.142	4800.57
527.508	4813.67
527.874	4862.94
528.241	4833.56
528.607	4878.98
528.973	4933.22
529.339	4944.29
529.705	4990.62
530.071	4998.98
530.437	4960.79
530.803	5024.29
531.169	5048.92
531.535	5031.29
531.901	5067.23
532.267	5094.57
532.632	5138.41
532.998	5180.67
533.364	5171.4
533.73	5166.88
534.095	5192.87
534.461	5232.19
534.826	5274.68
535.192	5297.73
535.557	5325.3
535.923	5279.2
536.288	5345.64
536.653	5383.83
537.019	5370.72
537.384	5371.85
537.749	5411.62
538.114	5438.52
538.479	5441.23
538.845	5506.76
539.21	5499.53
539.575	5500.21
539.94	5539.98
540.305	5515.58
540.67	5546.31
541.034	5572.07
541.399	5662.46
541.764	5624.5
542.129	5573.43
542.494	5645.97
542.858	5646.42
543.223	5746.53
543.587	5758.28
543.952	5675.57
544.316	5753.76
544.681	5797.83
545.045	5839.41
545.41	5853.65
545.774	5881.44
546.138	5883.48
546.503	5911.72
546.867	5951.95
547.231	6019.52
547.595	6012.96
547.959	6017.48
548.324	5993.08
548.688	6022.68
549.052	6062.45
549.416	6013.19
549.779	6056.58
550.143	6113.53
550.507	6141.32
550.871	6189.23
551.235	6171.38
551.599	6234.43
551.962	6252.96
552.326	6227.42
552.689	6294.09
553.053	6226.74
553.417	6266.29
553.78	6324.59
554.143	6372.73
554.507	6343.35
554.87	6352.16
555.234	6441.65
555.597	6368.43
555.96	6397.36
556.323	6449.56
556.686	6418.38
557.05	6493.85
557.413	6450.47
557.776	6489.11
558.139	6539.28
558.502	6531.37
558.865	6561.65
559.228	6614.3
559.59	6629.22
559.953	6567.75
560.316	6628.77
560.679	6679.84
561.041	6677.13
561.404	6705.6
561.767	6759.61
562.129	6699.27
562.492	6813.39
562.854	6756.67
563.217	6784.92
563.579	6835.09
563.941	6875.99
564.304	6898.82
564.666	6951.7
565.028	6952.6
565.39	6968.19
565.753	6967.97
566.115	6962.99
566.477	7027.85
566.839	7051.58
567.201	7104.23
567.563	7145.14
567.925	7108.08
568.287	7192.82
568.648	7158.02
569.01	7179.71
569.372	7233.5
569.734	7280.73
570.095	7317.56
570.457	7337.22
570.819	7377
571.18	7337.22
571.542	7460.83
571.903	7416.99
572.265	7445.02
572.626	7543.54
572.987	7541.51
573.349	7652.69
573.71	7725.23
574.071	7737.89
574.432	7766.36
574.794	7873.48
575.155	7859.24
575.516	7870.54
575.877	7983.31
576.238	8058.33
576.599	8067.6
576.96	8171.55
577.32	8262.62
577.681	8296.75
578.042	8435.27
578.403	8477.53
578.763	8564.08
579.124	8685.44
579.485	8761.37
579.845	8893.79
580.206	8990.06
580.566	9021.47
580.927	9170.85
581.287	9348.47
581.648	9441.8
582.008	9579.42
582.368	9685.18
582.728	9885.63
583.089	10009.69
583.449	10145.74
583.809	10356.13
584.169	10503.24
584.529	10691.94
584.889	10925.38
585.249	11017.8
585.609	11229.32
585.969	11474.51
586.329	11663.89
586.688	11954.95
587.048	12095.52
587.408	12303.65
587.768	12570.98
588.127	12737.53
588.487	12862.95
588.846	13304.75
589.206	13462.94
589.565	13710.16
589.925	13972.75
590.284	14333.87
590.643	14558.95
591.003	14915.55
591.362	15136.57
591.721	15346.28
592.08	15674.86
592.44	15889.31
592.799	16195.29
593.158	16358.91
593.517	16725.68
593.876	17108.94
594.235	17319.33
594.593	17614.01
594.952	17943.27
595.311	18195.24
595.67	18535.35
596.029	18875
596.387	19224.82
596.746	19459.84
597.104	19719.5
597.463	20017.57
597.822	20345.47
598.18	20548.4
598.538	20777.55
598.897	21242.62
599.255	21282.39
599.613	21898.87
599.972	22073.78
600.33	22323.95
600.688	22562.13
601.046	22904.27
601.404	23276.24
601.762	23523.46
602.12	23832.38
602.478	24088.42
602.836	24287.06
603.194	24575.87
603.552	24868.51
603.91	24906.03
604.268	25350.99
604.625	25424.88
604.983	25911.65
605.341	26019.44
605.698	26352.77
606.056	26688.8
606.413	26791.17
606.771	27212.18
607.128	27450.82
607.485	27432.74
607.843	27685.39
608.2	28016
608.557	28256.9
608.914	28442.2
609.272	28680.16
609.629	29121.73
609.986	29328.51
610.343	29368.96
610.7	29695.05
611.057	29933.92
611.414	30060.01
611.771	30288.03
612.127	30496.16
612.484	30688.7
612.841	30872.2
613.198	30890.28
613.554	31121.68
613.911	31354.67
614.267	31540.43
614.624	31676.92
614.98	31782
615.337	32101.32
615.693	32189.22
616.05	32259.5
616.406	32694.75
616.762	32617.91
617.118	32796.89
617.475	32970.9
617.831	33117.56
618.187	33312.81
618.543	33431.45
618.899	33753.25
619.255	33661.73
619.611	33875.06
619.967	33987.6
620.323	34239.34
620.678	34291.09
621.034	34209.06
621.39	34408.37
621.746	34516.17
622.101	34903.96
622.457	34638.65
622.812	34961.81
623.168	35137.4
623.523	35120.45
623.879	35349.14
624.234	34971.07
624.589	35314.79
624.945	35402.25
625.3	35586.2
625.655	35678.62
626.01	35739.19
626.365	35790.94
626.72	35747.32
627.075	35884.95
627.43	35922.69
627.785	35898.28
628.14	36034.55
628.495	36136.92
628.85	36167.42
629.205	36133.98
629.559	36368.1
629.914	36191.6
630.269	36332.62
630.623	36280.42
630.978	36258.04
631.332	36580.52
631.687	36520.86
632.041	36479.28
632.396	36624.81
632.75	36466.4
633.104	36623.46
633.459	36462.11
633.813	36557.7
634.167	36538.49
634.521	36537.13
634.875	36677.92
635.229	36595.21
635.583	36450.81
635.937	36674.98
636.291	36514.53
636.645	36568.54
636.999	36472.95
637.352	36716.79
637.706	36382.33
638.06	36688.77
638.413	36538.49
638.767	36539.84
639.121	36565.83
639.474	36455.33
639.828	36549.56
640.181	36565.61
640.534	36568.54
640.888	36497.81
641.241	36446.29
641.594	36432.73
641.947	36729.22
642.301	36356.35
642.654	36471.15
643.007	36437.47
643.36	36404.25
643.713	36428.89
644.066	36621.42
644.419	36361.54
644.771	36182.79
645.124	35803.37
645.477	35816.25
645.83	35625.74
646.182	35463.49
646.535	35366.32
646.888	35516.14
647.24	35279.31
647.593	35531.28
647.945	35438.18
648.298	35392.08
648.65	35351.85
649.002	35200.22
649.355	35257.84
649.707	35356.15
650.059	35523.83
650.411	35875.46
650.763	35821.9
651.115	36289
651.467	36178.05
651.819	36051.72
652.171	36038.39
652.523	36016.69
652.875	36093.3
653.227	35980.54
653.578	36123.81
653.93	36085.62
654.282	36073.19
654.633	35982.8
654.985	36038.39
655.337	35864.16
655.688	36050.59
656.039	36034.77
656.391	35742.58
656.742	35846.76
657.094	35821.22
657.445	36020.76
657.796	35932.4
658.147	35683.14
658.498	35800.65
658.849	35971.72
659.2	35863.93
659.551	35735.12
659.902	35952.06
660.253	35881.78
660.604	35937.37
660.955	35761.56
661.306	35813.54
661.656	35719.53
662.007	35762.92
662.358	35687.89
662.708	35712.07
663.059	35698.06
663.409	35676.59
663.76	35729.47
664.11	35795.91
664.461	35837.94
664.811	35905.06
665.161	35841.33
665.511	35723.37
665.862	35827.77
666.212	35823.93
666.562	35899.41
666.912	35703.71
667.262	35698.74
667.612	35747.77
667.962	35765.85
668.312	35688.57
668.662	35862.57
669.011	35718.62
669.361	35648.57
669.711	35675.69
670.06	35639.08
670.41	35450.83
670.76	35487.89
671.109	35603.37
671.459	35708
671.808	35569.7
672.157	35598.85
672.507	35353.21
672.856	35373.55
673.205	35430.49
673.554	35711.39
673.904	35429.14
674.253	35700.77
674.602	35380.78
674.951	35018.53
675.3	34800
675.649	35359.08
675.998	35366.77
676.346	35267.56
676.695	35572.41
677.044	35203.61
677.393	35296.26
677.741	35446.99
678.09	35283.61
678.438	35248.8
678.787	35334.9
679.135	35284.74
679.484	35076.38
679.832	35260.33
680.181	35032.99
680.529	35074.57
680.877	34968.59
681.225	34992.54
681.573	35140.11
681.922	34918.64
682.27	34835.26
682.618	34839.78
682.966	34730.63
683.314	34738.31
683.661	34740.34
684.009	34538.77
684.357	34483.4
684.705	34498.32
685.053	34489.5
685.4	34427.13
685.748	34294.93
686.095	34288.6
686.443	34320.69
686.79	34066.91
687.138	34179.91
687.485	34211.32
687.832	34068.95
688.18	33996.63
688.527	33859.46
688.874	33763.19
689.221	33757.54
689.568	33763.65
689.915	33588.51
690.262	33497.89
690.609	33595.29
690.956	33462.64
691.303	33465.12
691.65	33253.83
691.997	33240.95
692.344	33050.44
692.69	33031.69
693.037	33190.55
693.383	32944.91
693.73	32899.49
694.077	32769.77
694.423	32874.18
694.769	32730.45
695.116	32547.63
695.462	32523
695.808	32378.82
696.155	32607.97
696.501	32200.75
696.847	32345.6
697.193	31915.33
697.539	32318.71
697.885	31996.01
698.231	31765.96
698.577	31978.38
698.923	31798.95
699.269	31592.86
699.614	31596.47
699.96	31455.91
700.306	31438.74
700.651	31267.89
700.997	31243.49
701.342	31172.08
701.688	31252.3
702.033	31098.41
702.379	31055.69
702.724	30916.72
703.069	31041.23
703.415	30561.24
703.76	30653.67
704.105	30605.99
704.45	30551.98
704.795	30390.63
705.14	30186.57
705.485	30344.08
705.83	30178.2
706.175	30166.23
706.52	30139.11
706.865	29948.83
707.209	29960.58
707.554	29834.48
707.899	30109.28
708.243	29713.36
708.588	29772.56
708.932	29506.81
709.277	29518.33
709.621	29548.84
709.966	29374.16
710.31	29516.53
710.654	29162.64
710.998	29345.91
711.342	29240.15
711.687	29138.01
712.031	28984.11
712.375	28970.33
712.719	29037.22
713.063	28856.88
713.407	28964.45
713.75	28829.31
714.094	28788.41
714.438	28785.25
714.782	28679.26
715.125	28510.22
715.469	28615.98
715.812	28403.11
716.156	28334.86
716.499	28319.5
716.843	28437.23
717.186	28276.11
717.53	28360.85
717.873	28349.78
718.216	28265.03
718.559	28058.49
718.902	28010.13
719.246	27944.14
719.589	27899.85
719.932	27830.47
720.275	27825.5
720.617	27772.39
720.96	27771.26
721.303	27665.05
721.646	27724.48
721.989	27574.88
722.331	27635.22
722.674	27525.62
723.016	27560.42
723.359	27501.44
723.701	27538.05
724.044	27262.35
724.386	27262.57
724.729	27279.07
725.071	27173.99
725.413	27129.7
725.755	27194.33
726.097	27095.12
726.439	26858.97
726.782	26965.41
727.124	26991.17
727.465	26867.1
727.807	26996.37
728.149	26768.35
728.491	26697.84
728.833	26850.61
729.175	26695.58
729.516	26667.34
729.858	26499.43
730.199	26535.14
730.541	26522.03
730.882	26512.99
731.224	26585.98
731.565	26395.25
731.906	26462.6
732.248	26412.65
732.589	26182.38
732.93	26118.42
733.271	26215.82
733.612	26220.34
733.953	26246.33
734.294	26145.77
734.635	26042.49
734.976	26165.88
735.317	26010.63
735.658	25976.05
735.999	26011.53
736.339	25964.98
736.68	26018.99
737.021	25796.85
737.361	25662.84
737.702	25887.47
738.042	25703.75
738.383	25679.56
738.723	25848.83
739.063	25642.73
739.404	25590.75
739.744	25625.1
740.084	25511.43
740.424	25482.73
740.764	25426.69
741.104	25421.49
741.444	25380.36
741.784	25417.88
742.124	25291.55
742.464	25302.17
742.804	25191.89
743.143	25162.06
743.483	25188.96
743.823	25166.58
744.162	25037.32
744.502	25182.85
744.841	24890.66
745.181	25143.08
745.52	24905.35
745.86	24953.71
746.199	24955.29
746.538	24983.54
746.877	24878.91
747.216	24804.11
747.556	24810.21
747.895	24819.93
748.234	24624.68
748.573	24665.35
748.911	24556.66
749.25	24422.42
749.589	24395.76
749.928	24461.07
750.267	24437.56
750.605	24316.21
750.944	24261.98
751.283	24159.6
751.621	24377
751.96	24224.01
752.298	24097.01
752.636	24134.75
752.975	23990.57
753.313	23946.5
753.651	24118.7
753.989	23983.79
754.327	23850.23
754.666	23784.25
755.004	23757.58
755.342	23824.02
755.679	23703.57
756.017	23556.46
756.355	23726.4
756.693	23496.35
757.031	23553.75
757.368	23278.05
757.706	23367.08
758.044	23258.39
758.381	23264.94
758.719	23205.05
759.056	23149.69
759.394	23195.11
759.731	23014.1
760.068	22939.75
760.405	22900.65
760.743	22748.12
761.08	22786.76
761.417	22670.38
761.754	22753.99
762.091	22602.13
762.428	22520.55
762.765	22405.53
763.102	22441.91
763.438	22302.93
763.775	22156.49
764.112	22225.87
764.449	22208.92
764.785	22075.59
765.122	21894.35
765.458	21892.77
765.795	21753.79
766.131	21906.33
766.467	21657.75
766.804	21657.3
767.14	21494.14
767.476	21560.58
767.812	21476.51
768.148	21387.93
768.485	21397.87
768.821	21271.77
769.157	21212.79
769.492	21175.05
769.828	21148.38
770.164	20910.42
770.5	20899.8
770.836	20850.54
771.171	20720.15
771.507	20699.36
771.842	20640.6
772.178	20594.5
772.513	20566.25
772.849	20544.56
773.184	20446.71
773.519	20375.07
773.855	20285.81
774.19	20176.66
774.525	20071.12
774.86	20003.33
775.195	20020.5
775.53	19921.07
775.865	19898.02
776.2	19644.02
776.535	19424.14
776.87	19540.07
777.205	19463.23
777.539	19428.43
777.874	19427.07
778.209	19212.39
778.543	19285.61
778.878	19091.94
779.212	19069.34
779.547	19009.01
779.881	19144.82
780.215	18897.6
780.55	18818.28
780.884	18771.27
781.218	18820.76
781.552	18798.62
781.886	18642.24
782.22	18521.34
782.554	18477.27
782.888	18347.78
783.222	18354.56
783.556	18128.58
783.889	18115.24
784.223	17975.36
784.557	17983.04
784.89	18050.61
785.224	17882.26
785.557	17771.07
785.891	17796.38
786.224	17640.68
786.558	17719.32
786.891	17565.88
787.224	17445.66
787.557	17370.63
787.891	17391.87
788.224	17246.11
788.557	17359.33
788.89	17319.33
789.223	17286.79
789.556	17099.23
789.888	17056.06
790.221	16910.3
790.554	16773.58
790.887	16869.18
791.219	16823.07
791.552	16788.95
791.884	16754.15
792.217	16616.3
792.549	16562.97
792.882	16382.18
793.214	16393.71
793.546	16385.57
793.879	16361.62
794.211	16129.53
794.543	16228.74
794.875	16197.55
795.207	16134.96
795.539	16102.19
795.871	16071.68
796.203	15915.53
796.535	15904.91
796.867	15888.86
797.198	15747.4
797.53	15815.42
797.862	15711.69
798.193	15674.18
798.525	15502.21
798.856	15628.76
799.188	15403.9
799.519	15459.49
799.85	15304.24
800.182	15331.36
800.513	15314.87
800.844	15152.61
801.175	15320.29
801.506	15226.28
801.837	15166.4
802.168	15183.57
802.499	15065.61
802.83	15002.78
803.161	14913.97
803.491	14885.5
803.822	14931.15
804.153	14769.34
804.483	14657.93
804.814	14576.13
805.145	14677.37
805.475	14631.27
805.805	14659.29
806.136	14548.78
806.466	14563.92
806.796	14486.86
807.126	14424.27
807.457	14353.08
807.787	14321.22
808.117	14274.44
808.447	14227.44
808.777	14272.86
809.107	14193.09
809.436	14178.62
809.766	14158.29
810.096	14066.31
810.426	14026.76
810.755	13946.31
811.085	13928.24
811.414	13970.04
811.744	13807.11
812.073	13787.22
812.403	13879.42
812.732	13725.98
813.061	13726.88
813.39	13611.86
813.719	13652.31
814.049	13691.41
814.378	13673.33
814.707	13523.73
815.036	13563.95
815.365	13552.65
815.693	13316.95
816.022	13356.73
816.351	13313.79
816.68	13346.78
817.008	13293.22
817.337	13210.97
817.665	13163.74
817.994	13190.85
818.322	13135.04
818.651	13098.88
818.979	13013.68
819.307	13147.01
819.636	13150.85
819.964	12993.12
820.292	12977.3
820.62	13020.46
820.948	12951.76
821.276	12948.83
821.604	12901.6
821.932	12993.12
822.259	13000.58
822.587	12897.08
822.915	12905.44
823.243	12919.9
823.57	12875.61
823.898	12860.47
824.225	12853.91
824.553	12871.54
824.88	12872.22
825.207	12862.95
825.535	12846.91
825.862	12871.99
826.189	12805.78
826.516	12871.99
826.843	12877.19
827.17	12915.38
827.497	12933.46
827.824	12892.33
828.151	12895.04
828.478	12938.66
828.805	12897.08
829.131	12767.59
829.458	12853.46
829.785	12787.25
830.111	12833.35
830.438	12824.99
830.764	12851.2
831.09	12887.36
831.417	12722.62
831.743	12819.34
832.069	12835.16
832.395	12721.71
832.722	12782.05
833.048	12748.15
833.374	12810.98
833.7	12659.12
834.026	12754.48
834.351	12693.01
834.677	12683.3
835.003	12689.85
835.329	12767.81
835.654	12606.24
835.98	12640.13
836.306	12701.83
836.631	12648.72
836.956	12624.09
837.282	12663.18
837.607	12503.87
837.932	12440.36
838.258	12521.27
838.583	12526.24
838.908	12491.89
839.233	12505.9
839.558	12391.33
839.883	12353.59
840.208	12363.98
840.533	12336.86
840.858	12318.11
841.182	12313.59
841.507	12278.34
841.832	12191.33
842.156	12209.18
842.481	12226.13
842.805	12191.33
843.13	12097.55
843.454	12104.33
843.778	12098
844.103	12112.69
844.427	12003.77
844.751	12017.78
845.075	12023.65
845.399	11901.4
845.723	11845.58
846.047	11977.33
846.371	11729.2
846.695	11741.63
847.019	11713.83
847.343	11640.16
847.666	11528.3
847.99	11589.77
848.313	11540.5
848.637	11457.79
848.96	11458.7
849.284	11427.28
849.607	11382.77
849.931	11354.07
850.254	11246.05
850.577	11211.92
850.9	11051.93
851.223	11126.5
851.546	10992.72
851.869	10946.62
852.192	11042.21
852.515	10930.8
852.838	10872.27
853.161	10882.44
853.483	10809.45
853.806	10789.11
854.129	10786.4
854.451	10660.75
854.774	10683.35
855.096	10629.79
855.419	10564.71
855.741	10554.54
856.063	10523.35
856.385	10491.94
856.708	10418.5
857.03	10472.96
857.352	10442
857.674	10410.36
857.996	10293.08
858.318	10271.83
858.64	10330.82
858.961	10224.6
859.283	10228.45
859.605	10169.01
859.926	10208.11
860.248	10148.45
860.57	10045.4
860.891	10165.85
861.212	10102.8
861.534	10033.42
861.855	10024.38
862.176	10069.81
862.498	9982.12
862.819	10039.3
863.14	9948.23
863.461	9976.47
863.782	9965.18
864.103	9922.92
864.424	9795.91
864.745	9895.57
865.065	9801.56
865.386	9748.46
865.707	9790.72
866.027	9691.96
866.348	9788.91
866.668	9801.11
866.989	9758.4
867.309	9631.63
867.63	9664.39
867.95	9633.66
868.27	9631.63
868.59	9667.1
868.91	9628.91
869.23	9599.54
869.55	9588.91
869.87	9597.28
870.19	9541.68
870.51	9564.06
870.83	9605.41
871.15	9521.8
871.469	9495.36
871.789	9507.79
872.109	9490.39
872.428	9490.61
872.748	9444.96
873.067	9478.63
873.386	9450.61
873.706	9417.85
874.025	9381.69
874.344	9322.93
874.663	9334.46
874.982	9327.9
875.301	9298.07
875.62	9264.18
875.939	9320
876.258	9280.45
876.577	9218.53
876.896	9278.19
877.214	9129.94
877.533	9249.71
877.852	9166.1
878.17	9252.88
878.489	9140.79
878.807	9186.89
879.125	9135.59
879.444	9092.2
879.762	9080.68
880.08	9082.49
880.398	9052.88
880.716	9098.76
881.034	9059.21
881.352	9046.1
881.67	8981.47
881.988	8985.31
882.306	8949.16
882.624	8901.47
882.941	8881.59
883.259	8887.69
883.577	8895.83
883.894	8819.67
884.212	8861.02
884.529	8805.43
884.846	8767.02
885.164	8805.43
885.481	8745.77
885.798	8727.69
886.115	8754.13
886.432	8705.77
886.75	8668.94
887.067	8590.07
887.383	8593.01
887.7	8605.66
888.017	8593.69
888.334	8583.52
888.651	8561.14
888.967	8532.22
889.284	8528.15
889.6	8528.38
889.917	8376.29
890.233	8395.05
890.55	8400.25
890.866	8346.69
891.182	8416.29
891.498	8356.63
891.815	8285.9
892.131	8288.84
892.447	8252.68
892.763	8242.74
893.079	8183.3
893.395	8191.89
893.71	8142.85
894.026	8132.46
894.342	8104.21
894.657	8077.77
894.973	8061.5
895.289	8070.54
895.604	8037.77
895.92	7943.99
896.235	7945.57
896.55	7958.22
896.865	7948.51
897.181	7874.61
897.496	7920.26
897.811	7861.95
898.126	7788.06
898.441	7755.74
898.756	7754.84
899.071	7736.99
899.386	7727.95
899.7	7663.54
900.015	7658.57
900.33	7548.74
900.644	7633.94
900.959	7593.49
901.273	7532.7
901.588	7502.87
901.902	7487.5
902.216	7439.37
902.531	7466.03
902.845	7379.03
903.159	7371.12
903.473	7306.71
903.787	7344.23
904.101	7338.35
904.415	7277.34
904.729	7214.74
905.042	7152.37
905.356	7168.87
905.67	7167.51
905.984	7158.92
906.297	7115.31
906.611	7080.73
906.924	7040.28
907.237	7061.07
907.551	7025.82
907.864	7031.47
908.177	6962.99
908.491	6930.68
908.804	6915.09
909.117	6856.33
909.43	6829.21
909.743	6778.37
910.056	6778.37
910.368	6742.89
910.681	6701.53
910.994	6690.91
911.307	6706.96
911.619	6645.26
911.932	6609.11
912.244	6578.15
912.557	6560.75
912.869	6537.24
913.181	6562.55
913.494	6512.16
913.806	6454.53
914.118	6447.98
914.43	6385.83
914.742	6389.45
915.054	6381.54
915.366	6294.99
915.678	6294.99
915.99	6251.38
916.302	6255.67
916.613	6238.49
916.925	6194.2
917.236	6170.47
917.548	6187.2
917.859	6191.04
918.171	6102.45
918.482	6091.61
918.794	6027.2
919.105	6031.72
919.416	5994.21
919.727	5947.65
920.038	5963.7
920.349	5938.84
920.66	5886.64
920.971	5885.96
921.282	5868.79
921.593	5767.32
921.903	5798.96
922.214	5746.08
922.525	5742.46
922.835	5698.17
923.146	5698.62
923.456	5709.47
923.767	5709.24
924.077	5652.29
924.387	5603.93
924.697	5563.48
925.008	5622.47
925.318	5535.69
925.628	5582.69
925.938	5476.03
926.248	5499.53
926.558	5411.62
926.867	5413.66
927.177	5372.98
927.487	5368.23
927.796	5356.94
928.106	5286.88
928.416	5323.04
928.725	5299.31
929.034	5228.8
929.344	5230.84
929.653	5212.76
929.962	5192.42
930.271	5181.57
930.581	5154.68
930.89	5138.86
931.199	5100.44
931.508	5076.04
931.817	5125.98
932.125	5059.09
932.434	5077.85
932.743	5024.29
933.051	4943.84
933.36	4955.82
933.669	4984.97
933.977	4885.54
934.286	4892.77
934.594	4851.86
934.902	4842.37
935.21	4793.33
935.519	4828.81
935.827	4807.57
936.135	4783.84
936.443	4736.61
936.751	4683.73
937.059	4689.38
937.367	4707.69
937.674	4655.26
937.982	4638.99
938.29	4608.48
938.597	4635.37
938.905	4578.42
939.213	4587.24
939.52	4554.7
939.827	4577.75
940.135	4512.21
940.442	4500.46
940.749	4473.79
941.056	4522.38
941.363	4417.53
941.67	4411.2
941.977	4412.78
942.284	4408.26
942.591	4412.33
942.898	4340.01
943.205	4360.35
943.511	4308.38
943.818	4288.94
944.125	4289.39
944.431	4296.62
944.738	4249.39
945.044	4232.67
945.35	4226.12
945.657	4200.81
945.963	4179.11
946.269	4173.92
946.575	4128.27
946.881	4140.24
947.187	4086.46
947.493	4052.56
947.799	4078.1
948.105	4063.64
948.41	4033.35
948.716	4042.85
949.022	4018.44
949.327	4017.99
949.633	3962.17
949.938	3978.44
950.244	3949.06
950.549	3890.76
950.854	3882.62
951.16	3841.95
951.465	3848.05
951.77	3826.81
952.075	3884.43
952.38	3817.31
952.685	3831.78
952.99	3778.9
953.294	3759.46
953.599	3712.23
953.904	3721.5
954.209	3731.44
954.513	3725.57
954.818	3662.74
955.122	3690.31
955.426	3660.71
955.731	3642.18
956.035	3614.61
956.339	3573.25
956.643	3606.25
956.948	3560.15
957.252	3610.99
957.556	3571.22
957.86	3552.24
958.163	3521.73
958.467	3500.94
958.771	3497.55
959.075	3462.75
959.378	3452.8
959.682	3445.8
959.985	3421.17
960.289	3415.07
960.592	3413.48
960.896	3391.79
961.199	3393.37
961.502	3366.93
961.805	3351.56
962.108	3315.63
962.411	3331
962.714	3309.31
963.017	3269.08
963.32	3294.84
963.623	3244.67
963.926	3273.6
964.228	3245.58
964.531	3228.4
964.833	3203.55
965.136	3207.61
965.438	3206.48
965.741	3156.99
966.043	3142.08
966.345	3168.74
966.648	3137.78
966.95	3119.48
967.252	3103.21
967.554	3098.92
967.856	3092.14
968.158	3057.33
968.46	3040.16
968.761	3035.19
969.063	3007.84
969.365	2980.73
969.666	2984.12
969.968	2970.11
970.269	3001.29
970.571	2967.85
970.872	2928.52
971.174	2944.34
971.475	2931.24
971.776	2913.61
972.077	2905.25
972.378	2872.93
972.679	2856.21
972.98	2838.81
973.281	2807.17
973.582	2836.78
973.883	2829.09
974.183	2811.92
974.484	2773.73
974.785	2776.44
975.085	2767.62
975.386	2797.45
975.686	2731.24
975.986	2723.11
976.287	2686.27
976.587	2670.68
976.887	2678.36
977.187	2667.74
977.487	2663.22
977.787	2678.59
978.087	2646.05
978.387	2681.3
978.687	2606.05
978.987	2644.69
979.286	2587.29
979.586	2613.05
979.885	2546.84
980.185	2572.38
980.484	2551.81
980.784	2551.36
981.083	2509.78
981.382	2503.45
981.682	2528.54
981.981	2504.81
982.28	2486.05
982.579	2497.58
982.878	2510
983.177	2488.76
983.475	2458.03
983.774	2454.86
984.073	2390.01
984.372	2418.93
984.67	2429.55
984.969	2416.9
985.267	2383.23
985.566	2370.35
985.864	2339.61
986.162	2390.46
986.461	2335.77
986.759	2350.01
987.057	2306.39
987.355	2263.68
987.653	2321.76
987.951	2300.74
988.249	2298.71
988.547	2279.05
988.844	2260.29
989.142	2259.39
989.44	2263.91
989.737	2223.46
990.035	2251.25
990.332	2190.92
990.63	2187.98
990.927	2191.14
991.224	2208.09
991.521	2176.23
991.819	2149.79
992.116	2138.49
992.413	2116.34
992.71	2099.17
993.006	2117.47
993.303	2133.52
993.6	2137.13
993.897	2123.8
994.193	2084.48
994.49	2082.67
994.787	2069.56
995.083	2023.01
995.379	2046.06
995.676	2043.58
995.972	2040.64
996.268	1989.57
996.565	2011.03
996.861	1981.88
997.157	2009.9
997.453	1992.96
997.749	1961.77
998.044	1987.08
998.34	1932.62
998.636	1931.04
998.932	1940.75
999.227	1916.12
999.523	1881.09
999.818	1905.27
1000.114	1916.12
1000.409	1882.22
1000.704	1842.68
1001	1862.11
1001.295	1866.86
1001.59	1854.65
1001.885	1870.47
1002.18	1826.86
1002.475	1816.69
1002.77	1800.87
1003.065	1778.27
1003.359	1792.74
1003.654	1784.15
1003.949	1788.67
1004.243	1769.01
1004.538	1737.37
1004.832	1774.43
1005.127	1756.13
1005.421	1732.4
1005.715	1712.51
1006.009	1733.3
1006.304	1701.21
1006.598	1677.03
1006.892	1687.2
1007.186	1670.03
1007.48	1675.45
1007.773	1672.96
1008.067	1651.5
1008.361	1626.64
1008.655	1634.32
1008.948	1627.77
1009.242	1621.89
1009.535	1590.48
1009.829	1629.58
1010.122	1589.35
1010.415	1567.66
1010.708	1562.46
1011.001	1530.82
1011.295	1547.09
1011.588	1548
1011.881	1544.61
1012.173	1515.23
1012.466	1533.99
1012.759	1523.36
1013.052	1504.61
1013.344	1496.25
1013.637	1489.92
1013.93	1491.05
1014.222	1471.16
1014.514	1452.41
1014.807	1431.16
1015.099	1450.82
1015.391	1431.84
1015.683	1432.74
1015.976	1416.7
1016.268	1401.33
1016.56	1404.05
1016.851	1383.03
1017.143	1378.51
1017.435	1367.66
1017.727	1354.55
1018.018	1369.24
1018.31	1337.38
1018.602	1345.06
1018.893	1331.73
1019.185	1319.08
1019.476	1308
1019.767	1311.17
1020.058	1286.08
1020.35	1298.29
1020.641	1300.77
1020.932	1265.74
1021.223	1266.42
1021.514	1273.43
1021.804	1250.15
1022.095	1258.74
1022.386	1211.28
1022.677	1230.26
1022.967	1240.66
1023.258	1202.69
1023.548	1209.47
1023.839	1210.38
1024.129	1207.89
1024.419	1197.72
1024.709	1180.32
1025	1169.02
1025.29	1144.16
1025.58	1148.46
1025.87	1145.52
1026.16	1119.53
1026.449	1139.19
1026.739	1134.45
1027.029	1140.1
1027.319	1126.54
1027.608	1113.66
1027.898	1104.62
1028.187	1094.67
1028.477	1110.27
1028.766	1085.64
1029.055	1079.08
1029.344	1043.38
1029.634	1074.11
1029.923	1040.66
1030.212	1067.33
1030.501	1043.15
1030.79	1022.13
1031.078	1026.43
1031.367	1027.56
1031.656	1037.73
1031.945	998.86
1032.233	978.75
1032.522	988.91
1032.81	982.59
1033.099	1005.19
1033.387	957.73
1033.675	957.05
1033.963	958.41
1034.251	973.55
1034.54	959.08
1034.828	940.1
1035.116	953.44
1035.403	927
1035.691	938.07
1035.979	919.76
1036.267	914.11
1036.554	903.72
1036.842	931.06
1037.129	906.43
1037.417	898.52
1037.704	896.71
1037.992	868.24
1038.279	873.89
1038.566	881.57
1038.853	881.57
1039.14	881.57
