Data from hue_00_FLMS001491_45.txt Node
Date: Mon Feb 06 15:29:46 GMT 2017
User: dcchb
Spectrometer: FLMS00149
Trigger mode: 0
Integration Time (sec): 2.000000E-2
Scans to average: 10
Electric dark correction enabled: true
Nonlinearity correction enabled: false
Boxcar width: 0
XAxis mode: Wavelengths
Number of Pixels in Spectrum: 2048
>>>>>Begin Spectral Data<<<<<
341.393	4.63
341.776	4.63
342.16	4.63
342.543	-37.4
342.927	-66.33
343.31	-70.62
343.693	-55.03
344.077	-58.42
344.46	-63.16
344.843	-54.57
345.226	-39.21
345.61	-17.06
345.993	8.02
346.376	-26.78
346.759	10.96
347.142	26.55
347.525	36.72
347.908	48.47
348.291	68.13
348.674	86.21
349.057	99.77
349.44	120.79
349.823	139.54
350.206	155.82
350.588	185.64
350.971	228.58
351.354	227.45
351.737	237.62
352.119	249.82
352.502	249.15
352.884	280.78
353.267	293.21
353.65	283.5
354.032	289.14
354.414	311.97
354.797	284.4
355.179	301.35
355.562	321.23
355.944	324.62
356.326	341.12
356.709	327.56
357.091	341.35
357.473	347.67
357.855	339.54
358.238	320.33
358.62	326.66
359.002	322.82
359.384	320.78
359.766	345.41
360.148	345.64
360.53	334.79
360.912	338.41
361.294	329.6
361.676	330.27
362.057	327.56
362.439	325.98
362.821	310.16
363.203	325.75
363.584	327.11
363.966	300.22
364.348	312.65
364.729	322.14
365.111	324.85
365.493	315.81
365.874	316.94
366.256	329.14
366.637	340.44
367.019	305.64
367.4	318.97
367.781	317.17
368.163	314.23
368.544	326.43
368.925	309.03
369.306	320.56
369.688	298.86
370.069	299.54
370.45	313.1
370.831	299.99
371.212	312.87
371.593	310.84
371.974	288.92
372.355	310.84
372.736	319.43
373.117	321.69
373.498	307.9
373.879	323.04
374.26	316.04
374.641	320.56
375.021	312.87
375.402	318.52
375.783	331.86
376.163	336.38
376.544	315.81
376.925	317.84
377.305	323.04
377.686	348.35
378.066	327.56
378.447	317.62
378.827	332.31
379.208	349.93
379.588	327.79
379.968	332.08
380.349	319.65
380.729	323.72
381.109	325.75
381.489	331.86
381.87	328.69
382.25	346.54
382.63	349.03
383.01	338.41
383.39	338.18
383.77	328.69
384.15	336.15
384.53	337.51
384.91	337.51
385.29	337.96
385.67	340.44
386.049	351.06
386.429	339.99
386.809	356.49
387.189	351.74
387.568	338.64
387.948	348.13
388.328	349.03
388.707	356.94
389.087	351.97
389.466	345.64
389.846	354.23
390.225	365.08
390.605	357.84
390.984	375.92
391.363	383.83
391.743	357.62
392.122	364.17
392.501	373.21
392.881	369.82
393.26	382.93
393.639	353.32
394.018	361.23
394.397	384.06
394.776	356.71
395.155	363.95
395.534	386.09
395.913	391.74
396.292	386.09
396.671	360.56
397.05	375.24
397.429	368.46
397.808	391.97
398.186	379.99
398.565	377.73
398.944	383.15
399.323	382.7
399.701	370.27
400.08	401.91
400.458	394.9
400.837	411.4
401.215	408.46
401.594	407.79
401.972	389.48
402.351	379.54
402.729	391.97
403.107	378.41
403.486	393.1
403.864	402.36
404.242	393.77
404.62	417.5
404.999	387.45
405.377	411.4
405.755	409.82
406.133	406.88
406.511	432.64
406.889	406.43
407.267	424.96
407.645	413.89
408.023	438.07
408.401	434.9
408.779	425.64
409.156	439.65
409.534	415.47
409.912	421.8
410.29	409.59
410.667	450.5
411.045	453.21
411.422	447.11
411.8	434.23
412.178	443.27
412.555	453.66
412.933	462.25
413.31	480.78
413.687	463.6
414.065	464.96
414.442	469.93
414.819	445.53
415.197	471.51
415.574	471.74
415.951	465.19
416.328	466.77
416.705	478.52
417.082	465.86
417.46	470.61
417.837	494.79
418.214	491.4
418.591	495.02
418.967	477.84
419.344	509.48
419.721	512.42
420.098	483.49
420.475	530.95
420.852	526.2
421.228	528.23
421.605	503.83
421.982	515.13
422.358	534.56
422.735	532.75
423.111	538.18
423.488	522.59
423.864	547.22
424.241	532.53
424.617	563.26
424.994	545.41
425.37	551.51
425.746	564.17
426.123	552.19
426.499	565.97
426.875	566.2
427.251	560.1
427.627	551.74
428.003	560.1
428.379	584.5
428.756	584.96
429.132	574.11
429.507	587.44
429.883	599.65
430.259	603.03
430.635	603.26
431.011	602.36
431.387	599.65
431.763	612.53
432.138	615.46
432.514	637.38
432.89	642.58
433.265	621.79
433.641	652.98
434.016	646.65
434.392	658.85
434.767	648.91
435.143	666.31
435.518	662.69
435.894	642.36
436.269	670.38
436.644	681.9
437.02	682.58
437.395	681
437.77	689.36
438.145	692.98
438.52	728.91
438.895	683.26
439.271	715.35
439.646	730.94
440.021	715.12
440.395	711.28
440.77	727.78
441.145	707.44
441.52	760.09
441.895	739.98
442.27	736.14
442.645	758.29
443.019	744.27
443.394	726.42
443.769	741.79
444.143	744.95
444.518	761
444.892	763.93
445.267	799.41
445.641	777.49
446.016	786.08
446.39	780.43
446.764	794.89
447.139	789.24
447.513	816.81
447.887	795.12
448.262	810.04
448.636	814.33
449.01	823.82
449.384	802.13
449.758	800.77
450.132	822.92
450.506	818.62
450.88	826.53
451.254	816.81
451.628	840.77
452.002	850.71
452.376	841.22
452.75	851.62
453.123	867.66
453.497	887.32
453.871	892.74
454.244	882.58
454.618	912.41
454.992	879.19
455.365	927.32
455.739	906.3
456.112	899.98
456.486	917.83
456.859	931.16
457.232	938.85
457.606	975
457.979	956.7
458.352	978.84
458.725	984.95
459.099	986.53
459.472	1007.09
459.845	1007.77
460.218	1019.75
460.591	1046.64
460.964	1003.25
461.337	1036.92
461.71	1055.68
462.083	1085.06
462.456	1061.55
462.829	1090.71
463.201	1092.29
463.574	1121.67
463.947	1093.42
464.32	1107.65
464.692	1158.27
465.065	1156.47
465.438	1141.1
465.81	1153.08
466.183	1180.65
466.555	1184.26
466.928	1232.4
467.3	1218.39
467.672	1224.94
468.045	1258.38
468.417	1290.02
468.789	1248.89
469.161	1288.44
469.534	1280.31
469.906	1336.35
470.278	1334.09
470.65	1332.06
471.022	1364.6
471.394	1391.04
471.766	1411.38
472.138	1411.83
472.51	1460.19
472.882	1460.19
473.253	1496.57
473.625	1527.08
473.997	1534.08
474.369	1551.71
474.74	1568.89
475.112	1586.51
475.484	1639.84
475.855	1656.34
476.227	1668.77
476.598	1696.34
476.97	1721.42
477.341	1775.89
477.713	1788.54
478.084	1803
478.455	1830.8
478.827	1867.63
479.198	1932.27
479.569	1916.22
479.94	1967.52
480.311	2012.72
480.682	2033.28
481.053	2067.18
481.424	2094.97
481.795	2143.56
482.166	2164.58
482.537	2167.97
482.908	2259.04
483.279	2271.92
483.65	2291.35
484.021	2350.33
484.391	2364.57
484.762	2415.64
485.133	2437.79
485.503	2460.39
485.874	2471.69
486.244	2552.81
486.615	2603.89
486.985	2627.61
487.356	2695.86
487.726	2704.45
488.097	2738.8
488.467	2807.5
488.837	2843.2
489.207	2842.98
489.578	2876.2
489.948	2940.83
490.318	3000.26
490.688	3004.78
491.058	3064.89
491.428	3082.52
491.798	3130.2
492.168	3170.43
492.538	3183.53
492.908	3272.57
493.278	3286.81
493.648	3281.61
494.017	3276.19
494.387	3350.99
494.757	3417.88
495.126	3423.07
495.496	3423.3
495.866	3461.72
496.235	3546.91
496.605	3575.84
496.974	3572.22
497.344	3601.37
497.713	3635.95
498.082	3649.51
498.452	3701.48
498.821	3689.51
499.19	3726.12
499.559	3727.7
499.928	3759.56
500.298	3814.7
500.667	3816.06
501.036	3821.71
501.405	3904.19
501.774	3896.73
502.143	3898.09
502.512	3967.24
502.88	3975.15
503.249	3966.34
503.618	3978.99
503.987	4003.85
504.356	4068.48
504.724	4059.67
505.093	4067.35
505.462	4074.13
505.83	4091.53
506.199	4151.64
506.567	4172.21
506.936	4194.35
507.304	4193.45
507.672	4219.89
508.041	4226.22
508.409	4284.07
508.777	4273.9
509.145	4303.73
509.514	4331.98
509.882	4337.63
510.25	4327.91
510.618	4353.9
510.986	4365.65
511.354	4381.69
511.722	4460.79
512.09	4491.75
512.458	4472.54
512.826	4492.2
513.193	4488.58
513.561	4480
513.929	4573.55
514.297	4567.68
514.664	4583.72
515.032	4600.22
515.4	4625.08
515.767	4651.74
516.135	4661.23
516.502	4636.38
516.869	4697.84
517.237	4707.33
517.604	4724.73
517.972	4772.19
518.339	4762.02
518.706	4710.95
519.073	4722.47
519.44	4778.97
519.808	4839.76
520.175	4840.44
520.542	4842.25
520.909	4907.55
521.276	4884.73
521.643	4924.28
522.009	4961.56
522.376	4966.99
522.743	4963.6
523.11	5044.73
523.477	5035.69
523.843	5062.58
524.21	5126.08
524.577	5116.14
524.943	5147.32
525.31	5179.86
525.676	5250.14
526.043	5257.83
526.409	5290.6
526.776	5296.7
527.142	5308.67
527.508	5347.32
527.874	5366.07
528.241	5385.51
528.607	5404.04
528.973	5454.66
529.339	5453.75
529.705	5492.4
530.071	5545.28
530.437	5568.1
530.803	5622.79
531.169	5587.54
531.535	5604.71
531.901	5639.06
532.267	5667.99
532.632	5705.5
532.998	5729.23
533.364	5733.97
533.73	5797.02
534.095	5823.69
534.461	5824.82
534.826	5841.54
535.192	5856.68
535.557	5926.28
535.923	5896.46
536.288	5892.61
536.653	5949.34
537.019	5998.83
537.384	5977.13
537.749	6047.86
538.114	6115.21
538.479	6071.14
538.845	6061.87
539.21	6128.31
539.575	6119.05
539.94	6150.69
540.305	6200.85
540.67	6199.95
541.034	6214.19
541.399	6265.03
541.764	6296.44
542.129	6261.87
542.494	6316.11
542.858	6358.36
543.223	6303
543.587	6431.13
543.952	6416.67
544.316	6455.54
544.681	6469.32
545.045	6498.47
545.41	6578.25
545.774	6498.25
546.138	6537.79
546.503	6595.42
546.867	6606.72
547.231	6621.63
547.595	6704.8
547.959	6699.6
548.324	6749.77
548.688	6736.43
549.052	6747.51
549.416	6777.11
549.779	6759.71
550.143	6813.95
550.507	6808.75
550.871	6885.13
551.235	6832.25
551.599	6922.42
551.962	6923.09
552.326	6941.4
552.689	6946.82
553.053	6950.66
553.417	7024.56
553.78	7093.94
554.143	7075.41
554.507	7062.3
554.87	7073.6
555.234	7199.02
555.597	7084.45
555.96	7203.09
556.323	7167.38
556.686	7246.7
557.05	7297.32
557.413	7215.74
557.776	7233.82
558.139	7319.92
558.502	7275.18
558.865	7363.08
559.228	7411.44
559.59	7418.67
559.953	7387.26
560.316	7455.74
560.679	7483.08
561.041	7534.6
561.404	7551.78
561.767	7649.63
562.129	7582.51
562.492	7603.53
562.854	7590.65
563.217	7649.63
563.579	7650.31
563.941	7688.05
564.304	7762.85
564.666	7800.81
565.028	7833.58
565.39	7794.48
565.753	7854.37
566.115	7803.52
566.477	7866.57
566.839	7909.28
567.201	7980.92
567.563	7935.72
567.925	8055.95
568.287	8063.86
568.648	8056.85
569.01	8130.75
569.372	8131.88
569.734	8140.01
570.095	8173.23
570.457	8300.46
570.819	8277.41
571.18	8261.59
571.542	8311.76
571.903	8368.25
572.265	8422.49
572.626	8460.68
572.987	8479.66
573.349	8544.75
573.71	8615.93
574.071	8625.87
574.432	8720.79
574.794	8765.08
575.155	8772.31
575.516	8817.73
575.877	8829.26
576.238	8930.95
576.599	9016.15
576.96	9085.98
577.32	9068.35
577.681	9229.47
578.042	9280.55
578.403	9446.42
578.763	9495.23
579.124	9519.41
579.485	9688.22
579.845	9734.77
580.206	9806.63
580.566	9897.71
580.927	9995.78
581.287	10143.12
581.648	10272.39
582.008	10440.97
582.368	10483.45
582.728	10625.6
583.089	10786.5
583.449	10939.49
583.809	11059.03
584.169	11224
584.529	11426.48
584.889	11628.51
585.249	11737.43
585.609	12027.14
585.969	12125.9
586.329	12314.82
586.688	12511.2
587.048	12692.66
587.408	12868.7
587.768	13110.05
588.127	13371.96
588.487	13481.34
588.846	13766.53
589.206	13966.3
589.565	14228.21
589.925	14431.6
590.284	14676.11
590.643	14929.44
591.003	15228.19
591.362	15505.92
591.721	15711.56
592.08	15963.31
592.44	16313.81
592.799	16459.12
593.158	16723.52
593.517	17065.65
593.876	17368.7
594.235	17558.97
594.593	17986.76
594.952	18165.29
595.311	18452.96
595.67	18761.88
596.029	19088.65
596.387	19413.39
596.746	19721.18
597.104	19905.8
597.463	20160.49
597.822	20656.74
598.18	20668.04
598.538	21074.81
598.897	21433.67
599.255	21411.75
599.613	22048.8
599.972	22097.16
600.33	22543.7
600.688	22647.88
601.046	23078.15
601.404	23467.97
601.762	23596.33
602.12	23925.36
602.478	24303.88
602.836	24476.31
603.194	24593.59
603.552	24886.46
603.91	24986.8
604.268	25468.14
604.625	25604.41
604.983	25888.47
605.341	26086.88
605.698	26480.09
606.056	26856.81
606.413	26856.58
606.771	27171.15
607.128	27334.54
607.485	27675.09
607.843	27760.51
608.2	28250.22
608.557	28419.25
608.914	28487.5
609.272	28815.4
609.629	29080.03
609.986	29380.13
610.343	29399.57
610.7	29891.53
611.057	30025.09
611.414	30123.84
611.771	30379.88
612.127	30577.61
612.484	30755.46
612.841	30921.11
613.198	31121.78
613.554	31297.37
613.911	31604.71
614.267	31713.4
614.624	31825.94
614.98	32044.24
615.337	32213.73
615.693	32367.85
616.05	32464.12
616.406	32921.73
616.762	32820.04
617.118	32900.49
617.475	33023.2
617.831	33441.27
618.187	33414.38
618.543	33658.44
618.899	33917.19
619.255	33843.29
619.611	33963.97
619.967	34307.46
620.323	34309.72
620.678	34360.79
621.034	34408.02
621.39	34572.09
621.746	34762.14
622.101	35131.62
622.457	34914.9
622.812	35044.16
623.168	35201.67
623.523	35205.74
623.879	35309.69
624.234	35269.24
624.589	35557.6
624.945	35496.58
625.3	35701.77
625.655	35677.37
626.01	35732.28
626.365	35882.56
626.72	35901.32
627.075	36052.27
627.43	35983.57
627.785	36024.02
628.14	36111.48
628.495	36181.53
628.85	36340.4
629.205	36212.04
629.559	36494.29
629.914	36289.55
630.269	36474.63
630.623	36460.4
630.978	36388.53
631.332	36608.87
631.687	36581.3
632.041	36637.79
632.396	36726.38
632.75	36574.97
633.104	36735.64
633.459	36562.54
633.813	36600.28
634.167	36556.21
634.521	36556.44
634.875	36749.66
635.229	36712.37
635.583	36560.06
635.937	36574.74
636.291	36464.92
636.645	36788.07
636.999	36507.18
637.352	36776.32
637.706	36710.11
638.06	36699.04
638.413	36661.97
638.767	36707.62
639.121	36514.63
639.474	36465.59
639.828	36621.97
640.181	36594.18
640.534	36683.67
640.888	36527.97
641.241	36375.65
641.594	36623.56
641.947	36628.08
642.301	36542.88
642.654	36587.63
643.007	36644.12
643.36	36584.24
643.713	36632.6
644.066	36611.13
644.419	36365.26
644.771	36157.35
645.124	35830.81
645.477	35801.21
645.83	35533.64
646.182	35627.88
646.535	35501.55
646.888	35495
647.24	35377.71
647.593	35635.79
647.945	35456.58
648.298	35393.08
648.65	35331.84
649.002	35223.59
649.355	35342.69
649.707	35326.64
650.059	35393.76
650.411	35827.42
650.763	35850.92
651.115	36345.37
651.467	36147.41
651.819	36144.02
652.171	36025.83
652.523	36085.04
652.875	36058.37
653.227	35960.98
653.578	36184.25
653.93	36155.77
654.282	36023.35
654.633	35723.47
654.985	35985.16
655.337	35957.81
655.688	35900.41
656.039	36091.59
656.391	35753.75
656.742	35737.93
657.094	35752.85
657.445	35995.55
657.796	35789.91
658.147	35800.3
658.498	35821.77
658.849	35981.54
659.2	35837.14
659.551	35838.72
659.902	35919.39
660.253	35828.1
660.604	35912.39
660.955	35711.26
661.306	35755.11
661.656	35780.87
662.007	35673.98
662.358	35765.95
662.708	35809.34
663.059	35717.37
663.409	35545.39
663.76	35723.02
664.11	35684.6
664.461	35798.95
664.811	35770.92
665.161	35775.22
665.511	35694.77
665.862	35689.34
666.212	35806.63
666.562	35737.25
666.912	35803.92
667.262	35642.57
667.612	35788.55
667.962	35774.31
668.312	35701.55
668.662	35842.79
669.011	35716.69
669.361	35470.59
669.711	35670.59
670.06	35640.53
670.41	35642.79
670.76	35599.85
671.109	35601.66
671.459	35551.04
671.808	35447.32
672.157	35566.86
672.507	35512.17
672.856	35465.85
673.205	35426.07
673.554	35613.19
673.904	35307.21
674.253	35439.86
674.602	35325.74
674.951	34927.33
675.3	34876.03
675.649	35356.92
675.998	35334.78
676.346	35217.94
676.695	35429.24
677.044	35312.4
677.393	35344.04
677.741	35270.15
678.09	35140.21
678.438	35195.12
678.787	35347.21
679.135	35153.31
679.484	34962.36
679.832	35152.41
680.181	34910.61
680.529	34945.41
680.877	34986.31
681.225	34896.82
681.573	35150.15
681.922	34813.66
682.27	34686.88
682.618	34672.2
682.966	34675.36
683.314	34782.7
683.661	34572.31
684.009	34553.78
684.357	34452.77
684.705	34469.26
685.053	34548.13
685.4	34303.62
685.748	34241.25
686.095	34147.01
686.443	34039.9
686.79	33989.95
687.138	34047.81
687.485	34077.64
687.832	33875.15
688.18	34028.14
688.527	33663.41
688.874	33850.07
689.221	33755.84
689.568	33615.73
689.915	33590.19
690.262	33545.45
690.609	33302.06
690.956	33265.45
691.303	33220.26
691.65	33118.56
691.997	33247.37
692.344	32952.24
692.69	33022.52
693.037	32983.88
693.383	32765.81
693.73	32933.48
694.077	32661.85
694.423	32625.02
694.769	32409.2
695.116	32349.09
695.462	32348.87
695.808	32276.78
696.155	32427.28
696.501	32032.72
696.847	32118.14
697.193	31870.91
697.539	31971.02
697.885	31754.31
698.231	31665.04
698.577	31752.5
698.923	31597.93
699.269	31370.36
699.614	31360.87
699.96	31337.82
700.306	31295.11
700.651	31238.39
700.997	30978.73
701.342	31060.31
701.688	31038.84
702.033	30943.93
702.379	30793.65
702.724	30859.19
703.069	30854.67
703.415	30419.88
703.76	30552.3
704.105	30483.38
704.45	30351.18
704.795	30221.47
705.14	30254.23
705.485	30116.61
705.83	30074.8
706.175	30065.31
706.52	29952.09
706.865	29778.54
707.209	29891.3
707.554	29671.2
707.899	29801.36
708.243	29659.22
708.588	29524.76
708.932	29323.64
709.277	29328.61
709.621	29440.02
709.966	29256.97
710.31	29268.95
710.654	29027.6
710.998	29155.73
711.342	29043.19
711.687	29029.41
712.031	28887.26
712.375	28783.31
712.719	28907.15
713.063	28723.2
713.407	28771.33
713.75	28622.86
714.094	28689.3
714.438	28604.11
714.782	28616.08
715.125	28436.43
715.469	28563.43
715.812	28262.42
716.156	28220.61
716.499	28175.42
716.843	28302.65
717.186	27967.29
717.53	28074.86
717.873	28145.14
718.216	28052.71
718.559	27994.18
718.902	27770.23
719.246	27858.59
719.589	27728.88
719.932	27580.18
720.275	27556
720.617	27574.76
720.96	27627.41
721.303	27586.96
721.646	27530.91
721.989	27210.92
722.331	27516.9
722.674	27314.2
723.016	27398.94
723.359	27201.21
723.701	27237.36
724.044	27025.39
724.386	26972.74
724.729	27087.76
725.071	27063.36
725.413	27020.42
725.755	26968.22
726.097	26953.08
726.439	26699.98
726.782	26827.43
727.124	26952.4
727.465	26641.22
727.807	26718.51
728.149	26642.8
728.491	26596.02
728.833	26645.29
729.175	26509.02
729.516	26464.95
729.858	26423.6
730.199	26350.15
730.541	26432.19
730.882	26326.65
731.224	26489.13
731.565	26308.57
731.906	26182.93
732.248	26261.34
732.589	26118.97
732.93	25979.99
733.271	26037.85
733.612	26008.69
733.953	26057.51
734.294	25937.51
734.635	25821.81
734.976	25968.47
735.317	25710.85
735.658	25824.29
735.999	25696.39
736.339	25647.57
736.68	25706.78
737.021	25645.77
737.361	25518.54
737.702	25710.17
738.042	25624.3
738.383	25514.47
738.723	25536.16
739.063	25466.11
739.404	25444.19
739.744	25353.8
740.084	25286.23
740.424	25292.33
740.764	25345.89
741.104	25339.33
741.444	25266.79
741.784	25266.12
742.124	25181.82
742.464	25215.95
742.804	25163.75
743.143	25038.55
743.483	25096.18
743.823	24978.67
744.162	24945.67
744.502	25005.33
744.841	24877.2
745.181	24972.11
745.52	24730.76
745.86	24827.71
746.199	24831.78
746.538	24735.96
746.877	24859.57
747.216	24747.94
747.556	24668.16
747.895	24638.79
748.234	24465.46
748.573	24508.85
748.911	24537.77
749.25	24578.9
749.589	24280.15
749.928	24401.28
750.267	24455.52
750.605	24329.64
750.944	24312.92
751.283	24241.74
751.621	24307.27
751.96	24045.36
752.298	24038.8
752.636	24065.02
752.975	23950.67
753.313	23905.47
753.651	24055.98
753.989	23884.68
754.327	23844.01
754.666	23710.68
755.004	23825.7
755.342	23776.21
755.679	23668.42
756.017	23620.73
756.355	23678.59
756.693	23477.24
757.031	23560.85
757.368	23400.85
757.706	23378.26
758.044	23220.29
758.381	23338.71
758.719	23247.19
759.056	23223.46
759.394	23150.46
759.731	22962
760.068	23010.81
760.405	22995.21
760.743	22924.48
761.08	22859.85
761.417	22766.75
761.754	22715.22
762.091	22769.46
762.428	22622.79
762.765	22490.6
763.102	22625.96
763.438	22393.2
763.775	22323.37
764.112	22325.18
764.449	22314.55
764.785	22197.95
765.122	22043.6
765.458	22094.9
765.795	21917.73
766.131	21938.75
766.467	21830.73
766.804	21788.47
767.14	21694.23
767.476	21726.1
767.812	21582.37
768.148	21631.86
768.485	21489.49
768.821	21402.04
769.157	21294.24
769.492	21216.5
769.828	21235.26
770.164	21014.02
770.5	21074.81
770.836	21051.99
771.171	20857.19
771.507	20851.54
771.842	20623.53
772.178	20685.22
772.513	20665.11
772.849	20499.69
773.184	20440.03
773.519	20473.47
773.855	20394.15
774.19	20333.36
774.525	20191.45
774.86	20151.45
775.195	20100.15
775.53	20091.56
775.865	19913.26
776.2	19846.14
776.535	19702.42
776.87	19734.51
777.205	19657.68
777.539	19507.17
777.874	19616.77
778.209	19350.11
778.543	19340.85
778.878	19251.81
779.212	19276.67
779.547	19143.56
779.881	19199.61
780.215	19010.01
780.55	19085.71
780.884	18911.03
781.218	18838.49
781.552	18874.87
781.886	18750.13
782.22	18661.54
782.554	18534.99
782.888	18458.16
783.222	18326.64
783.556	18304.94
783.889	18265.17
784.223	18151.5
784.557	18086.19
784.89	18168
785.224	18069.24
785.557	17902.02
785.891	17883.71
786.224	17846.88
786.558	17844.62
786.891	17684.62
787.224	17651.17
787.557	17551.97
787.891	17562.82
788.224	17435.59
788.557	17402.59
788.89	17421.12
789.223	17415.93
789.556	17171.19
789.888	17210.28
790.221	17090.96
790.554	17029.5
790.887	17075.14
791.219	16966.22
791.552	16937.97
791.884	16839.67
792.217	16769.62
792.549	16716.28
792.882	16541.15
793.214	16512.45
793.546	16642.16
793.879	16431.55
794.211	16387.03
794.543	16360.13
794.875	16364.88
795.207	16303.41
795.539	16275.17
795.871	16187.26
796.203	16065.23
796.535	16043.08
796.867	15954.72
797.198	15865.91
797.53	15919.02
797.862	15878.11
798.193	15867.49
798.525	15690.77
798.856	15681.06
799.188	15602.19
799.519	15509.54
799.85	15475.86
800.182	15459.14
800.513	15501.85
800.844	15320.16
801.175	15359.26
801.506	15344.79
801.837	15233.84
802.168	15210.56
802.499	15176.44
802.83	15063.9
803.161	14981.19
803.491	15041.75
803.822	14994.97
804.153	14987.29
804.483	14869.1
804.814	14857.58
805.145	14703
805.475	14730.57
805.805	14730.35
806.136	14698.26
806.466	14640.86
806.796	14579.39
807.126	14494.42
807.457	14500.97
807.787	14452.39
808.117	14432.28
808.447	14368.77
808.777	14354.99
809.107	14354.31
809.436	14347.98
809.766	14258.27
810.096	14178.05
810.426	14119.52
810.755	14110.7
811.085	14013.76
811.414	14122.23
811.744	13927.66
812.073	13944.83
812.403	13921.78
812.732	13814.44
813.061	13909.35
813.39	13751.62
813.719	13700.09
814.049	13866.64
814.378	13844.49
814.707	13780.99
815.036	13700.32
815.365	13645.4
815.693	13530.6
816.022	13569.47
816.351	13442.02
816.68	13335.58
817.008	13391.63
817.337	13354.56
817.665	13360.67
817.994	13308.69
818.322	13278.41
818.651	13185.98
818.979	13171.07
819.307	13297.39
819.636	13142.82
819.964	13114.34
820.292	13096.72
820.62	13073.67
820.948	13040.45
821.276	13118.41
821.604	13108.92
821.932	13069.83
822.259	13063.05
822.587	13127.45
822.915	13016.95
823.243	13058.75
823.57	12972.2
823.898	13089.03
824.225	13008.13
824.553	12997.29
824.88	12997.74
825.207	13019.88
825.535	13026.66
825.862	12920.9
826.189	12925.42
826.516	13023.73
826.843	13070.96
827.17	13029.37
827.497	13028.7
827.824	13084.29
828.151	13054.23
828.478	12983.5
828.805	12996.16
829.131	12923.84
829.458	12921.81
829.785	12861.02
830.111	12869.61
830.438	12955.25
830.764	12943.5
831.09	12976.49
831.417	12887.23
831.743	12947.12
832.069	12960
832.395	12843.39
832.722	12925.2
833.048	12874.12
833.374	12940.56
833.7	12861.7
834.026	12838.87
834.351	12943.28
834.677	12746.22
835.003	12839.1
835.329	12794.58
835.654	12872.32
835.98	12699.67
836.306	12763.17
836.631	12705.32
836.956	12773.34
837.282	12717.29
837.607	12646.79
837.932	12609.95
838.258	12702.6
838.583	12675.49
838.908	12450.18
839.233	12591.87
839.558	12574.92
839.883	12487.92
840.208	12426.23
840.533	12400.46
840.858	12429.62
841.182	12461.03
841.507	12360.69
841.832	12336.96
842.156	12315.27
842.481	12367.92
842.805	12275.72
843.13	12188.27
843.454	12238.44
843.778	12097.42
844.103	12121.6
844.427	12156.63
844.751	12113.69
845.075	12096.07
845.399	12025.11
845.723	12003.41
846.047	11952.79
846.371	11935.84
846.695	11932
847.019	11849.29
847.343	11781.95
847.666	11724.78
847.99	11727.94
848.313	11680.48
848.637	11583.76
848.96	11522.3
849.284	11518.91
849.607	11422.86
849.931	11459.25
850.254	11240.27
850.577	11281.17
850.9	11272.13
851.223	11245.02
851.546	11189.2
851.869	11094.74
852.192	11125.24
852.515	11046.83
852.838	10985.36
853.161	10988.52
853.483	10881.63
853.806	10935.64
854.129	10904.91
854.451	10784.01
854.774	10838.7
855.096	10772.26
855.419	10697.68
855.741	10719.61
856.063	10598.48
856.385	10567.97
856.708	10527.97
857.03	10549.44
857.352	10489.33
857.674	10470.35
857.996	10404.13
858.318	10445.94
858.64	10412.04
858.961	10388.54
859.283	10399.61
859.605	10310.58
859.926	10264.48
860.248	10293.63
860.57	10243.46
860.891	10268.09
861.212	10132.5
861.534	10167.76
861.855	10081.66
862.176	10164.82
862.498	10156.91
862.819	10132.28
863.14	10076.68
863.461	10043.46
863.782	10003.24
864.103	10017.48
864.424	9959.4
864.745	9983.13
865.065	9924.82
865.386	9916.91
865.707	9880.31
866.027	9829.01
866.348	9838.95
866.668	9810.48
866.989	9856.13
867.309	9773.42
867.63	9805.96
867.95	9813.41
868.27	9706.07
868.59	9755.34
868.91	9685.28
869.23	9646.86
869.55	9603.7
869.87	9644.38
870.19	9675.56
870.51	9678.28
870.83	9658.62
871.15	9564.38
871.469	9610.93
871.789	9558.28
872.109	9582.91
872.428	9483.03
872.748	9555.57
873.067	9544.49
873.386	9508.11
873.706	9449.36
874.025	9426.98
874.344	9426.08
874.663	9493.42
874.982	9424.05
875.301	9423.82
875.62	9385.4
875.939	9320.09
876.258	9409.36
876.577	9282.13
876.896	9334.56
877.214	9264.5
877.533	9279.19
877.852	9378.4
878.17	9291.85
878.489	9266.54
878.807	9196.93
879.125	9278.29
879.444	9265.63
879.762	9163.49
880.08	9153.54
880.398	9162.36
880.716	9154.45
881.034	9131.85
881.352	9129.82
881.67	9096.82
881.988	9110.38
882.306	9051.85
882.624	9073.55
882.941	8973.21
883.259	9046.43
883.577	8943.15
883.894	8902.25
884.212	8939.54
884.529	8842.37
884.846	8864.29
885.164	8827.45
885.481	8806.44
885.798	8887.56
886.115	8729.6
886.432	8778.41
886.75	8754.46
887.067	8772.54
887.383	8739.77
887.7	8738.19
888.017	8691.64
888.334	8737.28
888.651	8627.68
888.967	8622.26
889.284	8552.2
889.6	8550.85
889.917	8423.85
890.233	8488.7
890.55	8491.64
890.866	8478.76
891.182	8432.43
891.498	8390.17
891.815	8398.76
892.131	8319.22
892.447	8338.42
892.763	8332.1
893.079	8286
893.395	8198.54
893.71	8208.26
894.026	8254.59
894.342	8225.89
894.657	8111.31
894.973	8151.09
895.289	8161.25
895.604	8061.37
895.92	8003.97
896.235	7984.99
896.55	7980.24
896.865	7973.01
897.181	7956.97
897.496	7970.3
897.811	7924.42
898.126	7884.65
898.441	7830.87
898.756	7813.01
899.071	7802.85
899.386	7802.39
899.7	7772.56
900.015	7744.99
900.33	7660.93
900.644	7687.82
900.959	7624.77
901.273	7655.5
901.588	7609.86
901.902	7568.95
902.216	7452.35
902.531	7540.71
902.845	7443.99
903.159	7402.63
903.473	7359.47
903.787	7334.16
904.101	7348.85
904.415	7307.27
904.729	7334.16
905.042	7300.49
905.356	7218
905.67	7269.98
905.984	7173.48
906.297	7206.93
906.611	7143.43
906.924	7124.22
907.237	7106.59
907.551	7132.13
907.864	7073.15
908.177	7063.2
908.491	7037.67
908.804	6971.68
909.117	7021.85
909.43	6938.01
909.743	6854.62
910.056	6848.07
910.368	6834.06
910.681	6804.68
910.994	6735.53
911.307	6768.75
911.619	6677.68
911.932	6662.31
912.244	6616.89
912.557	6630.67
912.869	6660.05
913.181	6587.96
913.494	6624.35
913.806	6543.44
914.118	6512.71
914.43	6435.88
914.742	6434.52
915.054	6400.17
915.366	6436.78
915.678	6406.72
915.99	6316.78
916.302	6281.98
916.613	6303
916.925	6262.55
917.236	6240.17
917.548	6220.06
917.859	6209.44
918.171	6164.47
918.482	6101.42
918.794	6122.66
919.105	6066.62
919.416	6061.2
919.727	6018.26
920.038	5973.52
920.349	5997.92
920.66	5971.26
920.971	5929.45
921.282	5929.67
921.593	5870.02
921.903	5830.24
922.214	5825.27
922.525	5808.32
922.835	5806.06
923.146	5744.14
923.456	5730.58
923.767	5708.66
924.077	5717.48
924.387	5677.7
924.697	5623.02
925.008	5632.06
925.318	5593.64
925.628	5621.43
925.938	5573.75
926.248	5478.16
926.558	5525.62
926.867	5490.36
927.177	5434.77
927.487	5420.76
927.796	5398.39
928.106	5384.15
928.416	5362.91
928.725	5348.67
929.034	5325.4
929.344	5276.81
929.653	5277.71
929.962	5230.26
930.271	5192.52
930.581	5220.77
930.89	5187.55
931.199	5190.26
931.508	5133.99
931.817	5118.85
932.125	5089.92
932.434	5085.18
932.743	5075.46
933.051	5019.19
933.36	5033.88
933.669	4934.67
933.977	4958.4
934.286	5025.29
934.594	4944.62
934.902	4917.27
935.21	4877.95
935.519	4896.03
935.827	4838.18
936.135	4841.12
936.443	4832.3
936.751	4785.07
937.059	4804.96
937.367	4775.35
937.674	4721.8
937.982	4734.23
938.29	4689.03
938.597	4758.18
938.905	4636.6
939.213	4641.12
939.52	4599.09
939.827	4630.5
940.135	4601.12
940.442	4555.93
940.749	4517.96
941.056	4553.89
941.363	4458.53
941.67	4470.28
941.977	4417.4
942.284	4471.41
942.591	4430.96
942.898	4395.03
943.205	4377.63
943.511	4320
943.818	4322.49
944.125	4312.54
944.431	4261.47
944.738	4286.55
945.044	4250.62
945.35	4258.53
945.657	4218.53
945.963	4217.63
946.269	4209.49
946.575	4172.21
946.881	4161.36
947.187	4136.5
947.493	4077.52
947.799	4123.85
948.105	4097.63
948.41	4091.76
948.716	4059.89
949.022	4043.85
949.327	4071.19
949.633	4012.66
949.938	4024.87
950.244	3955.26
950.549	3933.12
950.854	3923.85
951.16	3914.59
951.465	3886.11
951.77	3867.81
952.075	3874.81
952.38	3880.24
952.685	3824.42
952.99	3800.24
953.294	3791.65
953.599	3788.94
953.904	3798.88
954.209	3738.32
954.513	3740.35
954.818	3698.32
955.122	3729.73
955.426	3711.65
955.731	3638.66
956.035	3670.07
956.339	3634.37
956.643	3661.71
956.948	3590.98
957.252	3615.16
957.556	3594.14
957.86	3593.01
958.163	3533.81
958.467	3555.05
958.771	3493.13
959.075	3508.5
959.378	3482.28
959.682	3473.69
959.985	3468.72
960.289	3448.61
960.592	3460.59
960.896	3419.01
961.199	3407.03
961.502	3354.6
961.805	3318.67
962.108	3360.48
962.411	3326.35
962.714	3328.61
963.017	3336.3
963.32	3273.47
963.623	3298.78
963.926	3265.56
964.228	3246.13
964.531	3272.34
964.833	3246.81
965.136	3205.9
965.438	3201.61
965.741	3193.48
966.043	3203.87
966.345	3189.41
966.648	3138.79
966.95	3136.3
967.252	3129.3
967.554	3119.35
967.856	3117.09
968.158	3093.36
968.46	3068.73
968.761	3060.6
969.063	3046.81
969.365	3023.08
969.666	3027.38
969.968	2953.48
970.269	2990.09
970.571	2998.9
970.872	3001.62
971.174	2934.73
971.475	2950.09
971.776	2936.31
972.077	2904.9
972.378	2946.25
972.679	2903.09
972.98	2849.98
973.281	2836.42
973.582	2869.19
973.883	2829.64
974.183	2820.15
974.484	2846.59
974.785	2814.5
975.085	2800.27
975.386	2789.87
975.686	2783.54
975.986	2732.47
976.287	2754.39
976.587	2710.1
976.887	2697.22
977.187	2714.39
977.487	2705.13
977.787	2717.33
978.087	2672.36
978.387	2645.92
978.687	2667.84
978.987	2612.93
979.286	2634.17
979.586	2593.04
979.885	2603.66
980.185	2576.54
980.484	2582.42
980.784	2572.47
981.083	2554.4
981.382	2545.13
981.682	2526.83
981.981	2524.79
982.28	2506.71
982.579	2479.37
982.878	2491.35
983.177	2462.87
983.475	2454.51
983.774	2461.07
984.073	2456.77
984.372	2432.59
984.67	2403.44
984.969	2444.12
985.267	2431.24
985.566	2414.06
985.864	2406.6
986.162	2387.85
986.461	2345.36
986.759	2339.49
987.057	2330
987.355	2348.75
987.653	2337.45
987.951	2311.01
988.249	2300.39
988.547	2289.32
988.844	2291.8
989.142	2271.92
989.44	2259.71
989.737	2208.19
990.035	2239.38
990.332	2225.37
990.63	2231.01
990.927	2226.95
991.224	2218.81
991.521	2210.9
991.819	2221.75
992.116	2142.43
992.413	2166.61
992.71	2160.28
993.006	2143.56
993.303	2158.7
993.6	2121.41
993.897	2115.76
994.193	2108.08
994.49	2092.94
994.787	2070.79
995.083	2096.78
995.379	2030.79
995.676	2052.71
995.972	2071.02
996.268	2060.85
996.565	2039.61
996.861	1985.37
997.157	1993.28
997.453	2017.24
997.749	1973.39
998.044	1946.28
998.34	1969.33
998.636	1959.61
998.932	1965.94
999.227	1909.89
999.523	1949.89
999.818	1910.12
1000.114	1914.86
1000.409	1875.77
1000.704	1873.74
1001	1867.41
1001.295	1887.52
1001.59	1841.19
1001.885	1867.18
1002.18	1854.3
1002.475	1833.06
1002.77	1854.53
1003.065	1784.7
1003.359	1826.96
1003.654	1831.03
1003.949	1770.01
1004.243	1768.65
1004.538	1771.14
1004.832	1769.33
1005.127	1738.37
1005.421	1745.6
1005.715	1715.77
1006.009	1714.87
1006.304	1720.75
1006.598	1698.83
1006.892	1695.66
1007.186	1676.45
1007.48	1700.63
1007.773	1658.15
1008.067	1669.9
1008.361	1651.59
1008.655	1648.43
1008.948	1658.6
1009.242	1617.47
1009.535	1590.35
1009.829	1586.51
1010.122	1577.7
1010.415	1592.84
1010.708	1597.59
1011.001	1586.51
1011.295	1572.95
1011.588	1553.74
1011.881	1553.07
1012.173	1525.5
1012.466	1540.64
1012.759	1493.63
1013.052	1526.4
1013.344	1500.19
1013.637	1512.62
1013.93	1497.25
1014.222	1500.86
1014.514	1488.44
1014.807	1458.61
1015.099	1465.84
1015.391	1464.26
1015.683	1426.97
1015.976	1422
1016.268	1418.38
1016.56	1394.2
1016.851	1395.78
1017.143	1378.61
1017.435	1385.84
1017.727	1363.02
1018.018	1366.18
1018.31	1341.77
1018.602	1360.76
1018.893	1334.09
1019.185	1338.83
1019.476	1335.9
1019.767	1337.03
1020.058	1313.3
1020.35	1296.35
1020.641	1325.73
1020.932	1282.79
1021.223	1256.13
1021.514	1284.15
1021.804	1260.64
1022.095	1257.71
1022.386	1261.77
1022.677	1255.67
1022.967	1215.9
1023.258	1221.55
1023.548	1211.61
1023.839	1214.09
1024.129	1208.22
1024.419	1207.76
1024.709	1170.25
1025	1174.09
1025.29	1166.86
1025.58	1156.24
1025.87	1175.45
1026.16	1144.94
1026.449	1135.9
1026.739	1142.68
1027.029	1143.36
1027.319	1117.82
1027.608	1108.56
1027.898	1128.44
1028.187	1104.04
1028.477	1087.54
1028.766	1059.07
1029.055	1092.74
1029.344	1087.54
1029.634	1055.23
1029.923	1086.19
1030.212	1035.79
1030.501	1048.67
1030.79	1038.28
1031.078	1018.17
1031.367	1047.77
1031.656	1009.35
1031.945	1020.88
1032.233	1009.13
1032.522	975.45
1032.81	987.88
1033.099	993.99
1033.387	983.14
1033.675	977.94
1033.963	963.7
1034.251	977.04
1034.54	981.33
1034.828	974.1
1035.116	963.25
1035.403	935
1035.691	942.69
1035.979	935.68
1036.267	931.61
1036.554	915.8
1036.842	926.19
1037.129	906.53
1037.417	912.41
1037.704	907.43
1037.992	902.91
1038.279	886.19
1038.566	877.83
1038.853	877.83
1039.14	877.83
