Data from hue_170_FLMS001491_00092.txt Node
Date: Tue Feb 07 16:49:30 GMT 2017
User: dcchb
Spectrometer: FLMS00149
Trigger mode: 0
Integration Time (sec): 2.000000E-2
Scans to average: 10
Electric dark correction enabled: true
Nonlinearity correction enabled: false
Boxcar width: 0
XAxis mode: Wavelengths
Number of Pixels in Spectrum: 2048
>>>>>Begin Spectral Data<<<<<
341.393	1.81
341.776	1.81
342.16	1.81
342.543	-55.37
342.927	-53.78
343.31	-79.55
343.693	-68.02
344.077	-63.5
344.46	-72.99
344.843	-51.07
345.226	-27.8
345.61	-27.8
345.993	-3.39
346.376	-24.63
346.759	7.46
347.142	13.11
347.525	37.06
347.908	50.85
348.291	91.52
348.674	94.69
349.057	124.06
349.44	117.06
349.823	127.23
350.206	171.97
350.588	198.41
350.971	184.18
351.354	226.21
351.737	236.6
352.119	246.77
352.502	270.5
352.884	270.95
353.267	276.38
353.65	281.57
354.032	294.68
354.414	299.88
354.797	302.82
355.179	301.01
355.562	328.8
355.944	333.32
356.326	319.09
356.709	349.14
357.091	335.13
357.473	342.14
357.855	334.23
358.238	338.07
358.62	363.83
359.002	350.27
359.384	341.69
359.766	347.11
360.148	335.58
360.53	326.09
360.912	320.44
361.294	336.71
361.676	354.11
362.057	321.57
362.439	338.3
362.821	324.96
363.203	326.77
363.584	342.14
363.966	331.74
364.348	315.25
364.729	320.9
365.111	317.73
365.493	337.62
365.874	318.64
366.256	302.82
366.637	296.26
367.019	287.45
367.4	299.43
367.781	296.04
368.163	301.46
368.544	327.45
368.925	327.45
369.306	297.39
369.688	323.83
370.069	318.64
370.45	317.96
370.831	296.72
371.212	337.39
371.593	310.27
371.974	311.63
372.355	301.91
372.736	317.51
373.117	312.76
373.498	329.03
373.879	314.34
374.26	296.04
374.641	312.76
375.021	307.56
375.402	297.39
375.783	295.81
376.163	315.7
376.544	326.32
376.925	326.77
377.305	315.7
377.686	328.13
378.066	319.54
378.447	334.68
378.827	332.87
379.208	330.84
379.588	324.29
379.968	306.88
380.349	320.9
380.729	326.55
381.109	347.56
381.489	322.93
381.87	329.48
382.25	325.87
382.63	366.09
383.01	324.96
383.39	354.79
383.77	351.63
384.15	353.21
384.53	355.7
384.91	338.97
385.29	341.01
385.67	335.36
386.049	335.81
386.429	341.69
386.809	330.39
387.189	343.27
387.568	329.03
387.948	365.19
388.328	348.24
388.707	332.65
389.087	348.47
389.466	343.04
389.846	354.57
390.225	372.19
390.605	358.86
390.984	350.05
391.363	355.24
391.743	370.61
392.122	358.86
392.501	377.62
392.881	367.9
393.26	369.26
393.639	380.55
394.018	393.66
394.397	386.88
394.776	373.1
395.155	385.53
395.534	354.11
395.913	371.97
396.292	379.65
396.671	385.53
397.05	375.13
397.429	372.87
397.808	371.74
398.186	378.52
398.565	398.41
398.944	375.13
399.323	388.69
399.701	400.22
400.08	390.05
400.458	412.87
400.837	402.02
401.215	388.69
401.594	400.44
401.972	405.64
402.351	418.97
402.729	396.37
403.107	415.58
403.486	426.66
403.864	403.38
404.242	399.31
404.62	411.74
404.999	384.4
405.377	433.43
405.755	426.66
406.133	398.86
406.511	433.66
406.889	434.11
407.267	427.33
407.645	454.45
408.023	439.76
408.401	448.8
408.779	453.1
409.156	454.23
409.534	456.49
409.912	470.72
410.29	462.81
410.667	450.61
411.045	479.08
411.422	482.7
411.8	464.62
412.178	507.33
412.555	497.61
412.933	521.12
413.31	506.2
413.687	503.26
414.065	530.61
414.442	520.66
414.819	531.74
415.197	502.36
415.574	526.09
415.951	538.29
416.328	543.94
416.705	548.01
417.082	550.49
417.46	555.47
417.837	538.29
418.214	586.65
418.591	576.26
418.967	549.59
419.344	559.76
419.721	599.76
420.098	612.41
420.475	600.44
420.852	594.33
421.228	619.64
421.605	612.19
421.982	608.57
422.358	612.87
422.735	602.47
423.111	631.85
423.488	637.5
423.864	653.99
424.241	651.06
424.617	663.94
424.994	667.33
425.37	674.78
425.746	679.08
426.123	700.32
426.499	702.81
426.875	698.74
427.251	704.16
427.627	719.76
428.003	720.88
428.379	724.5
428.756	752.07
429.132	777.38
429.507	761.11
429.883	748
430.259	747.78
430.635	760.66
431.011	778.06
431.387	817.38
431.763	816.93
432.138	815.35
432.514	809.24
432.89	816.93
433.265	844.05
433.641	858.96
434.016	853.99
434.392	859.19
434.767	899.86
435.143	882.46
435.518	895.57
435.894	885.63
436.269	914.33
436.644	903.93
437.02	952.07
437.395	940.09
437.77	965.85
438.145	964.95
438.52	971.05
438.895	1002.91
439.271	989.58
439.646	1010.14
440.021	1003.14
440.395	1028.45
440.77	1015.57
441.145	1057.6
441.52	1102.12
441.895	1048.11
442.27	1058.5
442.645	1068.67
443.019	1111.16
443.394	1100.54
443.769	1144.15
444.143	1120.65
444.518	1147.31
444.892	1142.79
445.267	1137.6
445.641	1141.66
446.016	1193.64
446.39	1180.31
446.764	1173.98
447.139	1178.73
447.513	1193.41
447.887	1204.26
448.262	1208.33
448.636	1210.36
449.01	1242.91
449.384	1240.87
449.758	1251.04
450.132	1239.74
450.506	1286.29
450.88	1287.2
451.254	1286.52
451.628	1323.36
452.002	1353.18
452.376	1347.31
452.75	1384.6
453.123	1363.13
453.497	1376.91
453.871	1408.1
454.244	1423.47
454.618	1436.12
454.992	1437.48
455.365	1419.62
455.739	1493.29
456.112	1490.13
456.486	1486.74
456.859	1537.36
457.232	1561.77
457.606	1547.98
457.979	1592.27
458.352	1615.32
458.725	1632.73
459.099	1646.96
459.472	1691.93
459.845	1679.96
460.218	1707.07
460.591	1716.34
460.964	1701.88
461.337	1769.44
461.71	1795.88
462.083	1806.05
462.456	1799.5
462.829	1815.55
463.201	1867.97
463.574	1872.27
463.947	1930.57
464.32	1958.59
464.692	1994.3
465.065	1999.72
465.438	2026.39
465.81	2040.85
466.183	2080.62
466.555	2161.07
466.928	2154.75
467.3	2160.85
467.672	2200.85
468.045	2290.79
468.417	2282.88
468.789	2294.18
469.161	2329.2
469.534	2392.25
469.906	2459.6
470.278	2462.99
470.65	2525.81
471.022	2586.82
471.394	2615.07
471.766	2667.95
472.138	2662.75
472.51	2721.51
472.882	2818.46
473.253	2843.32
473.625	2915.63
473.997	2966.7
474.369	2987.49
474.74	3066.13
475.112	3146.13
475.484	3190.2
475.855	3283.53
476.227	3363.08
476.598	3424.09
476.97	3482.17
477.341	3566.01
477.713	3620.7
478.084	3750.86
478.455	3800.13
478.827	3879.9
479.198	3958.54
479.569	3999.67
479.94	4174.13
480.311	4201.47
480.682	4359.89
481.053	4483.95
481.424	4576.38
481.795	4675.36
482.166	4690.05
482.537	4856.37
482.908	4996.48
483.279	5074.67
483.65	5162.58
484.021	5330.48
484.391	5401.44
484.762	5503.81
485.133	5558.05
485.503	5717.36
485.874	5890.47
486.244	5903.8
486.615	6083.91
486.985	6231.47
487.356	6339.49
487.726	6426.27
488.097	6590.56
488.467	6704.23
488.837	6870.33
489.207	7008.4
489.578	7098.8
489.948	7245.46
490.318	7334.95
490.688	7399.35
491.058	7568.39
491.428	7682.96
491.798	7855.39
492.168	8002.5
492.538	8091.99
492.908	8218.09
493.278	8352.55
493.648	8356.84
494.017	8534.69
494.387	8658.76
494.757	8782.59
495.126	8885.87
495.496	8971.52
495.866	9011.51
496.235	9125.86
496.605	9303.26
496.974	9336.03
497.344	9533.99
497.713	9534.66
498.082	9646.75
498.452	9778.05
498.821	9815.79
499.19	9805.62
499.559	9970.81
499.928	10046.29
500.298	10208.77
500.667	10190.47
501.036	10163.57
501.405	10324.93
501.774	10364.47
502.143	10484.47
502.512	10517.46
502.88	10658.7
503.249	10635.2
503.618	10734.63
503.987	10768.3
504.356	10827.74
504.724	10815.08
505.093	10924.01
505.462	10979.15
505.83	11010.78
506.199	11130.33
506.567	11207.84
506.936	11202.42
507.304	11382.98
507.672	11365.35
508.041	11454.16
508.409	11533.71
508.777	11538.23
509.145	11648.73
509.514	11583.88
509.882	11697.77
510.25	11613.25
510.618	11747.04
510.986	11809.86
511.354	11967.37
511.722	11888.27
512.09	12008.05
512.458	11912.91
512.826	11991.1
513.193	11997.65
513.561	12046.69
513.929	12212.56
514.297	12264.76
514.664	12215.72
515.032	12235.16
515.4	12319.22
515.767	12310.41
516.135	12371.2
516.502	12281.94
516.869	12444.64
517.237	12518.31
517.604	12409.62
517.972	12545.21
518.339	12537.3
518.706	12490.07
519.073	12595.83
519.44	12610.52
519.808	12638.54
520.175	12603.74
520.542	12741.59
520.909	12695.49
521.276	12629.72
521.643	12799.21
522.009	12825.88
522.376	12846.22
522.743	12891.86
523.11	12886.89
523.477	12991.52
523.843	12968.47
524.21	13025.19
524.577	13049.37
524.943	13032.43
525.31	13114.46
525.676	13092.76
526.043	13177.28
526.409	13094.8
526.776	13285.07
527.142	13150.84
527.508	13240.78
527.874	13247.79
528.241	13240.56
528.607	13264.28
528.973	13314
529.339	13201.23
529.705	13290.72
530.071	13339.08
530.437	13253.89
530.803	13285.98
531.169	13358.29
531.535	13175.47
531.901	13231.97
532.267	13171.18
532.632	13260.22
532.998	13258.63
533.364	13266.32
533.73	13185.64
534.095	13213.89
534.461	13223.83
534.826	13212.99
535.192	13217.05
535.557	13204.62
535.923	13156.04
536.288	13132.99
536.653	13111.52
537.019	13020.45
537.384	13013.9
537.749	12993.33
538.114	12973.44
538.479	12961.24
538.845	12900.68
539.21	12821.13
539.575	12819.78
539.94	12803.96
540.305	12791.08
540.67	12731.19
541.034	12759.89
541.399	12732.55
541.764	12619.33
542.129	12685.77
542.494	12555.15
542.858	12572.1
543.223	12490.97
543.587	12539.56
543.952	12517.64
544.316	12475.15
544.681	12368.49
545.045	12351.31
545.41	12394.02
545.774	12264.76
546.138	12220.7
546.503	12224.09
546.867	12176.4
547.231	12210.3
547.595	12157.87
547.959	12071.1
548.324	12093.02
548.688	11944.54
549.052	12010.76
549.416	11920.82
549.779	11866.58
550.143	11848.73
550.507	11820.03
550.871	11875.62
551.235	11832.46
551.599	11919.46
551.962	11747.71
552.326	11692.35
552.689	11695.29
553.053	11606.02
553.417	11605.34
553.78	11656.87
554.143	11510.21
554.507	11554.05
554.87	11537.1
555.234	11624.1
555.597	11500.04
555.96	11539.13
556.323	11486.03
556.686	11468.62
557.05	11491.45
557.413	11396.31
557.776	11383.43
558.139	11441.73
558.502	11356.09
558.865	11386.82
559.228	11329.87
559.59	11295.97
559.953	11328.52
560.316	11439.7
560.679	11362.41
561.041	11398.8
561.404	11388.85
561.767	11353.83
562.129	11304.11
562.492	11383.43
562.854	11359.7
563.217	11360.61
563.579	11314.73
563.941	11333.71
564.304	11404.67
564.666	11396.99
565.028	11358.57
565.39	11374.39
565.753	11434.5
566.115	11360.61
566.477	11429.76
566.839	11392.47
567.201	11442.64
567.563	11421.62
567.925	11538.23
568.287	11466.37
568.648	11380.49
569.01	11461.62
569.372	11487.83
569.734	11380.94
570.095	11440.83
570.457	11460.49
570.819	11474.5
571.18	11446.48
571.542	11459.59
571.903	11464.33
572.265	11475.18
572.626	11424.78
572.987	11536.42
573.349	11484.44
573.71	11611.9
574.071	11534.39
574.432	11564.22
574.794	11553.14
575.155	11588.62
575.516	11582.97
575.877	11547.94
576.238	11578.68
576.599	11598.34
576.96	11586.81
577.32	11491
577.681	11559.92
578.042	11574.84
578.403	11599.02
578.763	11545.01
579.124	11489.64
579.485	11560.83
579.845	11623.88
580.206	11538.45
580.566	11585.23
580.927	11484.22
581.287	11514.95
581.648	11566.25
582.008	11524.44
582.368	11463.88
582.728	11596.08
583.089	11555.85
583.449	11544.78
583.809	11500.94
584.169	11535.06
584.529	11467.27
584.889	11542.75
585.249	11456.87
585.609	11463.2
585.969	11411
586.329	11448.29
586.688	11483.54
587.048	11425.91
587.408	11484.22
587.768	11392.02
588.127	11365.12
588.487	11311.34
588.846	11433.82
589.206	11318.12
589.565	11267.5
589.925	11429.76
590.284	11327.61
590.643	11401.73
591.003	11354.5
591.362	11354.28
591.721	11328.74
592.08	11267.95
592.44	11369.42
592.799	11332.81
593.158	11283.77
593.517	11268.4
593.876	11288.52
594.235	11297.78
594.593	11278.35
594.952	11195.19
595.311	11219.82
595.67	11190.44
596.029	11227.05
596.387	11285.8
596.746	11319.7
597.104	11221.85
597.463	11180.72
597.822	11213.72
598.18	11119.26
598.538	11170.78
598.897	11230.67
599.255	11151.35
599.613	11199.03
599.972	11278.57
600.33	11193.15
600.688	11185.69
601.046	11194.73
601.404	11258.69
601.762	11161.29
602.12	11258.91
602.478	11225.92
602.836	11218.01
603.194	11166.03
603.552	11158.8
603.91	11097.34
604.268	11153.61
604.625	11116.54
604.983	11145.24
605.341	11083.78
605.698	11253.72
606.056	11096.66
606.413	11145.47
606.771	11179.59
607.128	11219.14
607.485	11081.06
607.843	11165.36
608.2	11225.24
608.557	11212.59
608.914	11168.29
609.272	11243.09
609.629	11287.84
609.986	11280.16
610.343	11251
610.7	11279.48
611.057	11274.51
611.414	11334.62
611.771	11231.34
612.127	11280.38
612.484	11283.09
612.841	11283.32
613.198	11241.51
613.554	11246.94
613.911	11350.89
614.267	11304.79
614.624	11229.54
614.98	11359.25
615.337	11339.14
615.693	11369.87
616.05	11341.85
616.406	11409.87
616.762	11318.35
617.118	11332.81
617.475	11374.39
617.831	11356.31
618.187	11342.75
618.543	11420.94
618.899	11441.28
619.255	11400.83
619.611	11412.81
619.967	11446.03
620.323	11435.18
620.678	11435.18
621.034	11331.23
621.39	11332.58
621.746	11405.58
622.101	11500.26
622.457	11437.21
622.812	11404.67
623.168	11413.03
623.523	11497.78
623.879	11486.93
624.234	11406.48
624.589	11458.68
624.945	11452.81
625.3	11471.11
625.655	11465.01
626.01	11364.22
626.365	11434.28
626.72	11398.12
627.075	11388.85
627.43	11417.55
627.785	11421.85
628.14	11430.66
628.495	11385.24
628.85	11480.38
629.205	11325.8
629.559	11390.21
629.914	11337.1
630.269	11356.31
630.623	11342.07
630.978	11298.23
631.332	11326.26
631.687	11344.79
632.041	11312.92
632.396	11322.41
632.75	11309.76
633.104	11285.13
633.459	11244
633.813	11225.92
634.167	11278.12
634.521	11217.33
634.875	11207.16
635.229	11215.52
635.583	11189.54
635.937	11168.75
636.291	11171.46
636.645	11147.96
636.999	11229.08
637.352	11166.26
637.706	11074.96
638.06	11086.04
638.413	11059.82
638.767	11075.87
639.121	11052.59
639.474	11009.43
639.828	11008.75
640.181	10969.43
640.534	11021.41
640.888	10901.63
641.241	10982.08
641.594	10984.8
641.947	10977.11
642.301	10987.73
642.654	11020.95
643.007	10959.49
643.36	10877.23
643.713	10933.5
644.066	11001.52
644.419	10895.08
644.771	10831.58
645.124	10720.4
645.477	10718.59
645.83	10583.9
646.182	10624.13
646.535	10589.1
646.888	10634.75
647.24	10513.85
647.593	10612.38
647.945	10610.34
648.298	10540.51
648.65	10476.11
649.002	10442.66
649.355	10546.62
649.707	10533.96
650.059	10572.6
650.411	10773.05
650.763	10759.94
651.115	10811.24
651.467	10794.97
651.819	10800.17
652.171	10763.78
652.523	10722.66
652.875	10760.85
653.227	10657.57
653.578	10795.65
653.93	10735.54
654.282	10756.1
654.633	10737.12
654.985	10802.43
655.337	10765.14
655.688	10833.16
656.039	10802.88
656.391	10760.62
656.742	10754.97
657.094	10752.94
657.445	10799.72
657.796	10847.85
658.147	10788.42
658.498	10827.74
658.849	10829.55
659.2	10779.6
659.551	10856.66
659.902	10849.43
660.253	10923.1
660.604	10884.69
660.955	10752.26
661.306	10873.61
661.656	10829.55
662.007	10870.22
662.358	10839.71
662.708	10974.63
663.059	10897.34
663.409	10846.95
663.76	10918.13
664.11	10923.55
664.461	10876.1
664.811	10880.84
665.161	10939.15
665.511	10851.92
665.862	10833.84
666.212	10964.68
666.562	10945.93
666.912	10922.88
667.262	10886.95
667.612	10933.5
667.962	10881.75
668.312	10865.7
668.662	10984.57
669.011	10939.15
669.361	10928.98
669.711	10981.41
670.06	10914.06
670.41	10779.83
670.76	10857.12
671.109	10874.29
671.459	10868.87
671.808	10858.92
672.157	10891.69
672.507	10774.63
672.856	10762.88
673.205	10858.7
673.554	10886.95
673.904	10812.6
674.253	10909.09
674.602	10781.64
674.951	10614.41
675.3	10581.19
675.649	10816.89
675.998	10793.84
676.346	10765.82
676.695	10788.42
677.044	10732.37
677.393	10793.39
677.741	10721.75
678.09	10655.54
678.438	10724.69
678.787	10663.67
679.135	10659.61
679.484	10577.8
679.832	10671.13
680.181	10518.82
680.529	10597.01
680.877	10568.31
681.225	10525.6
681.573	10661.87
681.922	10458.26
682.27	10450.8
682.618	10452.83
682.966	10488.54
683.314	10481.53
683.661	10423.68
684.009	10339.39
684.357	10305.27
684.705	10312.5
685.053	10393.85
685.4	10293.29
685.748	10245.15
686.095	10241.99
686.443	10244.02
686.79	10156.57
687.138	10184.59
687.485	10214.19
687.832	10173.97
688.18	10181.65
688.527	10079.51
688.874	10102.33
689.221	10056.01
689.568	10061.43
689.915	10002.22
690.262	10011.26
690.609	9896.69
690.956	9905.73
691.303	9855.33
691.65	9766.07
691.997	9814.88
692.344	9742.12
692.69	9752.74
693.037	9732.4
693.383	9620.09
693.73	9622.35
694.077	9559.52
694.423	9545.06
694.769	9562.69
695.116	9492.18
695.462	9493.31
695.808	9462.58
696.155	9460.99
696.501	9383.93
696.847	9342.13
697.193	9265.75
697.539	9312.98
697.885	9226.42
698.231	9276.37
698.577	9193.66
698.923	9135.58
699.269	9165.41
699.614	9092.64
699.96	9058.52
700.306	8992.98
700.651	9011.97
700.997	8977.84
701.342	8894
701.688	8942.82
702.033	8893.78
702.379	8844.97
702.724	8828.69
703.069	8847.45
703.415	8741.24
703.76	8708.02
704.105	8708.47
704.45	8678.87
704.795	8627.12
705.14	8595.03
705.485	8580.11
705.83	8551.41
706.175	8533.11
706.52	8549.83
706.865	8508.48
707.209	8539.21
707.554	8453.34
707.899	8469.16
708.243	8382.83
708.588	8363.4
708.932	8320.23
709.277	8370.4
709.621	8320.69
709.966	8253.57
710.31	8269.39
710.654	8168.6
710.998	8235.94
711.342	8231.2
711.687	8140.12
712.031	8110.07
712.375	8101.93
712.719	8080.69
713.063	8080.92
713.407	8120.24
713.75	8058.09
714.094	8076.62
714.438	7985.78
714.782	8053.35
715.125	7936.74
715.469	7941.49
715.812	7980.81
716.156	7884.09
716.499	7951.66
716.843	7939.45
717.186	7877.08
717.53	7949.85
717.873	7920.02
718.216	7897.87
718.559	7842.05
718.902	7890.64
719.246	7843.86
719.589	7835.95
719.932	7746.24
720.275	7728.38
720.617	7776.74
720.96	7751.43
721.303	7720.93
721.646	7699.46
721.989	7727.48
722.331	7705.33
722.674	7633.47
723.016	7765.22
723.359	7729.74
723.701	7718.44
724.044	7619.46
724.386	7651.1
724.729	7672.79
725.071	7596.18
725.413	7682.06
725.755	7657.2
726.097	7582.4
726.439	7586.69
726.782	7588.28
727.124	7650.19
727.465	7595.51
727.807	7572.46
728.149	7597.54
728.491	7581.04
728.833	7594.6
729.175	7596.18
729.516	7551.44
729.858	7552.57
730.199	7573.13
730.541	7553.93
730.882	7565.45
731.224	7556.86
731.565	7525
731.906	7566.35
732.248	7532.46
732.589	7485.68
732.93	7488.84
733.271	7574.26
733.612	7602.29
733.953	7525.23
734.294	7530.42
734.635	7526.58
734.976	7548.95
735.317	7539.24
735.658	7546.24
735.999	7535.62
736.339	7533.81
736.68	7525.23
737.021	7525.45
737.361	7546.02
737.702	7618.33
738.042	7593.25
738.383	7610.42
738.723	7576.75
739.063	7626.01
739.404	7596.64
739.744	7633.25
740.084	7571.33
740.424	7579.69
740.764	7661.04
741.104	7711.44
741.444	7697.2
741.784	7661.27
742.124	7718.44
742.464	7763.19
742.804	7744.2
743.143	7791.66
743.483	7834.6
743.823	7840.7
744.162	7802.51
744.502	7911.43
744.841	7895.84
745.181	7974.48
745.52	8007.93
745.86	8034.82
746.199	8059.45
746.538	8076.85
746.877	8169.05
747.216	8207.69
747.556	8249.27
747.895	8215.6
748.234	8291.53
748.573	8346.45
748.911	8427.35
749.25	8522.04
749.589	8505.31
749.928	8580.11
750.267	8640.45
750.605	8742.37
750.944	8790.28
751.283	8865.08
751.621	8983.27
751.96	9005.86
752.298	9111.17
752.636	9207.67
752.975	9291.73
753.313	9391.62
753.651	9568.11
753.989	9584.15
754.327	9606.08
754.666	9741.21
755.004	9933.07
755.342	9984.82
755.679	10150.47
756.017	10265.94
756.355	10463.23
756.693	10552.94
757.031	10658.93
757.368	10742.77
757.706	10905.93
758.044	11089.65
758.381	11305.47
758.719	11354.28
759.056	11564.89
759.394	11764.21
759.731	11882.4
760.068	11985.45
760.405	12198.78
760.743	12314.93
761.08	12613.68
761.417	12665.43
761.754	12796.73
762.091	12983.16
762.428	13119.66
762.765	13224.06
763.102	13481
763.438	13688
763.775	13723.71
764.112	13928.45
764.449	14104.26
764.785	14237.14
765.122	14419.96
765.458	14526.17
765.795	14659.05
766.131	14855.2
766.467	14952.6
766.804	15145.36
767.14	15171.35
767.476	15359.37
767.812	15463.32
768.148	15634.39
768.485	15558.01
768.821	15742.18
769.157	15977.43
769.492	16043.19
769.828	16174.49
770.164	16260.14
770.5	16309.85
770.836	16444.09
771.171	16471.21
771.507	16626.46
771.842	16590.75
772.178	16861.48
772.513	16847.69
772.849	16993.68
773.184	17077.74
773.519	17127.23
773.855	17185.31
774.19	17316.61
774.525	17278.42
774.86	17366.32
775.195	17442.93
775.53	17541.01
775.865	17539.2
776.2	17509.14
776.535	17427.34
776.87	17550.05
777.205	17537.84
777.539	17588.46
777.874	17712.53
778.209	17670.27
778.543	17718.4
778.878	17733.55
779.212	17816.25
779.547	17741.68
779.881	17903.94
780.215	17852.86
780.55	17861.45
780.884	17818.51
781.218	17806.99
781.552	17969.02
781.886	17879.53
782.22	17803.6
782.554	17881.79
782.888	17782.58
783.222	17788.68
783.556	17706.88
783.889	17798.63
784.223	17803.83
784.557	17733.09
784.89	17748.46
785.224	17705.98
785.557	17751.4
785.891	17669.37
786.224	17713.21
786.558	17738.74
786.891	17539.2
787.224	17496.04
787.557	17669.14
787.891	17545.3
788.224	17585.07
788.557	17588.46
788.89	17580.1
789.223	17589.59
789.556	17404.97
789.888	17449.94
790.221	17359.77
790.554	17372.2
790.887	17425.08
791.219	17312.77
791.552	17282.03
791.884	17292.2
792.217	17213.11
792.549	17214.69
792.882	17156.39
793.214	17024.19
793.546	17106.89
793.879	16964.53
794.211	17063.05
794.543	17020.34
794.875	16989.84
795.207	16987.8
795.539	16965.43
795.871	16948.93
796.203	16851.99
796.535	16787.81
796.867	16763.4
797.198	16669.84
797.53	16633.91
797.862	16671.43
798.193	16716.4
798.525	16527.48
798.856	16590.07
799.188	16400.92
799.519	16362.73
799.85	16373.81
800.182	16374.94
800.513	16293.36
800.844	16246.13
801.175	16362.28
801.506	16282.51
801.837	16200.03
802.168	16141.04
802.499	16231.66
802.83	16061.72
803.161	16018.34
803.491	15992.57
803.822	16011.33
804.153	15954.16
804.483	15834.61
804.814	15838.45
805.145	15827.61
805.475	15780.83
805.805	15670.77
806.136	15745.57
806.466	15774.5
806.796	15697.44
807.126	15527.95
807.457	15548.74
807.787	15616.09
808.117	15508.52
808.447	15417
808.777	15569.31
809.107	15385.36
809.436	15413.15
809.766	15400.05
810.096	15299.03
810.426	15233.27
810.755	15257
811.085	15222.42
811.414	15191.92
811.744	15102.2
812.073	15014.07
812.403	15087.96
812.732	15011.13
813.061	15040.06
813.39	14995.99
813.719	14902.66
814.049	14973.17
814.378	14935.88
814.707	14820.18
815.036	14861.08
815.365	14772.04
815.693	14663.34
816.022	14653.85
816.351	14677.35
816.68	14579.73
817.008	14659.28
817.337	14516.23
817.665	14460.18
817.994	14587.41
818.322	14486.62
818.651	14441.88
818.979	14423.8
819.307	14451.15
819.636	14467.87
819.964	14371.37
820.292	14462.22
820.62	14391.26
820.948	14367.08
821.276	14418.6
821.604	14337.25
821.932	14387.64
822.259	14373.86
822.587	14298.16
822.915	14355.33
823.243	14349.23
823.57	14267.87
823.898	14359.4
824.225	14287.99
824.553	14269.23
824.88	14299.51
825.207	14377.48
825.535	14314.43
825.862	14293.64
826.189	14192.62
826.516	14321.66
826.843	14450.47
827.17	14412.73
827.497	14383.12
827.824	14401.66
828.151	14413.86
828.478	14367.76
828.805	14453.18
829.131	14448.21
829.458	14374.31
829.785	14290.47
830.111	14382.67
830.438	14363.69
830.764	14346.29
831.09	14382.9
831.417	14331.6
831.743	14349.45
832.069	14351.94
832.395	14315.56
832.722	14331.37
833.048	14253.18
833.374	14320.98
833.7	14252.73
834.026	14184.49
834.351	14270.81
834.677	14206.18
835.003	14210.25
835.329	14201.89
835.654	14210.7
835.98	14215.22
836.306	14103.13
836.631	14094.32
836.956	14170.02
837.282	14214.77
837.607	14071.27
837.932	14018.84
838.258	14065.39
838.583	14074.66
838.908	13941.33
839.233	13915.79
839.558	13958.73
839.883	13883.93
840.208	13839.41
840.533	13873.53
840.858	13888.9
841.182	13815.68
841.507	13809.81
841.832	13704.5
842.156	13766.42
842.481	13676.7
842.805	13661.56
843.13	13709.02
843.454	13633.31
843.778	13630.6
844.103	13560.77
844.427	13465.41
844.751	13556.71
845.075	13569.59
845.399	13481
845.723	13341.8
846.047	13420.44
846.371	13277.84
846.695	13350.38
847.019	13213.21
847.343	13158.52
847.666	13061.13
847.99	13059.09
848.313	13069.26
848.637	12909.04
848.96	12871.07
849.284	12883.28
849.607	12798.53
849.931	12788.82
850.254	12713.79
850.577	12612.55
850.9	12514.25
851.223	12548.37
851.546	12507.92
851.869	12369.62
852.192	12494.81
852.515	12320.81
852.838	12313.12
853.161	12254.14
853.483	12194.71
853.806	12184.99
854.129	12093.47
854.451	12081.94
854.774	12070.64
855.096	11991.1
855.419	11967.82
855.741	11915.39
856.063	11869.52
856.385	11833.59
856.708	11853.93
857.03	11774.15
857.352	11795.85
857.674	11676.3
857.996	11742.74
858.318	11649.41
858.64	11676.76
858.961	11616.42
859.283	11533.03
859.605	11408.06
859.926	11512.92
860.248	11443.54
860.57	11367.38
860.891	11387.5
861.212	11266.37
861.534	11239.25
861.855	11352.92
862.176	11332.81
862.498	11266.82
862.819	11262.75
863.14	11234.51
863.461	11166.71
863.782	11203.77
864.103	11138.24
864.424	11154.73
864.745	11231.34
865.065	11107.73
865.386	10974.63
865.707	11061.86
866.027	11049.88
866.348	11022.31
866.668	11054.4
866.989	11002.65
867.309	10993.61
867.63	10969.2
867.95	10866.83
868.27	10886.95
868.59	10874.06
868.91	10832.48
869.23	10795.2
869.55	10857.57
869.87	10834.74
870.19	10879.04
870.51	10866.83
870.83	10795.87
871.15	10698.93
871.469	10736.67
871.789	10731.92
872.109	10695.09
872.428	10670.23
872.748	10642.88
873.067	10680.85
873.386	10623.22
873.706	10630.91
874.025	10512.04
874.344	10541.42
874.663	10629.1
874.982	10502.55
875.301	10579.16
875.62	10494.87
875.939	10488.31
876.258	10534.86
876.577	10405.83
876.896	10387.98
877.214	10452.83
877.533	10421.19
877.852	10360.86
878.17	10335.77
878.489	10420.52
878.807	10316.34
879.125	10290.58
879.444	10297.58
879.762	10292.16
880.08	10316.34
880.398	10260.07
880.716	10267.98
881.034	10198.38
881.352	10177.81
881.67	10185.95
881.988	10097.36
882.306	10093.07
882.624	10101.43
882.941	10113.86
883.259	9992.51
883.577	10014.2
883.894	9998.83
884.212	9954.31
884.529	10027.31
884.846	9972.62
885.164	9898.95
885.481	9942.11
885.798	9857.59
886.115	9857.82
886.432	9915.22
886.75	9802.45
887.067	9763.81
887.383	9704.6
887.7	9799.29
888.017	9652.63
888.334	9743.02
888.651	9681.78
888.967	9660.54
889.284	9622.12
889.6	9591.61
889.917	9454.44
890.233	9540.77
890.55	9476.81
890.866	9436.81
891.182	9432.75
891.498	9388.23
891.815	9425.29
892.131	9391.62
892.447	9337.83
892.763	9192.3
893.079	9244.95
893.395	9251.06
893.71	9191.62
894.026	9194.79
894.342	9127.44
894.657	9121.12
894.973	9080.89
895.289	9038.86
895.604	9058.74
895.92	8994.79
896.235	8945.08
896.55	9019.65
896.865	8982.81
897.181	8852.2
897.496	8924.96
897.811	8808.36
898.126	8845.42
898.441	8770.84
898.756	8702.82
899.071	8677.74
899.386	8670.73
899.7	8634.12
900.015	8559.1
900.33	8524.52
900.644	8494.47
900.959	8520.91
901.273	8500.79
901.588	8472.09
901.902	8446.33
902.216	8378.99
902.531	8361.81
902.845	8288.82
903.159	8239.11
903.473	8277.97
903.787	8278.43
904.101	8183.97
904.415	8154.59
904.729	8134.93
905.042	8099.22
905.356	8031.88
905.67	8093.57
905.984	8011.99
906.297	8023.52
906.611	7935.61
906.924	7941.71
907.237	7839.12
907.551	7853.8
907.864	7834.6
908.177	7829.17
908.491	7823.75
908.804	7733.58
909.117	7623.98
909.43	7706.01
909.743	7627.14
910.056	7657.43
910.368	7611.33
910.681	7521.61
910.994	7474.15
911.307	7458.33
911.619	7412.01
911.932	7402.07
912.244	7342.86
912.557	7386.25
912.869	7307.83
913.181	7306.25
913.494	7295.4
913.806	7211.79
914.118	7217.44
914.43	7163.2
914.742	7141.96
915.054	7128.85
915.366	7124.56
915.678	7083.88
915.99	7026.71
916.302	6985.35
916.613	6966.82
916.925	6968.86
917.236	6918.01
917.548	6935.18
917.859	6911.23
918.171	6844.79
918.482	6829.88
918.794	6804.57
919.105	6748.07
919.416	6719.82
919.727	6722.31
920.038	6729.77
920.349	6644.35
920.66	6658.13
920.971	6626.04
921.282	6613.39
921.593	6485.48
921.903	6516.89
922.214	6493.16
922.525	6485.03
922.835	6476.67
923.146	6401.19
923.456	6384.01
923.767	6324.35
924.077	6338.82
924.387	6328.87
924.697	6263.56
925.008	6238.03
925.318	6237.12
925.628	6243.45
925.938	6152.15
926.248	6151.93
926.558	6154.41
926.867	6072.83
927.177	6108.31
927.487	6031.03
927.796	6013.63
928.106	6010.92
928.416	5939.28
928.725	5983.35
929.034	5922.1
929.344	5918.49
929.653	5884.59
929.962	5872.61
930.271	5814.76
930.581	5764.82
930.89	5808.21
931.199	5765.27
931.508	5707.65
931.817	5677.59
932.125	5665.84
932.434	5679.17
932.743	5617.93
933.051	5642.56
933.36	5574.54
933.669	5579.74
933.977	5534.09
934.286	5546.97
934.594	5499.97
934.902	5450.93
935.21	5458.39
935.519	5452.51
935.827	5409.8
936.135	5427.2
936.443	5313.98
936.751	5358.73
937.059	5360.99
937.367	5307.43
937.674	5320.31
937.982	5279.18
938.29	5224.5
938.597	5251.84
938.905	5198.06
939.213	5158.73
939.52	5123.93
939.827	5162.58
940.135	5114.22
940.442	5099.75
940.749	5104.95
941.056	5081.45
941.363	4992.64
941.67	5024.5
941.977	4955.8
942.284	4981.11
942.591	4952.64
942.898	4916.48
943.205	4926.2
943.511	4872.64
943.818	4868.8
944.125	4847.56
944.431	4803.04
944.738	4763.26
945.044	4779.76
945.35	4753.55
945.657	4744.96
945.963	4690.72
946.269	4671.52
946.575	4674
946.881	4633.78
947.187	4661.35
947.493	4649.6
947.799	4613.44
948.105	4528.69
948.41	4531.86
948.716	4533.67
949.022	4541.58
949.327	4516.49
949.633	4475.36
949.938	4464.74
950.244	4443.72
950.549	4401.47
950.854	4393.1
951.16	4382.26
951.465	4323.73
951.77	4347
952.075	4351.75
952.38	4312.88
952.685	4309.49
952.99	4285.76
953.294	4278.31
953.599	4230.4
953.904	4179.1
954.209	4178.87
954.513	4210.51
954.818	4122.6
955.122	4133.45
955.426	4155.14
955.731	4100.46
956.035	4078.54
956.339	4107.91
956.643	4069.5
956.948	4076.28
957.252	4009.61
957.556	4005.09
957.86	4005.77
958.163	3938.88
958.467	3963.29
958.771	3953.12
959.075	3923.06
959.378	3927.58
959.682	3904.08
959.985	3871.76
960.289	3815.49
960.592	3854.81
960.896	3809.62
961.199	3796.96
961.502	3802.84
961.805	3741.14
962.108	3769.17
962.411	3719.68
962.714	3733.46
963.017	3721.26
963.32	3672.45
963.623	3643.75
963.926	3638.1
964.228	3642.62
964.531	3622.96
964.833	3599.68
965.136	3561.26
965.438	3600.58
965.741	3550.64
966.043	3528.04
966.345	3528.27
966.648	3509.74
966.95	3549.29
967.252	3481.04
967.554	3478.55
967.856	3439.91
968.158	3398.33
968.46	3463.19
968.761	3391.78
969.063	3407.37
969.365	3387.03
969.666	3363.98
969.968	3327.6
970.269	3352.45
970.571	3334.6
970.872	3325.56
971.174	3294.83
971.475	3275.85
971.776	3275.85
972.077	3271.55
972.378	3230.88
972.679	3223.19
972.98	3254.15
973.281	3202.85
973.582	3171.44
973.883	3152.69
974.183	3166.02
974.484	3148.84
974.785	3112.23
975.085	3119.01
975.386	3102.07
975.686	3068.85
975.986	3061.84
976.287	3035.17
976.587	3009.86
976.887	2977.77
977.187	2998.79
977.487	2997.66
977.787	3008.96
978.087	2988.4
978.387	2953.59
978.687	2953.82
978.987	2938.91
979.286	2887.83
979.586	2915.4
979.885	2888.51
980.185	2857.55
980.484	2890.09
980.784	2826.37
981.083	2839.25
981.382	2817.33
981.682	2877.66
981.981	2815.52
982.28	2816.2
982.579	2797.89
982.878	2798.12
983.177	2783.43
983.475	2790.44
983.774	2726.03
984.073	2730.32
984.372	2702.3
984.67	2717.22
984.969	2705.24
985.267	2653.49
985.566	2684
985.864	2680.38
986.162	2648.07
986.461	2648.74
986.759	2591.12
987.057	2625.02
987.355	2604.9
987.653	2560.16
987.951	2563.1
988.249	2556.54
988.547	2537.11
988.844	2529.88
989.142	2566.94
989.44	2507.28
989.737	2481.06
990.035	2482.42
990.332	2481.06
990.63	2456.21
990.927	2451.01
991.224	2424.12
991.521	2427.73
991.819	2421.63
992.116	2423.21
992.413	2381.86
992.71	2392.25
993.006	2364.68
993.303	2372.14
993.6	2327.17
993.897	2348.86
994.193	2334.63
994.49	2305.48
994.787	2300.96
995.083	2262.09
995.379	2295.31
995.676	2271.13
995.972	2300.96
996.268	2274.29
996.565	2170.79
996.861	2235.87
997.157	2201.98
997.453	2204.46
997.749	2165.82
998.044	2203.78
998.34	2150.45
998.636	2158.14
998.932	2148.87
999.227	2141.41
999.523	2170.56
999.818	2144.8
1000.114	2079.49
1000.409	2095.31
1000.704	2061.41
1001	2063.22
1001.295	2079.04
1001.59	2054.86
1001.885	2061.64
1002.18	2031.13
1002.475	2012.6
1002.77	2034.52
1003.065	2031.58
1003.359	1975.09
1003.654	2002.21
1003.949	1947.29
1004.243	1947.07
1004.538	1952.04
1004.832	1948.2
1005.127	1950.68
1005.421	1931.02
1005.715	1900.51
1006.009	1918.82
1006.304	1878.37
1006.598	1886.96
1006.892	1837.92
1007.186	1829.78
1007.48	1844.47
1007.773	1832.27
1008.067	1803.57
1008.361	1785.94
1008.655	1801.08
1008.948	1798.6
1009.242	1797.01
1009.535	1758.15
1009.829	1735.55
1010.122	1750.24
1010.415	1725.83
1010.708	1733.29
1011.001	1720.18
1011.295	1720.18
1011.588	1693.97
1011.881	1669.79
1012.173	1676.57
1012.466	1662.56
1012.759	1677.47
1013.052	1646.96
1013.344	1627.08
1013.637	1651.71
1013.93	1594.08
1014.222	1592.05
1014.514	1624.82
1014.807	1606.51
1015.099	1578.26
1015.391	1547.53
1015.683	1541.43
1015.976	1551.15
1016.268	1563.57
1016.56	1541.43
1016.851	1518.83
1017.143	1517.25
1017.435	1517.47
1017.727	1498.49
1018.018	1476.12
1018.31	1484.03
1018.602	1476.8
1018.893	1483.58
1019.185	1469.79
1019.476	1450.13
1019.767	1425.27
1020.058	1421.88
1020.35	1401.55
1020.641	1385.95
1020.932	1364.71
1021.223	1381.88
1021.514	1394.09
1021.804	1364.48
1022.095	1385.73
1022.386	1345.5
1022.677	1356.12
1022.967	1311.6
1023.258	1314.99
1023.548	1312.73
1023.839	1312.96
1024.129	1301.66
1024.419	1288.1
1024.709	1280.87
1025	1272.28
1025.29	1262.11
1025.58	1293.75
1025.87	1257.82
1026.16	1279.06
1026.449	1266.41
1026.739	1225.96
1027.029	1235.22
1027.319	1212.85
1027.608	1210.14
1027.898	1197.26
1028.187	1197.03
1028.477	1193.41
1028.766	1157.71
1029.055	1166.75
1029.344	1147.54
1029.634	1167.2
1029.923	1147.99
1030.212	1154.77
1030.501	1130.14
1030.79	1122.91
1031.078	1104.15
1031.367	1086.53
1031.656	1124.72
1031.945	1105.73
1032.233	1094.66
1032.522	1075
1032.81	1060.99
1033.099	1089.46
1033.387	1071.61
1033.675	1068.22
1033.963	1030.93
1034.251	1069.8
1034.54	1029.58
1034.828	1036.36
1035.116	1020.31
1035.403	1018.73
1035.691	992.29
1035.979	1006.53
1036.267	980.09
1036.554	977.15
1036.842	979.86
1037.129	978.28
1037.417	938.28
1037.704	968.79
1037.992	973.08
1038.279	919.07
1038.566	938.73
1038.853	938.73
1039.14	938.73
