Data from hue_280_FLMS001491_00099.txt Node
Date: Tue Feb 07 15:56:09 GMT 2017
User: dcchb
Spectrometer: FLMS00149
Trigger mode: 0
Integration Time (sec): 2.000000E-2
Scans to average: 10
Electric dark correction enabled: true
Nonlinearity correction enabled: false
Boxcar width: 0
XAxis mode: Wavelengths
Number of Pixels in Spectrum: 2048
>>>>>Begin Spectral Data<<<<<
341.393	-25.03
341.776	-25.03
342.16	-25.03
342.543	-63.67
342.927	-62.77
343.31	-63.67
343.693	-79.49
344.077	-58.25
344.46	-61.64
344.843	-43.78
345.226	-42.88
345.61	-30.9
345.993	-23.22
346.376	-19.6
346.759	24.46
347.142	27.85
347.525	35.54
347.908	67.4
348.291	70.34
348.674	99.04
349.057	98.81
349.44	121.41
349.823	140.84
350.206	159.15
350.588	167.06
350.971	202.31
351.354	194.63
351.737	193.05
352.119	226.94
352.502	251.35
352.884	251.58
353.267	277.11
353.65	272.14
354.032	289.31
354.414	302.2
354.797	305.36
355.179	317.56
355.562	302.87
355.944	332.25
356.326	322.31
356.709	325.47
357.091	320.27
357.473	333.83
357.855	310.56
358.238	323.44
358.62	351.91
359.002	317.79
359.384	324.57
359.766	327.05
360.148	335.19
360.53	347.84
360.912	319.82
361.294	314.4
361.676	345.81
362.057	330.9
362.439	321.18
362.821	324.34
363.203	323.89
363.584	321.18
363.966	284.12
364.348	308.07
364.729	298.58
365.111	316.88
365.493	312.59
365.874	312.59
366.256	306.94
366.637	297
367.019	293.83
367.4	294.74
367.781	298.13
368.163	282.99
368.544	293.61
368.925	303.55
369.306	312.82
369.688	324.12
370.069	322.08
370.45	303.1
370.831	302.87
371.212	293.16
371.593	305.81
371.974	300.16
372.355	309.65
372.736	293.83
373.117	316.43
373.498	306.26
373.879	294.74
374.26	297.9
374.641	286.15
375.021	308.97
375.402	328.41
375.783	292.48
376.163	327.96
376.544	332.7
376.925	318.92
377.305	292.93
377.686	311.46
378.066	309.88
378.447	300.61
378.827	322.08
379.208	315.98
379.588	311.91
379.968	320.95
380.349	316.43
380.729	317.11
381.109	317.56
381.489	327.28
381.87	304
382.25	347.17
382.63	307.85
383.01	307.17
383.39	323.44
383.77	330.67
384.15	329.09
384.53	317.34
384.91	346.94
385.29	322.08
385.67	332.48
386.049	327.73
386.429	345.81
386.809	325.92
387.189	336.09
387.568	366.37
387.948	349.43
388.328	344.68
388.707	338.13
389.087	347.39
389.466	351.46
389.846	364.79
390.225	353.95
390.605	350.56
390.984	352.14
391.363	348.52
391.743	369.09
392.122	364.57
392.501	365.92
392.881	370.44
393.26	346.71
393.639	369.54
394.018	362.76
394.397	370.44
394.776	374.51
395.155	374.51
395.534	360.95
395.913	384
396.292	379.26
396.671	388.75
397.05	393.94
397.429	371.35
397.808	385.58
398.186	402.31
398.565	390.78
398.944	387.39
399.323	370.22
399.701	396.43
400.08	405.02
400.458	384.45
400.837	406.15
401.215	432.59
401.594	406.6
401.972	397.33
402.351	401.85
402.729	400.72
403.107	429.88
403.486	423.1
403.864	420.84
404.242	445.24
404.62	430.1
404.999	433.27
405.377	429.88
405.755	429.65
406.133	427.62
406.511	416.09
406.889	430.33
407.267	456.54
407.645	449.76
408.023	450.44
408.401	485.02
408.779	476.2
409.156	485.69
409.534	461.51
409.912	485.92
410.29	476.2
410.667	500.83
411.045	501.29
411.422	482.76
411.8	495.41
412.178	511
412.555	522.98
412.933	524.11
413.31	535.86
413.687	546.48
414.065	551.45
414.442	558.46
414.819	565.69
415.197	550.32
415.574	562.75
415.951	566.14
416.328	577.44
416.705	584.9
417.082	580.61
417.46	584
417.837	627.84
418.214	630.32
418.591	635.97
418.967	635.97
419.344	645.01
419.721	613.15
420.098	651.79
420.475	653.82
420.852	659.02
421.228	662.41
421.605	669.42
421.982	693.37
422.358	691.34
422.735	728.62
423.111	705.8
423.488	709.87
423.864	709.87
424.241	735.4
424.617	724.11
424.994	746.7
425.37	754.84
425.746	743.77
426.123	792.35
426.499	781.96
426.875	788.74
427.251	800.04
427.627	841.39
428.003	840.94
428.379	842.07
428.756	860.37
429.132	867.6
429.507	874.38
429.883	907.38
430.259	899.47
430.635	903.08
431.011	903.99
431.387	927.26
431.763	936.53
432.138	962.07
432.514	994.61
432.89	976.08
433.265	1013.14
433.641	995.74
434.016	1025.34
434.392	1033.25
434.767	1032.8
435.143	1056.53
435.518	1061.72
435.894	1065.57
436.269	1085.9
436.644	1122.74
437.02	1121.83
437.395	1121.83
437.77	1150.99
438.145	1154.38
438.52	1165.9
438.895	1173.58
439.271	1179.01
439.646	1212
440.021	1229.4
440.395	1222.4
440.77	1227.59
441.145	1260.81
441.52	1274.15
441.895	1267.59
442.27	1306.24
442.645	1275.28
443.019	1288.61
443.394	1292.23
443.769	1291.32
444.143	1316.41
444.518	1325.67
444.892	1343.3
445.267	1372.45
445.641	1367.48
446.016	1359.34
446.39	1377.2
446.764	1378.78
447.139	1370.42
447.513	1384.2
447.887	1376.29
448.262	1434.37
448.636	1420.58
449.01	1378.33
449.384	1417.65
449.758	1405.9
450.132	1474.14
450.506	1468.72
450.88	1452
451.254	1447.02
451.628	1500.13
452.002	1478.66
452.376	1488.6
452.75	1513.69
453.123	1537.19
453.497	1525.89
453.871	1541.03
454.244	1582.61
454.618	1578.09
454.992	1592.78
455.365	1565.89
455.739	1630.97
456.112	1625.1
456.486	1630.07
456.859	1663.52
457.232	1697.41
457.606	1668.71
457.979	1718.66
458.352	1713.46
458.725	1720.69
459.099	1750.52
459.472	1731.08
459.845	1777.86
460.218	1801.14
460.591	1812.44
460.964	1788.94
461.337	1839.33
461.71	1869.16
462.083	1924.3
462.456	1886.79
462.829	1876.39
463.201	1922.49
463.574	1879.78
463.947	1946.22
464.32	1995.71
464.692	1967.91
465.065	2005.88
465.438	1972.43
465.81	2045.43
466.183	2068.25
466.555	2071.19
466.928	2082.71
467.3	2103.73
467.672	2120.68
468.045	2180.56
468.417	2164.52
468.789	2174.91
469.161	2193.67
469.534	2232.09
469.906	2253.78
470.278	2273.22
470.65	2288.81
471.022	2308.7
471.394	2357.96
471.766	2366.32
472.138	2352.31
472.51	2429.82
472.882	2439.77
473.253	2469.6
473.625	2506.88
473.997	2507.79
474.369	2547.33
474.74	2557.5
475.112	2584.17
475.484	2645.18
475.855	2673.21
476.227	2661
476.598	2716.14
476.97	2748.01
477.341	2787.78
477.713	2793.88
478.084	2816.93
478.455	2911.62
478.827	2925.4
479.198	3011.73
479.569	2960.66
479.94	3055.57
480.311	3046.98
480.682	3136.25
481.053	3127.88
481.424	3199.29
481.795	3224.15
482.166	3293.3
482.537	3287.65
482.908	3324.71
483.279	3349.57
483.65	3405.84
484.021	3477.03
484.391	3474.77
484.762	3482.9
485.133	3519.74
485.503	3551.83
485.874	3632.5
486.244	3643.58
486.615	3664.59
486.985	3703.46
487.356	3739.62
487.726	3800.86
488.097	3858.94
488.467	3824.14
488.837	3936
489.207	3924.02
489.578	4028.43
489.948	4025.94
490.318	4032.04
490.688	4048.09
491.058	4158.37
491.428	4171.92
491.798	4169.66
492.168	4254.86
492.538	4231.81
492.908	4258.7
493.278	4392.03
493.648	4312.49
494.017	4366.5
494.387	4443.33
494.757	4448.08
495.126	4500.28
495.496	4549.77
495.866	4506.83
496.235	4518.36
496.605	4559.94
496.974	4610.56
497.344	4610.1
497.713	4657.11
498.082	4678.35
498.452	4676.54
498.821	4742.3
499.19	4722.64
499.559	4737.33
499.928	4785.92
500.298	4756.77
500.667	4849.42
501.036	4809.42
501.405	4906.82
501.774	4862.08
502.143	4936.2
502.512	4912.7
502.88	4938.23
503.249	4907.5
503.618	4934.84
503.987	4959.47
504.356	4954.05
504.724	5038.34
505.093	5030.66
505.462	5033.14
505.83	5011.45
506.199	5094.16
506.567	5116.31
506.936	5072.69
507.304	5083.31
507.672	5113.37
508.041	5147.72
508.409	5241.73
508.777	5194.04
509.145	5260.48
509.514	5266.36
509.882	5290.31
510.25	5249.41
510.618	5290.76
510.986	5306.81
511.354	5330.31
511.722	5388.84
512.09	5412.8
512.458	5383.87
512.826	5438.56
513.193	5396.75
513.561	5431.33
513.929	5384.1
514.297	5515.62
514.664	5452.57
515.032	5465.45
515.4	5511.32
515.767	5523.75
516.135	5524.88
516.502	5509.29
516.869	5599.23
517.237	5570.76
517.604	5556.75
517.972	5620.25
518.339	5611.89
518.706	5628.38
519.073	5636.74
519.44	5628.38
519.808	5668.16
520.175	5684.2
520.542	5705.9
520.909	5728.27
521.276	5688.27
521.643	5745.89
522.009	5795.38
522.376	5760.81
522.743	5846.68
523.11	5827.7
523.477	5846.46
523.843	5896.17
524.21	5924.19
524.577	5907.47
524.943	5935.72
525.31	5970.75
525.676	6028.37
526.043	5994.7
526.409	6008.94
526.776	6093.68
527.142	6078.31
527.508	6104.98
527.874	6134.58
528.241	6133.23
528.607	6117.18
528.973	6206
529.339	6211.42
529.705	6217.52
530.071	6246.9
530.437	6297.07
530.803	6333.9
531.169	6278.99
531.535	6268.59
531.901	6309.27
532.267	6347.69
532.632	6348.36
532.998	6401.92
533.364	6389.94
533.73	6390.62
534.095	6424.97
534.461	6469.26
534.826	6486.44
535.192	6470.85
535.557	6441.7
535.923	6486.44
536.288	6489.6
536.653	6492.54
537.019	6517.4
537.384	6556.27
537.749	6542.71
538.114	6579.54
538.479	6616.61
538.845	6627.9
539.21	6549.04
539.575	6579.77
539.94	6620.22
540.305	6700.9
540.67	6671.29
541.034	6652.54
541.399	6601.69
541.764	6677.62
542.129	6712.2
542.494	6668.58
542.858	6751.07
543.223	6745.87
543.587	6747.9
543.952	6727.11
544.316	6754
544.681	6760.33
545.045	6807.34
545.41	6789.26
545.774	6796.26
546.138	6837.62
546.503	6833.1
546.867	6840.78
547.231	6914
547.595	6860.22
547.959	6904.73
548.324	6869.93
548.688	6895.92
549.052	6932.53
549.416	6924.85
549.779	6925.07
550.143	6903.83
550.507	7005.97
550.871	6956.48
551.235	6924.39
551.599	6990.38
551.962	7000.55
552.326	6972.98
552.689	7059.98
553.053	6959.65
553.417	7026.31
553.78	7090.27
554.143	7059.76
554.507	7030.83
554.87	7054.56
555.234	7116.71
555.597	7092.75
555.96	7110.6
556.323	7211.84
556.686	7158.74
557.05	7232.18
557.413	7191.05
557.776	7225.4
558.139	7291.39
558.502	7260.66
558.865	7241.67
559.228	7287.32
559.59	7357.83
559.953	7272.41
560.316	7336.59
560.679	7334.55
561.041	7347.43
561.404	7375.23
561.767	7433.08
562.129	7449.58
562.492	7527.54
562.854	7489.13
563.217	7437.6
563.579	7531.61
563.941	7540.2
564.304	7586.98
564.666	7589.01
565.028	7573.19
565.39	7685.73
565.753	7732.96
566.115	7690.7
566.477	7696.58
566.839	7758.5
567.201	7805.05
567.563	7773.86
567.925	7869.68
568.287	7824.03
568.648	7774.54
569.01	7899.51
569.372	7908.32
569.734	7921.2
570.095	8072.16
570.457	7952.84
570.819	8069
571.18	8045.27
571.542	8065.83
571.903	8097.02
572.265	8112.61
572.626	8147.19
572.987	8224.47
573.349	8242.33
573.71	8234.64
574.071	8292.27
574.432	8301.76
574.794	8305.15
575.155	8344.24
575.516	8388.08
575.877	8377.24
576.238	8473.96
576.599	8504.01
576.96	8535.43
577.32	8517.12
577.681	8582.2
578.042	8600.96
578.403	8618.81
578.763	8695.42
579.124	8745.36
579.485	8792.59
579.845	8905.13
580.206	8851.8
580.566	8891.12
580.927	8958.01
581.287	8941.74
581.648	9029.65
582.008	9076.88
582.368	9092.47
582.728	9169.53
583.089	9204.79
583.449	9246.37
583.809	9344.67
584.169	9372.92
584.529	9395.29
584.889	9508.06
585.249	9534.04
585.609	9453.82
585.969	9606.13
586.329	9684.77
586.688	9709.86
587.048	9785.79
587.408	9854.49
587.768	9946.91
588.127	9983.75
588.487	10021.94
588.846	10111.88
589.206	10177.87
589.565	10216.96
589.925	10330.18
590.284	10328.6
590.643	10419.9
591.003	10518.2
591.362	10577.63
591.721	10618.31
592.08	10658.76
592.44	10792.32
592.799	10836.61
593.158	10898.08
593.517	10929.71
593.876	11038.41
594.235	11093.32
594.593	11098.3
594.952	11176.94
595.311	11232.53
595.67	11238.41
596.029	11388.23
596.387	11516.36
596.746	11516.59
597.104	11561.11
597.463	11584.16
597.822	11589.36
598.18	11668.68
598.538	11772.4
598.897	11895.34
599.255	11832.51
599.613	12054.43
599.972	12025.5
600.33	12073.41
600.688	12141.21
601.046	12190.24
601.404	12299.85
601.762	12314.08
602.12	12397.47
602.478	12422.33
602.836	12468.2
603.194	12465.27
603.552	12467.53
603.91	12521.99
604.268	12578.26
604.625	12565.38
604.983	12635.88
605.341	12617.13
605.698	12736.9
606.056	12729.67
606.413	12795.43
606.771	12941.64
607.128	12956.78
607.485	12915.42
607.843	12924.91
608.2	13069.09
608.557	13060.96
608.914	13074.74
609.272	13126.49
609.629	13223.89
609.986	13264.11
610.343	13248.07
610.7	13332.14
611.057	13297.33
611.414	13304.57
611.771	13432.02
612.127	13486.71
612.484	13517.67
612.841	13450.1
613.198	13493.49
613.554	13513.6
613.911	13615.29
614.267	13679.47
614.624	13657.55
614.98	13696.19
615.337	13721.05
615.693	13730.32
616.05	13747.27
616.406	13789.52
616.762	13782.52
617.118	13794.5
617.475	13747.72
617.831	13863.65
618.187	13834.72
618.543	13921.72
618.899	13962.85
619.255	13972.12
619.611	14006.47
619.967	14078.78
620.323	14033.81
620.678	13974.38
621.034	14072
621.39	13983.87
621.746	13997.65
622.101	14157.2
622.457	13993.13
622.812	14040.37
623.168	14209.85
623.523	14194.94
623.879	14152.9
624.234	14129.18
624.589	14204.65
624.945	14248.04
625.3	14205.11
625.655	14215.05
626.01	14257.76
626.365	14252.79
626.72	14203.3
627.075	14248.72
627.43	14214.6
627.785	14273.35
628.14	14234.48
628.495	14288.04
628.85	14308.83
629.205	14234.48
629.559	14334.37
629.914	14169.4
630.269	14228.16
630.623	14216.41
630.978	14117.43
631.332	14266.57
631.687	14281.26
632.041	14181.15
632.396	14295.95
632.75	14168.95
633.104	14227.93
633.459	14185.9
633.813	14157.2
634.167	14117.43
634.521	14135.28
634.875	14156.52
635.229	14081.27
635.583	14051.21
635.937	14063.19
636.291	14044.66
636.645	14079.46
636.999	14082.85
637.352	14047.37
637.706	13951.55
638.06	14034.49
638.413	14073.36
638.767	13963.08
639.121	14014.15
639.474	13969.63
639.828	13973.47
640.181	13923.31
640.534	13919.46
640.888	13938
641.241	13811.9
641.594	13864.55
641.947	13906.36
642.301	13831.11
642.654	13872.01
643.007	13912.46
643.36	13825.23
643.713	13763.54
644.066	13836.98
644.419	13800.15
644.771	13735.06
645.124	13645.8
645.477	13512.92
645.83	13521.06
646.182	13519.48
646.535	13465.69
646.888	13466.37
647.24	13391.57
647.593	13435.18
647.945	13465.01
648.298	13426.6
648.65	13368.97
649.002	13358.58
649.355	13440.83
649.707	13412.13
650.059	13528.97
650.411	13648.29
650.763	13687.15
651.115	13879.47
651.467	13704.55
651.819	13699.13
652.171	13726.48
652.523	13709.53
652.875	13683.31
653.227	13692.58
653.578	13782.97
653.93	13734.61
654.282	13707.49
654.633	13674.27
654.985	13736.19
655.337	13707.49
655.688	13703.65
656.039	13787.04
656.391	13700.26
656.742	13704.78
657.094	13723.76
657.445	13742.75
657.796	13713.59
658.147	13691.45
658.498	13712.46
658.849	13728.74
659.2	13674.95
659.551	13682.18
659.902	13708.4
660.253	13751.11
660.604	13716.76
660.955	13698.68
661.306	13792.91
661.656	13759.47
662.007	13707.27
662.358	13823.2
662.708	13742.29
663.059	13825.23
663.409	13729.86
663.76	13799.24
664.11	13737.55
664.461	13815.51
664.811	13830.65
665.161	13800.82
665.511	13775.74
665.862	13751.33
666.212	13828.39
666.562	13864.32
666.912	13829.98
667.262	13807.15
667.612	13871.78
667.962	13867.49
668.312	13872.01
668.662	13917.2
669.011	13843.08
669.361	13780.71
669.711	13870.43
670.06	13802.18
670.41	13781.84
670.76	13774.16
671.109	13810.09
671.459	13830.65
671.808	13715.4
672.157	13761.73
672.507	13747.27
672.856	13693.26
673.205	13824.78
673.554	13752.69
673.904	13698.68
674.253	13844.66
674.602	13670.21
674.951	13511.11
675.3	13501.85
675.649	13718.11
675.998	13665.01
676.346	13634.27
676.695	13637.21
677.044	13563.54
677.393	13629.75
677.741	13606.7
678.09	13614.84
678.438	13559.47
678.787	13532.58
679.135	13535.52
679.484	13450.1
679.832	13507.95
680.181	13487.39
680.529	13506.59
680.877	13449.42
681.225	13382.3
681.573	13486.26
681.922	13363.32
682.27	13373.04
682.618	13315.86
682.966	13304.79
683.314	13284.68
683.661	13225.7
684.009	13190.67
684.357	13144.12
684.705	13184.57
685.053	13196.55
685.4	13176.43
685.748	13004.23
686.095	13124.01
686.443	13043.33
686.79	13054.85
687.138	12987.29
687.485	12996.55
687.832	13017.79
688.18	12940.28
688.527	12797.69
688.874	12903.9
689.221	12792.04
689.568	12813.96
689.915	12742.55
690.262	12687.18
690.609	12618.71
690.956	12609.22
691.303	12572.16
691.65	12563.57
691.997	12580.52
692.344	12493.74
692.69	12418.26
693.037	12391.37
693.383	12287.64
693.73	12368.77
694.077	12284.25
694.423	12346.4
694.769	12256.68
695.116	12155.44
695.462	12184.14
695.808	12083.81
696.155	12194.54
696.501	12018.72
696.847	11985.28
697.193	11928.33
697.539	11910.25
697.885	11869.12
698.231	11792.29
698.577	11781.89
698.923	11757.71
699.269	11753.42
699.614	11692.63
699.96	11668.68
700.306	11606.3
700.651	11527.21
700.997	11547.78
701.342	11459.42
701.688	11402.24
702.033	11341.23
702.379	11366.54
702.724	11338.06
703.069	11298.74
703.415	11268.23
703.76	11173.32
704.105	11131.52
704.45	11155.02
704.795	11026.21
705.14	11040.22
705.485	10968.36
705.83	10988.24
706.175	10892.43
706.52	10902.59
706.865	10907.79
707.209	10834.35
707.554	10844.52
707.899	10810.85
708.243	10771.3
708.588	10774.69
708.932	10729.27
709.277	10673
709.621	10733.33
709.966	10594.81
710.31	10663.73
710.654	10529.5
710.998	10639.1
711.342	10520.23
711.687	10516.84
712.031	10461.02
712.375	10431.19
712.719	10465.77
713.063	10339.22
713.407	10489.72
713.75	10373.57
714.094	10392.78
714.438	10338.77
714.782	10377.86
715.125	10296.51
715.469	10276.17
715.812	10248.6
716.156	10242.27
716.499	10272.1
716.843	10254.48
717.186	10164.99
717.53	10240.47
717.873	10220.13
718.216	10102.84
718.559	10154.37
718.902	10050.64
719.246	10073.46
719.589	10073.92
719.932	10070.75
720.275	10008.38
720.617	10031.66
720.96	10008.61
721.303	10060.81
721.646	10009.51
721.989	9929.74
722.331	9943.52
722.674	9911.21
723.016	10005.9
723.359	9939.23
723.701	9925.67
724.044	9903.98
724.386	9886.8
724.729	9854.26
725.071	9845.22
725.413	9874.6
725.755	9871.21
726.097	9837.31
726.439	9832.57
726.782	9790.99
727.124	9834.37
727.465	9788.05
727.807	9743.98
728.149	9838.22
728.491	9741.04
728.833	9808.16
729.175	9756.64
729.516	9780.36
729.858	9768.16
730.199	9801.15
730.541	9733.36
730.882	9777.65
731.224	9773.36
731.565	9733.36
731.906	9744.89
732.248	9795.96
732.589	9746.69
732.93	9649.52
733.271	9706.24
733.612	9723.87
733.953	9769.74
734.294	9699.01
734.635	9671.44
734.976	9721.61
735.317	9669.41
735.658	9647.49
735.999	9663.98
736.339	9665.79
736.68	9703.53
737.021	9635.96
737.361	9709.41
737.702	9740.59
738.042	9683.42
738.383	9737.2
738.723	9713.93
739.063	9707.82
739.404	9774.04
739.744	9720.93
740.084	9731.55
740.424	9719.57
740.764	9798.44
741.104	9807.48
741.444	9758.9
741.784	9805.9
742.124	9809.06
742.464	9819.23
742.804	9879.8
743.143	9832.11
743.483	9882.96
743.823	9825.79
744.162	9875.05
744.502	9961.38
744.841	9899.23
745.181	9996.18
745.52	9947.82
745.86	10044.76
746.199	10103.75
746.538	10120.47
746.877	10200.69
747.216	10195.72
747.556	10313.23
747.895	10380.12
748.234	10359.33
748.573	10346
748.911	10473
749.25	10578.08
749.589	10588.93
749.928	10673.9
750.267	10793.22
750.605	10809.72
750.944	10853.56
751.283	10828.47
751.621	11033.89
751.96	11027.79
752.298	11166.54
752.636	11241.79
752.975	11303.26
753.313	11361.57
753.651	11557.72
753.989	11545.06
754.327	11713.65
754.666	11766.3
755.004	11988.22
755.342	12039.51
755.679	12117.7
756.017	12233.63
756.355	12380.52
756.693	12496.9
757.031	12658.93
757.368	12758.82
757.706	12834.97
758.044	12964.46
758.381	13119.94
758.719	13308.18
759.056	13403.55
759.394	13491.91
759.731	13553.6
760.068	13766.02
760.405	13860.26
760.743	14007.6
761.08	14123.53
761.417	14255.5
761.754	14340.02
762.091	14555.38
762.428	14655.26
762.765	14750.86
763.102	15005.54
763.438	15034.24
763.775	15108.13
764.112	15341.12
764.449	15524.62
764.785	15608.69
765.122	15635.8
765.458	15723.94
765.795	15913.31
766.131	16027.66
766.467	16110.14
766.804	16227.43
767.14	16356.24
767.476	16344.49
767.812	16412.28
768.148	16616.34
768.485	16749.45
768.821	16798.94
769.157	16788.54
769.492	16973.85
769.828	17093.62
770.164	16941.08
770.5	17157.57
770.836	17262.65
771.171	17165.48
771.507	17239.6
771.842	17254.29
772.178	17383.33
772.513	17485.7
772.849	17625.81
773.184	17572.93
773.519	17671
773.855	17725.92
774.19	17658.8
774.525	17742.87
774.86	17831.23
775.195	17774.05
775.53	17865.58
775.865	17890.21
776.2	17899.02
776.535	17724.79
776.87	17785.58
777.205	17859.02
777.539	17819.02
777.874	17875.97
778.209	17891.11
778.543	17825.35
778.878	17871.45
779.212	17836.2
779.547	17827.84
779.881	17842.07
780.215	17878.91
780.55	17953.26
780.884	17877.1
781.218	17863.77
781.552	17916.87
781.886	17788.97
782.22	17854.05
782.554	17793.03
782.888	17663.55
783.222	17575.41
783.556	17669.87
783.889	17687.5
784.223	17561.85
784.557	17586.71
784.89	17624.23
785.224	17597.79
785.557	17522.31
785.891	17563.44
786.224	17512.82
786.558	17470.56
786.891	17385.59
787.224	17314.4
787.557	17291.13
787.891	17320.96
788.224	17317.34
788.557	17386.94
788.89	17309.66
789.223	17264.69
789.556	17223.33
789.888	17188.76
790.221	17106.27
790.554	17017.24
790.887	17137.01
791.219	16871.48
791.552	17006.16
791.884	16903.11
792.217	16907.18
792.549	16865.83
792.882	16769.56
793.214	16705.38
793.546	16819.5
793.879	16607.3
794.211	16647.08
794.543	16662.22
794.875	16633.74
795.207	16627.87
795.539	16599.62
795.871	16633.29
796.203	16414.99
796.535	16318.5
796.867	16324.6
797.198	16324.37
797.53	16224.94
797.862	16156.47
798.193	16186.07
798.525	16083.02
798.856	16145.39
799.188	15931.61
799.519	15953.08
799.85	15872.41
800.182	15825.86
800.513	15899.98
800.844	15787.89
801.175	15794.9
801.506	15785.4
801.837	15729.81
802.168	15688.01
802.499	15669.47
802.83	15518.07
803.161	15524.17
803.491	15569.36
803.822	15476.71
804.153	15497.05
804.483	15354
804.814	15267.45
805.145	15258.41
805.475	15294.12
805.805	15251.63
806.136	15261.35
806.466	15230.84
806.796	15233.78
807.126	15107.91
807.457	15052.32
807.787	15062.94
808.117	14970.51
808.447	14987.46
808.777	14972.09
809.107	14960.34
809.436	14869.95
809.766	14775.94
810.096	14758.76
810.426	14661.59
810.755	14789.95
811.085	14702.72
811.414	14677.18
811.744	14635.38
812.073	14548.37
812.403	14574.59
812.732	14442.39
813.061	14500.01
813.39	14476.74
813.719	14355.39
814.049	14555.83
814.378	14401.26
814.707	14333.24
815.036	14400.13
815.365	14239.23
815.693	14214.15
816.022	14218.89
816.351	14154.49
816.68	14100.48
817.008	14180.93
817.337	14005.56
817.665	14086.01
817.994	14033.13
818.322	13973.02
818.651	13936.64
818.979	13854.16
819.307	13974.15
819.636	13862.29
819.964	13865.91
820.292	13896.19
820.62	13785.23
820.948	13865.68
821.276	13754.95
821.604	13730.32
821.932	13826.13
822.259	13768.96
822.587	13794.27
822.915	13762.63
823.243	13793.59
823.57	13751.33
823.898	13706.14
824.225	13716.31
824.553	13753.59
824.88	13670.21
825.207	13739.81
825.535	13699.58
825.862	13846.7
826.189	13767.38
826.516	13791.11
826.843	13825.91
827.17	13844.66
827.497	13834.95
827.824	13714.72
828.151	13774.84
828.478	13788.39
828.805	13879.24
829.131	13806.93
829.458	13767.38
829.785	13738.23
830.111	13717.89
830.438	13789.3
830.764	13788.62
831.09	13818.45
831.417	13698.68
831.743	13728.51
832.069	13743.2
832.395	13678.34
832.722	13684.89
833.048	13724.67
833.374	13779.13
833.7	13673.6
834.026	13628.62
834.351	13721.73
834.677	13660.26
835.003	13708.62
835.329	13655.06
835.654	13605.12
835.98	13556.31
836.306	13624.11
836.631	13537.1
836.956	13549.98
837.282	13586.14
837.607	13492.81
837.932	13495.07
838.258	13486.48
838.583	13420.49
838.908	13348.86
839.233	13473.83
839.558	13315.86
839.883	13322.42
840.208	13293.72
840.533	13217.34
840.858	13254.85
841.182	13335.53
841.507	13258.46
841.832	13156.55
842.156	13134.63
842.481	13151.12
842.805	13117.45
843.13	13098.47
843.454	13039.94
843.778	12942.32
844.103	12951.58
844.427	12943.44
844.751	12975.99
845.075	12886.27
845.399	12871.36
845.723	12826.39
846.047	12876.33
846.371	12671.81
846.695	12694.19
847.019	12606.96
847.343	12546.85
847.666	12569.67
847.99	12469.56
848.313	12468.66
848.637	12410.13
848.96	12338.04
849.284	12294.65
849.607	12252.16
849.931	12121.09
850.254	12076.12
850.577	12100.98
850.9	11993.19
851.223	11952.74
851.546	11925.39
851.869	11804.72
852.192	11969.23
852.515	11811.95
852.838	11687.88
853.161	11818.5
853.483	11609.92
853.806	11591.84
854.129	11607.43
854.451	11572.41
854.774	11529.92
855.096	11499.42
855.419	11531.05
855.741	11432.52
856.063	11359.31
856.385	11393.2
856.708	11336.48
857.03	11282.92
857.352	11296.26
857.674	11215.35
857.996	11231.4
858.318	11105.75
858.64	11134
858.961	11046.55
859.283	11039.09
859.605	11010.84
859.926	11023.27
860.248	10967.68
860.57	10864.4
860.891	11001.58
861.212	10902.82
861.534	10881.58
861.855	10837.74
862.176	10811.98
862.498	10885.87
862.819	10912.54
863.14	10754.58
863.461	10770.39
863.782	10790.51
864.103	10708.48
864.424	10708.25
864.745	10672.77
865.065	10647.46
865.386	10640.45
865.707	10523.17
866.027	10609.95
866.348	10568.14
866.668	10643.17
866.989	10568.14
867.309	10442.27
867.63	10517.29
867.95	10480.68
868.27	10324.53
868.59	10485.2
868.91	10414.92
869.23	10417.41
869.55	10306.45
869.87	10355.26
870.19	10364.53
870.51	10319.56
870.83	10346.45
871.15	10244.31
871.469	10282.5
871.789	10251.76
872.109	10263.74
872.428	10176.96
872.748	10173.35
873.067	10176.06
873.386	10214.93
873.706	10268.04
874.025	10085.44
874.344	10108.04
874.663	10131.09
874.982	10122.95
875.301	10083.18
875.62	9973.13
875.939	10026.23
876.258	10055.61
876.577	9958.44
876.896	10023.3
877.214	9977.2
877.533	9971.32
877.852	9970.19
878.17	9959.57
878.489	9927.03
878.807	9939.91
879.125	9891.77
879.444	9875.28
879.762	9935.84
880.08	9874.15
880.398	9795.51
880.716	9837.31
881.034	9770.87
881.352	9765
881.67	9728.16
881.988	9760.7
882.306	9791.44
882.624	9677.32
882.941	9649.97
883.259	9564.1
883.577	9675.51
883.894	9600.48
884.212	9580.14
884.529	9539.47
884.846	9535.85
885.164	9475.51
885.481	9463.76
885.798	9468.28
886.115	9382.86
886.432	9407.94
886.75	9335.86
887.067	9399.58
887.383	9320.26
887.7	9281.17
888.017	9307.61
888.334	9266.48
888.651	9245.69
888.967	9304.44
889.284	9191.45
889.6	9164.79
889.917	9097.22
890.233	9080.95
890.55	9048.86
890.866	9067.61
891.182	9059.93
891.498	9001.85
891.815	9014.96
892.131	8880.95
892.447	8944.23
892.763	8922.99
893.079	8862.65
893.395	8828.98
893.71	8816.55
894.026	8816.55
894.342	8743.33
894.657	8756.44
894.973	8691.13
895.289	8667.85
895.604	8669.89
895.92	8564.35
896.235	8559.38
896.55	8586.5
896.865	8577.23
897.181	8491.36
897.496	8566.38
897.811	8450.68
898.126	8406.39
898.441	8364.13
898.756	8423.11
899.071	8291.36
899.386	8287.07
899.7	8197.58
900.015	8238.26
900.33	8101.09
900.644	8077.81
900.959	8198.71
901.273	8109.45
901.588	8033.29
901.902	8026.74
902.216	8009.79
902.531	8046.17
902.845	8012.28
903.159	7887.76
903.473	7850.02
903.787	7876.23
904.101	7811.6
904.415	7803.92
904.729	7843.92
905.042	7779.29
905.356	7757.37
905.67	7706.07
905.984	7693.19
906.297	7658.84
906.611	7604.38
906.924	7636.69
907.237	7619.97
907.551	7585.39
907.864	7460.43
908.177	7470.37
908.491	7482.12
908.804	7369.13
909.117	7343.82
909.43	7361.9
909.743	7291.62
910.056	7277.15
910.368	7330.94
910.681	7229.7
910.994	7191.51
911.307	7138.4
911.619	7100.21
911.932	7117.38
912.244	7057.05
912.557	7057.05
912.869	7041.45
913.181	6975.69
913.494	6963.04
913.806	6982.92
914.118	6889.82
914.43	6831.52
914.742	6867.22
915.054	6801.23
915.366	6845.75
915.678	6743.83
915.99	6823.83
916.302	6730.28
916.613	6654.57
916.925	6687.56
917.236	6703.38
917.548	6562.6
917.859	6637.4
918.171	6484.86
918.482	6517.17
918.794	6529.15
919.105	6472.2
919.416	6448.93
919.727	6458.64
920.038	6397.18
920.349	6399.89
920.66	6333.22
920.971	6354.24
921.282	6301.81
921.593	6265.2
921.903	6211.87
922.214	6248.71
922.525	6211.87
922.835	6189.72
923.146	6153.79
923.456	6134.81
923.767	6114.02
924.077	6079.22
924.387	6039.9
924.697	6035.15
925.008	6040.35
925.318	5964.87
925.628	5926.45
925.938	5907.25
926.248	5874.7
926.558	5846.23
926.867	5831.77
927.177	5778.66
927.487	5770.53
927.796	5689.4
928.106	5699.34
928.416	5733.47
928.725	5724.65
929.034	5655.73
929.344	5682.62
929.653	5620.25
929.962	5555.62
930.271	5584.32
930.581	5576.18
930.89	5561.49
931.199	5479.69
931.508	5504.77
931.817	5446.24
932.125	5447.6
932.434	5370.54
932.743	5393.59
933.051	5283.76
933.36	5332.57
933.669	5273.59
933.977	5253.93
934.286	5286.92
934.594	5273.14
934.902	5213.7
935.21	5200.37
935.519	5250.54
935.827	5171.22
936.135	5132.35
936.443	5170.54
936.751	5079.92
937.059	5139.58
937.367	5085.35
937.674	5109.53
937.982	5016.65
938.29	5030.88
938.597	4940.49
938.905	4929.19
939.213	4969.42
939.52	4891
939.827	4897.33
940.135	4878.57
940.442	4832.7
940.749	4861.85
941.056	4828.4
941.363	4780.04
941.67	4783.21
941.977	4777.11
942.284	4728.97
942.591	4712.25
942.898	4704.34
943.205	4692.81
943.511	4653.49
943.818	4646.26
944.125	4606.26
944.431	4564.23
944.738	4564.91
945.044	4594.06
945.35	4555.42
945.657	4476.1
945.963	4479.03
946.269	4477.45
946.575	4509.54
946.881	4437
947.187	4399.94
947.493	4367.63
947.799	4372.37
948.105	4356.78
948.41	4344.35
948.716	4329.21
949.022	4311.81
949.327	4296.44
949.633	4265.26
949.938	4223.67
950.244	4201.08
950.549	4204.92
950.854	4137.12
951.16	4178.25
951.465	4185.26
951.77	4116.11
952.075	4091.93
952.38	4101.42
952.685	4072.04
952.99	4040.85
953.294	4009.44
953.599	4037.46
953.904	4025.04
954.209	4018.93
954.513	3957.92
954.818	3973.51
955.122	3933.74
955.426	3941.87
955.731	3903.91
956.035	3897.36
956.339	3888.99
956.643	3827.3
956.948	3848.99
957.252	3851.03
957.556	3837.02
957.86	3793.63
958.163	3792.73
958.467	3787.3
958.771	3745.95
959.075	3752.05
959.378	3705.5
959.682	3686.29
959.985	3646.74
960.289	3642.22
960.592	3659.62
960.896	3606.29
961.199	3590.47
961.502	3569.23
961.805	3567.65
962.108	3526.97
962.411	3563.35
962.714	3564.48
963.017	3506.86
963.32	3531.49
963.623	3499.17
963.926	3525.84
964.228	3483.58
964.531	3514.31
964.833	3429.12
965.136	3396.13
965.438	3416.24
965.741	3388.89
966.043	3425.5
966.345	3315.22
966.648	3335.11
966.95	3283.13
967.252	3301.21
967.554	3319.97
967.856	3334.43
968.158	3287.65
968.46	3286.98
968.761	3277.03
969.063	3201.78
969.365	3216.7
969.666	3196.13
969.968	3194.32
970.269	3154.1
970.571	3190.93
970.872	3170.59
971.174	3129.24
971.475	3120.43
971.776	3079.52
972.077	3089.69
972.378	3119.52
972.679	3093.31
972.98	3059.64
973.281	3045.4
973.582	3053.99
973.883	3036.36
974.183	2981.9
974.484	2976.48
974.785	2983.03
975.085	2976.7
975.386	3034.55
975.686	2970.37
975.986	2921.34
976.287	2945.97
976.587	2907.78
976.887	2894.67
977.187	2859.42
977.487	2854.44
977.787	2856.93
978.087	2815.8
978.387	2833.65
978.687	2788.46
978.987	2789.14
979.286	2783.03
979.586	2800.21
979.885	2754.33
980.185	2779.64
980.484	2704.39
980.784	2679.99
981.083	2671.4
981.382	2680.21
981.682	2685.86
981.981	2704.39
982.28	2682.02
982.579	2642.47
982.878	2650.38
983.177	2632.53
983.475	2632.76
983.774	2605.41
984.073	2608.35
984.372	2618.52
984.67	2584.17
984.969	2559.09
985.267	2576.94
985.566	2519.31
985.864	2553.21
986.162	2512.08
986.461	2492.19
986.759	2513.66
987.057	2462.36
987.355	2423.27
987.653	2454
987.951	2428.24
988.249	2460.56
988.547	2401.8
988.844	2416.72
989.142	2386.89
989.44	2377.62
989.737	2351.86
990.035	2378.07
990.332	2352.76
990.63	2338.3
990.927	2355.47
991.224	2351.18
991.521	2337.17
991.819	2291.52
992.116	2316.61
992.413	2268.47
992.71	2287.68
993.006	2286.55
993.303	2273.22
993.6	2230.51
993.897	2225.31
994.193	2239.55
994.49	2194.12
994.787	2170.17
995.083	2172.43
995.379	2185.54
995.676	2174.46
995.972	2142.15
996.268	2156.16
996.565	2139.44
996.861	2150.96
997.157	2130.17
997.453	2150.06
997.749	2086.1
998.044	2082.04
998.34	2092.43
998.636	2070.28
998.932	2056.95
999.227	2050.85
999.523	2038.19
999.818	2084.75
1000.114	1983.51
1000.409	1984.86
1000.704	1979.44
1001	1976.73
1001.295	1960.68
1001.59	1954.58
1001.885	1941.25
1002.18	1926.56
1002.475	1913.23
1002.77	1923.62
1003.065	1902.61
1003.359	1891.76
1003.654	1890.85
1003.949	1889.95
1004.243	1851.99
1004.538	1895.37
1004.832	1833.91
1005.127	1827.81
1005.421	1810.86
1005.715	1814.7
1006.009	1801.14
1006.304	1789.61
1006.598	1788.03
1006.892	1795.72
1007.186	1745.55
1007.48	1751.42
1007.773	1726.79
1008.067	1740.58
1008.361	1734.02
1008.655	1714.14
1008.948	1715.94
1009.242	1704.42
1009.535	1673.23
1009.829	1684.76
1010.122	1659.9
1010.415	1653.8
1010.708	1646.11
1011.001	1653.35
1011.295	1633.01
1011.588	1634.59
1011.881	1604.08
1012.173	1620.58
1012.466	1599.11
1012.759	1594.14
1013.052	1590.52
1013.344	1571.09
1013.637	1571.77
1013.93	1540.81
1014.222	1562.73
1014.514	1535.38
1014.807	1533.8
1015.099	1504.65
1015.391	1502.16
1015.683	1471.88
1015.976	1492.67
1016.268	1504.65
1016.56	1444.76
1016.851	1485.22
1017.143	1452
1017.435	1428.95
1017.727	1451.32
1018.018	1460.13
1018.31	1401.6
1018.602	1403.18
1018.893	1409.06
1019.185	1388.04
1019.476	1373.35
1019.767	1374.48
1020.058	1367.93
1020.35	1336.52
1020.641	1362.05
1020.932	1323.64
1021.223	1335.84
1021.514	1300.14
1021.804	1298.33
1022.095	1319.8
1022.386	1284.32
1022.677	1293.36
1022.967	1249.29
1023.258	1274.37
1023.548	1273.47
1023.839	1261.94
1024.129	1236.18
1024.419	1251.1
1024.709	1236.41
1025	1221.04
1025.29	1220.82
1025.58	1202.74
1025.87	1202.28
1026.16	1201.15
1026.449	1196.18
1026.739	1186.24
1027.029	1159.12
1027.319	1142.63
1027.608	1142.85
1027.898	1159.35
1028.187	1128.61
1028.477	1126.58
1028.766	1126.35
1029.055	1081.16
1029.344	1098.33
1029.634	1095.17
1029.923	1100.14
1030.212	1099.24
1030.501	1065.11
1030.79	1054.27
1031.078	1062.85
1031.367	1064.21
1031.656	1045.45
1031.945	1041.16
1032.233	1073.7
1032.522	1028.5
1032.81	1045.68
1033.099	1041.61
1033.387	1022.4
1033.675	993.7
1033.963	1026.47
1034.251	1000.03
1034.54	1009.3
1034.828	958.68
1035.116	953.25
1035.403	985.79
1035.691	960.71
1035.979	990.76
1036.267	967.71
1036.554	952.8
1036.842	928.17
1037.129	920.94
1037.417	918.22
1037.704	931.56
1037.992	930.88
1038.279	911.67
1038.566	917.55
1038.853	917.55
1039.14	917.55
