Data from hue_350_FLMS001491_25.txt Node
Date: Mon Feb 06 15:37:48 GMT 2017
User: dcchb
Spectrometer: FLMS00149
Trigger mode: 0
Integration Time (sec): 2.000000E-2
Scans to average: 10
Electric dark correction enabled: true
Nonlinearity correction enabled: false
Boxcar width: 0
XAxis mode: Wavelengths
Number of Pixels in Spectrum: 2048
>>>>>Begin Spectral Data<<<<<
341.393	-28.02
341.776	-28.02
342.16	-28.02
342.543	-66.66
342.927	-74.8
343.31	-72.09
343.693	-72.77
344.077	-47.68
344.46	-67.12
344.843	-63.73
345.226	-28.93
345.61	-25.54
345.993	-13.56
346.376	-13.33
346.759	9.72
347.142	9.72
347.525	40
347.908	58.08
348.291	90.62
348.674	74.35
349.057	122.26
349.44	132.43
349.823	151.86
350.206	141.92
350.588	187.79
350.971	213.55
351.354	213.1
351.737	200.9
352.119	251.52
352.502	256.72
352.884	280.67
353.267	274.8
353.65	278.18
354.032	287.9
354.414	305.98
354.797	317.96
355.179	305.53
355.562	316.6
355.944	320.44
356.326	320.9
356.709	324.96
357.091	340.33
357.473	343.49
357.855	340.1
358.238	344.62
358.62	343.27
359.002	343.27
359.384	333.78
359.766	331.52
360.148	315.92
360.53	338.52
360.912	309.82
361.294	335.13
361.676	320.67
362.057	321.57
362.439	324.51
362.821	320.9
363.203	316.38
363.584	333.1
363.966	320.22
364.348	329.26
364.729	315.02
365.111	316.6
365.493	308.69
365.874	321.8
366.256	328.35
366.637	312.99
367.019	323.38
367.4	298.75
367.781	314.57
368.163	299.65
368.544	312.99
368.925	295.36
369.306	299.65
369.688	289.94
370.069	308.01
370.45	299.2
370.831	298.52
371.212	298.07
371.593	303.49
371.974	311.4
372.355	316.15
372.736	313.89
373.117	300.11
373.498	299.2
373.879	312.53
374.26	316.83
374.641	329.48
375.021	314.34
375.402	301.24
375.783	307.56
376.163	323.38
376.544	297.62
376.925	320.22
377.305	307.11
377.686	310.5
378.066	331.74
378.447	322.7
378.827	305.98
379.208	313.66
379.588	313.66
379.968	312.99
380.349	336.04
380.729	313.66
381.109	341.69
381.489	343.49
381.87	339.65
382.25	334.45
382.63	324.51
383.01	341.23
383.39	321.8
383.77	349.6
384.15	332.87
384.53	321.8
384.91	351.18
385.29	341.23
385.67	338.07
386.049	328.35
386.429	352.76
386.809	335.13
387.189	334.45
387.568	344.4
387.948	337.62
388.328	359.09
388.707	359.99
389.087	354.34
389.466	369.93
389.846	338.75
390.225	359.99
390.605	355.24
390.984	362.48
391.363	365.87
391.743	360.67
392.122	326.09
392.501	350.95
392.881	368.8
393.26	361.35
393.639	336.94
394.018	366.54
394.397	350.95
394.776	390.72
395.155	366.77
395.534	366.32
395.913	370.39
396.292	389.82
396.671	382.14
397.05	359.54
397.429	358.41
397.808	373.78
398.186	371.97
398.565	380.33
398.944	382.59
399.323	355.47
399.701	383.27
400.08	385.07
400.458	392.98
400.837	386.88
401.215	378.75
401.594	390.95
401.972	393.66
402.351	407.22
402.729	394.11
403.107	380.1
403.486	399.76
403.864	399.09
404.242	408.12
404.62	415.36
404.999	408.58
405.377	405.87
405.755	407.45
406.133	417.84
406.511	423.27
406.889	406.99
407.267	408.8
407.645	421.91
408.023	423.27
408.401	414.23
408.779	408.58
409.156	408.58
409.534	433.43
409.912	439.08
410.29	443.83
410.667	436.6
411.045	441.12
411.422	459.2
411.8	435.02
412.178	450.61
412.555	474.56
412.933	452.64
413.31	468.69
413.687	476.37
414.065	459.87
414.442	475.24
414.819	475.24
415.197	469.14
415.574	467.78
415.951	472.3
416.328	483.15
416.705	470.04
417.082	491.96
417.46	482.02
417.837	515.01
418.214	513.21
418.591	504.85
418.967	472.76
419.344	533.09
419.721	517.05
420.098	509.59
420.475	524.73
420.852	506.65
421.228	514.79
421.605	512.53
421.982	536.03
422.358	546.88
422.735	532.19
423.111	540.78
423.488	566.54
423.864	545.3
424.241	557.95
424.617	535.58
424.994	548.23
425.37	575.13
425.746	577.84
426.123	565.63
426.499	561.34
426.875	602.7
427.251	586.88
427.627	588.91
428.003	588.46
428.379	599.53
428.756	616.71
429.132	595.24
429.507	608.12
429.883	598.4
430.259	622.36
430.635	630.49
431.011	615.35
431.387	639.31
431.763	647.89
432.138	646.31
432.514	658.51
432.89	666.88
433.265	659.19
433.641	672.98
434.016	684.05
434.392	669.13
434.767	668.68
435.143	696.03
435.518	691.96
435.894	697.83
436.269	736.03
436.644	715.91
437.02	708
437.395	737.16
437.77	725.86
438.145	725.63
438.52	737.61
438.895	754.1
439.271	743.71
439.646	764.95
440.021	736.48
440.395	787.1
440.77	773.09
441.145	754.78
441.52	798.85
441.895	776.48
442.27	774.22
442.645	787.78
443.019	792.07
443.394	787.1
443.769	798.85
444.143	788.45
444.518	806.98
444.892	826.19
445.267	807.89
445.641	830.94
446.016	813.09
446.39	797.72
446.764	823.48
447.139	819.19
447.513	835.23
447.887	817.83
448.262	840.2
448.636	828
449.01	843.82
449.384	845.4
449.758	878.62
450.132	856.25
450.506	868.68
450.88	874.78
451.254	873.88
451.628	876.59
452.002	892.41
452.376	864.61
452.75	923.37
453.123	906.42
453.497	922.01
453.871	904.83
454.244	923.82
454.618	940.31
454.992	935.34
455.365	936.7
455.739	960.43
456.112	981.9
456.486	957.49
456.859	994.78
457.232	997.26
457.606	999.07
457.979	976.7
458.352	1022.57
458.725	1039.29
459.099	1036.58
459.472	1084.72
459.845	1045.62
460.218	1053.08
460.591	1062.8
460.964	1082.23
461.337	1101.44
461.71	1107.77
462.083	1120.42
462.456	1107.09
462.829	1126.98
463.201	1150.48
463.574	1164.04
463.947	1169.46
464.32	1176.01
464.692	1178.27
465.065	1185.51
465.438	1224.37
465.81	1231.61
466.183	1236.13
466.555	1254.66
466.928	1292.17
467.3	1249.91
467.672	1279.74
468.045	1304.37
468.417	1309.12
468.789	1316.35
469.161	1339.63
469.534	1348.67
469.906	1370.59
470.278	1371.04
470.65	1398.16
471.022	1423.01
471.394	1441.09
471.766	1464.82
472.138	1456.23
472.51	1489
472.882	1519.73
473.253	1547.76
473.625	1542.11
473.997	1590.01
474.369	1597.25
474.74	1635.66
475.112	1661.43
475.484	1657.58
475.855	1710.92
476.227	1711.14
476.598	1763.12
476.97	1773.51
477.341	1830.91
477.713	1829.78
478.084	1852.61
478.455	1896.67
478.827	1918.82
479.198	1923.11
479.569	1995.43
479.94	2021.42
480.311	2031.81
480.682	2086.27
481.053	2121.75
481.424	2168.3
481.795	2168.76
482.166	2221.64
482.537	2223.9
482.908	2306.38
483.279	2303.67
483.65	2376.21
484.021	2388.41
484.391	2450.56
484.762	2462.08
485.133	2453.95
485.503	2521.97
485.874	2561.06
486.244	2578.46
486.615	2654.17
486.985	2697.33
487.356	2744.33
487.726	2746.82
488.097	2814.84
488.467	2835.41
488.837	2874.05
489.207	2911.56
489.578	2985.68
489.948	2992.69
490.318	3019.58
490.688	3035.4
491.058	3093.93
491.428	3078.11
491.798	3112.69
492.168	3208.28
492.538	3228.84
492.908	3270.87
493.278	3339.57
493.648	3288.95
494.017	3364.43
494.387	3382.74
494.757	3401.72
495.126	3492.11
495.496	3446.69
495.866	3464.77
496.235	3502.73
496.605	3568.49
496.974	3605.1
497.344	3670.86
497.713	3629.51
498.082	3706.8
498.452	3710.64
498.821	3728.72
499.19	3760.81
499.559	3772.78
499.928	3833.57
500.298	3820.46
500.667	3878.09
501.036	3887.81
501.405	3897.98
501.774	3915.83
502.143	3940.24
502.512	3958.99
502.88	4004.19
503.249	4009.16
503.618	4019.56
503.987	4010.52
504.356	4066.11
504.724	4049.84
505.093	4085.54
505.462	4096.16
505.83	4134.58
506.199	4159.89
506.567	4211.87
506.936	4176.39
507.304	4288.93
507.672	4266.78
508.041	4250.74
508.409	4311.3
508.777	4292.77
509.145	4330.73
509.514	4326.89
509.882	4378.42
510.25	4389.49
510.618	4412.99
510.986	4416.38
511.354	4428.58
511.722	4477.62
512.09	4461.8
512.458	4516.04
512.826	4496.6
513.193	4563.5
513.561	4560.56
513.929	4584.06
514.297	4589.03
514.664	4611.86
515.032	4629.26
515.4	4629.26
515.767	4641.46
516.135	4686.2
516.502	4621.57
516.869	4718.75
517.237	4702.7
517.604	4749.03
517.972	4758.07
518.339	4747.45
518.706	4792.87
519.073	4806.65
519.44	4809.59
519.808	4856.82
520.175	4885.07
520.542	4897.72
520.909	4941.79
521.276	4950.38
521.643	4961.9
522.009	4990.38
522.376	4975.01
522.743	5002.13
523.11	5041.22
523.477	5085.52
523.843	5130.94
524.21	5152.41
524.577	5196.25
524.943	5204.83
525.31	5218.62
525.676	5259.52
526.043	5260.88
526.409	5283.48
526.776	5367.09
527.142	5334.77
527.508	5358.73
527.874	5386.75
528.241	5429.69
528.607	5421.78
528.973	5492.28
529.339	5537.26
529.705	5530.7
530.071	5590.59
530.437	5577.48
530.803	5588.55
531.169	5664.26
531.535	5656.12
531.901	5712.39
532.267	5716.46
532.632	5700.19
532.998	5779.51
533.364	5810.24
533.73	5829.45
534.095	5864.25
534.461	5866.29
534.826	5852.5
535.192	5928.66
535.557	5972.5
535.923	6012.72
536.288	5958.26
536.653	6015.44
537.019	5972.05
537.384	6054.98
537.749	6090.69
538.114	6111.7
538.479	6110.12
538.845	6120.07
539.21	6135.43
539.575	6146.28
539.94	6186.05
540.305	6241.87
540.67	6222.89
541.034	6246.84
541.399	6305.14
541.764	6274.19
542.129	6347.18
542.494	6370.45
542.858	6380.85
543.223	6456.55
543.587	6421.53
543.952	6449.77
544.316	6475.99
544.681	6525.93
545.045	6544.91
545.41	6576.55
545.774	6571.35
546.138	6611.8
546.503	6596.44
546.867	6620.39
547.231	6647.28
547.595	6723.89
547.959	6744.23
548.324	6797.34
548.688	6753.04
549.052	6800.95
549.416	6798.47
549.779	6809.09
550.143	6828.3
550.507	6889.99
550.871	6909.65
551.235	6908.29
551.599	6957.56
551.962	6962.75
552.326	6992.36
552.689	7113.03
553.053	7004.79
553.417	7100.6
553.78	7175.18
554.143	7114.84
554.507	7166.37
554.87	7155.29
555.234	7247.49
555.597	7188.06
555.96	7233.71
556.323	7250.43
556.686	7274.61
557.05	7349.19
557.413	7296.31
557.776	7344.89
558.139	7349.64
558.502	7348.73
558.865	7396.64
559.228	7423.99
559.59	7471.67
559.953	7491.1
560.316	7579.01
560.679	7499.01
561.041	7576.3
561.404	7661.04
561.767	7691.78
562.129	7581.95
562.492	7732.45
562.854	7684.77
563.217	7755.05
563.579	7739.01
563.941	7809.29
564.304	7871.66
564.666	7844.09
565.028	7881.6
565.39	7883.86
565.753	7917.76
566.115	7936.06
566.477	7954.14
566.839	8039.34
567.201	8076.85
567.563	8024.2
567.925	8127.24
568.287	8091.54
568.648	8192.1
569.01	8172.21
569.372	8222.38
569.734	8201.14
570.095	8268.03
570.457	8304.41
570.819	8404.07
571.18	8328.37
571.542	8457.4
571.903	8505.31
572.265	8482.94
572.626	8563.62
572.987	8522.71
573.349	8599.55
573.71	8623.95
574.071	8710.51
574.432	8779.66
574.794	8875.25
575.155	8914.34
575.516	8864.85
575.877	8953.66
576.238	9018.75
576.599	9085.64
576.96	9122.7
577.32	9172.41
577.681	9251.28
578.042	9322.24
578.403	9485.63
578.763	9484.5
579.124	9601.33
579.485	9740.99
579.845	9840.19
580.206	9862.79
580.566	10042.22
580.927	10073.18
581.287	10213.52
581.648	10345.72
582.008	10526.05
582.368	10653.05
582.728	10783.45
583.089	10857.12
583.449	11017.34
583.809	11170.1
584.169	11339.81
584.529	11444.9
584.889	11765.11
585.249	11827.49
585.609	11865.68
585.969	12207.36
586.329	12365.32
586.688	12601.7
587.048	12671.53
587.408	12892.77
587.768	13068.58
588.127	13287.56
588.487	13529.81
588.846	13869.24
589.206	13982.91
589.565	14234.43
589.925	14556
590.284	14651.14
590.643	15003.67
591.003	15211.58
591.362	15468.97
591.721	15795.06
592.08	15920.03
592.44	16367.03
592.799	16514.59
593.158	16747.58
593.517	17103.28
593.876	17382.82
594.235	17637.95
594.593	17902.13
594.952	18223.25
595.311	18492.17
595.67	18744.82
596.029	19115.88
596.387	19433.39
596.746	19760.61
597.104	19865.47
597.463	20163.99
597.822	20449.41
598.18	20654.6
598.538	20923.74
598.897	21323.51
599.255	21450.96
599.613	22138.17
599.972	22200.77
600.33	22427.43
600.688	22835.56
601.046	23032.16
601.404	23250.46
601.762	23589.89
602.12	23930.67
602.478	24091.34
602.836	24401.84
603.194	24600.03
603.552	24874.6
603.91	25043.41
604.268	25463.51
604.625	25521.81
604.983	25868.02
605.341	25964.29
605.698	26365.41
606.056	26585.52
606.413	26830.48
606.771	27215.1
607.128	27366.51
607.485	27538.26
607.843	27862.32
608.2	28137.34
608.557	28525.35
608.914	28452.36
609.272	28778.9
609.629	29065.45
609.986	29305.9
610.343	29323.75
610.7	29855.26
611.057	29857.75
611.414	30085.99
611.771	30191.97
612.127	30599.65
612.484	30673.09
612.841	30987.89
613.198	31042.8
613.554	31311.04
613.911	31393.75
614.267	31675.33
614.624	31787.64
614.98	32026.73
615.337	32211.58
615.693	32260.39
616.05	32326.61
616.406	32678.01
616.762	32849.98
617.118	32776.31
617.475	33129.98
617.831	33315.96
618.187	33415.84
618.543	33606.57
618.899	33913.23
619.255	33850.18
619.611	33794.37
619.967	34223.51
620.323	34254.92
620.678	34445.65
621.034	34394.8
621.39	34561.13
621.746	34672.08
622.101	35168.57
622.457	34949.82
622.812	35013.99
623.168	35164.95
623.523	35167.89
623.879	35352.06
624.234	35230.26
624.589	35522.91
624.945	35571.04
625.3	35796.12
625.655	35705.73
626.01	35759.96
626.365	35840.19
626.72	35944.59
627.075	35910.92
627.43	36091.03
627.785	36092.38
628.14	36223.45
628.495	36372.38
628.85	36146.85
629.205	36287.63
629.559	36407.63
629.914	36215.09
630.269	36430.23
630.623	36452.6
630.978	36478.59
631.332	36561.52
631.687	36658.02
632.041	36469.78
632.396	36660.5
632.75	36524.01
633.104	36757.45
633.459	36515.42
633.813	36511.13
634.167	36617.57
634.521	36658.25
634.875	36659.38
635.229	36825.7
635.583	36573.95
635.937	36632.48
636.291	36746.38
636.645	36608.53
636.999	36667.06
637.352	36877.22
637.706	36585.25
638.06	36777.11
638.413	36721.97
638.767	36784.12
639.121	36727.4
639.474	36611.69
639.828	36594.07
640.181	36720.84
640.534	36725.14
640.888	36590.9
641.241	36526.05
641.594	36811.46
641.947	36710.67
642.301	36492.6
642.654	36650.34
643.007	36684.46
643.36	36542.09
643.713	36597.68
644.066	36677.23
644.419	36458.48
644.771	36292.61
645.124	36044.02
645.477	35865.05
645.83	35823.46
646.182	35604.26
646.535	35582.79
646.888	35571.49
647.24	35429.58
647.593	35603.81
647.945	35514.77
648.298	35407.88
648.65	35332.4
649.002	35201.79
649.355	35406.98
649.707	35237.04
650.059	35474.77
650.411	35891.26
650.763	35957.02
651.115	36420.51
651.467	36231.59
651.819	36287.86
652.171	36109.79
652.523	35932.16
652.875	36213.29
653.227	35924.48
653.578	36282.44
653.93	36001.77
654.282	35908.89
654.633	35851.03
654.985	35963.57
655.337	35945.5
655.688	35934.65
656.039	36222.78
656.391	35807.65
656.742	35851.94
657.094	35968.32
657.445	36030.24
657.796	36083.12
658.147	35884.48
658.498	35840.87
658.849	36005.61
659.2	36013.06
659.551	35862.11
659.902	35885.38
660.253	35968.55
660.604	35966.06
660.955	35818.72
661.306	35872.05
661.656	35910.47
662.007	35779.62
662.358	35805.84
662.708	35926.96
663.059	35802
663.409	35527.65
663.76	35837.48
664.11	35906.4
664.461	35866.18
664.811	35826.85
665.161	35832.05
665.511	35745.73
665.862	35698.72
666.212	35867.53
666.562	35840.19
666.912	35742.11
667.262	35747.31
667.612	35743.24
667.962	35635.9
668.312	35692.17
668.662	35858.72
669.011	35745.27
669.361	35641.55
669.711	35742.56
670.06	35649.01
670.41	35650.81
670.76	35568.56
671.109	35753.41
671.459	35535.34
671.808	35509.12
672.157	35640.19
672.507	35393.65
672.856	35287.43
673.205	35548.22
673.554	35500.31
673.904	35440.65
674.253	35569.23
674.602	35624.37
674.951	34964.05
675.3	34886.09
675.649	35414.21
675.998	35344.16
676.346	35382.35
676.695	35553.42
677.044	35151.17
677.393	35272.74
677.741	35352.74
678.09	35150.49
678.438	35219.86
678.787	35257.83
679.135	35366.08
679.484	34917.27
679.832	35207.89
680.181	34982.36
680.529	35120.66
680.877	35037.95
681.225	35045.41
681.573	35042.24
681.922	34794.34
682.27	34778.07
682.618	34725.64
682.966	34783.49
683.314	34876.82
683.661	34681.12
684.009	34447.91
684.357	34348.02
684.705	34413.56
685.053	34537.62
685.4	34489.49
685.748	34227.12
686.095	34098.54
686.443	34129.72
686.79	34001.82
687.138	34090.63
687.485	34121.81
687.832	33924.98
688.18	33996.85
688.527	33879.79
688.874	33771.99
689.221	33798.66
689.568	33702.16
689.915	33528.38
690.262	33587.14
690.609	33525.9
690.956	33343.08
691.303	33447.48
691.65	33214.27
691.997	33247.49
692.344	33117.77
692.69	33140.6
693.037	33048.62
693.383	32733.38
693.73	32853.6
694.077	32656.32
694.423	32707.16
694.769	32619.03
695.116	32561.63
695.462	32563.21
695.808	32262.43
696.155	32345.59
696.501	32246.61
696.847	32138.59
697.193	31948.54
697.539	32057.46
697.885	31901.53
698.231	31693.63
698.577	31753.29
698.923	31671.94
699.269	31556.01
699.614	31441.66
699.96	31331.83
700.306	31464.03
700.651	31335.67
700.997	31147.43
701.342	31073.99
701.688	31120.54
702.033	30964.61
702.379	31003.48
702.724	30859.08
703.069	30851.84
703.415	30580.89
703.76	30548.8
704.105	30478.97
704.45	30357.62
704.795	30398.97
705.14	30129.6
705.485	30249.37
705.83	30017.74
706.175	30134.35
706.52	30142.03
706.865	29825.43
707.209	29953.79
707.554	29800.57
707.899	29931.19
708.243	29730.97
708.588	29685.1
708.932	29538.66
709.277	29446.91
709.621	29505.44
709.966	29273.35
710.31	29387.93
710.654	29158.78
710.998	29122.85
711.342	29232.45
711.687	29041.95
712.031	28985
712.375	28829.3
712.719	28907.71
713.063	28759.24
713.407	28880.37
713.75	28756.08
714.094	28567.16
714.438	28491.68
714.782	28593.37
715.125	28339.82
715.469	28580.94
715.812	28340.95
716.156	28131.46
716.499	28241.74
716.843	28203.33
717.186	28047.85
717.53	28198.13
717.873	28290.56
718.216	28052.14
718.559	28028.64
718.902	27796.33
719.246	27913.16
719.589	27866.84
719.932	27712.27
720.275	27782.77
720.617	27670.01
720.96	27620.52
721.303	27587.75
721.646	27559.95
721.989	27535.55
722.331	27479.05
722.674	27254.88
723.016	27369.9
723.359	27342.33
723.701	27279.28
724.044	27066.18
724.386	27017.82
724.729	27122
725.071	27008.33
725.413	26986.41
725.755	26998.39
726.097	26901.44
726.439	26809.92
726.782	26745.29
727.124	26922.68
727.465	26840.42
727.807	26737.6
728.149	26720.88
728.491	26676.81
728.833	26665.74
729.175	26613.76
729.516	26614.44
729.858	26389.59
730.199	26521.34
730.541	26448.34
730.882	26382.36
731.224	26428.23
731.565	26299.42
731.906	26385.29
732.248	26269.59
732.589	26176.49
732.93	26018.07
733.271	26195.24
733.612	26109.82
733.953	26053.33
734.294	26026.89
734.635	25980.79
734.976	26095.81
735.317	25817.63
735.658	25879.77
735.999	25909.83
736.339	25834.8
736.68	25847.46
737.021	25695.14
737.361	25705.09
737.702	25750.96
738.042	25739.21
738.383	25600.68
738.723	25647.69
739.063	25461.7
739.404	25410.18
739.744	25408.15
740.084	25275.27
740.424	25411.99
740.764	25362.27
741.104	25458.54
741.444	25283.85
741.784	25112.33
742.124	25322.95
742.464	25179.45
742.804	25076.4
743.143	25124.54
743.483	25176.51
743.823	25039.79
744.162	25012.9
744.502	25044.77
744.841	24939.01
745.181	25021.04
745.52	24908.5
745.86	24871.21
746.199	24811.33
746.538	24703.08
746.877	24761.61
747.216	24881.15
747.556	24751.21
747.895	24685
748.234	24493.59
748.573	24661.27
748.911	24642.74
749.25	24492.46
749.589	24398
749.928	24514.16
750.267	24349.42
750.605	24406.59
750.944	24312.81
751.283	24289.08
751.621	24308.97
751.96	24128.86
752.298	24132.25
752.636	24117.33
752.975	23998.69
753.313	24043.66
753.651	23968.64
753.989	23864.46
754.327	23800.73
754.666	23697.23
755.004	23755.53
755.342	23707.63
755.679	23794.4
756.017	23417.69
756.355	23695.42
756.693	23434.64
757.031	23557.57
757.368	23429.21
757.706	23365.04
758.044	23259.5
758.381	23330.69
758.719	23282.33
759.056	23243.23
759.394	23140.63
759.731	23061.09
760.068	23036.23
760.405	22990.13
760.743	22937.25
761.08	22887.99
761.417	22740.64
761.754	22752.62
762.091	22683.92
762.428	22585.17
762.765	22427.43
763.102	22458.17
763.438	22286.19
763.775	22316.25
764.112	22272.41
764.449	22362.58
764.785	22136.37
765.122	22041.45
765.458	21953.55
765.795	21896.83
766.131	21917.16
766.467	21808.69
766.804	21671.07
767.14	21714.91
767.476	21708.36
767.812	21520.34
768.148	21598.08
768.485	21439.44
768.821	21352.21
769.157	21323.06
769.492	21282.83
769.828	21213.45
770.164	20971.88
770.5	21081.25
770.836	21017.53
771.171	20862.73
771.507	20739.34
771.842	20606.01
772.178	20616.41
772.513	20514.26
772.849	20440.14
773.184	20428.84
773.519	20361.05
773.855	20283.99
774.19	20203.54
774.525	20120.37
774.86	20125.57
775.195	20112.69
775.53	19880.38
775.865	19868.86
776.2	19805.58
776.535	19655.3
776.87	19615.53
777.205	19529.43
777.539	19477
777.874	19489.21
778.209	19282.88
778.543	19327.18
778.878	19155.88
779.212	19173.51
779.547	19054.41
779.881	19154.3
780.215	18897.58
780.55	19030.01
780.884	18819.39
781.218	18804.25
781.552	18830.47
781.886	18634.76
782.22	18609
782.554	18460.53
782.888	18360.2
783.222	18266.19
783.556	18195
783.889	18125.63
784.223	17958.17
784.557	17999.98
784.89	18008.34
785.224	17925.63
785.557	17858.29
785.891	17761.57
786.224	17713.66
786.558	17668.69
786.891	17598.41
787.224	17534.68
787.557	17459.65
787.891	17479.77
788.224	17364.97
788.557	17460.56
788.89	17360.22
789.223	17308.25
789.556	17176.05
789.888	17072.77
790.221	17028.93
790.554	16977.86
790.887	16950.29
791.219	16877.3
791.552	16851.31
791.884	16800.24
792.217	16749.16
792.549	16660.35
792.882	16571.99
793.214	16485.89
793.546	16615.16
793.879	16410.19
794.211	16254.49
794.543	16319.57
794.875	16313.02
795.207	16266.46
795.539	16156.19
795.871	16175.39
796.203	16026.47
796.535	16007.49
796.867	15871.45
797.198	15879.36
797.53	15944.44
797.862	15738.57
798.193	15802.97
798.525	15638.23
798.856	15702.19
799.188	15511
799.519	15418.13
799.85	15457.9
800.182	15349.65
800.513	15445.24
800.844	15215.87
801.175	15283.21
801.506	15313.95
801.837	15200.05
802.168	15135.42
802.499	15106.27
802.83	14980.62
803.161	14882.09
803.491	14903.11
803.822	14936.1
804.153	14904.69
804.483	14720.29
804.814	14731.59
805.145	14745.38
805.475	14706.05
805.805	14650.24
806.136	14544.02
806.466	14541.09
806.796	14500.86
807.126	14457.25
807.457	14411.82
807.787	14381.09
808.117	14383.12
808.447	14334.99
808.777	14351.94
809.107	14231.04
809.436	14227.42
809.766	14219.06
810.096	14189.68
810.426	14093.87
810.755	14182.9
811.085	14094.32
811.414	14066.07
811.744	13882.35
812.073	13905.85
812.403	13931.16
812.732	13764.38
813.061	13805.29
813.39	13739.07
813.719	13652.52
814.049	13738.62
814.378	13609.59
814.707	13643.94
815.036	13618.17
815.365	13492.53
815.693	13438.29
816.022	13401.91
816.351	13408.69
816.68	13338.86
817.008	13350.61
817.337	13216.6
817.665	13210.27
817.994	13308.58
818.322	13213.21
818.651	13173.21
818.979	13073.1
819.307	13217.73
819.636	13116.27
819.964	12997.17
820.292	13038.08
820.62	13132.76
820.948	12959.89
821.276	13045.31
821.604	12975.7
821.932	13055.48
822.259	13025.42
822.587	12961.02
822.915	12976.83
823.243	12999.21
823.57	12909.27
823.898	12908.14
824.225	12968.47
824.553	12870.62
824.88	12880.79
825.207	12835.82
825.535	12892.54
825.862	12911.3
826.189	12833.56
826.516	12962.82
826.843	12923.5
827.17	12940.22
827.497	12932.77
827.824	12898.87
828.151	12973.44
828.478	12879.66
828.805	12921.02
829.131	12916.04
829.458	12824.07
829.785	12824.75
830.111	12914.91
830.438	12765.31
830.764	12822.04
831.09	12928.93
831.417	12909.49
831.743	12926.89
832.069	12893.45
832.395	12848.25
832.722	12824.75
833.048	12839.66
833.374	12838.08
833.7	12695.94
834.026	12743.62
834.351	12792.88
834.677	12738.87
835.003	12695.94
835.329	12730.74
835.654	12662.94
835.98	12718.76
836.306	12647.8
836.631	12601.25
836.956	12721.47
837.282	12604.64
837.607	12605.77
837.932	12511.76
838.258	12532.1
838.583	12567.35
838.908	12474.25
839.233	12453.68
839.558	12496.62
839.883	12486.45
840.208	12430.86
840.533	12370.97
840.858	12397.41
841.182	12406.68
841.507	12335.49
841.832	12257.3
842.156	12239.9
842.481	12269.73
842.805	12194.03
843.13	12195.16
843.454	12113.81
843.778	12097.99
844.103	12072
844.427	12082.62
844.751	12096.86
845.075	12067.93
845.399	12011.66
845.723	11966.24
846.047	11921.04
846.371	11828.16
846.695	11888.27
847.019	11729.86
847.343	11643.31
847.666	11658.9
847.99	11555.4
848.313	11582.75
848.637	11455.74
848.96	11571.67
849.284	11533.71
849.607	11386.59
849.931	11319.93
850.254	11292.36
850.577	11206.49
850.9	11111.35
851.223	11152.02
851.546	11003.1
851.869	11030.44
852.192	11060.5
852.515	10869.77
852.838	10797.46
853.161	10941.18
853.483	10832.71
853.806	10860.96
854.129	10839.94
854.451	10709.77
854.774	10703.22
855.096	10664.13
855.419	10673.62
855.741	10559.95
856.063	10519.05
856.385	10492.15
856.708	10536.22
857.03	10422.32
857.352	10486.05
857.674	10455.09
857.996	10472.27
858.318	10346.62
858.64	10350.91
858.961	10340.97
859.283	10229.56
859.605	10223.46
859.926	10228.21
860.248	10162.9
860.57	10114.99
860.891	10121.09
861.212	10143.46
861.534	10069.79
861.855	10063.46
862.176	10095.1
862.498	10052.62
862.819	10028.21
863.14	10008.78
863.461	9962.9
863.782	9944.82
864.103	9924.71
864.424	9926.29
864.745	9891.04
865.065	9815.11
865.386	9829.57
865.707	9797.03
866.027	9832.28
866.348	9810.82
866.668	9770.14
866.989	9731.95
867.309	9668.67
867.63	9766.97
867.95	9689.69
868.27	9678.84
868.59	9766.07
868.91	9639.75
869.23	9593.42
869.55	9662.12
869.87	9622.8
870.19	9635
870.51	9543.03
870.83	9555.23
871.15	9531.95
871.469	9520.2
871.789	9474.1
872.109	9527.66
872.428	9421.67
872.748	9502.57
873.067	9487.21
873.386	9442.24
873.706	9445.85
874.025	9388.68
874.344	9337.83
874.663	9395.46
874.982	9408.34
875.301	9297.16
875.62	9289.7
875.939	9284.5
876.258	9291.51
876.577	9329.47
876.896	9261.9
877.214	9242.24
877.533	9251.96
877.852	9247.44
878.17	9180.78
878.489	9199.53
878.807	9182.36
879.125	9123.15
879.444	9164.5
879.762	9130.16
880.08	9088.8
880.398	9041.34
880.716	9064.85
881.034	9051.97
881.352	9075.02
881.67	9010.61
881.988	9015.13
882.306	9014.9
882.624	8928.58
882.941	8952.53
883.259	8947.34
883.577	8938.52
883.894	8857.17
884.212	8790.28
884.529	8858.75
884.846	8804.74
885.164	8776.72
885.481	8796.15
885.798	8832.76
886.115	8721.8
886.432	8673.44
886.75	8691.52
887.067	8631.64
887.383	8631.41
887.7	8620.11
888.017	8536.95
888.334	8604.29
888.651	8548.93
888.967	8554.58
889.284	8561.13
889.6	8529.72
889.917	8413.56
890.233	8503.51
890.55	8402.04
890.866	8385.32
891.182	8377.41
891.498	8359.33
891.815	8318.43
892.131	8257.41
892.447	8234.13
892.763	8264.64
893.079	8222.83
893.395	8201.59
893.71	8212.89
894.026	8203.4
894.342	8148.94
894.657	8112.33
894.973	8028.94
895.289	8040.01
895.604	8043.4
895.92	7997.53
896.235	7968.38
896.55	7968.38
896.865	7932.9
897.181	7902.84
897.496	7898.78
897.811	7894.71
898.126	7800.92
898.441	7790.3
898.756	7817.2
899.071	7725.67
899.386	7652.23
899.7	7574.04
900.015	7617.2
900.33	7628.27
900.644	7604.55
900.959	7627.82
901.273	7557.09
901.588	7525
901.902	7491.78
902.216	7452.46
902.531	7455.4
902.845	7480.71
903.159	7308.51
903.473	7303.76
903.787	7332.69
904.101	7262.18
904.415	7249.98
904.729	7221.28
905.042	7207.72
905.356	7157.78
905.67	7138.12
905.984	7152.13
906.297	7134.05
906.611	7062.41
906.924	7051.11
907.237	7040.27
907.551	7061.28
907.864	6986.26
908.177	6944.22
908.491	6977.44
908.804	6911.91
909.117	6856.54
909.43	6840.95
909.743	6794.62
910.056	6805.47
910.368	6729.09
910.681	6792.82
910.994	6715.08
911.307	6681.86
911.619	6678.92
911.932	6612.48
912.244	6606.38
912.557	6575.19
912.869	6519.6
913.181	6519.38
913.494	6536.55
913.806	6420.85
914.118	6443.9
914.43	6415.42
914.742	6386.5
915.054	6363.9
915.366	6324.58
915.678	6348.53
915.99	6261.53
916.302	6258.37
916.613	6217.92
916.925	6233.06
917.236	6215.2
917.548	6144.92
917.859	6216.79
918.171	6139.27
918.482	6136.79
918.794	6069.44
919.105	6122.32
919.416	6001.88
919.727	5993.74
920.038	5971.59
920.349	5981.99
920.66	5921.43
920.971	5890.92
921.282	5852.95
921.593	5871.03
921.903	5807.76
922.214	5800.53
922.525	5806.85
922.835	5726.18
923.146	5654.77
923.456	5675.33
923.767	5635.56
924.077	5697.25
924.387	5654.31
924.697	5617.48
925.008	5587.2
925.318	5549.68
925.628	5579.51
925.938	5497.48
926.248	5458.16
926.558	5427.43
926.867	5435.56
927.177	5426.3
927.487	5368.9
927.796	5336.13
928.106	5344.72
928.416	5302.23
928.725	5254.1
929.034	5302.01
929.344	5296.13
929.653	5268.34
929.962	5216.81
930.271	5165.51
930.581	5117.83
930.89	5148.34
931.199	5113.76
931.508	5101.79
931.817	5069.02
932.125	5067.66
932.434	5084.61
932.743	5014.78
933.051	4937.05
933.36	4974.11
933.669	4996.48
933.977	4923.94
934.286	4927.1
934.594	4876.26
934.902	4855.69
935.21	4838.06
935.519	4796.94
935.827	4775.69
936.135	4796.48
936.443	4712.87
936.751	4773.89
937.059	4753.77
937.367	4731.18
937.674	4670.39
937.982	4640.56
938.29	4656.37
938.597	4642.82
938.905	4597.85
939.213	4605.53
939.52	4541.8
939.827	4582.48
940.135	4536.15
940.442	4506.77
940.749	4525.98
941.056	4490.73
941.363	4442.37
941.67	4423.39
941.977	4403.05
942.284	4386.55
942.591	4384.07
942.898	4425.65
943.205	4362.82
943.511	4304.97
943.818	4316.5
944.125	4273.11
944.431	4290.06
944.738	4241.92
945.044	4247.8
945.35	4212.77
945.657	4207.12
945.963	4239.21
946.269	4157.86
946.575	4174.35
946.881	4126.22
947.187	4113.56
947.493	4096.62
947.799	4105.88
948.105	4067.46
948.41	4021.14
948.716	4027.46
949.022	4026.33
949.327	3967.81
949.633	3961.48
949.938	3970.74
950.244	3945.21
950.549	3875.83
950.854	3940.01
951.16	3881.93
951.465	3843.97
951.77	3828.15
952.075	3809.17
952.38	3848.03
952.685	3829.5
952.99	3781.82
953.294	3740.24
953.599	3725.55
953.904	3712.44
954.209	3694.37
954.513	3658.21
954.818	3676.29
955.122	3688.49
955.426	3673.8
955.731	3632.9
956.035	3616.18
956.339	3618.89
956.643	3567.36
956.948	3559.23
957.252	3562.17
957.556	3534.82
957.86	3526.23
958.163	3507.03
958.467	3524.2
958.771	3477.87
959.075	3480.59
959.378	3432.23
959.682	3413.02
959.985	3425.67
960.289	3402.4
960.592	3399.01
960.896	3352
961.199	3382.96
961.502	3364.88
961.805	3361.27
962.108	3345.67
962.411	3306.58
962.714	3296.18
963.017	3286.92
963.32	3271.33
963.623	3250.54
963.926	3237.2
964.228	3241.04
964.531	3224.32
964.833	3220.25
965.136	3179.35
965.438	3176.41
965.741	3162.63
966.043	3151.33
966.345	3112.46
966.648	3093.48
966.95	3107.26
967.252	3081.5
967.554	3117.66
967.856	3062.07
968.158	3048.73
968.46	3058.68
968.761	3050.54
969.063	3006.02
969.365	3039.47
969.666	3034.95
969.968	2930.54
970.269	2964.44
970.571	2936.42
970.872	2950.88
971.174	2948.17
971.475	2918.12
971.776	2895.97
972.077	2873.6
972.378	2876.99
972.679	2910.66
972.98	2852.13
973.281	2856.42
973.582	2851.68
973.883	2853.03
974.183	2806.48
974.484	2819.36
974.785	2823.65
975.085	2768.06
975.386	2738.23
975.686	2762.64
975.986	2709.76
976.287	2726.93
976.587	2701.4
976.887	2738.91
977.187	2670.66
977.487	2694.62
977.787	2687.39
978.087	2618.91
978.387	2655.07
978.687	2637.67
978.987	2637.67
979.286	2585.92
979.586	2575.98
979.885	2569.2
980.185	2571.46
980.484	2546.37
980.784	2546.6
981.083	2564.23
981.382	2544.57
981.682	2543.66
981.981	2491.46
982.28	2512.48
982.579	2513.38
982.878	2488.07
983.177	2444.91
983.475	2480.16
983.774	2406.04
984.073	2444.23
984.372	2445.59
984.67	2400.16
984.969	2425.02
985.267	2377.34
985.566	2411.01
985.864	2368.3
986.162	2334.63
986.461	2349.99
986.759	2329.88
987.057	2307.51
987.355	2325.36
987.653	2284.69
987.951	2268.87
988.249	2293.5
988.547	2258.47
988.844	2263.9
989.142	2291.01
989.44	2239.26
989.737	2246.49
990.035	2240.17
990.332	2222.54
990.63	2201.3
990.927	2181.86
991.224	2209.21
991.521	2164.69
991.819	2116.55
992.116	2166.27
992.413	2129.44
992.71	2139.38
993.006	2127.4
993.303	2121.53
993.6	2118.36
993.897	2086.5
994.193	2112.03
994.49	2099.15
994.787	2037.23
995.083	2047.4
995.379	2030.68
995.676	2046.27
995.972	2050.79
996.268	2016.9
996.565	2034.07
996.861	1990
997.157	1986.84
997.453	1985.03
997.749	1941.87
998.044	1960.63
998.34	1972.6
998.636	1934.86
998.932	1933.06
999.227	1929.67
999.523	1918.14
999.818	1907.52
1000.114	1859.61
1000.409	1867.3
1000.704	1858.48
1001	1881.76
1001.295	1833.62
1001.59	1872.49
1001.885	1847.86
1002.18	1819.61
1002.475	1832.04
1002.77	1835.21
1003.065	1782.1
1003.359	1751.14
1003.654	1790.01
1003.949	1776
1004.243	1780.52
1004.538	1759.05
1004.832	1740.75
1005.127	1754.76
1005.421	1731.48
1005.715	1698.03
1006.009	1698.94
1006.304	1675.21
1006.598	1689.9
1006.892	1694.64
1007.186	1660.3
1007.48	1645.61
1007.773	1646.28
1008.067	1640.18
1008.361	1618.94
1008.655	1639.28
1008.948	1603.8
1009.242	1614.42
1009.535	1583.69
1009.829	1585.04
1010.122	1583.24
1010.415	1566.29
1010.708	1549.34
1011.001	1549.56
1011.295	1553.86
1011.588	1519.96
1011.881	1514.08
1012.173	1535.55
1012.466	1507.08
1012.759	1515.67
1013.052	1490.13
1013.344	1502.56
1013.637	1460.3
1013.93	1465.27
1014.222	1456.68
1014.514	1426.18
1014.807	1449.45
1015.099	1458.72
1015.391	1452.84
1015.683	1429.11
1015.976	1415.1
1016.268	1408.55
1016.56	1381.66
1016.851	1367.87
1017.143	1381.66
1017.435	1367.42
1017.727	1342.56
1018.018	1369.46
1018.31	1349.8
1018.602	1350.7
1018.893	1329.46
1019.185	1319.97
1019.476	1315.45
1019.767	1322
1020.058	1304.15
1020.35	1276.35
1020.641	1271.6
1020.932	1276.58
1021.223	1255.11
1021.514	1260.76
1021.804	1255.56
1022.095	1251.49
1022.386	1250.36
1022.677	1246.97
1022.967	1233.87
1023.258	1200.65
1023.548	1207.88
1023.839	1202
1024.129	1201.32
1024.419	1190.93
1024.709	1166.97
1025	1195
1025.29	1158.16
1025.58	1146.18
1025.87	1180.99
1026.16	1138.28
1026.449	1117.26
1026.739	1119.74
1027.029	1120.65
1027.319	1120.87
1027.608	1096.92
1027.898	1076.58
1028.187	1088.11
1028.477	1100.08
1028.766	1088.78
1029.055	1073.42
1029.344	1065.28
1029.634	1051.72
1029.923	1065.96
1030.212	1060.09
1030.501	1032.97
1030.79	1049.24
1031.078	1028
1031.367	1031.84
1031.656	1032.52
1031.945	992.52
1032.233	1005.17
1032.522	991.16
1032.81	986.64
1033.099	989.13
1033.387	994.78
1033.675	977.6
1033.963	950.26
1034.251	936.25
1034.54	942.57
1034.828	950.03
1035.116	936.92
1035.403	953.87
1035.691	910.26
1035.979	912.52
1036.267	915.46
1036.554	891.05
1036.842	917.72
1037.129	880.88
1037.417	901.67
1037.704	902.35
1037.992	862.35
1038.279	872.52
1038.566	864.61
1038.853	864.61
1039.14	864.61
