Data from hue_340_FLMS001491_25.txt Node
Date: Mon Feb 06 15:42:41 GMT 2017
User: dcchb
Spectrometer: FLMS00149
Trigger mode: 0
Integration Time (sec): 2.000000E-2
Scans to average: 10
Electric dark correction enabled: true
Nonlinearity correction enabled: false
Boxcar width: 0
XAxis mode: Wavelengths
Number of Pixels in Spectrum: 2048
>>>>>Begin Spectral Data<<<<<
341.393	-0.81
341.776	-0.81
342.16	-0.81
342.543	-50.3
342.927	-83.29
343.31	-83.97
343.693	-70.41
344.077	-78.54
344.46	-60.24
344.843	-36.51
345.226	-47.36
345.61	-7.36
345.993	-11.65
346.376	-3.29
346.759	3.94
347.142	30.15
347.525	53.43
347.908	59.76
348.291	80.55
348.674	90.49
349.057	81
349.44	115.58
349.823	124.39
350.206	142.02
350.588	179.76
350.971	200.09
351.354	205.52
351.737	216.36
352.119	251.62
352.502	267.44
352.884	276.93
353.267	290.71
353.65	277.61
354.032	283.48
354.414	291.62
354.797	296.81
355.179	314.67
355.562	317.6
355.944	300.43
356.326	332.07
356.709	324.38
357.091	350.37
357.473	320.54
357.855	334.78
358.238	325.06
358.62	328.23
359.002	321.45
359.384	329.81
359.766	328.9
360.148	329.13
360.53	326.87
360.912	332.75
361.294	327.32
361.676	306.76
362.057	321.67
362.439	321.67
362.821	300.2
363.203	316.25
363.584	328.68
363.966	326.19
364.348	325.51
364.729	323.93
365.111	310.6
365.493	320.32
365.874	295.46
366.256	304.27
366.637	307.44
367.019	309.24
367.4	313.08
367.781	307.21
368.163	317.6
368.544	314.67
368.925	310.37
369.306	314.44
369.688	325.97
370.069	300.88
370.45	313.08
370.831	306.76
371.212	310.83
371.593	311.5
371.974	321.67
372.355	290.94
372.736	301.33
373.117	319.86
373.498	290.94
373.879	320.32
374.26	301.11
374.641	310.6
375.021	332.97
375.402	301.33
375.783	314.44
376.163	326.19
376.544	310.83
376.925	327.55
377.305	320.09
377.686	315.57
378.066	319.64
378.447	329.58
378.827	328.68
379.208	345.17
379.588	319.19
379.968	300.88
380.349	312.86
380.729	322.8
381.109	307.21
381.489	332.29
381.87	355.8
382.25	325.97
382.63	328.9
383.01	331.62
383.39	344.04
383.77	325.29
384.15	309.02
384.53	321.9
384.91	343.59
385.29	346.3
385.67	362.35
386.049	329.81
386.429	330.71
386.809	328.68
387.189	337.27
387.568	350.6
387.948	334.55
388.328	358.73
388.707	341.11
389.087	361.22
389.466	356.25
389.846	350.82
390.225	355.8
390.605	376.81
390.984	355.12
391.363	355.12
391.743	336.36
392.122	344.5
392.501	358.51
392.881	329.13
393.26	340.2
393.639	364.61
394.018	381.78
394.397	369.58
394.776	360.09
395.155	367.77
395.534	382.24
395.913	355.8
396.292	386.98
396.671	391.73
397.05	374.78
397.429	378.39
397.808	366.42
398.186	389.92
398.565	367.09
398.944	373.65
399.323	379.07
399.701	386.3
400.08	384.5
400.458	375.46
400.837	362.8
401.215	406.42
401.594	375.46
401.972	391.73
402.351	384.95
402.729	399.64
403.107	399.64
403.486	404.61
403.864	407.77
404.242	410.26
404.62	398.51
404.999	397.83
405.377	397.38
405.755	427.21
406.133	417.72
406.511	408.9
406.889	409.13
407.267	407.32
407.645	418.62
408.023	418.39
408.401	417.26
408.779	425.85
409.156	429.92
409.534	442.35
409.912	440.77
410.29	456.58
410.667	437.38
411.045	450.03
411.422	470.82
411.8	455.91
412.178	438.96
412.555	464.49
412.933	460.88
413.31	456.58
413.687	495.23
414.065	487.54
414.442	471.05
414.819	488.9
415.197	499.97
415.574	520.76
415.951	505.62
416.328	513.31
416.705	520.31
417.082	517.15
417.46	516.92
417.837	530.93
418.214	500.42
418.591	542.91
418.967	549.69
419.344	536.36
419.721	548.56
420.098	547.43
420.475	542.68
420.852	537.03
421.228	548.79
421.605	563.25
421.982	545.62
422.358	562.8
422.735	559.63
423.111	581.78
423.488	568.9
423.864	585.85
424.241	593.98
424.617	555.79
424.994	595.34
425.37	589.69
425.746	593.53
426.123	620.87
426.499	629.23
426.875	622.23
427.251	629.01
427.627	637.14
428.003	636.24
428.379	659.97
428.756	666.75
429.132	661.55
429.507	664.04
429.883	641.21
430.259	671.27
430.635	691.15
431.011	671.72
431.387	692.51
431.763	698.16
432.138	694.77
432.514	711.49
432.89	731.83
433.265	717.37
433.641	727.99
434.016	755.56
434.392	748.33
434.767	746.97
435.143	750.14
435.518	755.33
435.894	767.76
436.269	793.3
436.644	786.29
437.02	795.78
437.395	803.69
437.77	767.08
438.145	803.47
438.52	807.08
438.895	799.17
439.271	822
439.646	827.65
440.021	846.4
440.395	856.12
440.77	832.17
441.145	845.95
441.52	838.04
441.895	861.77
442.27	864.48
442.645	858.16
443.019	892.73
443.394	880.98
443.769	884.37
444.143	873.75
444.518	895.22
444.892	890.24
445.267	880.08
445.641	917.14
446.016	938.61
446.39	908.1
446.764	906.06
447.139	895.89
447.513	923.01
447.887	895.67
448.262	945.84
448.636	954.42
449.01	937.48
449.384	927.98
449.758	930.7
450.132	954.42
450.506	951.94
450.88	967.98
451.254	943.58
451.628	971.15
452.002	955.55
452.376	968.66
452.75	961.66
453.123	984.48
453.497	998.04
453.871	976.12
454.244	1025.16
454.618	1040.98
454.992	1027.64
455.365	1013.63
455.739	1067.64
456.112	1068.09
456.486	1037.13
456.859	1071.03
457.232	1070.13
457.606	1080.07
457.979	1096.34
458.352	1113.97
458.725	1113.74
459.099	1131.14
459.472	1139.5
459.845	1139.28
460.218	1153.74
460.591	1157.81
460.964	1145.38
461.337	1186.51
461.71	1191.93
462.083	1220.86
462.456	1174.31
462.829	1210.01
463.201	1228.54
463.574	1230.57
463.947	1244.36
464.32	1238.71
464.692	1267.86
465.065	1258.6
465.438	1281.2
465.81	1294.98
466.183	1327.52
466.555	1311.7
466.928	1330.46
467.3	1318.48
467.672	1355.77
468.045	1409.1
468.417	1401.64
468.789	1375.2
469.161	1408.65
469.534	1429.44
469.906	1453.39
470.278	1466.28
470.65	1453.62
471.022	1472.15
471.394	1502.88
471.766	1538.36
472.138	1535.43
472.51	1548.31
472.882	1579.49
473.253	1602.54
473.625	1643.45
473.997	1629.89
474.369	1653.16
474.74	1660.39
475.112	1707.85
475.484	1728.42
475.855	1730
476.227	1741.07
476.598	1772.26
476.97	1808.86
477.341	1861.29
477.713	1855.19
478.084	1890.67
478.455	1918.47
478.827	1932.48
479.198	1961.86
479.569	1977.9
479.94	1982.65
480.311	2061.51
480.682	2061.29
481.053	2110.33
481.424	2158.91
481.795	2181.06
482.166	2179.7
482.537	2193.04
482.908	2264.67
483.279	2298.12
483.65	2318
484.021	2329.98
484.391	2389.41
484.762	2383.31
485.133	2427.38
485.503	2447.94
485.874	2500.6
486.244	2516.64
486.615	2583.31
486.985	2620.14
487.356	2652.46
487.726	2662.85
488.097	2712.8
488.467	2713.02
488.837	2764.09
489.207	2780.36
489.578	2826.01
489.948	2866.46
490.318	2919.57
490.688	2925.9
491.058	2950.98
491.428	2974.48
491.798	2989.17
492.168	3050.19
492.538	3073.46
492.908	3114.37
493.278	3127.02
493.648	3146.91
494.017	3174.03
494.387	3200.69
494.757	3225.1
495.126	3261.71
495.496	3267.13
495.866	3294.93
496.235	3331.54
496.605	3377.64
496.974	3376.73
497.344	3414.92
497.713	3431.42
498.082	3421.25
498.452	3498.31
498.821	3502.83
499.19	3475.71
499.559	3536.05
499.928	3528.59
500.298	3597.97
500.667	3631.64
501.036	3552.55
501.405	3649.27
501.774	3625.09
502.143	3651.53
502.512	3647.91
502.88	3695.37
503.249	3695.82
503.618	3717.52
503.987	3760.23
504.356	3743.96
504.724	3774.24
505.093	3806.55
505.462	3832.99
505.83	3819.21
506.199	3856.04
506.567	3838.42
506.936	3872.09
507.304	3867.34
507.672	3889.04
508.041	3934.91
508.409	3901.24
508.777	3983.04
509.145	4003.61
509.514	4006.1
509.882	4026.43
510.25	4058.75
510.618	4032.54
510.986	4047.68
511.354	4084.51
511.722	4099.88
512.09	4114.57
512.458	4081.12
512.826	4143.49
513.193	4212.64
513.561	4126.09
513.929	4183.27
514.297	4224.85
514.664	4200.67
515.032	4249.48
515.4	4258.52
515.767	4260.78
516.135	4272.53
516.502	4228.69
516.869	4303.71
517.237	4359.31
517.604	4316.37
517.972	4368.35
518.339	4371.51
518.706	4364.5
519.073	4385.07
519.44	4376.48
519.808	4449.7
520.175	4453.32
520.542	4458.06
520.909	4502.35
521.276	4431.17
521.643	4482.01
522.009	4532.41
522.376	4559.08
522.743	4579.87
523.11	4555.69
523.477	4610.37
523.843	4620.99
524.21	4661.67
524.577	4690.6
524.943	4707.32
525.31	4693.76
525.676	4739.86
526.043	4766.98
526.409	4764.72
526.776	4877.94
527.142	4827.99
527.508	4870.48
527.874	4935.34
528.241	4940.53
528.607	4941.21
528.973	4951.16
529.339	4983.92
529.705	4995.22
530.071	5049.23
530.437	5133.07
530.803	5088.1
531.169	5118.38
531.535	5147.76
531.901	5118.61
532.267	5176.23
532.632	5173.07
532.998	5286.29
533.364	5255.55
533.73	5249.23
534.095	5310.24
534.461	5324.25
534.826	5388.66
535.192	5336.46
535.557	5456.23
535.923	5369.45
536.288	5421.88
536.653	5408.09
537.019	5460.29
537.384	5463.46
537.749	5554.53
538.114	5507.3
538.479	5504.59
538.845	5569.44
539.21	5522.21
539.575	5559.95
539.94	5619.16
540.305	5649.67
540.67	5629.33
541.034	5705.26
541.399	5684.24
541.764	5721.3
542.129	5712.04
542.494	5748.65
542.858	5779.16
543.223	5811.02
543.587	5842.21
543.952	5833.84
544.316	5863.9
544.681	5925.14
545.045	5914.97
545.41	5997.68
545.774	5949.77
546.138	5953.39
546.503	5974.18
546.867	6026.16
547.231	6103.89
547.595	6073.84
547.959	6075.87
548.324	6100.28
548.688	6119.03
549.052	6147.51
549.416	6161.07
549.779	6205.36
550.143	6164.91
550.507	6207.62
550.871	6310.44
551.235	6248.97
551.599	6267.5
551.962	6267.05
552.326	6354.28
552.689	6365.36
553.053	6384.34
553.417	6405.81
553.78	6415.98
554.143	6423.43
554.507	6458.23
554.87	6486.26
555.234	6559.02
555.597	6511.34
555.96	6553.15
556.323	6575.29
556.686	6513.37
557.05	6617.1
557.413	6663.2
557.776	6620.94
558.139	6669.08
558.502	6678.79
558.865	6743.2
559.228	6766.47
559.59	6762.18
559.953	6706.36
560.316	6845.12
560.679	6780.71
561.041	6886.92
561.404	6888.51
561.767	6933.25
562.129	6867.04
562.492	6921.05
562.854	7023.42
563.217	6928.28
563.579	7013.93
563.941	6997.43
564.304	7061.16
564.666	7054.15
565.028	7060.03
565.39	7122.85
565.753	7138.44
566.115	7217.99
566.477	7224.54
566.839	7216.41
567.201	7308.16
567.563	7246.24
567.925	7332.11
568.287	7293.47
568.648	7364.88
569.01	7392.22
569.372	7457.98
569.734	7406.23
570.095	7452.56
570.457	7558.77
570.819	7573.01
571.18	7576.17
571.542	7586.57
571.903	7634.47
572.265	7678.09
572.626	7743.62
572.987	7721.25
573.349	7821.59
573.71	7840.57
574.071	7854.13
574.432	7949.72
574.794	8024.52
575.155	8015.48
575.516	8033.79
575.877	8147.68
576.238	8165.99
576.599	8221.58
576.96	8334.34
577.32	8343.38
577.681	8449.82
578.042	8478.75
578.403	8586.99
578.763	8645.75
579.124	8688.91
579.485	8790.15
579.845	8959.41
580.206	9011.61
580.566	9097.03
580.927	9193.53
581.287	9295.9
581.648	9395.78
582.008	9502.22
582.368	9679.62
582.728	9824.02
583.089	9995.32
583.449	9981.76
583.809	10205.25
584.169	10350.11
584.529	10450.67
584.889	10725.24
585.249	10863.77
585.609	10994.61
585.969	11190.09
586.329	11265.34
586.688	11558.44
587.048	11758.89
587.408	11944.42
587.768	12087.46
588.127	12324.75
588.487	12458.08
588.846	12844.05
589.206	12886.09
589.565	13164.5
589.925	13520.65
590.284	13664.37
590.643	13830.47
591.003	14245.15
591.362	14489.44
591.721	14607.4
592.08	14864.79
592.44	15204.44
592.799	15461.61
593.158	15670.42
593.517	16062.28
593.876	16169.39
594.235	16468.14
594.593	16722.6
594.952	17135.24
595.311	17261.34
595.67	17680.31
596.029	17981.1
596.387	18306.28
596.746	18478.26
597.104	18750.79
597.463	19040.95
597.822	19262.87
598.18	19581.05
598.538	19795.06
598.897	20200.7
599.255	20256.06
599.613	20926.1
599.972	20887.23
600.33	21202.71
600.688	21353.66
601.046	21783.71
601.404	22193.87
601.762	22386.85
602.12	22608.77
602.478	22855.54
602.836	23185.48
603.194	23244.69
603.552	23509.99
603.91	23726.71
604.268	24159.01
604.625	24127.15
604.983	24639.9
605.341	24805.1
605.698	25104.07
606.056	25309.72
606.413	25494.8
606.771	25753.55
607.128	26172.74
607.485	26085.06
607.843	26330.25
608.2	26710.13
608.557	27012.27
608.914	27131.36
609.272	27502.2
609.629	27635.53
609.986	27832.36
610.343	27947.84
610.7	28310.77
611.057	28464.44
611.414	28618.1
611.771	28841.15
612.127	29009.96
612.484	29185.55
612.841	29421.47
613.198	29501.02
613.554	29863.04
613.911	29992.08
614.267	30205.86
614.624	30259.64
614.98	30426.19
615.337	30718.39
615.693	30741.44
616.05	30844.94
616.406	31166.96
616.762	31103.24
617.118	31224.36
617.475	31465.03
617.831	31647.18
618.187	31883.1
618.543	32025.02
618.899	32246.26
619.255	32290.32
619.611	32364.22
619.967	32523.54
620.323	32658
620.678	32662.29
621.034	32740.71
621.39	32866.58
621.746	32947.71
622.101	33401.48
622.457	33122.62
622.812	33364.42
623.168	33497.52
623.523	33594.7
623.879	33733.68
624.234	33537.07
624.589	33772.54
624.945	33921.24
625.3	34013.89
625.655	34045.08
626.01	34052.31
626.365	34161.91
626.72	34319.87
627.075	34276.71
627.43	34338.41
627.785	34227.67
628.14	34446.88
628.495	34526.42
628.85	34483.49
629.205	34474.9
629.559	34767.77
629.914	34672.63
630.269	34823.36
630.623	34631.05
630.978	34615.46
631.332	34826.08
631.687	35069.46
632.041	34743.82
632.396	34980.2
632.75	34793.31
633.104	34880.54
633.459	34844.38
633.813	34853.87
634.167	34988.78
634.521	34863.81
634.875	35092.74
635.229	34882.12
635.583	34864.27
635.937	34961.67
636.291	35054.54
636.645	35015.68
636.999	34888.67
637.352	35201.43
637.706	34974.32
638.06	34999.4
638.413	35019.52
638.767	34894.77
639.121	35007.99
639.474	34764.83
639.828	34775.23
640.181	34942
640.534	34905.85
640.888	34915.11
641.241	34786.3
641.594	34943.81
641.947	35027.2
642.301	34832.63
642.654	34842.35
643.007	34884.15
643.36	34753.99
643.713	34743.14
644.066	34928.67
644.419	34773.87
644.771	34549.92
645.124	34161.46
645.477	34205.08
645.83	33991.97
646.182	33883.28
646.535	33709.04
646.888	33974.35
647.24	33665.43
647.593	33893.22
647.945	33869.94
648.298	33690.51
648.65	33619.33
649.002	33620.23
649.355	33687.8
649.707	33741.13
650.059	33818.19
650.411	34230.84
650.763	34259.31
651.115	34583.6
651.467	34544.5
651.819	34446.42
652.171	34467.89
652.523	34349.7
652.875	34365.52
653.227	34263.83
653.578	34559.42
653.93	34315.35
654.282	34237.62
654.633	34265.41
654.985	34344.05
655.337	34280.55
655.688	34331.85
656.039	34423.83
656.391	34151.97
656.742	34092.08
657.094	34220.22
657.445	34399.87
657.796	34294.34
658.147	34250.72
658.498	34259.31
658.849	34210.05
659.2	34264.51
659.551	34292.08
659.902	34296.6
660.253	34156.49
660.604	34166.43
660.955	34123.72
661.306	34201.23
661.656	34108.58
662.007	34099.99
662.358	34016.61
662.708	34047.79
663.059	34088.69
663.409	33989.71
663.76	34162.59
664.11	34093.89
664.461	34140.44
664.811	34174.79
665.161	34083.95
665.511	34034.68
665.862	34198.3
666.212	34161.46
666.562	34239.42
666.912	34095.25
667.262	34047.79
667.612	34100.67
667.962	34231.52
668.312	33916.04
668.662	34155.36
669.011	34127.56
669.361	33930.51
669.711	34005.31
670.06	33940.22
670.41	33875.14
670.76	33880.79
671.109	34008.92
671.459	33954.91
671.808	33829.94
672.157	33942.94
672.507	33734.35
672.856	33854.58
673.205	33865.88
673.554	33921.47
673.904	33722.83
674.253	33956.72
674.602	33788.14
674.951	33308.83
675.3	33241.26
675.649	33810.96
675.998	33806.89
676.346	33741.13
676.695	33842.37
677.044	33657.52
677.393	33756.5
677.741	33723.28
678.09	33599.89
678.438	33579.55
678.787	33575.71
679.135	33606.67
679.484	33468.37
679.832	33379.11
680.181	33367.36
680.529	33462.5
680.877	33370.75
681.225	33398.99
681.573	33499.11
681.922	33293.69
682.27	33167.14
682.618	33107.02
682.966	33182.05
683.314	33255.04
683.661	32971.89
684.009	32822.29
684.357	32962.17
684.705	32796.75
685.053	32886.47
685.4	32845.56
685.748	32733.48
686.095	32655.29
686.443	32395.41
686.79	32442.64
687.138	32533.03
687.485	32703.42
687.832	32403.99
688.18	32510.43
688.527	32281.51
688.874	32222.53
689.221	32192.25
689.568	32193.38
689.915	32032.25
690.262	32041.06
690.609	32000.16
690.956	31869.32
691.303	31833.39
691.65	31623.67
691.997	31710
692.344	31584.13
692.69	31453.74
693.037	31473.17
693.383	31275.21
693.73	31321.08
694.077	31282.44
694.423	31225.27
694.769	30978.49
695.116	31048.1
695.462	30961.32
695.808	30829.12
696.155	30852.39
696.501	30672.96
696.847	30725.62
697.193	30437.26
697.539	30614.89
697.885	30285.63
698.231	30350.71
698.577	30261.22
698.923	30086.31
699.269	30060.33
699.614	29963.83
699.96	29843.61
700.306	29959.54
700.651	29672.09
700.997	29683.61
701.342	29713.44
701.688	29639.09
702.033	29543.95
702.379	29574.91
702.724	29351.42
703.069	29543.28
703.415	29199.56
703.76	29205.66
704.105	29073.23
704.45	29134.7
704.795	28902.62
705.14	28806.35
705.485	28862.39
705.83	28732.68
706.175	28750.3
706.52	28580.14
706.865	28542.4
707.209	28641.15
707.554	28375.85
707.899	28436.87
708.243	28345.79
708.588	28416.53
708.932	28091.34
709.277	28118.68
709.621	28012.02
709.966	27900.16
710.31	27949.87
710.654	27727.05
710.998	27805.7
711.342	27750.1
711.687	27766.6
712.031	27526.38
712.375	27520.05
712.719	27669.2
713.063	27511.47
713.407	27544.69
713.75	27356.22
714.094	27351.92
714.438	27233.28
714.782	27317.12
715.125	27096.79
715.469	27243.45
715.812	27145.83
716.156	26918.26
716.499	26995.32
716.843	26985.83
717.186	26761.43
717.53	26915.1
717.873	26967.3
718.216	26806.4
718.559	26623.58
718.902	26492.06
719.246	26639.17
719.589	26442.79
719.932	26396.69
720.275	26410.03
720.617	26356.47
720.96	26344.04
721.303	26357.15
721.646	26298.16
721.989	26132.75
722.331	26279.41
722.674	26092.29
723.016	26093.65
723.359	26104.27
723.701	26098.4
724.044	25927.55
724.386	25771.62
724.729	25918.51
725.071	25725.3
725.413	25732.76
725.755	25807.56
726.097	25643.72
726.439	25502.48
726.782	25550.61
727.124	25717.39
727.465	25597.62
727.807	25434.91
728.149	25342.26
728.491	25438.3
728.833	25403.27
729.175	25317.85
729.516	25360.56
729.858	25237.85
730.199	25229.94
730.541	25184.3
730.882	25097.52
731.224	25273.33
731.565	25100.23
731.906	25118.99
732.248	25165.99
732.589	24918.54
732.93	24841.03
733.271	24941.14
733.612	24992.21
733.953	24986.33
734.294	24933.91
734.635	24746.57
734.976	24740.92
735.317	24718.09
735.658	24672.9
735.999	24660.47
736.339	24516.06
736.68	24498.44
737.021	24435.16
737.361	24414.82
737.702	24650.98
738.042	24414.37
738.383	24334.15
738.723	24478.1
739.063	24314.04
739.404	24412.34
739.744	24292.57
740.084	24174.38
740.424	24285.11
740.764	24172.8
741.104	24170.31
741.444	24103.19
741.784	24014.38
742.124	24071.56
742.464	24080.37
742.804	23970.77
743.143	23924.44
743.483	23997.21
743.823	23782.07
744.162	23811
744.502	23846.93
744.841	23815.97
745.181	23888.96
745.52	23726.93
745.86	23786.37
746.199	23692.81
746.538	23625.24
746.877	23733.71
747.216	23675.18
747.556	23505.47
747.895	23531.91
748.234	23390.22
748.573	23511.8
748.911	23388.18
749.25	23243.1
749.589	23308.64
749.928	23306.83
750.267	23388.64
750.605	23168.98
750.944	23191.35
751.283	23107.06
751.621	23062.54
751.96	23008.99
752.298	23023.22
752.636	23078.14
752.975	22920.4
753.313	22835.43
753.651	22876.33
753.989	22669.79
754.327	22665.94
754.666	22678.37
755.004	22625.04
755.342	22569.22
755.679	22598.15
756.017	22529.68
756.355	22648.99
756.693	22492.84
757.031	22516.79
757.368	22280.19
757.706	22353.41
758.044	22196.58
758.381	22283.13
758.719	22135.56
759.056	22172.85
759.394	22078.39
759.731	21990.71
760.068	21930.14
760.405	21836.36
760.743	21813.08
761.08	21842.46
761.417	21701
761.754	21673.65
762.091	21682.24
762.428	21484.28
762.765	21413.77
763.102	21435.69
763.438	21344.62
763.775	21210.61
764.112	21223.95
764.449	21173.1
764.785	21176.49
765.122	21071.41
765.458	20886.56
765.795	20843.17
766.131	20847.01
766.467	20727.46
766.804	20639.56
767.14	20614.92
767.476	20638.2
767.812	20509.62
768.148	20544.19
768.485	20423.06
768.821	20327.93
769.157	20303.07
769.492	20217.19
769.828	20269.62
770.164	19894.27
770.5	20037.76
770.836	19954.83
771.171	19843.42
771.507	19734.95
771.842	19711.44
772.178	19578.12
772.513	19583.09
772.849	19449.08
773.184	19494.05
773.519	19480.94
773.855	19388.06
774.19	19219.25
774.525	19220.16
774.86	19198.46
775.195	19110.78
775.53	19071.46
775.865	18907.17
776.2	18847.06
776.535	18710.34
776.87	18777.23
777.205	18579.5
777.539	18638.48
777.874	18576.33
778.209	18454.53
778.543	18367.3
778.878	18334.98
779.212	18280.52
779.547	18246.4
779.881	18183.12
780.215	18004.37
780.55	18094.99
780.884	17972.06
781.218	18004.6
781.552	17883.47
781.886	17850.48
782.22	17730.48
782.554	17623.14
782.888	17419.3
783.222	17470.15
783.556	17354.9
783.889	17317.16
784.223	17149.25
784.557	17196.03
784.89	17216.82
785.224	17142.92
785.557	16995.58
785.891	17079.88
786.224	16901.8
786.558	16942.93
786.891	16725.76
787.224	16679.89
787.557	16644.63
787.891	16586.78
788.224	16616.61
788.557	16535.48
788.89	16516.73
789.223	16443.96
789.556	16373.68
789.888	16248.71
790.221	16252.78
790.554	16113.12
790.887	16098.43
791.219	15966.23
791.552	16043.07
791.884	15948.83
792.217	15883.98
792.549	15844.2
792.882	15710.19
793.214	15613.25
793.546	15660.93
793.879	15623.42
794.211	15531.67
794.543	15674.26
794.875	15514.72
795.207	15561.95
795.539	15223.2
795.871	15334.16
796.203	15233.14
796.535	15190.21
796.867	15204.22
797.198	15108.85
797.53	15141.4
797.862	14955.86
798.193	15029.99
798.525	14884.68
798.856	14940.27
799.188	14778.92
799.519	14764.46
799.85	14646.49
800.182	14641.52
800.513	14685.36
800.844	14511.13
801.175	14590.45
801.506	14504.35
801.837	14520.17
802.168	14430.23
802.499	14270.91
802.83	14241.53
803.161	14313.62
803.491	14290.57
803.822	14265.49
804.153	14068.2
804.483	14103.68
804.814	14055.77
805.145	13988.66
805.475	14030.69
805.805	13963.57
806.136	13988.66
806.466	14023.46
806.796	13877.25
807.126	13730.36
807.457	13706.41
807.787	13708.66
808.117	13716.57
808.447	13640.87
808.777	13603.58
809.107	13633.64
809.436	13561.1
809.766	13505.96
810.096	13510.03
810.426	13414.44
810.755	13412.85
811.085	13385.96
811.414	13370.14
811.744	13227.55
812.073	13248.56
812.403	13169.92
812.732	13213.08
813.061	13202.01
813.39	13097.16
813.719	12948.01
814.049	13084.5
814.378	13080.66
814.707	13017.38
815.036	12933.09
815.365	12894.45
815.693	12777.16
816.022	12789.59
816.351	12818.07
816.68	12698.75
817.008	12752.31
817.337	12623.72
817.665	12658.52
817.994	12588.69
818.322	12615.13
818.651	12583.72
818.979	12486.55
819.307	12530.84
819.636	12440.45
819.964	12445.87
820.292	12466.21
820.62	12410.62
820.948	12418.98
821.276	12439.09
821.604	12387.8
821.932	12394.58
822.259	12417.85
822.587	12386.21
822.915	12293.79
823.243	12346.67
823.57	12328.36
823.898	12338.08
824.225	12272.09
824.553	12275.03
824.88	12297.63
825.207	12315.71
825.535	12313.9
825.862	12393.22
826.189	12293.11
826.516	12395.48
826.843	12394.8
827.17	12350.96
827.497	12303.05
827.824	12255.14
828.151	12377.4
828.478	12268.7
828.805	12316.39
829.131	12217.63
829.458	12214.47
829.785	12269.38
830.111	12202.26
830.438	12342.15
830.764	12237.97
831.09	12331.07
831.417	12202.72
831.743	12264.18
832.069	12271.64
832.395	12197.07
832.722	12258.31
833.048	12143.28
833.374	12230.29
833.7	12081.82
834.026	12178.54
834.351	12143.51
834.677	12174.47
835.003	12112.32
835.329	12098.99
835.654	12106
835.98	11993.23
836.306	12084.98
836.631	11977.19
836.956	12082.49
837.282	12014.25
837.607	11959.78
837.932	11992.78
838.258	11995.26
838.583	11929.95
838.908	11900.8
839.233	11860.35
839.558	11830.97
839.883	11798.21
840.208	11752.56
840.533	11813.35
840.858	11850.41
841.182	11800.92
841.507	11767.93
841.832	11710.53
842.156	11701.71
842.481	11652.45
842.805	11629.4
843.13	11594.6
843.454	11607.48
843.778	11532.45
844.103	11447.26
844.427	11563.41
844.751	11584.2
845.075	11501.49
845.399	11412.23
845.723	11372.91
846.047	11418.33
846.371	11307.6
846.695	11319.58
847.019	11202.97
847.343	11169.3
847.666	11072.35
847.99	11085.23
848.313	11040.71
848.637	10919.81
848.96	11039.58
849.284	10956.42
849.607	10836.2
849.931	10862.41
850.254	10825.12
850.577	10659.48
850.9	10662.19
851.223	10605.47
851.546	10530.22
851.869	10473.27
852.192	10491.57
852.515	10418.58
852.838	10447.06
853.161	10423.33
853.483	10347.62
853.806	10278.7
854.129	10255.42
854.451	10222.2
854.774	10122.77
855.096	10165.03
855.419	10134.3
855.741	10103.11
856.063	10052.72
856.385	9999.16
856.708	10034.64
857.03	9955.54
857.352	10000.51
857.674	9884.58
857.996	9921.19
858.318	9838.94
858.64	9924.36
858.961	9802.33
859.283	9718.26
859.605	9752.16
859.926	9720.52
860.248	9707.87
860.57	9712.39
860.891	9759.62
861.212	9624.03
861.534	9572.5
861.855	9598.04
862.176	9585.38
862.498	9590.58
862.819	9598.72
863.14	9478.95
863.461	9422.68
863.782	9453.18
864.103	9476.01
864.424	9396.01
864.745	9462.45
865.065	9366.18
865.386	9418.38
865.707	9437.59
866.027	9311.49
866.348	9391.04
866.668	9334.99
866.989	9352.62
867.309	9283.02
867.63	9257.71
867.95	9270.14
868.27	9198.73
868.59	9291.38
868.91	9215.45
869.23	9225.84
869.55	9160.54
869.87	9193.3
870.19	9181.1
870.51	9160.76
870.83	9109.92
871.15	9059.97
871.469	9083.25
871.789	9064.49
872.109	9160.54
872.428	9021.56
872.748	9054.32
873.067	9029.47
873.386	9062.69
873.706	8968
874.025	8914.67
874.344	8914.21
874.663	8963.03
874.982	8982.69
875.301	8886.42
875.62	8879.19
875.939	8916.47
876.258	8893.42
876.577	8839.41
876.896	8846.87
877.214	8868.11
877.533	8800.09
877.852	8796.93
878.17	8746.99
878.489	8751.28
878.807	8826.76
879.125	8739.08
879.444	8729.59
879.762	8751.28
880.08	8730.72
880.398	8630.83
880.716	8750.6
881.034	8666.09
881.352	8651.4
881.67	8602.36
881.988	8649.59
882.306	8683.03
882.624	8579.53
882.941	8577.73
883.259	8547.9
883.577	8505.19
883.894	8460.44
884.212	8424.74
884.529	8384.96
884.846	8380.67
885.164	8386.32
885.481	8424.28
885.798	8416.6
886.115	8335.02
886.432	8293.67
886.75	8314.91
887.067	8311.52
887.383	8219.32
887.7	8288.47
888.017	8185.19
888.334	8225.65
888.651	8215.93
888.967	8196.72
889.284	8159.43
889.6	8103.61
889.917	8052.77
890.233	8146.78
890.55	8029.49
890.866	8056.61
891.182	8000.11
891.498	7991.75
891.815	7953.56
892.131	7990.4
892.447	7908.14
892.763	7866.33
893.079	7860.91
893.395	7856.16
893.71	7820.91
894.026	7813.23
894.342	7821.59
894.657	7772.78
894.973	7702.27
895.289	7689.84
895.604	7662.95
895.92	7624.98
896.235	7616.85
896.55	7605.1
896.865	7595.15
897.181	7555.61
897.496	7582.72
897.811	7488.04
898.126	7459.56
898.441	7375.05
898.756	7377.98
899.071	7362.39
899.386	7412.33
899.7	7310.19
900.015	7314.93
900.33	7268.61
900.644	7243.52
900.959	7230.87
901.273	7218.67
901.588	7162.17
901.902	7173.47
902.216	7088.95
902.531	7145.22
902.845	7077.88
903.159	7061.38
903.473	6977.54
903.787	6974.38
904.101	6900.48
904.415	7004.89
904.729	6893.93
905.042	6861.61
905.356	6863.87
905.67	6810.54
905.984	6883.08
906.297	6841.27
906.611	6807.15
906.924	6758.79
907.237	6709.53
907.551	6716.53
907.864	6664.78
908.177	6702.07
908.491	6628.17
908.804	6623.2
909.117	6572.13
909.43	6572.81
909.743	6519.48
910.056	6491.23
910.368	6459.14
910.681	6422.08
910.994	6411.23
911.307	6353.15
911.619	6345.24
911.932	6347.5
912.244	6285.58
912.557	6312.48
912.869	6294.4
913.181	6283.78
913.494	6242.42
913.806	6209.65
914.118	6157.45
914.43	6116.32
914.742	6093.5
915.054	6117.68
915.366	6019.15
915.678	6016.21
915.99	6017.79
916.302	5932.82
916.613	5926.04
916.925	5973.73
917.236	5973.5
917.548	5866.39
917.859	5939.83
918.171	5849.66
918.482	5836.78
918.794	5781.64
919.105	5770.57
919.416	5761.98
919.727	5680.63
920.038	5677.24
920.349	5721.98
920.66	5654.87
920.971	5658.93
921.282	5572.38
921.593	5608.54
921.903	5538.48
922.214	5534.87
922.525	5480.63
922.835	5500.07
923.146	5460.75
923.456	5477.69
923.767	5418.04
924.077	5408.32
924.387	5427.75
924.697	5371.71
925.008	5332.84
925.318	5329.9
925.628	5313.86
925.938	5275.44
926.248	5216.01
926.558	5262.56
926.867	5225.5
927.177	5183.47
927.487	5192.28
927.796	5136.01
928.106	5146.18
928.416	5083.13
928.725	5101.66
929.034	5061.21
929.344	5042.23
929.653	5076.58
929.962	4987.54
930.271	4994.54
930.581	4938.95
930.89	4934.66
931.199	4891.5
931.508	4902.79
931.817	4843.36
932.125	4823.25
932.434	4825.28
932.743	4764.27
933.051	4733.53
933.36	4724.27
933.669	4729.69
933.977	4734.44
934.286	4715.23
934.594	4672.97
934.902	4660.99
935.21	4651.05
935.519	4629.58
935.827	4567.21
936.135	4537.15
936.443	4572.86
936.751	4496.25
937.059	4500.55
937.367	4500.55
937.674	4477.27
937.982	4456.03
938.29	4470.04
938.597	4437.5
938.905	4415.8
939.213	4376.71
939.52	4389.14
939.827	4375.35
940.135	4339.65
940.442	4337.84
940.749	4315.47
941.056	4288.8
941.363	4258.74
941.67	4239.31
941.977	4177.16
942.284	4221.91
942.591	4208.58
942.898	4145.98
943.205	4132.19
943.511	4120.22
943.818	4140.55
944.125	4101.69
944.431	4094
944.738	4062.14
945.044	4028.69
945.35	4033.89
945.657	4014
945.963	4021.01
946.269	4018.52
946.575	3999.32
946.881	3966.1
947.187	3945.53
947.493	3920.22
947.799	3919.77
948.105	3857.17
948.41	3826.66
948.716	3852.65
949.022	3842.48
949.327	3855.36
949.633	3798.87
949.938	3831.18
950.244	3786.44
950.549	3737.85
950.854	3703.73
951.16	3763.62
951.465	3685.2
951.77	3687.91
952.075	3648.82
952.38	3671.19
952.685	3659.66
952.99	3612.66
953.294	3578.99
953.599	3569.04
953.904	3591.19
954.209	3575.6
954.513	3537.86
954.818	3491.76
955.122	3568.37
955.426	3536.5
955.731	3512.1
956.035	3502.15
956.339	3476.62
956.643	3440.91
956.948	3430.29
957.252	3416.05
957.556	3380.35
957.86	3387.81
958.163	3367.02
958.467	3347.81
958.771	3362.27
959.075	3306.68
959.378	3296.96
959.682	3297.19
959.985	3318.43
960.289	3280.69
960.592	3260.35
960.896	3261.26
961.199	3264.19
961.502	3249.73
961.805	3190.52
962.108	3200.47
962.411	3195.04
962.714	3181.71
963.017	3115.27
963.32	3169.06
963.623	3160.69
963.926	3166.57
964.228	3138.55
964.531	3049.96
964.833	3057.42
965.136	3067.14
965.438	3063.3
965.741	3041.15
966.043	3031.66
966.345	2997.99
966.648	3031.43
966.95	2947.82
967.252	2947.59
967.554	2960.7
967.856	2930.42
968.158	2924.54
968.46	2883.41
968.761	2917.08
969.063	2882.28
969.365	2880.25
969.666	2877.54
969.968	2840.48
970.269	2850.42
970.571	2827.82
970.872	2814.71
971.174	2777.43
971.475	2781.27
971.776	2792.34
972.077	2759.57
972.378	2734.49
972.679	2763.19
972.98	2720.71
973.281	2725.22
973.582	2733.81
973.883	2720.25
974.183	2720.25
974.484	2689.07
974.785	2675.73
975.085	2682.97
975.386	2625.34
975.686	2623.08
975.986	2594.83
976.287	2614.49
976.587	2567.49
976.887	2573.59
977.187	2563.2
977.487	2602.52
977.787	2511.45
978.087	2517.09
978.387	2530.88
978.687	2516.42
978.987	2512.8
979.286	2487.94
979.586	2482.75
979.885	2503.76
980.185	2462.86
980.484	2475.06
980.784	2443.88
981.083	2448.4
981.382	2422.86
981.682	2382.18
981.981	2413.14
982.28	2387.61
982.579	2358.45
982.878	2375.18
983.177	2335.86
983.475	2347.61
983.774	2327.04
984.073	2327.5
984.372	2295.86
984.67	2325.46
984.969	2303.99
985.267	2288.85
985.566	2276.88
985.864	2247.27
986.162	2278.68
986.461	2257.67
986.759	2224.45
987.057	2207.95
987.355	2243.43
987.653	2223.32
987.951	2192.81
988.249	2209.08
988.547	2237.78
988.844	2173.6
989.142	2192.81
989.44	2179.48
989.737	2159.82
990.035	2141.06
990.332	2143.55
990.63	2163.43
990.927	2129.08
991.224	2082.98
991.521	2071.46
991.819	2076.65
992.116	2083.43
992.413	2056.77
992.71	2051.34
993.006	2021.97
993.303	2031.01
993.6	2024.68
993.897	2013.38
994.193	2031.46
994.49	2008.86
994.787	1991.01
995.083	1992.36
995.379	1965.02
995.676	1926.38
995.972	1954.4
996.268	1959.6
996.565	1955.08
996.861	1915.75
997.157	1923.66
997.453	1885.47
997.749	1919.14
998.044	1898.58
998.34	1878.02
998.636	1881.18
998.932	1863.78
999.227	1868.98
999.523	1812.93
999.818	1855.42
1000.114	1829.2
1000.409	1793.5
1000.704	1812.48
1001	1817.9
1001.295	1790.56
1001.59	1793.27
1001.885	1769.09
1002.18	1758.24
1002.475	1748.3
1002.77	1746.04
1003.065	1729.54
1003.359	1720.51
1003.654	1733.16
1003.949	1696.78
1004.243	1702.88
1004.538	1699.72
1004.832	1687.06
1005.127	1662.88
1005.421	1648.87
1005.715	1654.29
1006.009	1656.55
1006.304	1637.8
1006.598	1648.87
1006.892	1610.9
1007.186	1582.43
1007.48	1591.02
1007.773	1606.16
1008.067	1596.22
1008.361	1560.28
1008.655	1539.72
1008.948	1560.96
1009.242	1545.82
1009.535	1509.44
1009.829	1535.65
1010.122	1519.38
1010.415	1516.22
1010.708	1487.52
1011.001	1501.98
1011.295	1483.22
1011.588	1475.09
1011.881	1475.09
1012.173	1461.98
1012.466	1467.63
1012.759	1442.55
1013.052	1440.96
1013.344	1427.41
1013.637	1433.06
1013.93	1407.07
1014.222	1419.04
1014.514	1370.68
1014.807	1374.07
1015.099	1370.91
1015.391	1385.83
1015.683	1376.33
1015.976	1386.28
1016.268	1362.77
1016.56	1345.37
1016.851	1354.64
1017.143	1327.3
1017.435	1310.57
1017.727	1331.59
1018.018	1312.83
1018.31	1296.56
1018.602	1298.14
1018.893	1265.38
1019.185	1277.35
1019.476	1254.98
1019.767	1230.35
1020.058	1241.2
1020.35	1247.52
1020.641	1260.4
1020.932	1235.77
1021.223	1223.12
1021.514	1201.2
1021.804	1204.36
1022.095	1200.97
1022.386	1211.82
1022.677	1175.21
1022.967	1170.46
1023.258	1156.68
1023.548	1175.44
1023.839	1158.03
1024.129	1160.29
1024.419	1152.16
1024.709	1126.4
1025	1133.63
1025.29	1116.91
1025.58	1111.71
1025.87	1107.19
1026.16	1120.75
1026.449	1087.98
1026.739	1086.4
1027.029	1055.21
1027.319	1071.26
1027.608	1058.6
1027.898	1054.08
1028.187	1049.34
1028.477	1072.61
1028.766	1031.71
1029.055	1005.5
1029.344	1036.23
1029.634	1050.01
1029.923	1009.11
1030.212	1004.14
1030.501	998.94
1030.79	998.72
1031.078	979.06
1031.367	977.25
1031.656	978.6
1031.945	972.5
1032.233	962.56
1032.522	969.79
1032.81	980.64
1033.099	946.51
1033.387	965.05
1033.675	956.01
1033.963	928.66
1034.251	927.76
1034.54	918.27
1034.828	919.4
1035.116	896.12
1035.403	928.89
1035.691	914.2
1035.979	886.18
1036.267	880.53
1036.554	880.98
1036.842	882.34
1037.129	888.21
1037.417	871.71
1037.704	876.91
1037.992	855.44
1038.279	846.86
1038.566	831.04
1038.853	831.04
1039.14	831.04
