Data from hue_40_FLMS001491_75.txt Node
Date: Mon Feb 06 15:08:25 GMT 2017
User: dcchb
Spectrometer: FLMS00149
Trigger mode: 0
Integration Time (sec): 2.000000E-2
Scans to average: 10
Electric dark correction enabled: true
Nonlinearity correction enabled: false
Boxcar width: 0
XAxis mode: Wavelengths
Number of Pixels in Spectrum: 2048
>>>>>Begin Spectral Data<<<<<
341.393	-22.02
341.776	-22.02
342.16	-22.02
342.543	-59.76
342.927	-67.22
343.31	-55.92
343.693	-56.37
344.077	-42.58
344.46	-54.56
344.843	-64.05
345.226	-32.41
345.61	-45.97
345.993	-17.5
346.376	-15.69
346.759	-3.49
347.142	11.65
347.525	42.61
347.908	58.88
348.291	75.83
348.674	93.23
349.057	106.34
349.44	144.3
349.823	142.95
350.206	186.79
350.588	173.46
350.971	221.59
351.354	231.08
351.737	225.66
352.119	233.79
352.502	258.2
352.884	260.69
353.267	289.16
353.65	288.93
354.032	290.06
354.414	310.4
354.797	314.02
355.179	335.71
355.562	311.53
355.944	338.88
356.326	330.74
356.709	331.19
357.091	326.22
357.473	344.75
357.855	329.16
358.238	364.19
358.62	351.98
359.002	360.34
359.384	330.29
359.766	340.23
360.148	330.51
360.53	351.98
360.912	329.38
361.294	346.78
361.676	311.98
362.057	322.6
362.439	335.71
362.821	347.01
363.203	344.52
363.584	324.41
363.966	324.64
364.348	335.26
364.729	305.88
365.111	315.6
365.493	325.77
365.874	299.1
366.256	321.02
366.637	323.06
367.019	305.43
367.4	322.15
367.781	316.73
368.163	312.66
368.544	316.73
368.925	297.29
369.306	325.32
369.688	319.44
370.069	309.27
370.45	310.85
370.831	311.53
371.212	311.53
371.593	319.21
371.974	312.66
372.355	302.49
372.736	323.28
373.117	308.59
373.498	314.02
373.879	314.92
374.26	313.57
374.641	305.88
375.021	331.64
375.402	326.67
375.783	336.39
376.163	329.38
376.544	333.9
376.925	323.06
377.305	327.12
377.686	336.16
378.066	342.94
378.447	318.76
378.827	328.48
379.208	329.61
379.588	337.97
379.968	337.29
380.349	340.91
380.729	304.07
381.109	347.46
381.489	327.12
381.87	343.62
382.25	341.36
382.63	315.83
383.01	321.25
383.39	331.19
383.77	361.93
384.15	352.21
384.53	333.9
384.91	356.5
385.29	363.06
385.67	350.17
386.049	356.95
386.429	330.29
386.809	345.43
387.189	354.24
387.568	360.8
387.948	368.48
388.328	344.07
388.707	341.14
389.087	356.05
389.466	364.86
389.846	377.52
390.225	320.57
390.605	375.26
390.984	356.95
391.363	363.96
391.743	363.51
392.122	377.29
392.501	357.63
392.881	366.45
393.26	358.76
393.639	363.28
394.018	359.67
394.397	378.2
394.776	354.92
395.155	368.93
395.534	381.36
395.913	369.38
396.292	383.17
396.671	362.15
397.05	372.55
397.429	357.18
397.808	375.48
398.186	379.33
398.565	384.75
398.944	365.54
399.323	375.71
399.701	401.7
400.08	365.09
400.458	393.56
400.837	378.65
401.215	377.97
401.594	380
401.972	393.34
402.351	406.67
402.729	404.86
403.107	402.38
403.486	395.14
403.864	408.48
404.242	399.89
404.62	402.38
404.999	393.34
405.377	418.87
405.755	396.05
406.133	425.88
406.511	405.31
406.889	415.71
407.267	437.86
407.645	423.84
408.023	404.18
408.401	406.67
408.779	420
409.156	451.87
409.534	433.56
409.912	443.73
410.29	426.33
410.667	431.3
411.045	435.6
411.422	441.47
411.8	450.74
412.178	445.99
412.555	451.64
412.933	458.65
413.31	444.41
413.687	456.84
414.065	445.99
414.442	453.22
414.819	468.59
415.197	468.82
415.574	477.4
415.951	460.91
416.328	474.69
416.705	477.63
417.082	466.56
417.46	464.3
417.837	485.99
418.214	505.88
418.591	516.72
418.967	483.05
419.344	475.37
419.721	519.89
420.098	492.09
420.475	508.36
420.852	515.82
421.228	514.92
421.605	507.68
421.982	517.18
422.358	512.88
422.735	518.08
423.111	519.66
423.488	518.98
423.864	535.25
424.241	535.93
424.617	535.93
424.994	551.53
425.37	551.98
425.746	527.34
426.123	552.43
426.499	560.34
426.875	553.11
427.251	546.1
427.627	573.22
428.003	557.63
428.379	586.1
428.756	567.12
429.132	607.34
429.507	560.11
429.883	593.56
430.259	580.22
430.635	603.5
431.011	587.91
431.387	599.89
431.763	613.44
432.138	608.25
432.514	605.08
432.89	621.13
433.265	627.23
433.641	631.52
434.016	623.61
434.392	678.75
434.767	633.33
435.143	649.38
435.518	659.77
435.894	667.68
436.269	657.96
436.644	682.6
437.02	664.52
437.395	676.95
437.77	674.01
438.145	687.57
438.52	703.16
438.895	701.8
439.271	670.84
439.646	708.81
440.021	714.46
440.395	713.55
440.77	723.72
441.145	700
441.52	729.83
441.895	728.24
442.27	720.56
442.645	730.73
443.019	725.31
443.394	702.71
443.769	741.58
444.143	757.4
444.518	759.66
444.892	770.28
445.267	751.07
445.641	770.5
446.016	765.08
446.39	770.05
446.764	794
447.139	768.92
447.513	803.04
447.887	803.72
448.262	798.52
448.636	776.15
449.01	813.89
449.384	803.95
449.758	795.81
450.132	816.15
450.506	828.58
450.88	805.76
451.254	846.66
451.628	819.54
452.002	844.62
452.376	860.44
452.75	825.64
453.123	848.92
453.497	873.55
453.871	866.32
454.244	887.79
454.618	874
454.992	890.27
455.365	882.36
455.739	907.45
456.112	921.23
456.486	915.36
456.859	947.9
457.232	915.36
457.606	942.25
457.979	967.33
458.352	1011.85
458.725	965.53
459.099	997.39
459.472	1014.34
459.845	1016.82
460.218	1027.67
460.591	1027.44
460.964	1034.22
461.337	1078.52
461.71	1069.7
462.083	1067.9
462.456	1088.69
462.829	1101.34
463.201	1111.28
463.574	1110.83
463.947	1127.1
464.32	1158.97
464.692	1146.09
465.065	1147.22
465.438	1151.51
465.81	1196.03
466.183	1192.64
466.555	1252.98
466.928	1274.67
467.3	1232.19
467.672	1289.13
468.045	1290.94
468.417	1313.76
468.789	1338.17
469.161	1351.05
469.534	1357.38
469.906	1389.02
470.278	1425.63
470.65	1450.48
471.022	1454.78
471.394	1458.39
471.766	1504.95
472.138	1541.56
472.51	1544.49
472.882	1590.82
473.253	1616.81
473.625	1636.24
473.997	1690.48
474.369	1702.68
474.74	1722.12
475.112	1784.26
475.484	1777.71
475.855	1806.86
476.227	1866.07
476.598	1924.6
476.97	1993.75
477.341	1999.85
477.713	2050.24
478.084	2074.2
478.455	2170.69
478.827	2205.49
479.198	2246.4
479.569	2295.66
479.94	2379.27
480.311	2400.29
480.682	2513.96
481.053	2558.48
481.424	2598.93
481.795	2697.23
482.166	2727.74
482.537	2820.62
482.908	2908.3
483.279	2923.44
483.65	3023.55
484.021	3133.15
484.391	3167.73
484.762	3255.41
485.133	3356.42
485.503	3406.37
485.874	3478.23
486.244	3607.94
486.615	3657.66
486.985	3741.5
487.356	3865.11
487.726	3929.52
488.097	4079.12
488.467	4099
488.837	4281.37
489.207	4330.41
489.578	4445.21
489.948	4485.88
490.318	4588.03
490.688	4667.58
491.058	4789.83
491.428	4925.42
491.798	5007.68
492.168	5116.38
492.538	5152.53
492.908	5247.22
493.278	5437.95
493.648	5462.81
494.017	5569.47
494.387	5707.1
494.757	5703.25
495.126	5846.75
495.496	5945.51
495.866	6017.14
496.235	6149.8
496.605	6227.31
496.974	6328.1
497.344	6402.9
497.713	6474.76
498.082	6561.76
498.452	6704.81
498.821	6764.92
499.19	6831.13
499.559	6903.45
499.928	7017.34
500.298	7114.06
500.667	7141.18
501.036	7234.06
501.405	7364.91
501.774	7363.1
502.143	7492.13
502.512	7519.48
502.88	7658.91
503.249	7655.52
503.618	7815.06
503.987	7882.86
504.356	7928.96
504.724	8027.94
505.093	8070.65
505.462	8147.03
505.83	8248.95
506.199	8351.32
506.567	8404.65
506.936	8459.34
507.304	8567.36
507.672	8537.76
508.041	8701.82
508.409	8854.81
508.777	8859.33
509.145	8935.03
509.514	8968.25
509.882	9036.5
510.25	9064.07
510.618	9210.51
510.986	9192.65
511.354	9253.67
511.722	9401.24
512.09	9504.51
512.458	9462.7
512.826	9602.36
513.193	9637.39
513.561	9739.98
513.929	9748.8
514.297	9864.5
514.664	9912.86
515.032	9943.82
515.4	10061.11
515.767	10084.83
516.135	10149.92
516.502	10080.54
516.869	10315.79
517.237	10375.22
517.604	10391.94
517.972	10455.22
518.339	10563.92
518.706	10582.67
519.073	10586.06
519.44	10719.39
519.808	10778.83
520.175	10865.6
520.542	10984.25
520.909	11006.62
521.276	11013.85
521.643	11139.72
522.009	11213.17
522.376	11245.93
522.743	11331.81
523.11	11380.62
523.477	11567.96
523.843	11568.64
524.21	11687.28
524.577	11767.73
524.943	11775.86
525.31	11889.98
525.676	12022.64
526.043	12016.08
526.409	12096.08
526.776	12277.54
527.142	12298.11
527.508	12324.1
527.874	12464.21
528.241	12517.76
528.607	12545.56
528.973	12677.99
529.339	12628.72
529.705	12813.58
530.071	12934.7
530.437	12995.49
530.803	13031.42
531.169	13074.59
531.535	13143.74
531.901	13166.11
532.267	13225.54
532.632	13354.13
532.998	13388.25
533.364	13371.98
533.73	13440
534.095	13614.23
534.461	13668.24
534.826	13765.41
535.192	13753.21
535.557	13894.9
535.923	13858.97
536.288	13941.68
536.653	13993.66
537.019	13944.85
537.384	14105.97
537.749	14162.24
538.114	14235.91
538.479	14225.74
538.845	14272.52
539.21	14241.56
539.575	14389.13
539.94	14407.66
540.305	14512.06
540.67	14517.71
541.034	14517.26
541.399	14659.4
541.764	14570.82
542.129	14752.96
542.494	14769
542.858	14730.36
543.223	14857.59
543.587	14965.16
543.952	14997.47
544.316	15096.45
544.681	15030.24
545.045	15131.71
545.41	15247.18
545.774	15275.43
546.138	15380.29
546.503	15381.19
546.867	15361.76
547.231	15594.75
547.595	15627.74
547.959	15685.36
548.324	15608.3
548.688	15649.43
549.052	15748.87
549.416	15828.64
549.779	15874.06
550.143	15893.95
550.507	15968.52
550.871	15937.11
551.235	15985.7
551.599	16240.38
551.962	16146.37
552.326	16234.73
552.689	16324.9
553.053	16250.77
553.417	16312.92
553.78	16542.07
554.143	16498
554.507	16613.93
554.87	16629.07
555.234	16777.99
555.597	16687.6
555.96	16747.94
556.323	16779.12
556.686	16850.08
557.05	17019.34
557.413	16935.73
557.776	17093.24
558.139	17171.43
558.502	17210.52
558.865	17231.31
559.228	17400.57
559.59	17359.22
559.953	17457.07
560.316	17584.52
560.679	17653.22
561.041	17660.91
561.404	17702.49
561.767	17883.05
562.129	17863.84
562.492	18019.77
562.854	17972.54
563.217	18008.24
563.579	18143.6
563.941	18191.97
564.304	18279.42
564.666	18463.37
565.028	18481.9
565.39	18512.18
565.753	18632.18
566.115	18540.2
566.477	18784.49
566.839	18735
567.201	18932.28
567.563	18916.01
567.925	19003.02
568.287	19045.28
568.648	19086.63
569.01	19215.22
569.372	19401.42
569.734	19186.97
570.095	19457.47
570.457	19545.6
570.819	19534.3
571.18	19555.77
571.542	19703.34
571.903	19756.44
572.265	19841.19
572.626	19950.34
572.987	20091.35
573.349	20129.99
573.71	20105.36
574.071	20233.95
574.432	20345.81
574.794	20485.46
575.155	20637.32
575.516	20545.35
575.877	20721.16
576.238	20709.41
576.599	20919.8
576.96	21032.79
577.32	21079.12
577.681	21245.44
578.042	21305.1
578.403	21456.06
578.763	21588.71
579.124	21674.59
579.485	21831.19
579.845	21983.28
580.206	22008.59
580.566	22196.15
580.927	22210.84
581.287	22345.08
581.648	22496.94
582.008	22698.74
582.368	22724.5
582.728	23014.44
583.089	23038.62
583.449	23185.51
583.809	23392.05
584.169	23672.27
584.529	23603.57
584.889	23981.42
585.249	23968.99
585.609	24112.04
585.969	24298.25
586.329	24538.46
586.688	24623.66
587.048	24852.81
587.408	25035.63
587.768	25164.89
588.127	25375.96
588.487	25547.93
588.846	25907.24
589.206	25878.32
589.565	26076.73
589.925	26331.64
590.284	26424.74
590.643	26723.27
591.003	26903.15
591.362	27107.44
591.721	27143.37
592.08	27356.47
592.44	27567.99
592.799	27817.47
593.158	27917.59
593.517	28048.43
593.876	28322.77
594.235	28445.71
594.593	28730.9
594.952	28824.91
595.311	28892.25
595.67	29284.33
596.029	29456.98
596.387	29881.83
596.746	29851.09
597.104	29934.71
597.463	30012.67
597.822	30437.07
598.18	30308.71
598.538	30604.97
598.897	30826.89
599.255	30856.26
599.613	31297.84
599.972	31261.9
600.33	31552.97
600.688	31512.97
601.046	31754.32
601.404	31956.12
601.762	32069.11
602.12	32293.06
602.478	32376
602.836	32624.13
603.194	32570.8
603.552	32850.79
603.91	32858.47
604.268	33162.19
604.625	33152.48
604.983	33391.57
605.341	33315.86
605.698	33603.76
606.056	33799.01
606.413	33804.44
606.771	33951.78
607.128	34096.86
607.485	34116.07
607.843	34269.51
608.2	34574.13
608.557	34842.37
608.914	34589.5
609.272	34862.71
609.629	35022.94
609.986	35207.11
610.343	35259.54
610.7	35497.72
611.057	35518.74
611.414	35617.72
611.771	35636.25
612.127	35987.43
612.484	35889.8
612.841	36080.08
613.198	36153.98
613.554	36232.39
613.911	36462.9
614.267	36483.91
614.624	36552.16
614.98	36596
615.337	36857.92
615.693	36754.64
616.05	36819.27
616.406	37114.41
616.762	37052.94
617.118	37118.25
617.475	37153.5
617.831	37367.73
618.187	37264.46
618.543	37246.61
618.899	37734.73
619.255	37699.93
619.611	37595.97
619.967	37823.09
620.323	38008.85
620.678	37860.15
621.034	37838.23
621.39	37925.23
621.746	37941.05
622.101	38303.53
622.457	37976.08
622.812	38185.79
623.168	38351.66
623.523	38407.48
623.879	38376.75
624.234	38353.92
624.589	38389.85
624.945	38378.33
625.3	38616.51
625.655	38613.35
626.01	38718.66
626.365	38751.42
626.72	38765.89
627.075	38724.08
627.43	38831.87
627.785	38705.55
628.14	38842.04
628.495	38823.06
628.85	38725.89
629.205	38834.59
629.559	39050.17
629.914	38944.64
630.269	38891.31
630.623	38849.28
630.978	38775.6
631.332	38853.79
631.687	38951.87
632.041	38814.25
632.396	38846.34
632.75	38745.32
633.104	38980.57
633.459	38648.6
633.813	38711.65
634.167	38751.65
634.521	38743.52
634.875	38777.64
635.229	38807.02
635.583	38608.38
635.937	38557.08
636.291	38563.18
636.645	38790.75
636.999	38465.1
637.352	38737.64
637.706	38472.11
638.06	38674.36
638.413	38544.2
638.767	38510.07
639.121	38521.83
639.474	38326.58
639.828	38343.53
640.181	38482.73
640.534	38524.54
640.888	38350.98
641.241	38297.88
641.594	38302.4
641.947	38546.01
642.301	38438.66
642.654	38353.69
643.007	38331.77
643.36	38210.87
643.713	38208.16
644.066	38334.94
644.419	38077.77
644.771	37827.38
645.124	37544.22
645.477	37595.75
645.83	37405.02
646.182	37226.94
646.535	37003.22
646.888	37198.7
647.24	36976.33
647.593	37071.24
647.945	37102.88
648.298	36905.15
648.65	36925.71
649.002	36679.16
649.355	36875.99
649.707	36849.33
650.059	36984.92
650.411	37538.12
650.763	37449.31
651.115	37871.45
651.467	37622.87
651.819	37693.83
652.171	37675.07
652.523	37631.68
652.875	37561.63
653.227	37405.7
653.578	37608.63
653.93	37580.38
654.282	37308.3
654.633	37469.88
654.985	37421.97
655.337	37458.58
655.688	37372.03
656.039	37482.53
656.391	37156.89
656.742	37357.34
657.094	37191.01
657.445	37490.89
657.796	37302.2
658.147	37327.28
658.498	37349.65
658.849	37513.27
659.2	37258.36
659.551	37226.04
659.902	37217.23
660.253	37334.74
660.604	37307.62
660.955	37051.58
661.306	37118.02
661.656	37256.1
662.007	37309.43
662.358	37070.11
662.708	37142.2
663.059	37065.37
663.409	36934.75
663.76	37217.91
664.11	37072.6
664.461	37181.07
664.811	37057.46
665.161	37015.43
665.511	36924.58
665.862	37000.28
666.212	37125.93
666.562	37067.4
666.912	37121.86
667.262	37079.38
667.612	37091.81
667.962	37083.22
668.312	36831.25
668.662	37111.92
669.011	36908.08
669.361	36938.59
669.711	36904.02
670.06	36948.08
670.41	36887.97
670.76	36827.86
671.109	37007.06
671.459	36923
671.808	36977.46
672.157	36917.8
672.507	36668.77
672.856	36673.06
673.205	36841.64
673.554	36816.79
673.904	36694.3
674.253	36858.14
674.602	36798.03
674.951	36252.51
675.3	36013.87
675.649	36596.23
675.998	36682.78
676.346	36776.56
676.695	36753.96
677.044	36433.52
677.393	36667.41
677.741	36575.89
678.09	36477.59
678.438	36451.6
678.787	36537.47
679.135	36530.69
679.484	36361.43
679.832	36413.18
680.181	36216.58
680.529	36283.92
680.877	36244.6
681.225	36047.09
681.573	36369.11
681.922	36085.96
682.27	36064.72
682.618	36146.07
682.966	36034.66
683.314	36123.02
683.661	35857.49
684.009	35750.15
684.357	35725.06
684.705	35549.02
685.053	35661.11
685.4	35637.83
685.748	35445.52
686.095	35434.68
686.443	35347.22
686.79	35291.85
687.138	35340.21
687.485	35198.07
687.832	35092.76
688.18	35173.44
688.527	35024.97
688.874	34830.62
689.221	34997.62
689.568	34797.18
689.915	34768.7
690.262	34784.3
690.609	34603.06
690.956	34614.58
691.303	34486.9
691.65	34385.21
691.997	34381.14
692.344	34156.07
692.69	34149.51
693.037	34147.25
693.383	33810.99
693.73	34017.99
694.077	33860.25
694.423	33815.96
694.769	33683.54
695.116	33512.24
695.462	33534.16
695.808	33462.07
696.155	33604.89
696.501	33229.76
696.847	33281.74
697.193	33040.84
697.539	33175.53
697.885	32841.98
698.231	32798.81
698.577	32902.54
698.923	32772.82
699.269	32746.61
699.614	32579.61
699.96	32469.56
700.306	32482.44
700.651	32380.74
700.997	32276.79
701.342	32182.56
701.688	32147.76
702.033	32121.99
702.379	32011.26
702.724	31840.42
703.069	31920.64
703.415	31533.99
703.76	31566.53
704.105	31593.87
704.45	31584.61
704.795	31345.52
705.14	31219.42
705.485	31209.02
705.83	31167.67
706.175	31155.69
706.52	31086.09
706.865	30949.37
707.209	30934.45
707.554	30813.1
707.899	30792.09
708.243	30675.25
708.588	30683.61
708.932	30350.97
709.277	30324.75
709.621	30489.72
709.966	30276.17
710.31	30416.73
710.654	30016.96
710.998	30185.77
711.342	30128.83
711.687	30012.67
712.031	29840.47
712.375	29728.84
712.719	29880.47
713.063	29717.99
713.407	29829.4
713.75	29607.71
714.094	29647.48
714.438	29519.12
714.782	29524.32
715.125	29345.12
715.469	29440.93
715.812	29252.69
716.156	29158.68
716.499	29149.87
716.843	29175.86
717.186	28932.93
717.53	29142.86
717.873	29096.76
718.216	29159.36
718.559	28895.41
718.902	28857
719.246	28753.27
719.589	28726.83
719.932	28634.63
720.275	28557.57
720.617	28640.05
720.96	28522.77
721.303	28555.31
721.646	28441.19
721.989	28219.95
722.331	28358.25
722.674	28256.79
723.016	28276.22
723.359	28174.98
723.701	28230.8
724.044	28115.77
724.386	28000.97
724.729	28020.18
725.071	27893.63
725.413	27990.58
725.755	27955.32
726.097	27668.55
726.439	27672.17
726.782	27625.16
727.124	27820.19
727.465	27588.33
727.807	27570.7
728.149	27457.26
728.491	27494.09
728.833	27545.39
729.175	27379.97
729.516	27302.69
729.858	27277.38
730.199	27401.67
730.541	27305.17
730.882	27156.48
731.224	27271.27
731.565	27036.48
731.906	27165.74
732.248	27125.97
732.589	27048
732.93	26953.32
733.271	26998.29
733.612	27069.92
733.953	26930.49
734.294	26954.45
734.635	26753.77
734.976	26819.31
735.317	26655.25
735.658	26702.93
735.999	26587.9
736.339	26507.68
736.68	26675.81
737.021	26629.94
737.361	26367.12
737.702	26569.6
738.042	26301.36
738.383	26385.42
738.723	26299.1
739.063	26322.15
739.404	26389.04
739.744	26378.64
740.084	26200.12
740.424	26241.92
740.764	26128.25
741.104	26253.9
741.444	26100.68
741.784	25986.56
742.124	25970.07
742.464	26078.31
742.804	25913.34
743.143	25880.58
743.483	25791.31
743.823	25700.69
744.162	25731.65
744.502	25765.1
744.841	25679.23
745.181	25714.93
745.52	25643.97
745.86	25611.21
746.199	25569.62
746.538	25526.46
746.877	25624.54
747.216	25543.18
747.556	25456.41
747.895	25479.68
748.234	25358.78
748.573	25284.66
748.911	25283.53
749.25	25211.67
749.589	25081.28
749.928	25170.09
750.267	25245.34
750.605	25006.7
750.944	25019.81
751.283	24885.35
751.621	25020.49
751.96	24865.24
752.298	24821.17
752.636	24694.39
752.975	24620.27
753.313	24603.77
753.651	24733.49
753.989	24527.17
754.327	24570.78
754.666	24472.25
755.004	24436.32
755.342	24554.96
755.679	24350
756.017	24237.91
756.355	24296.66
756.693	24276.1
757.031	24218.93
757.368	24021.42
757.706	24027.52
758.044	23911.59
758.381	23880.18
758.719	23925.37
759.056	23870.23
759.394	23795.89
759.731	23686.96
760.068	23553.86
760.405	23475.44
760.743	23480.87
761.08	23489.68
761.417	23264.83
761.754	23254.43
762.091	23254.88
762.428	23254.88
762.765	22986.42
763.102	23041.33
763.438	22882.01
763.775	22931.05
764.112	22897.15
764.449	22866.64
764.785	22758.17
765.122	22637.5
765.458	22575.58
765.795	22609.7
766.131	22457.16
766.467	22367
766.804	22294.23
767.14	22257.17
767.476	22156.15
767.812	22105.53
768.148	22155.7
768.485	22047.23
768.821	21805.43
769.157	21854.69
769.492	21735.6
769.828	21706.9
770.164	21552.33
770.5	21545.78
770.836	21552.78
771.171	21377.64
771.507	21273.47
771.842	21114.37
772.178	21164.77
772.513	21087.48
772.849	21094.49
773.184	20887.26
773.519	20928.62
773.855	20885
774.19	20789.41
774.525	20632.35
774.86	20673.03
775.195	20550.55
775.53	20520.72
775.865	20426.03
776.2	20158.92
776.535	20154.85
776.87	20144.23
777.205	20146.72
777.539	19853.39
777.874	19984.46
778.209	19891.36
778.543	19815.65
778.878	19703.56
779.212	19650.01
779.547	19526.62
779.881	19568.88
780.215	19420.86
780.55	19449.33
780.884	19372.27
781.218	19257.93
781.552	19299.51
781.886	19271.03
782.22	19019.97
782.554	18953.3
782.888	18766.41
783.222	18803.7
783.556	18739.52
783.889	18768.45
784.223	18589.92
784.557	18488
784.89	18595.12
785.224	18419.08
785.557	18283.26
785.891	18256.37
786.224	18270.83
786.558	18255.24
786.891	18038.07
787.224	17946.55
787.557	18021.57
787.891	17933.44
788.224	17891.86
788.557	17888.02
788.89	17703.62
789.223	17728.7
789.556	17569.38
789.888	17506.33
790.221	17516.05
790.554	17315.83
790.887	17314.25
791.219	17317.64
791.552	17324.64
791.884	17120.58
792.217	17080.36
792.549	17138.89
792.882	16920.13
793.214	16883.75
793.546	16811.21
793.879	16842.4
794.211	16746.13
794.543	16781.61
794.875	16724.43
795.207	16724.21
795.539	16599.24
795.871	16589.07
796.203	16422.75
796.535	16269.3
796.867	16258.91
797.198	16279.47
797.53	16264.11
797.862	16197.89
798.193	16229.53
798.525	16121.96
798.856	16107.27
799.188	15962.65
799.519	15926.71
799.85	15736.89
800.182	15808.98
800.513	15860.28
800.844	15627.06
801.175	15792.93
801.506	15727.62
801.837	15610.56
802.168	15571.47
802.499	15454.64
802.83	15423.9
803.161	15350.23
803.491	15358.59
803.822	15315.2
804.153	15226.85
804.483	15249.22
804.814	15037.47
805.145	15100.07
805.475	15151.82
805.805	14943.91
806.136	15003.57
806.466	14998.15
806.796	14934.65
807.126	14787.08
807.457	14899.85
807.787	14791.83
808.117	14697.82
808.447	14718.38
808.777	14655.11
809.107	14594.55
809.436	14567.65
809.766	14493.98
810.096	14471.84
810.426	14484.72
810.755	14500.08
811.085	14406.53
811.414	14353.87
811.744	14263.03
812.073	14162.47
812.403	14154.33
812.732	14088.8
813.061	14174.9
813.39	14038.18
813.719	14023.94
814.049	14093.77
814.378	14073.66
814.707	13992.08
815.036	13923.6
815.365	13898.52
815.693	13775.13
816.022	13809.93
816.351	13674.8
816.68	13667.11
817.008	13696.94
817.337	13616.49
817.665	13565.42
817.994	13494.91
818.322	13600.22
818.651	13516.16
818.979	13381.02
819.307	13441.81
819.636	13424.41
819.964	13333.56
820.292	13338.08
820.62	13296.73
820.948	13338.08
821.276	13284.75
821.604	13247.69
821.932	13240
822.259	13312.32
822.587	13273
822.915	13246.11
823.243	13343.96
823.57	13229.84
823.898	13251.53
824.225	13280.46
824.553	13232.55
824.88	13261.02
825.207	13237.97
825.535	13202.72
825.862	13197.75
826.189	13169.72
826.516	13216.5
826.843	13376.72
827.17	13223.51
827.497	13271.64
827.824	13259.89
828.151	13376.72
828.478	13215.82
828.805	13294.24
829.131	13194.58
829.458	13138.09
829.785	13146.67
830.111	13132.44
830.438	13281.36
830.764	13193
831.09	13298.53
831.417	13174.47
831.743	13221.25
832.069	13188.25
832.395	13156.62
832.722	13134.92
833.048	13084.75
833.374	13129.05
833.7	13050.63
834.026	13085.21
834.351	13040.46
834.677	13013.8
835.003	13077.3
835.329	12991.65
835.654	13037.98
835.98	13039.56
836.306	13003.4
836.631	12919.34
836.956	12952.1
837.282	12982.84
837.607	12902.61
837.932	12837.76
838.258	12857.19
838.583	12889.73
838.908	12741.94
839.233	12802.73
839.558	12769.96
839.883	12720.92
840.208	12677.99
840.533	12641.38
840.858	12661.49
841.182	12722.28
841.507	12641.38
841.832	12649.29
842.156	12595.05
842.481	12631.89
842.805	12500.59
843.13	12563.41
843.454	12443.42
843.778	12440.03
844.103	12303.53
844.427	12356.86
844.751	12306.02
845.075	12346.24
845.399	12264.89
845.723	12208.62
846.047	12253.59
846.371	12208.17
846.695	12009.08
847.019	12005.24
847.343	12016.76
847.666	11876.88
847.99	11879.14
848.313	11897.89
848.637	11774.51
848.96	11782.19
849.284	11725.92
849.607	11666.04
849.931	11652.93
850.254	11625.36
850.577	11497.9
850.9	11536.32
851.223	11413.84
851.546	11389.66
851.869	11322.32
852.192	11293.39
852.515	11241.87
852.838	11158.7
853.161	11214.52
853.483	11126.61
853.806	11071.47
854.129	11062.89
854.451	11012.72
854.774	11003.23
855.096	10905.38
855.419	10903.57
855.741	10887.07
856.063	10784.93
856.385	10803.01
856.708	10812.72
857.03	10723.69
857.352	10683.69
857.674	10688.43
857.996	10594.88
858.318	10557.82
858.64	10632.62
858.961	10510.13
859.283	10513.3
859.605	10488.21
859.926	10442.11
860.248	10419.74
860.57	10460.64
860.891	10407.76
861.212	10318.05
861.534	10295.22
861.855	10335
862.176	10290.03
862.498	10335.22
862.819	10231.04
863.14	10225.85
863.461	10179.29
863.782	10204.15
864.103	10201.44
864.424	10121.22
864.745	10154.66
865.065	10092.29
865.386	10026.53
865.707	10014.78
866.027	10158.96
866.348	10013.42
866.668	10044.61
866.989	10064.5
867.309	9898.85
867.63	9947.21
867.95	9930.94
868.27	9893.88
868.59	9935.91
868.91	9901.11
869.23	9852.3
869.55	9862.01
869.87	9897.04
870.19	9767.78
870.51	9879.87
870.83	9809.13
871.15	9727.55
871.469	9796.93
871.789	9766.65
872.109	9770.72
872.428	9763.49
872.748	9783.82
873.067	9700.66
873.386	9707.22
873.706	9722.58
874.025	9584.28
874.344	9547.9
874.663	9557.39
874.982	9630.61
875.301	9559.88
875.62	9548.58
875.939	9525.07
876.258	9569.82
876.577	9472.87
876.896	9483.95
877.214	9463.16
877.533	9509.93
877.852	9443.49
878.17	9461.8
878.489	9429.03
878.807	9452.76
879.125	9406.89
879.444	9357.4
879.762	9319.43
880.08	9366.43
880.398	9331.41
880.716	9359.88
881.034	9275.36
881.352	9259.09
881.67	9234.69
881.988	9274.46
882.306	9233.33
882.624	9229.71
882.941	9155.14
883.259	9081.24
883.577	9085.09
883.894	9093.9
884.212	9065.43
884.529	9046.89
884.846	9009.16
885.164	9030.17
885.481	9003.51
885.798	8981.59
886.115	8996.95
886.432	8957.18
886.75	8878.76
887.067	8928.71
887.383	8864.98
887.7	8887.58
888.017	8796.28
888.334	8827.69
888.651	8730.97
888.967	8707.47
889.284	8736.39
889.6	8646
889.917	8655.94
890.233	8593.8
890.55	8590.41
890.866	8675.15
891.182	8575.49
891.498	8540.47
891.815	8563.52
892.131	8455.72
892.447	8453.92
892.763	8437.65
893.079	8404.43
893.395	8414.82
893.71	8341.15
894.026	8359
894.342	8306.58
894.657	8281.04
894.973	8227.48
895.289	8239.91
895.604	8168.5
895.92	8095.73
896.235	8181.38
896.55	8082.85
896.865	8090.99
897.181	8094.83
897.496	8156.07
897.811	8034.72
898.126	8021.61
898.441	8022.06
898.756	7954.49
899.071	7899.81
899.386	7965.12
899.7	7839.92
900.015	7780.26
900.33	7858.45
900.644	7815.06
900.959	7784.78
901.273	7683.09
901.588	7717.66
901.902	7658.91
902.216	7646.93
902.531	7648.51
902.845	7581.4
903.159	7590.44
903.473	7539.82
903.787	7478.8
904.101	7474.73
904.415	7423.89
904.729	7429.08
905.042	7418.92
905.356	7344.57
905.67	7294.4
905.984	7303.44
906.297	7300.05
906.611	7211.69
906.924	7268.64
907.237	7168.07
907.551	7173.5
907.864	7149.09
908.177	7112.03
908.491	7101.41
908.804	7119.94
909.117	7043.33
909.43	6962.43
909.743	6923.79
910.056	6954.75
910.368	6957.68
910.681	6894.64
910.994	6894.18
911.307	6851.92
911.619	6820.96
911.932	6821.64
912.244	6743.45
912.557	6734.19
912.869	6707.75
913.181	6668.43
913.494	6667.3
913.806	6607.64
914.118	6610.8
914.43	6530.12
914.742	6535.1
915.054	6489.22
915.366	6456.91
915.678	6454.19
915.99	6453.97
916.302	6378.26
916.613	6379.39
916.925	6397.47
917.236	6340.75
917.548	6307.76
917.859	6253.75
918.171	6246.97
918.482	6203.13
918.794	6200.19
919.105	6172.85
919.416	6126.75
919.727	6147.54
920.038	6108.67
920.349	6015.56
920.66	6074.54
920.971	6086.29
921.282	6050.14
921.593	6014.88
921.903	5961.33
922.214	5929.24
922.525	5890.82
922.835	5893.98
923.146	5844.27
923.456	5819.64
923.767	5762.46
924.077	5857.83
924.387	5800.2
924.697	5710.94
925.008	5665.51
925.318	5667.32
925.628	5644.72
925.938	5598.4
926.248	5616.93
926.558	5622.13
926.867	5565.86
927.177	5484.05
927.487	5483.82
927.796	5421.91
928.106	5446.31
928.416	5434.79
928.725	5383.94
929.034	5355.92
929.344	5386.65
929.653	5415.35
929.962	5373.77
930.271	5321.12
930.581	5275.24
930.89	5253.55
931.199	5230.95
931.508	5248.12
931.817	5187.34
932.125	5135.13
932.434	5138.07
932.743	5136.26
933.051	5096.94
933.36	5119.31
933.669	5074.12
933.977	5017.17
934.286	5000.45
934.594	5013.78
934.902	4988.02
935.21	4947.34
935.519	4950.28
935.827	4931.3
936.135	4850.17
936.443	4900.79
936.751	4832.54
937.059	4839.1
937.367	4813.33
937.674	4786.22
937.982	4803.62
938.29	4705.77
938.597	4713.68
938.905	4708.48
939.213	4696.95
939.52	4664.64
939.827	4663.51
940.135	4612.44
940.442	4607.01
940.749	4569.5
941.056	4609.95
941.363	4513.91
941.67	4520.23
941.977	4488.6
942.284	4521.14
942.591	4457.41
942.898	4430.52
943.205	4446.11
943.511	4389.62
943.818	4393.68
944.125	4380.58
944.431	4378.77
944.738	4367.92
945.044	4334.7
945.35	4283.86
945.657	4295.61
945.963	4315.04
946.269	4242.73
946.575	4263.97
946.881	4233.91
947.187	4226.46
947.493	4209.06
947.799	4166.35
948.105	4110.08
948.41	4128.15
948.716	4142.84
949.022	4100.13
949.327	4119.11
949.633	4031.21
949.938	4049.51
950.244	4031.43
950.549	4003.64
950.854	3985.79
951.16	3989.4
951.465	3941.04
951.77	3943.98
952.075	3922.51
952.38	3907.59
952.685	3873.02
952.99	3855.62
953.294	3843.87
953.599	3818.33
953.904	3824.43
954.209	3788.05
954.513	3755.51
954.818	3790.31
955.122	3766.58
955.426	3707.37
955.731	3704.21
956.035	3698.79
956.339	3655.85
956.643	3664.89
956.948	3633.25
957.252	3665.34
957.556	3651.33
957.86	3607.49
958.163	3627.6
958.467	3538.57
958.771	3518
959.075	3564.1
959.378	3543.31
959.682	3515.29
959.985	3506.25
960.289	3476.87
960.592	3440.26
960.896	3465.8
961.199	3479.58
961.502	3406.59
961.805	3431.9
962.108	3375.41
962.411	3364.11
962.714	3334.05
963.017	3335.86
963.32	3355.75
963.623	3345.35
963.926	3315.52
964.228	3310.1
964.531	3260.38
964.833	3260.61
965.136	3255.18
965.438	3212.92
965.741	3231.23
966.043	3223.09
966.345	3172.7
966.648	3194.39
966.95	3157.33
967.252	3149.65
967.554	3135.86
967.856	3123.89
968.158	3128.63
968.46	3115.75
968.761	3089.31
969.063	3053.83
969.365	3076.2
969.666	3049.99
969.968	3044.57
970.269	3012.25
970.571	3032.59
970.872	2981.52
971.174	2960.73
971.475	2956.89
971.776	2995.75
972.077	2932.71
972.378	2932.71
972.679	2902.88
972.98	2931.8
973.281	2894.51
973.582	2910.33
973.883	2862.2
974.183	2847.06
974.484	2851.8
974.785	2831.24
975.085	2814.06
975.386	2834.85
975.686	2808.19
975.986	2789.21
976.287	2774.52
976.587	2730.45
976.887	2723.22
977.187	2731.81
977.487	2696.55
977.787	2678.7
978.087	2699.27
978.387	2648.19
978.687	2664.69
978.987	2716.89
979.286	2657.23
979.586	2675.54
979.885	2633.28
980.185	2608.42
980.484	2612.26
980.784	2606.84
981.083	2565.94
981.382	2568.65
981.682	2576.1
981.981	2573.17
982.28	2534.07
982.579	2543.11
982.878	2536.11
983.177	2489.78
983.475	2515.99
983.774	2493.17
984.073	2468.54
984.372	2473.28
984.67	2432.83
984.969	2470.34
985.267	2437.35
985.566	2449.1
985.864	2405.71
986.162	2437.35
986.461	2417.46
986.759	2376.79
987.057	2356.9
987.355	2325.94
987.653	2362.32
987.951	2324.59
988.249	2339.73
988.547	2336.11
988.844	2320.07
989.142	2286.85
989.44	2300.86
989.737	2252.05
990.035	2267.86
990.332	2234.87
990.63	2251.59
990.927	2238.71
991.224	2225.61
991.521	2207.3
991.819	2206.62
992.116	2218.6
992.413	2189.22
992.71	2185.15
993.006	2162.1
993.303	2164.36
993.6	2152.61
993.897	2167.3
994.193	2127.3
994.49	2118.94
994.787	2124.82
995.083	2113.29
995.379	2070.36
995.676	2087.08
995.972	2073.97
996.268	2104.93
996.565	2051.37
996.861	2056.34
997.157	2026.06
997.453	1997.81
997.749	2001.43
998.044	2016.12
998.34	1995.78
998.636	1986.52
998.932	1985.39
999.227	1956.69
999.523	1944.71
999.818	1956.46
1000.114	1943.8
1000.409	1916.01
1000.704	1915.78
1001	1895.22
1001.295	1886.41
1001.59	1906.29
1001.885	1880.3
1002.18	1856.8
1002.475	1833.98
1002.77	1863.13
1003.065	1810.93
1003.359	1808.22
1003.654	1812.06
1003.949	1798.5
1004.243	1805.73
1004.538	1773.41
1004.832	1767.31
1005.127	1767.09
1005.421	1739.52
1005.715	1763.24
1006.009	1701.78
1006.304	1718.27
1006.598	1715.79
1006.892	1730.7
1007.186	1706.97
1007.48	1683.7
1007.773	1655.68
1008.067	1689.8
1008.361	1664.49
1008.655	1638.5
1008.948	1654.55
1009.242	1676.24
1009.535	1636.69
1009.829	1626.98
1010.122	1598.5
1010.415	1597.37
1010.708	1586.98
1011.001	1578.84
1011.295	1569.13
1011.588	1582.01
1011.881	1521.22
1012.173	1531.16
1012.466	1541.33
1012.759	1524.83
1013.052	1506.75
1013.344	1508.56
1013.637	1504.04
1013.93	1472.4
1014.222	1482.35
1014.514	1469.24
1014.807	1478.96
1015.099	1434.44
1015.391	1471.05
1015.683	1463.37
1015.976	1405.06
1016.268	1457.94
1016.56	1423.14
1016.851	1402.35
1017.143	1420.65
1017.435	1408.45
1017.727	1373.2
1018.018	1392.86
1018.31	1338.85
1018.602	1331.39
1018.893	1330.49
1019.185	1348.11
1019.476	1328.23
1019.767	1312.18
1020.058	1329.58
1020.35	1307.44
1020.641	1316.93
1020.932	1322.35
1021.223	1309.47
1021.514	1261.79
1021.804	1259.08
1022.095	1263.37
1022.386	1254.56
1022.677	1238.74
1022.967	1246.42
1023.258	1258.63
1023.548	1202.81
1023.839	1240.32
1024.129	1241.68
1024.419	1212.3
1024.709	1181.79
1025	1209.13
1025.29	1176.37
1025.58	1172.53
1025.87	1146.54
1026.16	1139.53
1026.449	1165.52
1026.739	1137.95
1027.029	1131.85
1027.319	1109.93
1027.608	1106.54
1027.898	1106.76
1028.187	1120.32
1028.477	1099.08
1028.766	1105.41
1029.055	1065.18
1029.344	1066.31
1029.634	1068.8
1029.923	1050.95
1030.212	1032.87
1030.501	1066.31
1030.79	1031.29
1031.078	1064.05
1031.367	1027.22
1031.656	1017.05
1031.945	1020.21
1032.233	1029.7
1032.522	1011.17
1032.81	1009.82
1033.099	976.6
1033.387	998.29
1033.675	1002.81
1033.963	980.89
1034.251	951.06
1034.54	981.57
1034.828	965.98
1035.116	963.49
1035.403	937.73
1035.691	936.15
1035.979	937.73
1036.267	934.79
1036.554	932.31
1036.842	920.33
1037.129	937.96
1037.417	910.61
1037.704	900.89
1037.992	897.73
1038.279	886.21
1038.566	891.4
1038.853	891.4
1039.14	891.4
