Data from hue_250_FLMS001491_00062.txt Node
Date: Tue Feb 07 16:01:18 GMT 2017
User: dcchb
Spectrometer: FLMS00149
Trigger mode: 0
Integration Time (sec): 2.000000E-2
Scans to average: 10
Electric dark correction enabled: true
Nonlinearity correction enabled: false
Boxcar width: 0
XAxis mode: Wavelengths
Number of Pixels in Spectrum: 2048
>>>>>Begin Spectral Data<<<<<
341.393	-18.43
341.776	-18.43
342.16	-18.43
342.543	-69.96
342.927	-59.11
343.31	-59.33
343.693	-75.83
344.077	-67.02
344.46	-60.46
344.843	-48.26
345.226	-33.35
345.61	-24.99
345.993	-38.77
346.376	-8.26
346.759	27.89
347.142	25.63
347.525	39.42
347.908	55.01
348.291	71.06
348.674	79.42
349.057	117.84
349.44	143.82
349.823	124.16
350.206	153.09
350.588	180.43
350.971	190.6
351.354	201
351.737	223.37
352.119	235.35
352.502	239.19
352.884	255.91
353.267	252.97
353.65	286.65
354.032	272.63
354.414	298.62
354.797	297.49
355.179	312.63
355.562	315.12
355.944	325.06
356.326	323.93
356.709	332.75
357.091	324.16
357.473	321.67
357.855	317.6
358.238	325.29
358.62	322.12
359.002	305.85
359.384	338.85
359.766	311.28
360.148	328.45
360.53	307.66
360.912	327.32
361.294	309.02
361.676	335.68
362.057	328.9
362.439	343.37
362.821	310.83
363.203	334.78
363.584	321.9
363.966	333.2
364.348	305.4
364.729	302.24
365.111	308.57
365.493	318.06
365.874	309.47
366.256	310.6
366.637	321.9
367.019	313.54
367.4	318.51
367.781	311.28
368.163	317.15
368.544	310.83
368.925	306.76
369.306	300.2
369.688	318.06
370.069	310.83
370.45	301.11
370.831	299.07
371.212	302.24
371.593	297.72
371.974	300.66
372.355	311.96
372.736	313.08
373.117	314.21
373.498	325.97
373.879	306.31
374.26	317.15
374.641	317.38
375.021	292.97
375.402	323.93
375.783	306.98
376.163	318.28
376.544	316.7
376.925	307.21
377.305	319.41
377.686	323.25
378.066	329.81
378.447	325.29
378.827	310.83
379.208	312.18
379.588	330.71
379.968	334.1
380.349	342.24
380.729	343.59
381.109	337.04
381.489	326.19
381.87	336.14
382.25	315.34
382.63	324.16
383.01	342.46
383.39	355.8
383.77	343.37
384.15	351.05
384.53	357.83
384.91	354.67
385.29	341.78
385.67	348.11
386.049	360.77
386.429	353.31
386.809	361.9
387.189	371.16
387.568	351.95
387.948	362.8
388.328	356.25
388.707	356.25
389.087	375.68
389.466	359.86
389.846	361.22
390.225	386.98
390.605	367.32
390.984	369.81
391.363	384.04
391.743	356.25
392.122	386.08
392.501	362.35
392.881	412.29
393.26	403.03
393.639	373.87
394.018	370.71
394.397	390.6
394.776	383.82
395.155	405.96
395.534	389.02
395.913	371.84
396.292	393.99
396.671	402.57
397.05	390.15
397.429	402.8
397.808	385.4
398.186	411.61
398.565	419.3
398.944	384.27
399.323	412.07
399.701	402.35
400.08	419.97
400.458	416.59
400.837	423.36
401.215	425.17
401.594	442.12
401.972	436.7
402.351	442.35
402.729	436.25
403.107	448.67
403.486	442.8
403.864	455.68
404.242	443.03
404.62	447.09
404.999	446.87
405.377	448.45
405.755	480.99
406.133	492.06
406.511	476.02
406.889	471.05
407.267	490.93
407.645	482.12
408.023	493.19
408.401	490.71
408.779	482.12
409.156	542.01
409.534	504.49
409.912	499.52
410.29	540.2
410.667	528.22
411.045	527.77
411.422	549.69
411.8	550.82
412.178	563.02
412.555	574.55
412.933	568.22
413.31	586.75
413.687	598.73
414.065	586.07
414.442	601.44
414.819	585.17
415.197	607.77
415.574	622.46
415.951	634.21
416.328	665.17
416.705	654.09
417.082	645.28
417.46	650.7
417.837	672.62
418.214	670.82
418.591	697.71
418.967	703.36
419.344	687.54
419.721	692.74
420.098	698.16
420.475	723.47
420.852	706.29
421.228	719.63
421.605	720.08
421.982	767.54
422.358	769.8
422.735	791.94
423.111	770.47
423.488	784.49
423.864	790.59
424.241	798.72
424.617	825.61
424.994	823.35
425.37	858.38
425.746	811.15
426.123	862.68
426.499	843.92
426.875	876.69
427.251	897.93
427.627	895.22
428.003	913.3
428.379	910.36
428.756	950.13
429.132	947.19
429.507	951.94
429.883	954.2
430.259	962.33
430.635	964.82
431.011	985.61
431.387	1004.37
431.763	1026.06
432.138	1014.54
432.514	1050.47
432.89	1053.4
433.265	1091.14
433.641	1080.07
434.016	1085.49
434.392	1102.67
434.767	1139.73
435.143	1154.19
435.518	1172.72
435.894	1166.17
436.269	1209.78
436.644	1242.1
437.02	1207.3
437.395	1224.7
437.77	1278.48
438.145	1285.26
438.52	1278.71
438.895	1298.6
439.271	1310.35
439.646	1362.1
440.021	1325.71
440.395	1365.71
440.77	1359.39
441.145	1430.57
441.52	1431.47
441.895	1409.33
442.27	1427.63
442.645	1440.06
443.019	1454.75
443.394	1468.31
443.769	1493.62
444.143	1484.35
444.518	1503.11
444.892	1510.12
445.267	1505.82
445.641	1520.28
446.016	1538.14
446.39	1596.44
446.764	1540.4
447.139	1566.61
447.513	1603.67
447.887	1600.51
448.262	1583.11
448.636	1613.62
449.01	1644.58
449.384	1647.29
449.758	1638.02
450.132	1691.35
450.506	1683.67
450.88	1690.68
451.254	1686.38
451.628	1742.65
452.002	1732.93
452.376	1771.8
452.75	1767.96
453.123	1774.97
453.497	1801.18
453.871	1835.76
454.244	1880.05
454.618	1873.95
454.992	1864
455.365	1881.41
455.739	1954.62
456.112	1966.37
456.486	1943.55
456.859	2009.31
457.232	1991.01
457.606	2003.89
457.979	2066.71
458.352	2086.82
458.725	2085.92
459.099	2093.6
459.472	2133.6
459.845	2153.71
460.218	2169.53
460.591	2200.04
460.964	2231.23
461.337	2270.55
461.71	2314.84
462.083	2325.69
462.456	2273.03
462.829	2295.86
463.201	2374.73
463.574	2365.01
463.947	2399.13
464.32	2447.94
464.692	2434.84
465.065	2499.69
465.438	2487.27
465.81	2533.82
466.183	2572.91
466.555	2616.3
466.928	2618.79
467.3	2603.42
467.672	2689.75
468.045	2714.38
468.417	2686.81
468.789	2739.24
469.161	2793.7
469.534	2847.03
469.906	2871.66
470.278	2898.78
470.65	2907.14
471.022	2967.93
471.394	3021.49
471.766	3063.07
472.138	3086.12
472.51	3139.68
472.882	3143.52
473.253	3172.9
473.625	3232.78
473.997	3331.31
474.369	3337.19
474.74	3368.15
475.112	3391.42
475.484	3451.76
475.855	3531.31
476.227	3555.26
476.598	3618.99
476.97	3630.74
477.341	3738.31
477.713	3771.3
478.084	3787.34
478.455	3889.71
478.827	3912.99
479.198	4020.11
479.569	4030.28
479.94	4140.78
480.311	4174.45
480.682	4187.56
481.053	4247.9
481.424	4386.2
481.795	4377.16
482.166	4454.22
482.537	4479.98
482.908	4579.41
483.279	4601.33
483.65	4643.14
484.021	4786.19
484.391	4840.2
484.762	4879.74
485.133	4896.02
485.503	4996.8
485.874	5067.31
486.244	5071.15
486.615	5148.66
486.985	5245.61
487.356	5263.46
487.726	5339.39
488.097	5426.62
488.467	5410.13
488.837	5508.43
489.207	5613.28
489.578	5644.7
489.948	5674.98
490.318	5745.94
490.688	5799.27
491.058	5827.74
491.428	5889.21
491.798	5987.06
492.168	6060.05
492.538	6068.19
492.908	6125.14
493.278	6250.56
493.648	6195.64
494.017	6283.1
494.387	6378.24
494.757	6394.28
495.126	6447.39
495.496	6485.8
495.866	6497.78
496.235	6548.18
496.605	6600.6
496.974	6633.82
497.344	6693.48
497.713	6736.87
498.082	6784.55
498.452	6818.45
498.821	6864.78
499.19	6884.21
499.559	6970.09
499.928	7008.73
500.298	6971.44
500.667	7047.82
501.036	6993.36
501.405	7092.34
501.774	7100.7
502.143	7170.08
502.512	7170.53
502.88	7229.74
503.249	7253.69
503.618	7276.97
503.987	7333.92
504.356	7328.04
504.724	7423.86
505.093	7451.43
505.462	7390.64
505.83	7410.53
506.199	7479.68
506.567	7589.96
506.936	7540.92
507.304	7656.39
507.672	7674.47
508.041	7651.88
508.409	7777.3
508.777	7782.72
509.145	7780.01
509.514	7811.87
509.882	7817.97
510.25	7858.2
510.618	7907.91
510.986	7935.71
511.354	8020.9
511.722	8062.71
512.09	8062.71
512.458	8083.5
512.826	8102.26
513.193	8085.08
513.561	8130.05
513.929	8191.52
514.297	8236.27
514.664	8227.45
515.032	8281.46
515.4	8260.45
515.767	8332.31
516.135	8333.89
516.502	8290.5
516.869	8484.4
517.237	8372.76
517.604	8454.57
517.972	8419.99
518.339	8500.44
518.706	8464.06
519.073	8525.07
519.44	8526.2
519.808	8617.27
520.175	8610.72
520.542	8696.82
520.909	8694.11
521.276	8708.57
521.643	8744.5
522.009	8782.69
522.376	8767.78
522.743	8780.43
523.11	8816.36
523.477	8939.52
523.843	8923.93
524.21	9034.66
524.577	9078.73
524.943	9128.45
525.31	9114.66
525.676	9157.6
526.043	9177.71
526.409	9216.58
526.776	9283.7
527.142	9324.15
527.508	9284.6
527.874	9304.49
528.241	9365.28
528.607	9369.34
528.973	9414.31
529.339	9387.42
529.705	9473.3
530.071	9556.23
530.437	9521.88
530.803	9577.25
531.169	9596.68
531.535	9521.88
531.901	9541.99
532.267	9611.82
532.632	9624.48
532.998	9655.44
533.364	9663.35
533.73	9674.42
534.095	9640.75
534.461	9711.03
534.826	9738.83
535.192	9713.52
535.557	9796.9
535.923	9751.93
536.288	9731.14
536.653	9808.65
537.019	9699.5
537.384	9714.87
537.749	9793.51
538.114	9758.71
538.479	9770.24
538.845	9774.08
539.21	9817.69
539.575	9807.98
539.94	9868.54
540.305	9836.22
540.67	9841.87
541.034	9803.91
541.399	9897.01
541.764	9866.51
542.129	9878.26
542.494	9872.38
542.858	9894.98
543.223	9938.59
543.587	9951.25
543.952	9819.73
544.316	9899.27
544.681	9878.94
545.045	9922.32
545.41	9994.64
545.774	9884.58
546.138	9900.18
546.503	9890.01
546.867	9911.48
547.231	10010.23
547.595	9945.6
547.959	9907.41
548.324	10012.72
548.688	9996.9
549.052	10061.53
549.416	9985.37
549.779	9955.54
550.143	9989.89
550.507	10037.35
550.871	9997.35
551.235	10039.16
551.599	10085.26
551.962	10117.35
552.326	10130.23
552.689	10123.9
553.053	10051.59
553.417	10098.59
553.78	10155.76
554.143	10110.34
554.507	10089.33
554.87	10101.08
555.234	10172.03
555.597	10156.44
555.96	10198.47
556.323	10167.97
556.686	10174.75
557.05	10206.61
557.413	10313.95
557.776	10230.79
558.139	10267.4
558.502	10274.86
558.865	10210
559.228	10325.93
559.59	10347.62
559.953	10369.54
560.316	10467.62
560.679	10455.42
561.041	10515.98
561.404	10516.21
561.767	10531.35
562.129	10577.22
562.492	10523.66
562.854	10583.1
563.217	10666.49
563.579	10634.4
563.941	10662.87
564.304	10702.42
564.666	10718.46
565.028	10732.25
565.39	10781.06
565.753	10860.15
566.115	10876.2
566.477	10944.9
566.839	10939.25
567.201	11000.49
567.563	10999.81
567.925	11008.4
568.287	11014.95
568.648	11030.32
569.01	11117.32
569.372	11259.01
569.734	11125.46
570.095	11216.98
570.457	11253.14
570.819	11271.21
571.18	11244.55
571.542	11337.43
571.903	11332.23
572.265	11354.38
572.626	11434.6
572.987	11329.07
573.349	11403.41
573.71	11491.77
574.071	11483.64
574.432	11443.87
574.794	11534.94
575.155	11589.17
575.516	11522.51
575.877	11638.44
576.238	11636.63
576.599	11736.29
576.96	11732.9
577.32	11719.79
577.681	11832.1
578.042	11822.61
578.403	11775.83
578.763	11877.75
579.124	11871.65
579.485	11876.4
579.845	11958.43
580.206	11941.25
580.566	11943.51
580.927	11929.5
581.287	12044.53
581.648	11917.53
582.008	12011.76
582.368	11993.91
582.728	12081.14
583.089	12037.75
583.449	12134.7
583.809	12127.01
584.169	12147.8
584.529	12161.81
584.889	12259.89
585.249	12171.3
585.609	12160.91
585.969	12228.93
586.329	12175.82
586.688	12267.57
587.048	12206.33
587.408	12192.32
587.768	12209.95
588.127	12253.56
588.487	12229.38
588.846	12376.04
589.206	12257.86
589.565	12344.18
589.925	12409.49
590.284	12291.98
590.643	12351.64
591.003	12387.12
591.362	12390.73
591.721	12385.76
592.08	12448.13
592.44	12432.54
592.799	12511.18
593.158	12412.65
593.517	12427.12
593.876	12504.18
594.235	12405.42
594.593	12464.18
594.952	12500.34
595.311	12451.75
595.67	12474.35
596.029	12558.41
596.387	12599.32
596.746	12615.36
597.104	12543.5
597.463	12609.71
597.822	12623.27
598.18	12532.65
598.538	12519.54
598.897	12608.13
599.255	12513.22
599.613	12670.05
599.972	12644.06
600.33	12566.1
600.688	12550.28
601.046	12591.86
601.404	12727.67
601.762	12712.08
602.12	12811.74
602.478	12752.53
602.836	12697.62
603.194	12606.32
603.552	12649.71
603.91	12711.63
604.268	12802.02
604.625	12685.19
604.983	12728.58
605.341	12690.16
605.698	12731.52
606.056	12747.11
606.413	12764.96
606.771	12788.46
607.128	12801.34
607.485	12783.72
607.843	12808.35
608.2	12923.37
608.557	12820.33
608.914	12773.55
609.272	12919.53
609.629	12847.9
609.986	12953.43
610.343	12911.17
610.7	12942.81
611.057	12938.06
611.414	12951.62
611.771	12992.07
612.127	13058.06
612.484	13009.47
612.841	13095.35
613.198	13048.34
613.554	13059.19
613.911	13054.44
614.267	13107.1
614.624	13032.75
614.98	12948.23
615.337	13153.65
615.693	13056.25
616.05	13130.38
616.406	13147.1
616.762	13091.96
617.118	13143.71
617.475	13080.66
617.831	13164.72
618.187	13146.42
618.543	13192.75
618.899	13238.85
619.255	13166.31
619.611	13139.87
619.967	13257.6
620.323	13330.14
620.678	13154.56
621.034	13184.84
621.39	13262.35
621.746	13210.6
622.101	13253.31
622.457	13187.1
622.812	13265.96
623.168	13269.13
623.523	13218.06
623.879	13271.84
624.234	13160.43
624.589	13276.81
624.945	13236.81
625.3	13328.34
625.655	13264.61
626.01	13233.88
626.365	13272.74
626.72	13169.24
627.075	13240.2
627.43	13213.99
627.785	13202.46
628.14	13166.31
628.495	13124.73
628.85	13198.62
629.205	13099.64
629.559	13202.69
629.914	13219.64
630.269	13211.05
630.623	13106.19
630.978	13029.13
631.332	13091.73
631.687	13160.66
632.041	13126.53
632.396	13190.49
632.75	13030.72
633.104	13014.9
633.459	12996.14
633.813	13000.44
634.167	12949.59
634.521	12985.29
634.875	12957.72
635.229	12982.13
635.583	12920.89
635.937	12930.83
636.291	12952.53
636.645	12861.23
636.999	12890.61
637.352	12901.91
637.706	12824.17
638.06	12879.31
638.413	12842.7
638.767	12760.44
639.121	12788.24
639.474	12778.52
639.828	12797.5
640.181	12787.11
640.534	12713.89
640.888	12605.64
641.241	12611.52
641.594	12687.9
641.947	12696.26
642.301	12648.58
642.654	12755.92
643.007	12664.4
643.36	12603.16
643.713	12619.43
644.066	12643.83
644.419	12597.51
644.771	12509.37
645.124	12443.39
645.477	12438.87
645.83	12228.7
646.182	12235.48
646.535	12237.29
646.888	12215.37
647.24	12100.8
647.593	12218.76
647.945	12140.34
648.298	12086.33
648.65	12081.59
649.002	12102.83
649.355	12182.38
649.707	12094.24
650.059	12270.74
650.411	12399.32
650.763	12327.46
651.115	12434.57
651.467	12365.65
651.819	12329.27
652.171	12302.15
652.523	12323.84
652.875	12385.31
653.227	12319.1
653.578	12360.68
653.93	12346.67
654.282	12330.4
654.633	12289.95
654.985	12363.84
655.337	12339.44
655.688	12334.01
656.039	12411.75
656.391	12266.89
656.742	12310.51
657.094	12274.13
657.445	12375.59
657.796	12303.5
658.147	12234.58
658.498	12288.36
658.849	12325.2
659.2	12286.78
659.551	12281.13
659.902	12296.95
660.253	12339.66
660.604	12263.96
660.955	12336.05
661.306	12191.87
661.656	12290.4
662.007	12207.01
662.358	12236.16
662.708	12227.35
663.059	12319.1
663.409	12172.43
663.76	12266.22
664.11	12258.76
664.461	12294.24
664.811	12270.96
665.161	12313
665.511	12322.49
665.862	12236.61
666.212	12211.53
666.562	12280.23
666.912	12284.97
667.262	12208.82
667.612	12251.08
667.962	12303.28
668.312	12233.68
668.662	12275.93
669.011	12298.76
669.361	12269.61
669.711	12243.39
670.06	12235.03
670.41	12171.53
670.76	12154.13
671.109	12234.58
671.459	12225.54
671.808	12162.94
672.157	12112.32
672.507	12175.15
672.856	12076.39
673.205	12267.8
673.554	12197.52
673.904	12070.29
674.253	12181.47
674.602	12134.24
674.951	11925.44
675.3	11873.23
675.649	12121.36
675.998	12080.91
676.346	12103.51
676.695	12104.41
677.044	12054.02
677.393	12018.99
677.741	12120.68
678.09	12066
678.438	11919.79
678.787	12021.25
679.135	12042.72
679.484	11846.57
679.832	11930.18
680.181	11851.54
680.529	11893.57
680.877	11848.6
681.225	11861.03
681.573	12006.56
681.922	11844.08
682.27	11768.15
682.618	11749.39
682.966	11713.46
683.314	11789.17
683.661	11705.78
684.009	11696.06
684.357	11690.19
684.705	11610.64
685.053	11638.44
685.4	11544.88
685.748	11585.78
686.095	11469.63
686.443	11509.63
686.79	11538.78
687.138	11461.27
687.485	11384.21
687.832	11380.36
688.18	11444.09
688.527	11379.23
688.874	11289.07
689.221	11277.32
689.568	11280.48
689.915	11246.81
690.262	11184.21
690.609	11160.26
690.956	11181.73
691.303	11103.99
691.65	11079.13
691.997	11051.33
692.344	11004.56
692.69	10938.57
693.037	10964.78
693.383	10892.24
693.73	10945.8
694.077	10907.61
694.423	10839.36
694.769	10896.08
695.116	10773.15
695.462	10743.32
695.808	10694.28
696.155	10775.63
696.501	10651.34
696.847	10622.42
697.193	10566.15
697.539	10617.67
697.885	10555.53
698.231	10493.16
698.577	10428.53
698.923	10412.03
699.269	10383.55
699.614	10394.4
699.96	10300.62
700.306	10282.09
700.651	10225.37
700.997	10264.69
701.342	10157.35
701.688	10178.36
702.033	10118.02
702.379	10144.69
702.724	10039.61
703.069	10084.35
703.415	9946.5
703.76	9945.6
704.105	9941.53
704.45	9934.53
704.795	9860.63
705.14	9897.24
705.485	9793.06
705.83	9763.01
706.175	9743.12
706.52	9758.94
706.865	9725.04
707.209	9669.45
707.554	9587.64
707.899	9618.38
708.243	9568.89
708.588	9602.56
708.932	9527.76
709.277	9533.63
709.621	9505.39
709.966	9454.09
710.31	9508.78
710.654	9372.06
710.998	9356.24
711.342	9373.64
711.687	9403.47
712.031	9333.64
712.375	9291.38
712.719	9317.14
713.063	9313.98
713.407	9332.96
713.75	9293.19
714.094	9259.97
714.438	9239.86
714.782	9202.34
715.125	9175.22
715.469	9214.09
715.812	9137.94
716.156	9151.72
716.499	9113.08
716.843	9121.89
717.186	9121.89
717.53	9048.67
717.873	9164.38
718.216	9090.26
718.559	9087.77
718.902	9036.02
719.246	8962.58
719.589	8983.59
719.932	8916.7
720.275	8909.92
720.617	8900.2
720.96	8844.39
721.303	8858.85
721.646	8869.92
721.989	8813.65
722.331	8871.05
722.674	8893.42
723.016	8847.1
723.359	8777.27
723.701	8845.29
724.044	8837.38
724.386	8733.88
724.729	8806.87
725.071	8834.67
725.413	8809.13
725.755	8726.88
726.097	8736.59
726.439	8714.67
726.782	8674.22
727.124	8749.25
727.465	8709.25
727.807	8698.18
728.149	8712.64
728.491	8680.77
728.833	8663.6
729.175	8650.49
729.516	8632.41
729.858	8650.94
730.199	8618.86
730.541	8633.32
730.882	8669.25
731.224	8692.75
731.565	8547.67
731.906	8580.89
732.248	8615.69
732.589	8569.14
732.93	8582.92
733.271	8481.91
733.612	8548.35
733.953	8597.16
734.294	8563.04
734.635	8504.96
734.976	8534.79
735.317	8541.57
735.658	8528.01
735.999	8561.46
736.339	8548.12
736.68	8554
737.021	8493.21
737.361	8418.18
737.702	8578.18
738.042	8452.08
738.383	8526.88
738.723	8517.84
739.063	8535.47
739.404	8572.53
739.744	8510.16
740.084	8491.18
740.424	8607.78
740.764	8587.67
741.104	8608.46
741.444	8449.14
741.784	8493.43
742.124	8530.72
742.464	8484.17
742.804	8522.36
743.143	8508.58
743.483	8555.13
743.823	8546.31
744.162	8465.41
744.502	8624.28
744.841	8631.28
745.181	8718.51
745.52	8626.09
745.86	8690.94
746.199	8670.61
746.538	8656.14
746.877	8698.85
747.216	8749.47
747.556	8704.73
747.895	8708.34
748.234	8850.04
748.573	8833.31
748.911	8859.3
749.25	8934.1
749.589	8881.45
749.928	8966.19
750.267	9035.57
750.605	9058.17
750.944	9130.03
751.283	9140.42
751.621	9211.16
751.96	9269.23
752.298	9272.4
752.636	9467.19
752.975	9427.87
753.313	9418.38
753.651	9560.75
753.989	9578.15
754.327	9651.37
754.666	9687.53
755.004	9828.09
755.342	9859.95
755.679	9848.88
756.017	9996.67
756.355	10138.36
756.693	10120.74
757.031	10307.62
757.368	10316.66
757.706	10421.97
758.044	10491.35
758.381	10652.47
758.719	10697.44
759.056	10862.64
759.394	10885.91
759.731	10947.38
760.068	11068.28
760.405	11068.96
760.743	11214.95
761.08	11344.21
761.417	11411.78
761.754	11556.41
762.091	11602.05
762.428	11690.41
762.765	11725.89
763.102	11943.97
763.438	11931.76
763.775	12047.01
764.112	12190.51
764.449	12291.53
764.785	12359.55
765.122	12442.71
765.458	12535.81
765.795	12606.55
766.131	12746.43
766.467	12766.32
766.804	12806.09
767.14	12850.61
767.476	12900.32
767.812	12978.06
768.148	13141.67
768.485	13111.62
768.821	13167.21
769.157	13262.58
769.492	13262.58
769.828	13360.65
770.164	13395.23
770.5	13445.62
770.836	13484.26
771.171	13551.38
771.507	13597.48
771.842	13542.12
772.178	13637.25
772.513	13638.84
772.849	13716.35
773.184	13728.1
773.519	13847.19
773.855	13792.5
774.19	13870.92
774.525	13897.59
774.86	13859.62
775.195	13904.82
775.53	13985.49
775.865	13907.53
776.2	13874.99
776.535	13880.86
776.87	13845.38
777.205	13991.37
777.539	13964.03
777.874	14002.22
778.209	13903.46
778.543	13992.5
778.878	13948.88
779.212	13997.24
779.547	13971.03
779.881	13950.92
780.215	13934.2
780.55	13932.61
780.884	13967.87
781.218	13943.69
781.552	13956.57
781.886	13859.17
782.22	13846.06
782.554	13822.33
782.888	13723.13
783.222	13786.18
783.556	13715.22
783.889	13756.12
784.223	13659.4
784.557	13715.44
784.89	13654.2
785.224	13719.74
785.557	13627.76
785.891	13612.62
786.224	13671.83
786.558	13644.03
786.891	13508.9
787.224	13478.16
787.557	13429.35
787.891	13419.18
788.224	13465.96
788.557	13515.9
788.89	13419.63
789.223	13450.59
789.556	13336.02
789.888	13405.62
790.221	13323.82
790.554	13254.89
790.887	13301.67
791.219	13234.33
791.552	13123.37
791.884	13146.87
792.217	13186.19
792.549	13079.98
792.882	13016.93
793.214	12979.42
793.546	13065.74
793.879	12944.17
794.211	12923.6
794.543	12891.51
794.875	12940.55
795.207	13014.9
795.539	12843.38
795.871	12848.12
796.203	12812.19
796.535	12688.8
796.867	12776.49
797.198	12654.91
797.53	12708.01
797.862	12545.31
798.193	12624.17
798.525	12502.14
798.856	12569.03
799.188	12510.5
799.519	12415.14
799.85	12405.42
800.182	12380.79
800.513	12436.38
800.844	12262.83
801.175	12306.44
801.506	12318.42
801.837	12237.07
802.168	12259.89
802.499	12125.66
802.83	12146.67
803.161	12104.64
803.491	12056.28
803.822	12155.94
804.153	12078.88
804.483	11944.87
804.814	11916.17
805.145	11952.78
805.475	11895.15
805.805	11833.91
806.136	11843.4
806.466	11841.6
806.796	11729.51
807.126	11710.3
807.457	11731.09
807.787	11725.21
808.117	11664.42
808.447	11560.92
808.777	11646.12
809.107	11627.14
809.436	11519.57
809.766	11626.46
810.096	11494.71
810.426	11441.61
810.755	11528.84
811.085	11479.12
811.414	11480.7
811.744	11387.37
812.073	11383.3
812.403	11352.34
812.732	11313.93
813.061	11327.48
813.39	11246.13
813.719	11269.41
814.049	11303.08
814.378	11212.91
814.707	11145.12
815.036	11208.84
815.365	11240.48
815.693	11064.67
816.022	11054.95
816.351	11105.34
816.68	11041.62
817.008	11052.46
817.337	10956.87
817.665	10919.13
817.994	10939.7
818.322	10982.86
818.651	10842.3
818.979	10882.3
819.307	10933.82
819.636	10805.92
819.964	10771.79
820.292	10846.37
820.62	10811.34
820.948	10800.27
821.276	10766.6
821.604	10741.06
821.932	10782.87
822.259	10781.74
822.587	10758.46
822.915	10720.49
823.243	10740.16
823.57	10725.01
823.898	10710.55
824.225	10735.64
824.553	10670.55
824.88	10764.34
825.207	10752.81
825.535	10874.39
825.862	10824
826.189	10772.92
826.516	10811.11
826.843	10809.76
827.17	10789.87
827.497	10779.93
827.824	10852.92
828.151	10817.22
828.478	10780.38
828.805	10815.18
829.131	10757.78
829.458	10766.82
829.785	10818.35
830.111	10769.76
830.438	10754.84
830.764	10803.66
831.09	10757.1
831.417	10722.3
831.743	10730.66
832.069	10802.3
832.395	10640.05
832.722	10791
833.048	10729.08
833.374	10802.53
833.7	10607.5
834.026	10652.02
834.351	10691.34
834.677	10682.08
835.003	10699.93
835.329	10652.93
835.654	10606.6
835.98	10598.24
836.306	10656.09
836.631	10572.25
836.956	10581.74
837.282	10596.88
837.607	10534.51
837.932	10509.65
838.258	10494.51
838.583	10562.76
838.908	10481.18
839.233	10493.16
839.558	10407.73
839.883	10421.97
840.208	10418.13
840.533	10455.87
840.858	10419.49
841.182	10331.58
841.507	10306.49
841.832	10358.02
842.156	10242.32
842.481	10246.84
842.805	10315.08
843.13	10209.32
843.454	10238.25
843.778	10214.29
844.103	10241.64
844.427	10126.61
844.751	10091.58
845.075	10144.92
845.399	10045.94
845.723	10014.3
846.047	10100.4
846.371	9993.73
846.695	9925.04
847.019	9887.97
847.343	9863.57
847.666	9774.76
847.99	9739.5
848.313	9767.98
848.637	9598.94
848.96	9666.06
849.284	9591.26
849.607	9486.63
849.931	9558.04
850.254	9510.13
850.577	9475.33
850.9	9372.28
851.223	9383.81
851.546	9336.58
851.869	9280.76
852.192	9306.75
852.515	9270.82
852.838	9232.62
853.161	9209.8
853.483	9160.99
853.806	9187.2
854.129	9078.5
854.451	9104.27
854.774	9054.32
855.096	9029.01
855.419	9013.65
855.741	9092.97
856.063	8867.66
856.385	8967.77
856.708	8895.23
857.03	8869.24
857.352	8858.17
857.674	8810.49
857.996	8792.41
858.318	8744.28
858.64	8818.62
858.961	8686.42
859.283	8687.33
859.605	8624.5
859.926	8643.94
860.248	8636.26
860.57	8582.25
860.891	8608.23
861.212	8549.03
861.534	8568.46
861.855	8556.94
862.176	8531.85
862.498	8504.73
862.819	8483.94
863.14	8466.09
863.461	8495.69
863.782	8440.1
864.103	8406.66
864.424	8392.19
864.745	8432.87
865.065	8325.08
865.386	8328.24
865.707	8349.94
866.027	8326.66
866.348	8347.68
866.668	8325.76
866.989	8287.56
867.309	8259.54
867.63	8244.4
867.95	8223.39
868.27	8175.03
868.59	8237.17
868.91	8241.69
869.23	8156.04
869.55	8157.85
869.87	8230.84
870.19	8110.17
870.51	8183.61
870.83	8151.97
871.15	8160.34
871.469	8115.82
871.789	8119.89
872.109	8059.1
872.428	8105.2
872.748	8067.23
873.067	8043.73
873.386	8059.32
873.706	8027.01
874.025	7957.4
874.344	7985.65
874.663	8024.52
874.982	7987.91
875.301	7968.93
875.62	7966.22
875.939	7874.24
876.258	7963.96
876.577	7847.58
876.896	7931.42
877.214	7910.4
877.533	7803.96
877.852	7921.25
878.17	7886.22
878.489	7895.71
878.807	7821.14
879.125	7816.16
879.444	7801.48
879.762	7792.44
880.08	7706.34
880.398	7749.5
880.716	7750.18
881.034	7701.82
881.352	7690.52
881.67	7668.6
881.988	7697.98
882.306	7624.53
882.624	7704.08
882.941	7567.81
883.259	7553.12
883.577	7591.76
883.894	7524.87
884.212	7514.03
884.529	7533.91
884.846	7526.68
885.164	7469.73
885.481	7458.66
885.798	7446.23
886.115	7404.42
886.432	7379.34
886.75	7417.76
887.067	7383.63
887.383	7403.97
887.7	7374.37
888.017	7309.96
888.334	7327.82
888.651	7299.79
888.967	7299.34
889.284	7259.79
889.6	7267.25
889.917	7223.64
890.233	7187.48
890.55	7179.12
890.866	7166.24
891.182	7137.99
891.498	7147.26
891.815	7085.34
892.131	7066.35
892.447	7101.83
892.763	7037.88
893.079	7001.95
893.395	6986.58
893.71	7004.89
894.026	6956.07
894.342	6980.71
894.657	6868.84
894.973	6904.1
895.289	6867.26
895.604	6822.29
895.92	6757.44
896.235	6799.47
896.55	6782.97
896.865	6780.03
897.181	6688.51
897.496	6754.95
897.811	6712.01
898.126	6683.76
898.441	6639.02
898.756	6633.82
899.071	6556.76
899.386	6625.01
899.7	6508.63
900.015	6513.37
900.33	6437.67
900.644	6476.99
900.959	6483.54
901.273	6407.39
901.588	6433.15
901.902	6354.96
902.216	6385.24
902.531	6408.74
902.845	6333.04
903.159	6286.71
903.473	6194.96
903.787	6234.74
904.101	6236.32
904.415	6205.36
904.729	6201.52
905.042	6121.97
905.356	6116.1
905.67	6128.07
905.984	6097.79
906.297	6113.61
906.611	6104.57
906.924	6007.85
907.237	6025.25
907.551	6020.96
907.864	5973.5
908.177	5969.43
908.491	5880.85
908.804	5926.72
909.117	5926.95
909.43	5835.65
909.743	5831.36
910.056	5794.97
910.368	5831.13
910.681	5741.42
910.994	5759.95
911.307	5728.08
911.619	5710.68
911.932	5722.21
912.244	5649.22
912.557	5651.93
912.869	5578.71
913.181	5605.38
913.494	5566.73
913.806	5522.89
914.118	5541.2
914.43	5487.64
914.742	5479.5
915.054	5446.74
915.366	5451.48
915.678	5431.37
915.99	5368.32
916.302	5333.97
916.613	5334.42
916.925	5300.07
917.236	5292.84
917.548	5266.63
917.859	5250.58
918.171	5234.09
918.482	5222.79
918.794	5187.76
919.105	5196.8
919.416	5104.37
919.727	5152.96
920.038	5112.51
920.349	5075.22
920.66	5070.25
920.971	5093.98
921.282	5042
921.593	5020.31
921.903	4995.9
922.214	4949.35
922.525	4950.03
922.835	4944.6
923.146	4886.52
923.456	4900.31
923.767	4854.43
924.077	4922.68
924.387	4795.23
924.697	4788.22
925.008	4824.15
925.318	4758.17
925.628	4753.65
925.938	4774.21
926.248	4725.17
926.558	4740.99
926.867	4637.27
927.177	4705.96
927.487	4625.74
927.796	4583.26
928.106	4612.41
928.416	4579.87
928.725	4561.11
929.034	4584.61
929.344	4531.96
929.653	4525.63
929.962	4501.9
930.271	4435.91
930.581	4435.69
930.89	4470.72
931.199	4450.15
931.508	4399.53
931.817	4414.67
932.125	4357.72
932.434	4418.97
932.743	4367.44
933.051	4310.27
933.36	4338.29
933.669	4311.17
933.977	4258.97
934.286	4265.98
934.594	4249.03
934.902	4192.31
935.21	4177.62
935.519	4190.5
935.827	4158.18
936.135	4167.45
936.443	4081.35
936.751	4143.94
937.059	4112.08
937.367	4078.41
937.674	4051.74
937.982	4057.85
938.29	4034.57
938.597	4014.23
938.905	3959.32
939.213	3988.47
939.52	3891.97
939.827	3941.46
940.135	3929.49
940.442	3909.6
940.749	3887.91
941.056	3904.85
941.363	3883.39
941.67	3828.7
941.977	3820.11
942.284	3833.22
942.591	3801.58
942.898	3813.78
943.205	3802.48
943.511	3737.85
943.818	3759.1
944.125	3720.23
944.431	3696.95
944.738	3717.74
945.044	3688.36
945.35	3636.39
945.657	3604.3
945.963	3628.25
946.269	3586.9
946.575	3631.64
946.881	3566.11
947.187	3565.88
947.493	3579.21
947.799	3535.83
948.105	3552.32
948.41	3511.19
948.716	3506.9
949.022	3466.45
949.327	3472.78
949.633	3471.42
949.938	3459.67
950.244	3444.75
950.549	3429.84
950.854	3390.52
951.16	3395.26
951.465	3360.91
951.77	3354.59
952.075	3321.37
952.38	3344.87
952.685	3336.73
952.99	3286.79
953.294	3298.54
953.599	3284.53
953.904	3234.82
954.209	3231.43
954.513	3237.3
954.818	3209.28
955.122	3234.36
955.426	3174.93
955.731	3169.51
956.035	3169.96
956.339	3163.41
956.643	3137.87
956.948	3148.72
957.252	3095.38
957.556	3125.21
957.86	3053.13
958.163	3078.89
958.467	3073.92
958.771	3013.35
959.075	3058.55
959.378	3044.09
959.682	3035.05
959.985	3022.84
960.289	2991.21
960.592	2991.88
960.896	2956.41
961.199	2965.44
961.502	2938.78
961.805	2929.29
962.108	2920.93
962.411	2868.95
962.714	2893.58
963.017	2875.5
963.32	2889.74
963.623	2854.04
963.926	2849.29
964.228	2829.18
964.531	2831.66
964.833	2799.57
965.136	2784.66
965.438	2744.66
965.741	2778.1
966.043	2750.99
966.345	2772.68
966.648	2732.91
966.95	2713.93
967.252	2727.26
967.554	2709.86
967.856	2709.86
968.158	2690.65
968.46	2661.05
968.761	2623.31
969.063	2659.01
969.365	2608.17
969.666	2633.7
969.968	2640.71
970.269	2592.57
970.571	2604.55
970.872	2578.34
971.174	2576.75
971.475	2543.08
971.776	2536.08
972.077	2538.34
972.378	2521.61
972.679	2538.34
972.98	2534.95
973.281	2498.34
973.582	2528.62
973.883	2513.93
974.183	2481.62
974.484	2451.79
974.785	2449.98
975.085	2430.09
975.386	2457.89
975.686	2412.92
975.986	2416.98
976.287	2394.39
976.587	2370.66
976.887	2379.7
977.187	2345.35
977.487	2356.87
977.787	2333.82
978.087	2336.08
978.387	2332.69
978.687	2334.27
978.987	2285.69
979.286	2306.7
979.586	2308.74
979.885	2273.03
980.185	2268.51
980.484	2252.24
980.784	2216.76
981.083	2244.79
981.382	2236.42
981.682	2240.27
981.981	2163.21
982.28	2198.69
982.579	2182.41
982.878	2171.34
983.177	2177.22
983.475	2143.32
983.774	2146.03
984.073	2186.71
984.372	2129.31
984.67	2139.7
984.969	2135.64
985.267	2126.82
985.566	2087.28
985.864	2096.77
986.162	2045.69
986.461	2065.81
986.759	2058.8
987.057	2083.89
987.355	2024
987.653	2041.63
987.951	2029.2
988.249	2022.42
988.547	2034.85
988.844	1988.3
989.142	1992.14
989.44	1977.22
989.737	1962.53
990.035	1966.15
990.332	1960.5
990.63	1958.69
990.927	1935.64
991.224	1937.45
991.521	1927.96
991.819	1936.32
992.116	1896.32
992.413	1907.62
992.71	1875.76
993.006	1872.14
993.303	1877.79
993.6	1864.46
993.897	1863.55
994.193	1859.71
994.49	1825.36
994.787	1842.31
995.083	1822.2
995.379	1818.36
995.676	1793.72
995.972	1819.26
996.268	1772.93
996.565	1803.44
996.861	1774.29
997.157	1741.07
997.453	1794.4
997.749	1744.46
998.044	1710.56
998.34	1739.26
998.636	1734.52
998.932	1706.04
999.227	1696.55
999.523	1716.66
999.818	1696.1
1000.114	1660.39
1000.409	1646.84
1000.704	1664.91
1001	1669.21
1001.295	1665.82
1001.59	1644.58
1001.885	1642.09
1002.18	1620.4
1002.475	1607.29
1002.77	1601.41
1003.065	1566.61
1003.359	1585.59
1003.654	1585.59
1003.949	1571.81
1004.243	1585.82
1004.538	1560.74
1004.832	1570.91
1005.127	1532.94
1005.421	1528.42
1005.715	1521.41
1006.009	1512.38
1006.304	1539.27
1006.598	1500.4
1006.892	1477.57
1007.186	1485.48
1007.48	1469.44
1007.773	1478.25
1008.067	1475.09
1008.361	1461.08
1008.655	1435.54
1008.948	1468.99
1009.242	1441.19
1009.535	1427.63
1009.829	1416.33
1010.122	1387.86
1010.415	1374.53
1010.708	1389.44
1011.001	1372.49
1011.295	1364.36
1011.588	1365.71
1011.881	1369.55
1012.173	1363.23
1012.466	1323
1012.759	1329.1
1013.052	1346.5
1013.344	1337.69
1013.637	1307.41
1013.93	1287.75
1014.222	1299.05
1014.514	1282.1
1014.807	1283.23
1015.099	1277.81
1015.391	1256.56
1015.683	1242.78
1015.976	1243.91
1016.268	1243
1016.56	1259.05
1016.851	1239.84
1017.143	1220.41
1017.435	1206.62
1017.727	1225.83
1018.018	1232.61
1018.31	1200.52
1018.602	1210.46
1018.893	1194.64
1019.185	1155.32
1019.476	1180.41
1019.767	1195.1
1020.058	1173.18
1020.35	1178.15
1020.641	1156.23
1020.932	1158.71
1021.223	1152.84
1021.514	1122.1
1021.804	1109.22
1022.095	1107.41
1022.386	1094.53
1022.677	1118.04
1022.967	1102.22
1023.258	1087.3
1023.548	1080.97
1023.839	1075.55
1024.129	1079.62
1024.419	1077.36
1024.709	1028.77
1025	1059.73
1025.29	1041.65
1025.58	1051.14
1025.87	1036
1026.16	996
1026.449	1031.94
1026.739	1010.02
1027.029	987.87
1027.319	1003.24
1027.608	994.2
1027.898	973.63
1028.187	976.34
1028.477	960.98
1028.766	979.73
1029.055	965.95
1029.344	946.51
1029.634	944.03
1029.923	939.96
1030.212	951.71
1030.501	947.64
1030.79	944.48
1031.078	942.45
1031.367	925.05
1031.656	909.23
1031.945	919.85
1032.233	887.76
1032.522	921.43
1032.81	894.54
1033.099	891.37
1033.387	895.67
1033.675	862.9
1033.963	868.55
1034.251	859.29
1034.54	887.31
1034.828	843.01
1035.116	862
1035.403	839.62
1035.691	836.01
1035.979	819.74
1036.267	827.65
1036.554	824.03
1036.842	837.82
1037.129	804.37
1037.417	800.53
1037.704	812.05
1037.992	817.93
1038.279	806.18
1038.566	767.08
1038.853	767.08
1039.14	767.08
