Data from hue_120_FLMS001491_00077.txt Node
Date: Tue Feb 07 16:59:58 GMT 2017
User: dcchb
Spectrometer: FLMS00149
Trigger mode: 0
Integration Time (sec): 2.000000E-2
Scans to average: 10
Electric dark correction enabled: true
Nonlinearity correction enabled: false
Boxcar width: 0
XAxis mode: Wavelengths
Number of Pixels in Spectrum: 2048
>>>>>Begin Spectral Data<<<<<
341.393	-23.81
341.776	-23.81
342.16	-23.81
342.543	-54.55
342.927	-42.12
343.31	-43.25
343.693	-84.15
344.077	-69.24
344.46	-51.83
344.843	-46.41
345.226	-45.73
345.61	-19.07
345.993	-7.77
346.376	-10.25
346.759	5.56
347.142	33.59
347.525	19.12
347.908	56.41
348.291	71.1
348.674	86.01
349.057	105.9
349.44	138.22
349.823	157.43
350.206	174.37
350.588	190.42
350.971	207.82
351.354	237.65
351.737	245.33
352.119	274.48
352.502	249.85
352.884	279.68
353.267	284.43
353.65	302.73
354.032	305.22
354.414	314.26
354.797	328.72
355.179	323.3
355.562	313.81
355.944	332.56
356.326	334.6
356.709	342.51
357.091	340.7
357.473	326.91
357.855	359.91
358.238	349.28
358.62	325.1
359.002	344.09
359.384	351.32
359.766	364.2
360.148	350.87
360.53	337.76
360.912	355.16
361.294	341.15
361.676	324.43
362.057	349.74
362.439	324.2
362.821	340.25
363.203	319.23
363.584	325.78
363.966	314.94
364.348	327.36
364.729	321.26
365.111	316.97
365.493	319
365.874	329.4
366.256	330.53
366.637	328.04
367.019	312.68
367.4	324.43
367.781	304.77
368.163	307.03
368.544	306.35
368.925	333.47
369.306	307.25
369.688	311.55
370.069	303.86
370.45	307.7
370.831	328.27
371.212	318.1
371.593	317.87
371.974	316.52
372.355	320.81
372.736	314.03
373.117	297.76
373.498	340.47
373.879	321.94
374.26	319.91
374.641	326.23
375.021	311.32
375.402	309.96
375.783	334.14
376.163	343.18
376.544	342.28
376.925	328.04
377.305	324.2
377.686	313.35
378.066	331.88
378.447	358.55
378.827	323.97
379.208	329.85
379.588	354.93
379.968	336.86
380.349	352.9
380.729	332.11
381.109	335.5
381.489	339.12
381.87	331.43
382.25	350.41
382.63	329.4
383.01	348.15
383.39	354.48
383.77	360.58
384.15	348.15
384.53	382.96
384.91	365.33
385.29	363.97
385.67	360.13
386.049	359.68
386.429	355.84
386.809	355.16
387.189	358.1
387.568	381.15
387.948	375.95
388.328	382.5
388.707	347.48
389.087	380.24
389.466	367.82
389.846	367.59
390.225	364.43
390.605	357.87
390.984	363.52
391.363	385.44
391.743	388.15
392.122	390.87
392.501	371.88
392.881	408.94
393.26	377.53
393.639	389.06
394.018	390.19
394.397	399.23
394.776	403.52
395.155	404.42
395.534	406.01
395.913	379.57
396.292	391.32
396.671	410.75
397.05	417.76
397.429	411.43
397.808	415.5
398.186	426.8
398.565	411.2
398.944	392.67
399.323	413.01
399.701	413.69
400.08	413.01
400.458	417.31
400.837	417.08
401.215	431.99
401.594	415.05
401.972	449.62
402.351	431.32
402.729	423.86
403.107	456.85
403.486	449.85
403.864	437.87
404.242	421.6
404.62	449.17
404.999	467.93
405.377	459.34
405.755	456.63
406.133	440.81
406.511	455.04
406.889	450.75
407.267	467.47
407.645	464.76
408.023	465.67
408.401	450.98
408.779	481.48
409.156	467.47
409.534	499.34
409.912	492.56
410.29	479.45
410.667	468.83
411.045	496.85
411.422	494.37
411.8	515.16
412.178	499.79
412.555	500.69
412.933	503.18
413.31	515.83
413.687	517.19
414.065	527.13
414.442	530.52
414.819	520.35
415.197	532.33
415.574	522.84
415.951	508.15
416.328	519.22
416.705	549.73
417.082	528.26
417.46	542.73
417.837	550.86
418.214	554.7
418.591	547.92
418.967	553.8
419.344	570.07
419.721	575.72
420.098	556.51
420.475	566
420.852	583.4
421.228	588.6
421.605	589.05
421.982	579.56
422.358	588.83
422.735	593.57
423.111	584.31
423.488	611.65
423.864	607.81
424.241	624.53
424.617	629.96
424.994	619.33
425.37	618.43
425.746	629.96
426.123	653.68
426.499	638.77
426.875	627.92
427.251	630.63
427.627	671.54
428.003	690.74
428.379	690.07
428.756	667.02
429.132	676.06
429.507	686
429.883	684.64
430.259	688.94
430.635	701.59
431.011	727.58
431.387	703.85
431.763	707.47
432.138	710.18
432.514	720.8
432.89	729.16
433.265	743.62
433.641	758.54
434.016	754.25
434.392	789.05
434.767	786.79
435.143	783.85
435.518	793.57
435.894	784.75
436.269	808.48
436.644	807.8
437.02	843.28
437.395	823.62
437.77	806.22
438.145	842.83
438.52	839.89
438.895	853.45
439.271	846.9
439.646	861.36
440.021	880.8
440.395	874.69
440.77	903.17
441.145	898.87
441.52	877.63
441.895	895.03
442.27	885.54
442.645	895.48
443.019	916.73
443.394	908.14
443.769	927.8
444.143	938.42
444.518	940.23
444.892	947.01
445.267	950.17
445.641	935.71
446.016	948.36
446.39	974.35
446.764	991.08
447.139	984.07
447.513	997.4
447.887	984.07
448.262	998.99
448.636	995.37
449.01	1012.09
449.384	1027.68
449.758	1017.06
450.132	1028.59
450.506	1029.27
450.88	1051.41
451.254	1059.77
451.628	1069.72
452.002	1081.69
452.376	1083.73
452.75	1100
453.123	1083.95
453.497	1103.16
453.871	1119.43
454.244	1138.42
454.618	1147.68
454.992	1189.71
455.365	1181.35
455.739	1202.6
456.112	1192.88
456.486	1212.99
456.859	1260.67
457.232	1266.32
457.606	1290.95
457.979	1260.9
458.352	1270.16
458.725	1285.08
459.099	1311.97
459.472	1332.31
459.845	1371.4
460.218	1368.92
460.591	1394.23
460.964	1377.51
461.337	1413.66
461.71	1438.07
462.083	1451.63
462.456	1461.35
462.829	1492.53
463.201	1464.51
463.574	1490.95
463.947	1529.59
464.32	1552.87
464.692	1572.3
465.065	1606.43
465.438	1593.32
465.81	1637.61
466.183	1677.84
466.555	1685.07
466.928	1702.47
467.3	1732.3
467.672	1792.18
468.045	1808.68
468.417	1809.13
468.789	1823.6
469.161	1863.14
469.534	1905.85
469.906	1944.72
470.278	1985.4
470.65	2018.17
471.022	2041.67
471.394	2078.73
471.766	2133.42
472.138	2135.9
472.51	2188.11
472.882	2232.17
473.253	2271.49
473.625	2350.36
473.997	2390.13
474.369	2429.68
474.74	2466.74
475.112	2516.23
475.484	2581.77
475.855	2612.28
476.227	2677.81
476.598	2783.57
476.97	2803.68
477.341	2923.45
477.713	2956.67
478.084	3014.98
478.455	3135.43
478.827	3184.24
479.198	3269.21
479.569	3356.89
479.94	3458.36
480.311	3513.72
480.682	3608.86
481.053	3753.26
481.424	3872.36
481.795	3945.12
482.166	4024.89
482.537	4140.37
482.908	4280.71
483.279	4329.29
483.65	4480.02
484.021	4600.47
484.391	4666.23
484.762	4772.9
485.133	4879.56
485.503	4978.99
485.874	5163.62
486.244	5228.48
486.615	5437.06
486.985	5558.87
487.356	5717.96
487.726	5877.27
488.097	5985.52
488.467	6092.41
488.837	6296.02
489.207	6418.5
489.578	6528.78
489.948	6695.33
490.318	6852.16
490.688	6931.71
491.058	7124.93
491.428	7282.66
491.798	7454.41
492.168	7571.47
492.538	7803.33
492.908	7896.66
493.278	8049.2
493.648	8190.89
494.017	8347.49
494.387	8468.39
494.757	8596.07
495.126	8737.99
495.496	8873.35
495.866	8945.67
496.235	9124.65
496.605	9235.15
496.974	9349.05
497.344	9523.28
497.713	9626.55
498.082	9757.62
498.452	9965.98
498.821	9951.52
499.19	10055.02
499.559	10187.9
499.928	10351.06
500.298	10444.39
500.667	10593.08
501.036	10654.78
501.405	10829.46
501.774	10867.2
502.143	10989.23
502.512	11121.66
502.88	11187.19
503.249	11353.74
503.618	11365.49
503.987	11413.17
504.356	11592.15
504.724	11577.24
505.093	11715.99
505.462	11815.2
505.83	11894.29
506.199	11988.3
506.567	12167.05
506.936	12152.36
507.304	12324.56
507.672	12418.57
508.041	12433.94
508.409	12555.29
508.777	12617.66
509.145	12759.35
509.514	12749.41
509.882	12790.31
510.25	12862.85
510.618	12953.92
510.986	12974.04
511.354	13103.53
511.722	13208.38
512.09	13237.53
512.458	13314.14
512.826	13456.51
513.193	13511.42
513.561	13509.84
513.929	13634.13
514.297	13721.81
514.664	13759.33
515.032	13761.36
515.4	13863.51
515.767	13978.98
516.135	13915.93
516.502	13861.02
516.869	14146.66
517.237	14108.92
517.604	14070.28
517.972	14207.9
518.339	14244.06
518.706	14200.45
519.073	14226.66
519.44	14322.02
519.808	14433.89
520.175	14341.23
520.542	14550.04
520.909	14665.74
521.276	14594.79
521.643	14594.33
522.009	14704.16
522.376	14760.43
522.743	14749.81
523.11	14815.57
523.477	15020.76
523.843	15091.95
524.21	15106.86
524.577	15176.24
524.943	15167.43
525.31	15205.84
525.676	15245.62
526.043	15292.85
526.409	15313.41
526.776	15449.9
527.142	15397.7
527.508	15380.53
527.874	15446.51
528.241	15481.77
528.607	15420.75
528.973	15503.69
529.339	15541.65
529.705	15616.68
530.071	15627.53
530.437	15659.84
530.803	15809.22
531.169	15703.23
531.535	15618.94
531.901	15640.18
532.267	15718.15
532.632	15665.94
532.998	15658.26
533.364	15641.54
533.73	15626.4
534.095	15810.8
534.461	15654.64
534.826	15728.32
535.192	15703.01
535.557	15668.88
535.923	15700.52
536.288	15643.35
536.653	15748.65
537.019	15609.22
537.384	15689.22
537.749	15626.4
538.114	15577.36
538.479	15564.03
538.845	15527.19
539.21	15553.18
539.575	15475.89
539.94	15533.07
540.305	15507.3
540.67	15464.37
541.034	15480.64
541.399	15458.72
541.764	15484.93
542.129	15364.26
542.494	15343.24
542.858	15334.43
543.223	15342.56
543.587	15330.36
543.952	15197.93
544.316	15242
544.681	15278.84
545.045	15100.08
545.41	15283.81
545.774	15178.5
546.138	15099.86
546.503	15091.5
546.867	15026.19
547.231	15176.24
547.595	15072.51
547.959	15047.66
548.324	15012.18
548.688	15036.58
549.052	14997.49
549.416	14916.81
549.779	14867.55
550.143	14888.79
550.507	14901.9
550.871	14870.03
551.235	14785.06
551.599	14890.15
551.962	14809.47
552.326	14806.08
552.689	14795.01
553.053	14690.83
553.417	14752.3
553.78	14784.16
554.143	14674.56
554.507	14597.72
554.87	14682.47
555.234	14778.74
555.597	14634.56
555.96	14606.31
556.323	14655.35
556.686	14608.12
557.05	14696.48
557.413	14652.19
557.776	14605.63
558.139	14656.03
558.502	14572.19
558.865	14563.83
559.228	14661.45
559.59	14598.85
559.953	14627.33
560.316	14770.37
560.679	14587.33
561.041	14720.66
561.404	14696.03
561.767	14744.84
562.129	14641.34
562.492	14861.45
562.854	14685.63
563.217	14688.12
563.579	14744.61
563.941	14821.9
564.304	14888.56
564.666	14882.46
565.028	14846.3
565.39	14938.73
565.753	14875.68
566.115	14884.72
566.477	14912.97
566.839	14919.97
567.201	14988.9
567.563	14971.27
567.925	15012.63
568.287	15034.55
568.648	14946.64
569.01	15096.24
569.372	15059.18
569.734	15026.19
570.095	15155.45
570.457	15181.44
570.819	15139.86
571.18	15148.22
571.542	15204.71
571.903	15184.37
572.265	15222.34
572.626	15260.53
572.987	15237.93
573.349	15232.51
573.71	15305.73
574.071	15293.98
574.432	15325.61
574.794	15390.7
575.155	15386.86
575.516	15355.9
575.877	15416.91
576.238	15403.8
576.599	15436.57
576.96	15440.87
577.32	15475.89
577.681	15440.87
578.042	15430.02
578.403	15557.7
578.763	15430.24
579.124	15504.14
579.485	15605.61
579.845	15541.43
580.206	15505.5
580.566	15465.5
580.927	15440.64
581.287	15507.53
581.648	15407.87
582.008	15547.53
582.368	15395.22
582.728	15460.3
583.089	15483.12
583.449	15432.28
583.809	15484.71
584.169	15477.7
584.529	15494.88
584.889	15523.57
585.249	15498.94
585.609	15368.32
585.969	15405.16
586.329	15430.47
586.688	15430.7
587.048	15346.4
587.408	15264.15
587.768	15338.72
588.127	15341.88
588.487	15329.68
588.846	15425.5
589.206	15180.76
589.565	15342.56
589.925	15357.93
590.284	15351.6
590.643	15291.26
591.003	15400.87
591.362	15308.89
591.721	15381.21
592.08	15359.96
592.44	15234.54
592.799	15323.35
593.158	15307.54
593.517	15295.78
593.876	15299.85
594.235	15277.48
594.593	15245.62
594.952	15256.92
595.311	15219.85
595.67	15318.16
596.029	15327.87
596.387	15387.08
596.746	15313.41
597.104	15246.29
597.463	15253.07
597.822	15341.66
598.18	15314.31
598.538	15232.28
598.897	15330.59
599.255	15191.61
599.613	15364.48
599.972	15267.99
600.33	15332.62
600.688	15243.81
601.046	15347.76
601.404	15312.73
601.762	15219.85
602.12	15255.33
602.478	15277.25
602.836	15246.52
603.194	15233.19
603.552	15249.91
603.91	15185.5
604.268	15293.52
604.625	15253.07
604.983	15275.22
605.341	15192.06
605.698	15275.22
606.056	15370.58
606.413	15412.84
606.771	15391.37
607.128	15338.95
607.485	15243.13
607.843	15324.03
608.2	15355.9
608.557	15365.39
608.914	15415.78
609.272	15441.77
609.629	15429.11
609.986	15525.16
610.343	15416.69
610.7	15474.31
611.057	15522.22
611.414	15479.06
611.771	15510.92
612.127	15493.97
612.484	15581.88
612.841	15478.15
613.198	15455.1
613.554	15551.6
613.911	15547.08
614.267	15594.31
614.624	15511.37
614.98	15543.01
615.337	15708.65
615.693	15708.43
616.05	15591.14
616.406	15719.95
616.762	15613.97
617.118	15647.87
617.475	15619.39
617.831	15711.59
618.187	15766.96
618.543	15653.74
618.899	15916.11
619.255	15751.82
619.611	15787.07
619.967	15790.46
620.323	15886.28
620.678	15763.34
621.034	15750.46
621.39	15754.98
621.746	15708.2
622.101	15949.33
622.457	15806.51
622.812	15783.46
623.168	15848.54
623.523	15804.7
623.879	15833.4
624.234	15822.32
624.589	15805.6
624.945	15730.35
625.3	15841.53
625.655	15753.63
626.01	15779.16
626.365	15805.15
626.72	15799.95
627.075	15746.17
627.43	15787.52
627.785	15772.61
628.14	15842.44
628.495	15823.45
628.85	15746.62
629.205	15758.82
629.559	15754.98
629.914	15691.71
630.269	15703.91
630.623	15719.05
630.978	15724.25
631.332	15771.7
631.687	15746.17
632.041	15692.16
632.396	15659.62
632.75	15594.99
633.104	15674.76
633.459	15599.05
633.813	15552.5
634.167	15537.81
634.521	15597.92
634.875	15502.78
635.229	15458.94
635.583	15441.54
635.937	15475.67
636.291	15443.35
636.645	15493.97
636.999	15403.35
637.352	15417.59
637.706	15336.69
638.06	15390.02
638.413	15406.74
638.767	15300.76
639.121	15404.26
639.474	15284.94
639.828	15232.51
640.181	15220.31
640.534	15230.02
640.888	15226.41
641.241	15168.78
641.594	15198.16
641.947	15227.54
642.301	15205.17
642.654	15275.45
643.007	15178.05
643.36	15136.24
643.713	15131.72
644.066	15185.73
644.419	15075.23
644.771	15040.42
645.124	14855.57
645.477	14828.45
645.83	14755.46
646.182	14622.36
646.535	14664.16
646.888	14622.58
647.24	14519.53
647.593	14597.05
647.945	14651.28
648.298	14537.16
648.65	14450.83
649.002	14592.53
649.355	14561.57
649.707	14622.13
650.059	14609.93
650.411	14809.92
650.763	14815.57
651.115	15037.49
651.467	14911.61
651.819	14875.91
652.171	14934.66
652.523	14850.6
652.875	14863.48
653.227	14840.65
653.578	14879.75
653.93	14883.59
654.282	14915
654.633	14820.77
654.985	14935.79
655.337	14823.71
655.688	14849.02
656.039	15016.02
656.391	14896.47
656.742	14848.34
657.094	14807.21
657.445	14918.85
657.796	14912.29
658.147	14877.49
658.498	14866.42
658.849	14912.97
659.2	14876.81
659.551	14871.61
659.902	14842.24
660.253	14943.25
660.604	14906.87
660.955	14857.83
661.306	14943.48
661.656	14958.84
662.007	14897.38
662.358	14913.65
662.708	14946.19
663.059	14794.1
663.409	14858.06
663.76	14894.21
664.11	14990.71
664.461	14915.46
664.811	14915.68
665.161	14854.44
665.511	14943.03
665.862	14931.73
666.212	14932.86
666.562	14960.65
666.912	14971.05
667.262	14918.62
667.612	15017.6
667.962	14973.08
668.312	14929.24
668.662	14920.88
669.011	14924.04
669.361	14865.06
669.711	14913.65
670.06	14880.43
670.41	14922.91
670.76	14916.36
671.109	14881.78
671.459	14854.67
671.808	14844.72
672.157	14933.76
672.507	14835.91
672.856	14829.13
673.205	14751.17
673.554	14880.65
673.904	14656.93
674.253	14819.41
674.602	14804.5
674.951	14542.13
675.3	14490.38
675.649	14646.08
675.998	14724.27
676.346	14775.57
676.695	14708
677.044	14595.69
677.393	14722.69
677.741	14667.78
678.09	14583.94
678.438	14579.42
678.787	14630.94
679.135	14581.68
679.484	14461.68
679.832	14593.43
680.181	14477.5
680.529	14411.51
680.877	14520.21
681.225	14423.04
681.573	14473.21
681.922	14363.83
682.27	14298.52
682.618	14347.56
682.966	14385.98
683.314	14317.05
683.661	14325.87
684.009	14222.82
684.357	14195.25
684.705	14200.9
685.053	14150.5
685.4	14211.97
685.748	14024.41
686.095	13999.1
686.443	14061.69
686.79	13922.71
687.138	13976.72
687.485	13989.6
687.832	13980.34
688.18	13896.5
688.527	13908.7
688.874	13880.45
689.221	13804.52
689.568	13854.47
689.915	13720.01
690.262	13756.84
690.609	13659.22
690.956	13656.96
691.303	13574.25
691.65	13518.2
691.997	13546.45
692.344	13439.34
692.69	13489.73
693.037	13388.04
693.383	13296.97
693.73	13316.18
694.077	13244.09
694.423	13173.81
694.769	13166.8
695.116	13163.18
695.462	13063.3
695.808	13068.72
696.155	13092
696.501	12970.42
696.847	12919.12
697.193	12798.67
697.539	12904.43
697.885	12733.37
698.231	12715.97
698.577	12656.53
698.923	12677.1
699.269	12531.11
699.614	12527.72
699.96	12525.01
700.306	12504.45
700.651	12458.12
700.997	12426.26
701.342	12339.93
701.688	12399.36
702.033	12333.83
702.379	12167.96
702.724	12216.09
703.069	12268.75
703.415	12028.53
703.76	12078.47
704.105	12035.53
704.45	12066.94
704.795	12010.9
705.14	11951.69
705.485	11904.24
705.83	11802.54
706.175	11824.46
706.52	11669.44
706.865	11758.25
707.209	11741.53
707.554	11541.08
707.899	11631.7
708.243	11554.41
708.588	11563.23
708.932	11534.98
709.277	11574.3
709.621	11584.02
709.966	11382.89
710.31	11476.45
710.654	11335.21
710.998	11310.13
711.342	11415.89
711.687	11355.1
712.031	11347.41
712.375	11236.46
712.719	11288.43
713.063	11224.93
713.407	11282.78
713.75	11130.24
714.094	11175.44
714.438	11136.8
714.782	11085.5
715.125	11069.91
715.469	11134.09
715.812	11144.03
716.156	10927.99
716.499	10909.91
716.843	11039.17
717.186	10888.67
717.53	11013.64
717.873	10939.51
718.216	10886.18
718.559	10893.19
718.902	10810.03
719.246	10851.16
719.589	10853.64
719.932	10811.83
720.275	10800.31
720.617	10815.45
720.96	10786.3
721.303	10765.28
721.646	10799.86
721.989	10682.57
722.331	10748.11
722.674	10691.39
723.016	10679.41
723.359	10739.75
723.701	10689.8
724.044	10660.88
724.386	10635.57
724.729	10635.12
725.071	10606.87
725.413	10581.11
725.755	10633.99
726.097	10496.59
726.439	10486.65
726.782	10545.85
727.124	10595.57
727.465	10489.58
727.807	10544.95
728.149	10462.24
728.491	10408
728.833	10507.44
729.175	10499.75
729.516	10522.35
729.858	10529.81
730.199	10456.59
730.541	10486.42
730.882	10444.16
731.224	10569.81
731.565	10383.82
731.906	10424.73
732.248	10411.39
732.589	10357.83
732.93	10359.19
733.271	10446.42
733.612	10432.18
733.953	10453.43
734.294	10309.7
734.635	10393.31
734.976	10399.42
735.317	10383.37
735.658	10317.38
735.999	10348.8
736.339	10361.22
736.68	10408.68
737.021	10302.92
737.361	10372.3
737.702	10399.87
738.042	10349.7
738.383	10297.72
738.723	10374.56
739.063	10342.69
739.404	10366.2
739.744	10385.4
740.084	10324.39
740.424	10428.12
740.764	10357.38
741.104	10424.27
741.444	10424.73
741.784	10495.23
742.124	10496.81
742.464	10463.59
742.804	10422.24
743.143	10488.23
743.483	10543.82
743.823	10399.19
744.162	10636.92
744.502	10586.53
744.841	10654.32
745.181	10672.85
745.52	10617.72
745.86	10647.77
746.199	10746.75
746.538	10723.48
746.877	10783.59
747.216	10944.26
747.556	10843.25
747.895	10993.98
748.234	10990.36
748.573	10998.95
748.911	11051.15
749.25	11168.89
749.589	11224.7
749.928	11264.7
750.267	11366.62
750.605	11396.68
750.944	11462.44
751.283	11509.67
751.621	11647.52
751.96	11675.31
752.298	11751.24
752.636	11859.26
752.975	11937.68
753.313	12040.5
753.651	12302.19
753.989	12248.18
754.327	12322.98
754.666	12466.93
755.004	12612.46
755.342	12670.99
755.679	12885.9
756.017	12878.45
756.355	13093.58
756.693	13216.29
757.031	13427.13
757.368	13456.06
757.706	13664.41
758.044	13733.57
758.381	13857.86
758.719	14080.22
759.056	14337.17
759.394	14343.04
759.731	14467.11
760.068	14651.96
760.405	14729.7
760.743	14922.46
761.08	15140.76
761.417	15279.51
761.754	15458.94
762.091	15602.89
762.428	15723.8
762.765	15832.27
763.102	15971.47
763.438	16196.78
763.775	16232.26
764.112	16514.74
764.449	16764.67
764.785	16785.91
765.122	16910.43
765.458	17087.83
765.795	17227.03
766.131	17340.93
766.467	17526.46
766.804	17540.92
767.14	17762.61
767.476	17864.53
767.812	17944.08
768.148	18121.25
768.485	18255.93
768.821	18329.15
769.157	18443.72
769.492	18589.48
769.828	18783.6
770.164	18582.93
770.5	18803.26
770.836	18915.8
771.171	18969.81
771.507	19094.1
771.842	19124.16
772.178	19270.82
772.513	19222.69
772.849	19373.87
773.184	19429.46
773.519	19454.09
773.855	19475.34
774.19	19560.3
774.525	19692.05
774.86	19754.88
775.195	19869.22
775.53	19797.59
775.865	19809.11
776.2	19886.85
776.535	19798.49
776.87	19835.33
777.205	19878.04
777.539	19875.55
777.874	19970.01
778.209	19879.39
778.543	20021.54
778.878	19965.72
779.212	20010.24
779.547	19972.72
779.881	20076.9
780.215	19982.44
780.55	20167.52
780.884	20045.49
781.218	20106.28
781.552	20104.92
781.886	19998.26
782.22	19970.24
782.554	19996.45
782.888	20042.55
783.222	19937.02
783.556	19921.65
783.889	19811.37
784.223	19758.04
784.557	19851.82
784.89	19837.36
785.224	19737.7
785.557	19775.21
785.891	19647.76
786.224	19804.37
786.558	19814.31
786.891	19663.58
787.224	19696.57
787.557	19655.67
787.891	19588.55
788.224	19582.45
788.557	19702.9
788.89	19566.18
789.223	19568.89
789.556	19426.3
789.888	19419.97
790.221	19413.19
790.554	19256.58
790.887	19312.63
791.219	19202.8
791.552	19192.63
791.884	19169.35
792.217	19153.99
792.549	19172.29
792.882	18998.96
793.214	18909.02
793.546	18932.52
793.879	18878.74
794.211	18746.09
794.543	18952.41
794.875	18802.13
795.207	18986.08
795.539	18716.03
795.871	18814.11
796.203	18600.33
796.535	18600.56
796.867	18654.34
797.198	18668.12
797.53	18588.13
797.862	18443.05
798.193	18458.86
798.525	18379.77
798.856	18374.8
799.188	18288.7
799.519	18191.08
799.85	18047.35
800.182	18093
800.513	18225.42
800.844	17997.41
801.175	18075.37
801.506	18054.36
801.837	17872.89
802.168	17963.06
802.499	17877.41
802.83	17811.88
803.161	17755.61
803.491	17736.62
803.822	17612.79
804.153	17607.36
804.483	17566.91
804.814	17527.82
805.145	17482.17
805.475	17312
805.805	17426.35
806.136	17326.92
806.466	17367.82
806.796	17318.56
807.126	17192.91
807.457	17153.36
807.787	17205.34
808.117	17138.67
808.447	17049.86
808.777	17084.89
809.107	16994.95
809.436	16900.04
809.766	17015.29
810.096	16871.34
810.426	16895.74
810.755	16918.57
811.085	16815.07
811.414	16770.1
811.744	16575.07
812.073	16661.17
812.403	16625.01
812.732	16613.72
813.061	16560.61
813.39	16503.66
813.719	16381.63
814.049	16611.23
814.378	16425.02
814.707	16377.11
815.036	16468.86
815.365	16289.66
815.693	16202.43
816.022	16213.95
816.351	16270.22
816.68	16109.55
817.008	16163.11
817.337	16057.57
817.665	15956.33
817.994	16046.5
818.322	15992.94
818.651	15895.99
818.979	15945.26
819.307	15948.2
819.636	15905.49
819.964	15757.92
820.292	15839.27
820.62	15880.85
820.948	15885.83
821.276	15903.68
821.604	15823.68
821.932	15806.51
822.259	15915.43
822.587	15763.79
822.915	15832.49
823.243	15826.39
823.57	15833.62
823.898	15782.78
824.225	15754.76
824.553	15767.86
824.88	15830.91
825.207	15835.88
825.535	15711.59
825.862	15757.92
826.189	15677.7
826.516	15831.36
826.843	15905.03
827.17	15785.49
827.497	15795.66
827.824	15794.08
828.151	15839.5
828.478	15832.49
828.805	15878.59
829.131	15719.05
829.458	15719.28
829.785	15699.16
830.111	15766.96
830.438	15857.13
830.764	15818.48
831.09	15796.11
831.417	15665.27
831.743	15774.64
832.069	15728.54
832.395	15671.14
832.722	15689.22
833.048	15633.63
833.374	15643.35
833.7	15596.79
834.026	15689.67
834.351	15693.74
834.677	15645.15
835.003	15680.63
835.329	15615.55
835.654	15609.67
835.98	15493.29
836.306	15587.08
836.631	15641.31
836.956	15597.25
837.282	15561.09
837.607	15420.07
837.932	15369.91
838.258	15524.7
838.583	15435.22
838.908	15352.73
839.233	15471.37
839.558	15396.57
839.883	15265.95
840.208	15247.42
840.533	15186.18
840.858	15215.56
841.182	15250.14
841.507	15218.27
841.832	15164.71
842.156	15090.59
842.481	15094.66
842.805	15032.97
843.13	15089.91
843.454	15006.53
843.778	14969.01
844.103	14856.93
844.427	14912.29
844.751	14925.85
845.075	14783.26
845.399	14735.57
845.723	14722.01
846.047	14747.1
846.371	14639.53
846.695	14578.74
847.019	14436.6
847.343	14391.18
847.666	14341.46
847.99	14259.65
848.313	14254.46
848.637	14200.22
848.96	14192.31
849.284	14174.01
849.607	14046.33
849.931	14066.21
850.254	14048.13
850.577	13892.43
850.9	13725.43
851.223	13733.11
851.546	13703.28
851.869	13595.26
852.192	13619.9
852.515	13579.22
852.838	13484.31
853.161	13520.46
853.483	13423.52
853.806	13401.14
854.129	13313.92
854.451	13296.51
854.774	13218.1
855.096	13255.39
855.419	13108.05
855.741	13113.47
856.063	13051.32
856.385	13089.29
856.708	12967.94
857.03	12977.2
857.352	12975.62
857.674	12930.87
857.996	12842.52
858.318	12787.83
858.64	12723.42
858.961	12771.1
859.283	12680.49
859.605	12644.33
859.926	12616.76
860.248	12627.83
860.57	12497.44
860.891	12513.94
861.212	12419.02
861.534	12424.45
861.855	12430.32
862.176	12430.55
862.498	12430.77
862.819	12432.36
863.14	12311.23
863.461	12281.4
863.782	12284.79
864.103	12217.9
864.424	12290.44
864.745	12315.07
865.065	12224.68
865.386	12132.7
865.707	12109.43
866.027	12164.57
866.348	12158.47
866.668	12094.06
866.989	12093.83
867.309	12053.16
867.63	12004.12
867.95	12079.37
868.27	11937.68
868.59	11955.53
868.91	11975.65
869.23	11951.92
869.55	11809.32
869.87	11930.67
870.19	11864.01
870.51	11884.12
870.83	11765.71
871.15	11734.97
871.469	11854.52
871.789	11840.51
872.109	11808.42
872.428	11642.55
872.748	11739.72
873.067	11776.78
873.386	11680.51
873.706	11715.31
874.025	11626.95
874.344	11560.74
874.663	11578.82
874.982	11558.93
875.301	11532.49
875.62	11503.57
875.939	11535.66
876.258	11541.98
876.577	11508.09
876.896	11484.13
877.214	11395.55
877.533	11396.9
877.852	11481.2
878.17	11354.87
878.489	11420.41
878.807	11327.3
879.125	11340.86
879.444	11389.9
879.762	11253.86
880.08	11233.07
880.398	11223.57
880.716	11249.34
881.034	11166.85
881.352	11226.74
881.67	11100.64
881.988	11072.39
882.306	11123.46
882.624	11015.44
882.941	10958.5
883.259	10969.57
883.577	10926.63
883.894	10954.66
884.212	10926.63
884.529	10908.55
884.846	10879.4
885.164	10871.04
885.481	10851.16
885.798	10864.94
886.115	10747.2
886.432	10755.11
886.75	10720.76
887.067	10789.01
887.383	10648.67
887.7	10731.84
888.017	10702.68
888.334	10741.78
888.651	10615.23
888.967	10568.22
889.284	10503.37
889.6	10564.84
889.917	10396.93
890.233	10400.77
890.55	10383.6
890.866	10417.49
891.182	10393.77
891.498	10360.32
891.815	10346.99
892.131	10262.7
892.447	10213.88
892.763	10180.44
893.079	10179.99
893.395	10116.49
893.71	10123.94
894.026	10112.42
894.342	10115.13
894.657	9961.91
894.973	9945.87
895.289	9991.06
895.604	9947.68
895.92	9856.15
896.235	9887.34
896.55	9903.61
896.865	9824.74
897.181	9794.01
897.496	9824.74
897.811	9620.68
898.126	9683.5
898.441	9600.79
898.756	9617.74
899.071	9553.56
899.386	9493
899.7	9499.1
900.015	9435.15
900.33	9411.87
900.644	9368.26
900.959	9408.71
901.273	9366.9
901.588	9233.8
901.902	9230.18
902.216	9244.64
902.531	9245.1
902.845	9151.09
903.159	9091.43
903.473	9054.82
903.787	9025.44
904.101	8993.35
904.415	9007.81
904.729	8922.84
905.042	8917.42
905.356	8888.95
905.67	8818.89
905.984	8784.09
906.297	8792.68
906.611	8711.32
906.924	8699.35
907.237	8646.24
907.551	8623.19
907.864	8610.99
908.177	8595.62
908.491	8597.88
908.804	8480.14
909.117	8434.27
909.43	8365.8
909.743	8384.33
910.056	8362.18
910.368	8257.33
910.681	8251.45
910.994	8207.61
911.307	8192.69
911.619	8139.81
911.932	8164.22
912.244	8055.3
912.557	8078.8
912.869	8018.69
913.181	7985.69
913.494	7980.27
913.806	7928.52
914.118	7949.54
914.43	7808.52
914.742	7823.66
915.054	7851.91
915.366	7816.66
915.678	7744.57
915.99	7775.08
916.302	7693.95
916.613	7669.32
916.925	7645.59
917.236	7626.83
917.548	7484.46
917.859	7534.63
918.171	7507.06
918.482	7466.39
918.794	7418.03
919.105	7419.38
919.416	7311.36
919.727	7414.41
920.038	7327.63
920.349	7275.66
920.66	7266.84
920.971	7251.7
921.282	7282.89
921.593	7151.82
921.903	7151.37
922.214	7098.94
922.525	7107.07
922.835	7084.93
923.146	7021.88
923.456	6988.88
923.767	6972.61
924.077	6924.25
924.387	6923.58
924.697	6911.6
925.008	6861.2
925.318	6811.49
925.628	6795.67
925.938	6734.2
926.248	6739.17
926.558	6694.43
926.867	6634.77
927.177	6611.27
927.487	6692.39
927.796	6583.7
928.106	6549.35
928.416	6553.19
928.725	6534.43
929.034	6469.8
929.344	6483.81
929.653	6426.41
929.962	6433.42
930.271	6384.61
930.581	6348.9
930.89	6324.27
931.199	6302.8
931.508	6326.53
931.817	6269.81
932.125	6291.28
932.434	6237.27
932.743	6150.71
933.051	6145.74
933.36	6154.78
933.669	6086.99
933.977	6053.99
934.286	6075.91
934.594	6083.37
934.902	6031.4
935.21	5968.12
935.519	5950.95
935.827	5915.69
936.135	5917.27
936.443	5828.46
936.751	5871.17
937.059	5829.14
937.367	5802.93
937.674	5812.87
937.982	5720.89
938.29	5710.73
938.597	5728.8
938.905	5665.08
939.213	5630.73
939.52	5599.99
939.827	5659.88
940.135	5574.68
940.442	5565.42
940.749	5550.96
941.056	5550.28
941.363	5487.23
941.67	5477.74
941.977	5451.75
942.284	5424.41
942.591	5390.51
942.898	5360
943.205	5395.48
943.511	5331.07
943.818	5277.06
944.125	5256.5
944.431	5236.39
944.738	5215.82
945.044	5186.22
945.35	5169.95
945.657	5161.14
945.963	5119.33
946.269	5155.49
946.575	5075.26
946.881	5067.35
947.187	5074.81
947.493	5024.42
947.799	4997.3
948.105	4976.96
948.41	4965.21
948.716	4995.04
949.022	4940.8
949.327	4920.92
949.633	4862.16
949.938	4875.27
950.244	4829.84
950.549	4808.15
950.854	4788.72
951.16	4824.42
951.465	4771.99
951.77	4730.86
952.075	4768.6
952.38	4695.39
952.685	4655.61
952.99	4620.36
953.294	4678.21
953.599	4576.97
953.904	4585.78
954.209	4564.99
954.513	4526.35
954.818	4512.11
955.122	4562.06
955.426	4509.18
955.731	4513.69
956.035	4434.6
956.339	4445.9
956.643	4424.21
956.948	4407.71
957.252	4350.31
957.556	4392.34
957.86	4353.7
958.163	4361.38
958.467	4323.87
958.771	4276.64
959.075	4286.13
959.378	4242.29
959.682	4273.7
959.985	4235.74
960.289	4198.22
960.592	4195.74
960.896	4142.86
961.199	4139.02
961.502	4092.91
961.805	4087.27
962.108	4096.08
962.411	4053.37
962.714	4081.62
963.017	4036.42
963.32	4009.75
963.623	3982.86
963.926	3991.9
964.228	3982.41
964.531	3953.03
964.833	3959.81
965.136	3898.34
965.438	3900.6
965.741	3867.16
966.043	3837.78
966.345	3852.7
966.648	3816.54
966.95	3802.53
967.252	3773.15
967.554	3797.56
967.856	3796.88
968.158	3758.69
968.46	3731.79
968.761	3728.18
969.063	3708.97
969.365	3705.35
969.666	3679.37
969.968	3672.81
970.269	3639.82
970.571	3648.41
970.872	3605.47
971.174	3597.56
971.475	3553.27
971.776	3557.34
972.077	3557.34
972.378	3554.17
972.679	3514.85
972.98	3517.11
973.281	3475.08
973.582	3441.63
973.883	3459.71
974.183	3420.84
974.484	3427.85
974.785	3422.65
975.085	3367.74
975.386	3391.92
975.686	3372.03
975.986	3336.1
976.287	3384.69
976.587	3254.52
976.887	3309.21
977.187	3327.96
977.487	3273.95
977.787	3284.57
978.087	3217.23
978.387	3223.11
978.687	3244.12
978.987	3213.39
979.286	3171.81
979.586	3167.74
979.885	3180.4
980.185	3117.12
980.484	3085.94
980.784	3132.49
981.083	3088.42
981.382	3060.63
981.682	3073.51
981.981	3072.6
982.28	3008.2
982.579	2989.22
982.878	3038.48
983.177	3013.17
983.475	3041.42
983.774	2951.93
984.073	2973.4
984.372	2911.25
984.67	2967.52
984.969	2941.53
985.267	2927.07
985.566	2920.74
985.864	2890.01
986.162	2887.97
986.461	2867.64
986.759	2839.16
987.057	2834.64
987.355	2828.77
987.653	2824.93
987.951	2803.46
988.249	2796
988.547	2773.63
988.844	2772.72
989.142	2746.28
989.44	2725.49
989.737	2701.31
990.035	2684.82
990.332	2696.57
990.63	2687.3
990.927	2677.81
991.224	2631.03
991.521	2626.06
991.819	2643.46
992.116	2603.46
992.413	2643.01
992.71	2615.67
993.006	2561.43
993.303	2587.64
993.6	2564.82
993.897	2560.3
994.193	2533.41
994.49	2522.79
994.787	2501.77
995.083	2456.12
995.379	2473.07
995.676	2491.6
995.972	2439.4
996.268	2410.25
996.565	2444.6
996.861	2427.87
997.157	2424.26
997.453	2402.79
997.749	2377.71
998.044	2344.03
998.34	2357.82
998.636	2346.07
998.932	2316.46
999.227	2318.72
999.523	2323.47
999.818	2308.33
1000.114	2280.31
1000.409	2260.87
1000.704	2270.14
1001	2257.93
1001.295	2214.32
1001.59	2229.91
1001.885	2234.43
1002.18	2199.86
1002.475	2165.28
1002.77	2177.49
1003.065	2181.1
1003.359	2151.05
1003.654	2123.25
1003.949	2129.35
1004.243	2138.16
1004.538	2108.56
1004.832	2123.93
1005.127	2114.21
1005.421	2073.08
1005.715	2034.44
1006.009	2057.71
1006.304	2036.92
1006.598	2047.77
1006.892	2043.93
1007.186	2019.52
1007.48	1978.39
1007.773	1969.58
1008.067	1982.69
1008.361	1960.09
1008.655	1960.99
1008.948	1942.46
1009.242	1933.88
1009.535	1942.69
1009.829	1872.18
1010.122	1868.34
1010.415	1922.35
1010.708	1868.11
1011.001	1859.98
1011.295	1866.08
1011.588	1846.19
1011.881	1842.35
1012.173	1827.66
1012.466	1820.43
1012.759	1793.77
1013.052	1809.36
1013.344	1779.98
1013.637	1756.93
1013.93	1784.5
1014.222	1774.11
1014.514	1721.23
1014.807	1737.5
1015.099	1706.54
1015.391	1701.57
1015.683	1707.44
1015.976	1666.54
1016.268	1645.75
1016.56	1663.6
1016.851	1663.15
1017.143	1617.95
1017.435	1634
1017.727	1601.46
1018.018	1599.2
1018.31	1616.6
1018.602	1616.6
1018.893	1583.15
1019.185	1561.23
1019.476	1575.24
1019.767	1551.29
1020.058	1547.22
1020.35	1531.63
1020.641	1516.71
1020.932	1495.92
1021.223	1502.7
1021.514	1455.47
1021.804	1481.23
1022.095	1449.59
1022.386	1464.06
1022.677	1444.17
1022.967	1459.76
1023.258	1442.36
1023.548	1438.75
1023.839	1437.84
1024.129	1390.39
1024.419	1410.27
1024.709	1378.64
1025	1381.8
1025.29	1381.35
1025.58	1375.02
1025.87	1339.77
1026.16	1335.25
1026.449	1303.38
1026.739	1328.47
1027.029	1338.41
1027.319	1328.02
1027.608	1287.57
1027.898	1286.89
1028.187	1279.2
1028.477	1262.93
1028.766	1276.72
1029.055	1255.93
1029.344	1249.83
1029.634	1220.67
1029.923	1213.89
1030.212	1218.19
1030.501	1231.52
1030.79	1217.51
1031.078	1210.28
1031.367	1163.73
1031.656	1175.93
1031.945	1180.9
1032.233	1167.79
1032.522	1141.58
1032.81	1168.47
1033.099	1145.65
1033.387	1161.92
1033.675	1140
1033.963	1128.7
1034.251	1131.18
1034.54	1092.32
1034.828	1097.51
1035.116	1106.55
1035.403	1093.45
1035.691	1084.18
1035.979	1072.43
1036.267	1057.51
1036.554	1048.02
1036.842	1070.17
1037.129	1048.93
1037.417	1022.49
1037.704	1053.45
1037.992	1023.17
1038.279	1032.66
1038.566	1028.14
1038.853	1028.14
1039.14	1028.14
