Data from hue_320_FLMS001491_37.txt Node
Date: Mon Feb 06 15:47:07 GMT 2017
User: dcchb
Spectrometer: FLMS00149
Trigger mode: 0
Integration Time (sec): 2.000000E-2
Scans to average: 10
Electric dark correction enabled: true
Nonlinearity correction enabled: false
Boxcar width: 0
XAxis mode: Wavelengths
Number of Pixels in Spectrum: 2048
>>>>>Begin Spectral Data<<<<<
341.393	-18.59
341.776	-18.59
342.16	-18.59
342.543	-64.01
342.927	-63.33
343.31	-76.66
343.693	-71.92
344.077	-63.56
344.46	-67.85
344.843	-63.56
345.226	-46.38
345.61	-26.04
345.993	-17.23
346.376	-4.8
346.759	26.16
347.142	22.77
347.525	51.92
347.908	67.29
348.291	63.22
348.674	81.3
349.057	125.36
349.44	128.08
349.823	149.09
350.206	157.45
350.588	174.63
350.971	218.02
351.354	229.09
351.737	226.6
352.119	257.34
352.502	255.08
352.884	268.19
353.267	274.06
353.65	296.88
354.032	307.05
354.414	300.73
354.797	306.38
355.179	325.13
355.562	322.42
355.944	334.62
356.326	325.36
356.709	348.18
357.091	326.71
357.473	339.14
357.855	333.72
358.238	321.29
358.62	344.79
359.002	361.06
359.384	343.21
359.766	366.26
360.148	339.82
360.53	356.54
360.912	350.89
361.294	319.94
361.676	325.36
362.057	309.31
362.439	331.23
362.821	336.21
363.203	330.33
363.584	301.4
363.966	308.18
364.348	333.27
364.729	330.1
365.111	333.95
365.493	329.2
365.874	318.35
366.256	309.99
366.637	311.8
367.019	311.57
367.4	326.04
367.781	313.83
368.163	313.83
368.544	310.44
368.925	310.22
369.306	334.85
369.688	322.19
370.069	309.99
370.45	315.42
370.831	325.36
371.212	314.06
371.593	332.82
371.974	305.92
372.355	296.88
372.736	308.86
373.117	312.48
373.498	302.76
373.879	332.14
374.26	330.78
374.641	347.5
375.021	300.73
375.402	320.39
375.783	317.45
376.163	328.3
376.544	318.58
376.925	331.01
377.305	316.32
377.686	331.46
378.066	305.47
378.447	307.05
378.827	339.37
379.208	337.56
379.588	352.48
379.968	354.96
380.349	328.97
380.729	351.57
381.109	352.48
381.489	340.5
381.87	336.66
382.25	329.2
382.63	350.44
383.01	329.88
383.39	345.92
383.77	321.29
384.15	343.66
384.53	358.35
384.91	342.08
385.29	349.76
385.67	345.47
386.049	355.87
386.429	353.61
386.809	366.26
387.189	331.01
387.568	358.8
387.948	366.71
388.328	355.87
388.707	357
389.087	373.72
389.466	392.93
389.846	376.66
390.225	351.57
390.605	357.22
390.984	344.79
391.363	372.36
391.743	365.13
392.122	351.8
392.501	366.71
392.881	377.11
393.26	378.24
393.639	371.23
394.018	387.96
394.397	387.05
394.776	390.67
395.155	404.9
395.534	387.73
395.913	392.02
396.292	365.58
396.671	379.14
397.05	370.1
397.429	388.41
397.808	395.41
398.186	371.23
398.565	389.99
398.944	385.47
399.323	393.83
399.701	428.41
400.08	389.31
400.458	401.51
400.837	404.23
401.215	411.91
401.594	402.42
401.972	420.27
402.351	410.78
402.729	382.08
403.107	399.03
403.486	396.09
403.864	416.88
404.242	409.42
404.62	413.49
404.999	420.72
405.377	418.24
405.755	428.18
406.133	414.4
406.511	438.58
406.889	436.32
407.267	437.9
407.645	457.78
408.023	465.02
408.401	441.74
408.779	470.89
409.156	446.71
409.534	484
409.912	458.69
410.29	471.57
410.667	483.32
411.045	491.68
411.422	506.6
411.8	495.07
412.178	501.63
412.555	516.09
412.933	513.15
413.31	528.07
413.687	519.93
414.065	539.36
414.442	547.73
414.819	545.47
415.197	535.97
415.574	531.91
415.951	543.43
416.328	547.5
416.705	556.99
417.082	575.3
417.46	594.96
417.837	604.45
418.214	592.02
418.591	599.25
418.967	591.79
419.344	611
419.721	610.77
420.098	633.15
420.475	630.44
420.852	641.73
421.228	653.03
421.605	638.8
421.982	643.77
422.358	649.42
422.735	655.52
423.111	688.96
423.488	685.35
423.864	684.67
424.241	677.21
424.617	713.82
424.994	721.51
425.37	733.71
425.746	702.75
426.123	723.54
426.499	736.65
426.875	726.48
427.251	728.06
427.627	756.99
428.003	751.34
428.379	782.07
428.756	776.42
429.132	781.62
429.507	792.24
429.883	808.28
430.259	821.39
430.635	807.61
431.011	856.42
431.387	840.15
431.763	842.63
432.138	817.32
432.514	861.39
432.89	858.68
433.265	856.64
433.641	858.68
434.016	898.68
434.392	918.11
434.767	906.81
435.143	916.3
435.518	924.21
435.894	954.49
436.269	947.26
436.644	952.01
437.02	957.21
437.395	986.13
437.77	987.26
438.145	1009.41
438.52	978.9
438.895	1016.87
439.271	971.44
439.646	999.47
440.021	1036.07
440.395	1045.11
440.77	1040.37
441.145	1034.72
441.52	1077.88
441.895	1034.94
442.27	1078.11
442.645	1076.07
443.019	1067.71
443.394	1074.27
443.769	1081.27
444.143	1058.22
444.518	1105.68
444.892	1086.69
445.267	1089.63
445.641	1061.16
446.016	1088.73
446.39	1106.58
446.764	1110.87
447.139	1104.32
447.513	1111.78
447.887	1116.07
448.262	1131.89
448.636	1109.97
449.01	1143.64
449.384	1155.62
449.758	1167.14
450.132	1166.01
450.506	1194.04
450.88	1173.7
451.254	1184.32
451.628	1173.92
452.002	1180.7
452.376	1185.9
452.75	1183.87
453.123	1203.08
453.497	1217.31
453.871	1208.73
454.244	1223.64
454.618	1239.01
454.992	1233.36
455.365	1253.02
455.739	1290.53
456.112	1286.01
456.486	1280.36
456.859	1272.23
457.232	1300.7
457.606	1302.28
457.979	1331.66
458.352	1350.19
458.725	1324.2
459.099	1341.6
459.472	1375.5
459.845	1401.26
460.218	1373.24
460.591	1401.71
460.964	1409.17
461.337	1430.64
461.71	1441.49
462.083	1455.72
462.456	1449.62
462.829	1445.33
463.201	1471.32
463.574	1455.27
463.947	1474.26
464.32	1486.23
464.692	1516.06
465.065	1536.4
465.438	1597.42
465.81	1579.34
466.183	1555.38
466.555	1565.78
466.928	1576.17
467.3	1600.35
467.672	1612.1
468.045	1667.47
468.417	1667.7
468.789	1638.32
469.161	1658.88
469.534	1694.36
469.906	1668.6
470.278	1725.1
470.65	1716.06
471.022	1777.3
471.394	1768.26
471.766	1802.61
472.138	1791.08
472.51	1835.83
472.882	1867.69
473.253	1848.26
473.625	1856.17
473.997	1928.03
474.369	1940.23
474.74	1924.86
475.112	1955.6
475.484	1973.45
475.855	1998.76
476.227	2011.64
476.598	2078.53
476.97	2086.67
477.341	2101.58
477.713	2138.64
478.084	2105.65
478.455	2192.65
478.827	2187.91
479.198	2241.92
479.569	2248.7
479.94	2303.84
480.311	2329.15
480.682	2386.55
481.053	2375.93
481.424	2433.55
481.795	2399.88
482.166	2451.63
482.537	2454.79
482.908	2534.11
483.279	2522.82
483.65	2575.02
484.021	2586.77
484.391	2615.02
484.762	2636.94
485.133	2620.67
485.503	2704.05
485.874	2719.42
486.244	2717.16
486.615	2785.18
486.985	2822.02
487.356	2864.27
487.726	2876.25
488.097	2898.62
488.467	2927.32
488.837	2964.39
489.207	2981.79
489.578	3043.93
489.948	3032.41
490.318	3078.05
490.688	3096.36
491.058	3153.31
491.428	3183.81
491.798	3181.33
492.168	3224.04
492.538	3276.24
492.908	3260.87
493.278	3289.8
493.648	3292.96
494.017	3340.65
494.387	3347.43
494.757	3392.62
495.126	3429.46
495.496	3415.67
495.866	3420.64
496.235	3425.62
496.605	3458.16
496.974	3478.27
497.344	3510.36
497.713	3567.31
498.082	3550.36
498.452	3576.8
498.821	3591.26
499.19	3637.59
499.559	3620.64
499.928	3666.29
500.298	3638.04
500.667	3671.94
501.036	3680.75
501.405	3693.63
501.774	3678.49
502.143	3727.08
502.512	3746.96
502.88	3779.96
503.249	3785.83
503.618	3804.14
503.987	3838.49
504.356	3827.87
504.724	3837.13
505.093	3855.89
505.462	3826.51
505.83	3894.3
506.199	3924.59
506.567	3951.03
506.936	3949.22
507.304	3996.22
507.672	3933.85
508.041	4003.91
508.409	3997.13
508.777	4079.16
509.145	4068.54
509.514	3994.41
509.882	4051.14
510.25	4061.98
510.618	4073.51
510.986	4061.98
511.354	4088.88
511.722	4145.15
512.09	4170.46
512.458	4155.77
512.826	4125.03
513.193	4174.07
513.561	4206.39
513.929	4239.15
514.297	4261.07
514.664	4234.18
515.032	4262.66
515.4	4236.44
515.767	4257.91
516.135	4294.07
516.502	4262.43
516.869	4323.67
517.237	4302.2
517.604	4291.81
517.972	4321.64
518.339	4364.35
518.706	4367.29
519.073	4373.61
519.44	4385.14
519.808	4385.59
520.175	4418.36
520.542	4445.93
520.909	4482.76
521.276	4482.54
521.643	4452.71
522.009	4484.57
522.376	4539.71
522.743	4537.45
523.11	4561.18
523.477	4571.35
523.843	4607.51
524.21	4621.06
524.577	4620.16
524.943	4633.72
525.31	4674.62
525.676	4729.76
526.043	4730.44
526.409	4760.27
526.776	4779.93
527.142	4802.53
527.508	4821.06
527.874	4899.02
528.241	4849.53
528.607	4839.36
528.973	4950.77
529.339	4909.19
529.705	4962.52
530.071	4994.16
530.437	5045.01
530.803	5030.09
531.169	5101.96
531.535	5066.02
531.901	5114.84
532.267	5077.1
532.632	5120.26
532.998	5153.25
533.364	5193.25
533.73	5211.78
534.095	5229.64
534.461	5259.24
534.826	5262.63
535.192	5252.46
535.557	5350.54
535.923	5361.84
536.288	5353.02
536.653	5414.26
537.019	5366.81
537.384	5390.99
537.749	5400.25
538.114	5438.44
538.479	5449.97
538.845	5492
539.21	5478.9
539.575	5473.92
539.94	5543.98
540.305	5573.58
540.67	5517.09
541.034	5626.01
541.399	5641.38
541.764	5677.76
542.129	5753.01
542.494	5616.97
542.858	5666.01
543.223	5694.94
543.587	5744.88
543.952	5735.61
544.316	5783.07
544.681	5811.77
545.045	5847.47
545.41	5908.04
545.774	5931.54
546.138	5901.48
546.503	5931.31
546.867	5951.88
547.231	5996.4
547.595	6026
547.959	6016.06
548.324	6005.44
548.688	6078.65
549.052	6050.18
549.416	6092.44
549.779	6174.92
550.143	6088.37
550.507	6144.87
550.871	6244.75
551.235	6141.02
551.599	6226.67
551.962	6223.06
552.326	6258.31
552.689	6315.26
553.053	6221.93
553.417	6230.51
553.78	6372.66
554.143	6352.09
554.507	6293.79
554.87	6423.73
555.234	6461.24
555.597	6438.87
555.96	6440.9
556.323	6501.47
556.686	6442.49
557.05	6491.75
557.413	6504.86
557.776	6543.05
558.139	6569.94
558.502	6610.39
558.865	6558.19
559.228	6660.79
559.59	6655.14
559.953	6687.23
560.316	6756.6
560.679	6691.74
561.041	6755.7
561.404	6752.08
561.767	6811.06
562.129	6794.79
562.492	6843.61
562.854	6792.08
563.217	6796.37
563.579	6878.41
563.941	6870.72
564.304	6924.06
564.666	7022.58
565.028	6945.07
565.39	6978.52
565.753	7020.1
566.115	7035.24
566.477	7097.38
566.839	7081.57
567.201	7140.09
567.563	7143.26
567.925	7168.79
568.287	7239.53
568.648	7213.31
569.01	7284.95
569.372	7282.92
569.734	7259.87
570.095	7402.46
570.457	7394.33
570.819	7413.08
571.18	7400.65
571.542	7493.98
571.903	7485.85
572.265	7519.52
572.626	7585.73
572.987	7576.92
573.349	7642
573.71	7712.96
574.071	7792.06
574.432	7796.8
574.794	7891.71
575.155	7925.61
575.516	7917.7
575.877	8052.16
576.238	8066.17
576.599	8163.34
576.96	8233.85
577.32	8244.7
577.681	8367.63
578.042	8403.79
578.403	8440.63
578.763	8612.6
579.124	8669.55
579.485	8757
579.845	8866.6
580.206	8920.84
580.566	9043.77
580.927	9186.82
581.287	9340.71
581.648	9349.08
582.008	9637.66
582.368	9689.41
582.728	9814.15
583.089	9915.39
583.449	10126
583.809	10290.29
584.169	10419.1
584.529	10590.63
584.889	10863.39
585.249	10975.02
585.609	11136.83
585.969	11341.57
586.329	11452.07
586.688	11757.83
587.048	11967.54
587.408	12191.71
587.768	12383.35
588.127	12602.1
588.487	12817.01
588.846	13157.79
589.206	13328.86
589.565	13525.24
589.925	13870.99
590.284	14004.32
590.643	14351.2
591.003	14675.49
591.362	14968.59
591.721	15170.39
592.08	15413.1
592.44	15806.53
592.799	16021.67
593.158	16309.57
593.517	16561.99
593.876	16803.12
594.235	17052.83
594.593	17415.53
594.952	17815.97
595.311	17995.63
595.67	18365.56
596.029	18694.59
596.387	19076.28
596.746	19259.78
597.104	19563.72
597.463	19791.06
597.822	20152.63
598.18	20347.66
598.538	20653.19
598.897	21071.48
599.255	21221.31
599.613	21711.24
599.972	21867.39
600.33	22056.76
600.688	22403.65
601.046	22670.31
601.404	23053.12
601.762	23346.67
602.12	23668.25
602.478	23838.19
602.836	24249.7
603.194	24219.42
603.552	24609.01
603.91	24861.21
604.268	25272.5
604.625	25303.91
604.983	25786.84
605.341	25814.63
605.698	26298.69
606.056	26514.73
606.413	26659.81
606.771	27000.82
607.128	27226.8
607.485	27353.35
607.843	27572.1
608.2	28036.49
608.557	28289.37
608.914	28380.89
609.272	28645.74
609.629	28972.52
609.986	29003.93
610.343	29284.15
610.7	29721.2
611.057	29645.94
611.414	29901.3
611.771	30127.96
612.127	30455.64
612.484	30525.02
612.841	30888.62
613.198	30879.81
613.554	31049.07
613.911	31422.62
614.267	31562.96
614.624	31673.91
614.98	31828.03
615.337	32128.14
615.693	32213.33
616.05	32316.16
616.406	32644.51
616.762	32608.13
617.118	32826.65
617.475	32920.43
617.831	33225.51
618.187	33217.38
618.543	33418.5
618.899	33687.42
619.255	33675.67
619.611	33850.35
619.967	34215.77
620.323	34294.63
620.678	34252.6
621.034	34365.37
621.39	34415.54
621.746	34522.2
622.101	35008.06
622.457	34783.44
622.812	34995.18
623.168	35069.53
623.523	35212.35
623.879	35330.99
624.234	35182.52
624.589	35451.89
624.945	35511.1
625.3	35606.92
625.655	35607.59
626.01	35716.74
626.365	35795.61
626.72	35853.92
627.075	35916.29
627.43	35921.48
627.785	35897.76
628.14	36122.61
628.495	36157.18
628.85	36236.73
629.205	36111.76
629.559	36353.11
629.914	36257.97
630.269	36365.09
630.623	36318.76
630.978	36309.05
631.332	36513.33
631.687	36695.48
632.041	36527.8
632.396	36658.87
632.75	36682.59
633.104	36709.03
633.459	36708.36
633.813	36621.35
634.167	36535.71
634.521	36618.19
634.875	36805.53
635.229	36758.53
635.583	36554.91
635.937	36677.62
636.291	36627.91
636.645	36686.44
636.999	36701.8
637.352	36756.72
637.706	36553.56
638.06	36775.7
638.413	36617.74
638.767	36640.79
639.121	36846.43
639.474	36580.9
639.828	36636.72
640.181	36550.85
640.534	36679.88
640.888	36536.38
641.241	36473.79
641.594	36587.68
641.947	36795.59
642.301	36573.22
642.654	36600.79
643.007	36649.38
643.36	36528.7
643.713	36571.64
644.066	36634.91
644.419	36436.05
644.771	36282.15
645.124	36091.65
645.477	35976.85
645.83	35755.61
646.182	35654.37
646.535	35580.48
646.888	35608.27
647.24	35341.16
647.593	35655.96
647.945	35531.66
648.298	35415.06
648.65	35329.64
649.002	35417.54
649.355	35555.17
649.707	35507.03
650.059	35471.55
650.411	36027.02
650.763	35973.46
651.115	36363.51
651.467	36208.93
651.819	36247.58
652.171	36200.12
652.523	36195.83
652.875	36140.91
653.227	35978.66
653.578	36175.72
653.93	36111.31
654.282	36101.59
654.633	35987.7
654.985	36093.46
655.337	35951.99
655.688	36023.18
656.039	36176.85
656.391	35849.85
656.742	35876.74
657.094	35948.83
657.445	36013.69
657.796	35967.13
658.147	35819.11
658.498	35897.76
658.849	35847.36
659.2	35871.77
659.551	35833.8
659.902	36156.96
660.253	35942.5
660.604	36040.13
660.955	35772.56
661.306	35961.26
661.656	35725.78
662.007	35867.47
662.358	35845.33
662.708	35816.63
663.059	35826.35
663.409	35651.66
663.76	35865.44
664.11	35893.24
664.461	35843.52
664.811	35891.66
665.161	35844.2
665.511	35755.39
665.862	35762.62
666.212	36010.52
666.562	35801.04
666.912	35866.8
667.262	35770.53
667.612	35718.78
667.962	35855.5
668.312	35678.78
668.662	35993.8
669.011	35720.81
669.361	35768.72
669.711	35693.02
670.06	35717.2
670.41	35615.73
670.76	35591.32
671.109	35631.32
671.459	35646.01
671.808	35516.75
672.157	35790.41
672.507	35366.7
672.856	35454.15
673.205	35463.42
673.554	35481.27
673.904	35560.14
674.253	35632.9
674.602	35476.75
674.951	35054.84
675.3	34936.43
675.649	35459.35
675.998	35386.13
676.346	35414.83
676.695	35614.37
677.044	35246.02
677.393	35341.16
677.741	35500.93
678.09	35298.68
678.438	35272.24
678.787	35321.95
679.135	35387.04
679.484	35038.12
679.832	35138.91
680.181	35035.41
680.529	35091.22
680.877	35028.85
681.225	34955.63
681.573	35181.62
681.922	34976.2
682.27	34885.81
682.618	34840.61
682.966	34676.09
683.314	34806.49
683.661	34662.53
684.009	34443.11
684.357	34602.88
684.705	34390.9
685.053	34480.39
685.4	34332.15
685.748	34356.33
686.095	34279.04
686.443	34258.93
686.79	34118.59
687.138	34192.49
687.485	34253.96
687.832	34129.22
688.18	34011.48
688.527	33880.86
688.874	33797.25
689.221	33775.78
689.568	33757.47
689.915	33724.48
690.262	33696.46
690.609	33632.05
690.956	33371.95
691.303	33497.37
691.65	33178.96
691.997	33268.9
692.344	33062.58
692.69	33253.08
693.037	33055.35
693.383	32886.08
693.73	33097.6
694.077	32609.26
694.423	32875.46
694.769	32716.15
695.116	32673.43
695.462	32656.03
695.808	32504.17
696.155	32494.23
696.501	32278.19
696.847	32195.93
697.193	32052.89
697.539	32150.06
697.885	31872.78
698.231	31939.67
698.577	31844.53
698.923	31856.51
699.269	31616.97
699.614	31559.79
699.96	31492
700.306	31371.77
700.651	31314.6
700.997	31362.06
701.342	31197.77
701.688	31224.89
702.033	31072.35
702.379	30979.92
702.724	31005.23
703.069	31033.03
703.415	30631.45
703.76	30853.6
704.105	30645.92
704.45	30616.54
704.795	30393.04
705.14	30350.56
705.485	30443.89
705.83	30251.13
706.175	30209.77
706.52	30215.65
706.865	30084.58
707.209	30100.85
707.554	30112.37
707.899	30014.3
708.243	29884.13
708.588	29792.38
708.932	29504.25
709.277	29632.38
709.621	29530.47
709.966	29310.36
710.31	29414.31
710.654	29137.26
710.998	29229.46
711.342	29246.41
711.687	29041.21
712.031	29074.89
712.375	28937.94
712.719	29057.48
713.063	28955.11
713.407	28975.45
713.75	28900.65
714.094	28837.6
714.438	28652.98
714.782	28726.87
715.125	28658.85
715.469	28578.85
715.812	28540.89
716.156	28302.93
716.499	28384.96
716.843	28377.5
717.186	28252.08
717.53	28227.9
717.873	28251.63
718.216	28238.75
718.559	28054.35
718.902	27961.92
719.246	27982.26
719.589	27935.03
719.932	27786.11
720.275	27827.91
720.617	27732.1
720.96	27586.11
721.303	27709.05
721.646	27688.71
721.989	27614.36
722.331	27604.42
722.674	27518.54
723.016	27568.48
723.359	27479.22
723.701	27489.16
724.044	27258.44
724.386	27104.09
724.729	27338.21
725.071	27132.11
725.413	27210.75
725.755	27172.34
726.097	27040.59
726.439	26993.58
726.782	26945.45
727.124	27100.25
727.465	26857.99
727.807	26924.21
728.149	26754.95
728.491	26615.06
728.833	26819.58
729.175	26702.97
729.516	26567.15
729.858	26613.26
730.199	26660.71
730.541	26589.75
730.882	26545.23
731.224	26614.38
731.565	26319.25
731.906	26449.87
732.248	26411
732.589	26401.28
732.93	26137.56
733.271	26212.59
733.612	26209.65
733.953	26243.1
734.294	26105.47
734.635	26144.34
734.976	26077.45
735.317	26039.03
735.658	25991.12
735.999	25894.18
736.339	26007.62
736.68	26006.94
737.021	25864.12
737.361	25745.48
737.702	25962.88
738.042	25755.65
738.383	25736.89
738.723	25749.1
739.063	25594.98
739.404	25672.04
739.744	25655.77
740.084	25520.4
740.424	25439.73
740.764	25465.49
741.104	25523.34
741.444	25249.22
741.784	25311.82
742.124	25322.44
742.464	25363.57
742.804	25238.6
743.143	25145.05
743.483	25170.58
743.823	25109.57
744.162	25060.53
744.502	25031.83
744.841	25001.77
745.181	25120.41
745.52	25061.88
745.86	24920.87
746.199	24822.34
746.538	24893.53
746.877	24781.44
747.216	24867.31
747.556	24777.6
747.895	24770.37
748.234	24643.82
748.573	24669.8
748.911	24605.17
749.25	24588.68
749.589	24551.84
749.928	24468.9
750.267	24529.92
750.605	24420.77
750.944	24399.75
751.283	24329.47
751.621	24355.91
751.96	24190.95
752.298	24231.4
752.636	24216.48
752.975	24083.15
753.313	23947.79
753.651	24253.54
753.989	23953.44
754.327	24045.64
754.666	23880.67
755.004	23813.33
755.342	23814.23
755.679	23732.88
756.017	23692.2
756.355	23702.6
756.693	23546.44
757.031	23707.34
757.368	23483.39
757.706	23420.34
758.044	23398.2
758.381	23363.4
758.719	23230.75
759.056	23241.59
759.394	23122.5
759.731	23002.28
760.068	23008.83
760.405	22848.38
760.743	22851.55
761.08	22887.93
761.417	22724.77
761.754	22748.5
762.091	22601.84
762.428	22621.27
762.765	22449.97
763.102	22527.26
763.438	22274.61
763.775	22274.16
764.112	22208.85
764.449	22259.47
764.785	22116.42
765.122	22096.54
765.458	21851.57
765.795	21826.49
766.131	21844.11
766.467	21828.75
766.804	21660.39
767.14	21622.2
767.476	21598.47
767.812	21555.31
768.148	21536.78
768.485	21465.37
768.821	21282.32
769.157	21254.07
769.492	21164.13
769.828	21159.16
770.164	21070.35
770.5	20967.53
770.836	20876.68
771.171	20760.53
771.507	20783.8
771.842	20613.86
772.178	20655.22
772.513	20650.93
772.849	20524.38
773.184	20442.57
773.519	20436.69
773.855	20311.5
774.19	20192.63
774.525	20192.86
774.86	20208.45
775.195	20139.3
775.53	19988.57
775.865	19938.63
776.2	19670.84
776.535	19589.26
776.87	19580.22
777.205	19469.49
777.539	19542.25
777.874	19545.19
778.209	19370.28
778.543	19318.53
778.878	19221.81
779.212	19201.47
779.547	18979.78
779.881	19098.2
780.215	18897.53
780.55	18964.64
780.884	18905.66
781.218	18762.84
781.552	18756.06
781.886	18664.54
782.22	18568.49
782.554	18483.98
782.888	18361.49
783.222	18366.47
783.556	18206.7
783.889	18216.64
784.223	18043.76
784.557	17964.44
784.89	18060.03
785.224	17917.89
785.557	17765.58
785.891	17769.42
786.224	17785.46
786.558	17744.34
786.891	17574.85
787.224	17463.67
787.557	17494.85
787.891	17398.13
788.224	17367.62
788.557	17398.36
788.89	17305.03
789.223	17209.21
789.556	17095.54
789.888	17095.54
790.221	17011.7
790.554	16874.98
790.887	16979.16
791.219	16855.77
791.552	16770.12
791.884	16841.08
792.217	16739.16
792.549	16665.04
792.882	16536.01
793.214	16431.6
793.546	16484.93
793.879	16368.78
794.211	16197.71
794.543	16234.09
794.875	16215.56
795.207	16289.23
795.539	16170.14
795.871	16109.58
796.203	16131.5
796.535	15903.48
796.867	15815.12
797.198	15894.89
797.53	15783.48
797.862	15689.93
798.193	15723.6
798.525	15641.11
798.856	15742.35
799.188	15492.19
799.519	15424.62
799.85	15369.26
800.182	15378.52
800.513	15386.43
800.844	15204.74
801.175	15300.33
801.506	15256.27
801.837	15156.61
802.168	15147.57
802.499	15120.68
802.83	15004.52
803.161	14979.66
803.491	14969.49
803.822	14979.44
804.153	14790.29
804.483	14816.05
804.814	14794.36
805.145	14681.14
805.475	14691.53
805.805	14667.13
806.136	14705.09
806.466	14684.76
806.796	14470.52
807.126	14407.47
807.457	14402.95
807.787	14332.45
808.117	14335.84
808.447	14282.05
808.777	14337.19
809.107	14223.98
809.436	14194.82
809.766	14137.88
810.096	14126.35
810.426	14077.54
810.755	14110.53
811.085	14022.85
811.414	14018.56
811.744	13783.31
812.073	13868.28
812.403	13851.56
812.732	13833.03
813.061	13845.68
813.39	13712.58
813.719	13677.32
814.049	13674.61
814.378	13625.57
814.707	13607.95
815.036	13623.31
815.365	13478.69
815.693	13349.87
816.022	13471.91
816.351	13365.69
816.68	13262.42
817.008	13335.19
817.337	13188.75
817.665	13161.41
817.994	13151.01
818.322	13256.54
818.651	13183.55
818.979	13034.63
819.307	13154.4
819.636	13052.03
819.964	12967.74
820.292	13030.56
820.62	13010
820.948	12987.4
821.276	12976.55
821.604	12865.82
821.932	12886.16
822.259	12939.04
822.587	12957.79
822.915	12946.95
823.243	12954.63
823.57	12902.66
823.898	12879.83
824.225	12897.46
824.553	12902.88
824.88	12839.15
825.207	12988.3
825.535	12907.63
825.862	12979.04
826.189	12811.13
826.516	12947.4
826.843	12881.41
827.17	12906.72
827.497	12981.3
827.824	12878.25
828.151	12991.01
828.478	12876.67
828.805	12933.39
829.131	12843.45
829.458	12810
829.785	12867.18
830.111	12854.97
830.438	12880.73
830.764	12812.71
831.09	12944.46
831.417	12811.58
831.743	12890.68
832.069	12855.2
832.395	12814.52
832.722	12769.1
833.048	12746.05
833.374	12762.55
833.7	12705.6
834.026	12736.33
834.351	12776.33
834.677	12702.43
835.003	12830.34
835.329	12770.46
835.654	12629.89
835.98	12667.63
836.306	12696.33
836.631	12633.51
836.956	12596.45
837.282	12633.96
837.607	12586.96
837.932	12541.31
838.258	12567.75
838.583	12453.4
838.908	12460.86
839.233	12519.16
839.558	12494.76
839.883	12490.01
840.208	12395.32
840.533	12342.22
840.858	12370.01
841.182	12384.02
841.507	12304.03
841.832	12189
842.156	12241.88
842.481	12254.99
842.805	12280.52
843.13	12160.08
843.454	12170.02
843.778	12131.6
844.103	12116.46
844.427	12077.82
844.751	12014.54
845.075	11998.27
845.399	11960.98
845.723	11973.64
846.047	11907.43
846.371	11828.11
846.695	11776.13
847.019	11694.33
847.343	11713.53
847.666	11621.56
847.99	11608.45
848.313	11582.92
848.637	11493.2
848.96	11457.95
849.284	11397.38
849.607	11350.83
849.931	11310.61
850.254	11334.79
850.577	11190.61
850.9	11145.64
851.223	11096.83
851.546	11106.54
851.869	11025.64
852.192	11107.22
852.515	10911.07
852.838	10918.75
853.161	10917.17
853.483	10808.25
853.806	10807.34
854.129	10790.39
854.451	10740.68
854.774	10670.85
855.096	10597.18
855.419	10556.05
855.741	10510.85
856.063	10505.43
856.385	10515.6
856.708	10508.59
857.03	10458.88
857.352	10495.71
857.674	10446.45
857.996	10399.22
858.318	10281.93
858.64	10377.07
858.961	10323.51
859.283	10275.38
859.605	10152.67
859.926	10254.82
860.248	10215.49
860.57	10201.48
860.891	10142.28
861.212	10061.83
861.534	10080.81
861.855	10076.51
862.176	10068.15
862.498	10021.6
862.819	9965.78
863.14	9996.52
863.461	9914.94
863.782	9905.67
864.103	9953.13
864.424	9893.02
864.745	9935.28
865.065	9828.39
865.386	9856.86
865.707	9839.01
866.027	9852.57
866.348	9810.08
866.668	9810.98
866.989	9735.28
867.309	9743.19
867.63	9790.42
867.95	9715.85
868.27	9638.56
868.59	9627.71
868.91	9686.69
869.23	9642.18
869.55	9529.18
869.87	9635.4
870.19	9604.44
870.51	9625
870.83	9581.61
871.15	9535.51
871.469	9552.01
871.789	9567.38
872.109	9480.37
872.428	9446.93
872.748	9478.11
873.067	9481.95
873.386	9457.1
873.706	9442.41
874.025	9429.53
874.344	9346.59
874.663	9352.69
874.982	9285.58
875.301	9371.67
875.62	9303.2
875.939	9288.96
876.258	9270.66
876.577	9239.47
876.896	9298.91
877.214	9183.2
877.533	9220.94
877.852	9205.58
878.17	9167.84
878.489	9163.77
878.807	9204.45
879.125	9173.94
879.444	9194.5
879.762	9077.9
880.08	9156.09
880.398	9105.01
880.716	9113.83
881.034	9062.76
881.352	9032.7
881.67	8959.93
881.988	9086.03
882.306	8973.49
882.624	8920.16
882.941	8872.7
883.259	8936.88
883.577	8876.55
883.894	8890.56
884.212	8850.56
884.529	8787.51
884.846	8774.18
885.164	8796.1
885.481	8762.88
885.798	8746.61
886.115	8726.27
886.432	8714.29
886.75	8711.13
887.067	8648.08
887.383	8601.3
887.7	8609.21
888.017	8593.39
888.334	8650.11
888.651	8531.92
888.967	8546.39
889.284	8480.62
889.6	8479.72
889.917	8438.14
890.233	8425.03
890.55	8460.06
890.866	8399.5
891.182	8347.75
891.498	8334.64
891.815	8357.01
892.131	8319.95
892.447	8284.25
892.763	8250.12
893.079	8238.14
893.395	8134.64
893.71	8152.27
894.026	8145.72
894.342	8159.28
894.657	8136.45
894.973	8067.08
895.289	8052.61
895.604	7985.72
895.92	7993.41
896.235	7973.97
896.55	7972.84
896.865	7973.29
897.181	7875.44
897.496	7891.94
897.811	7811.94
898.126	7780.08
898.441	7826.86
898.756	7775.56
899.071	7670.48
899.386	7666.41
899.7	7673.19
900.015	7679.29
900.33	7610.14
900.644	7602.68
900.959	7606.75
901.273	7566.07
901.588	7492.63
901.902	7474.55
902.216	7404.49
902.531	7442.23
902.845	7386.87
903.159	7336.7
903.473	7344.61
903.787	7339.19
904.101	7354.33
904.415	7266.19
904.729	7265.74
905.042	7235.46
905.356	7188.91
905.67	7164.27
905.984	7124.5
906.297	7183.03
906.611	7120.89
906.924	7095.58
907.237	7081.57
907.551	7049.7
907.864	6968.57
908.177	6972.64
908.491	6948.24
908.804	6870.05
909.117	6845.64
909.43	6847
909.743	6802.93
910.056	6806.09
910.368	6786.66
910.681	6705.98
910.994	6686.77
911.307	6654.01
911.619	6591.63
911.932	6621.69
912.244	6604.97
912.557	6540.56
912.869	6569.04
913.181	6510.05
913.494	6546.21
913.806	6446.33
914.118	6446.1
914.43	6408.14
914.742	6443.16
915.054	6351.41
915.366	6334.92
915.678	6331.08
915.99	6311.19
916.302	6300.79
916.613	6238.65
916.925	6240.46
917.236	6225.54
917.548	6180.8
917.859	6139.44
918.171	6154.58
918.482	6072.1
918.794	6053.57
919.105	6055.6
919.416	5957.75
919.727	5958.88
920.038	6026.45
920.349	5926.79
920.66	5941.71
920.971	5953.46
921.282	5876.63
921.593	5831.2
921.903	5821.94
922.214	5789.17
922.525	5777.42
922.835	5737.65
923.146	5709.85
923.456	5744.2
923.767	5680.47
924.077	5623.52
924.387	5621.49
924.697	5618.55
925.008	5607.48
925.318	5582.85
925.628	5502.62
925.938	5482.74
926.248	5495.84
926.558	5471.66
926.867	5414.72
927.177	5406.58
927.487	5403.19
927.796	5379.46
928.106	5367.94
928.416	5327.94
928.725	5328.16
929.034	5303.98
929.344	5292.01
929.653	5256.98
929.962	5195.51
930.271	5185.57
930.581	5182.41
930.89	5165.01
931.199	5163.88
931.508	5103.54
931.817	5100.15
932.125	5076.65
932.434	5015.63
932.743	5033.03
933.051	4978.12
933.36	4969.98
933.669	4950.55
933.977	4919.36
934.286	4920.72
934.594	4877.56
934.902	4853.83
935.21	4849.31
935.519	4855.64
935.827	4819.93
936.135	4775.19
936.443	4724.11
936.751	4752.81
937.059	4773.38
937.367	4695.87
937.674	4681.18
937.982	4658.8
938.29	4642.31
938.597	4641.4
938.905	4574.74
939.213	4588.52
939.52	4532.48
939.827	4581.52
940.135	4508.3
940.442	4489.99
940.749	4514.18
941.056	4503.33
941.363	4432.14
941.67	4464.46
941.977	4427.4
942.284	4379.26
942.591	4423.33
942.898	4335.2
943.205	4342.88
943.511	4327.29
943.818	4288.64
944.125	4280.28
944.431	4248.19
944.738	4266.72
945.044	4240.06
945.35	4251.58
945.657	4153.96
945.963	4179.27
946.269	4127.74
946.575	4121.87
946.881	4134.75
947.187	4125.48
947.493	4104.69
947.799	4073.51
948.105	4064.02
948.41	4059.95
948.716	4017.46
949.022	4007.97
949.327	3978.14
949.633	3942.89
949.938	3972.04
950.244	3916.45
950.549	3915.32
950.854	3893.85
951.16	3888.65
951.465	3847.75
951.77	3836.68
952.075	3831.48
952.38	3792.61
952.685	3778.6
952.99	3783.35
953.294	3822.22
953.599	3729.34
953.904	3722.78
954.209	3752.16
954.513	3685.95
954.818	3731.82
955.122	3701.09
955.426	3635.55
955.731	3652.28
956.035	3591.71
956.339	3617.93
956.643	3670.58
956.948	3582
957.252	3552.84
957.556	3555.56
957.86	3551.26
958.163	3536.8
958.467	3513.75
958.771	3500.19
959.075	3507.65
959.378	3481.66
959.682	3450.02
959.985	3452.73
960.289	3435.79
960.592	3438.95
960.896	3409.12
961.199	3389.68
961.502	3357.6
961.805	3325.51
962.108	3338.39
962.411	3325.51
962.714	3280.31
963.017	3266.3
963.32	3327.54
963.623	3247.99
963.926	3282.12
964.228	3223.14
964.531	3208.9
964.833	3229.46
965.136	3180.65
965.438	3170.48
965.741	3180.2
966.043	3143.36
966.345	3111.73
966.648	3111.95
966.95	3097.49
967.252	3066.76
967.554	3081.22
967.856	3068.79
968.158	3063.82
968.46	3037.15
968.761	3038.28
969.063	3023.14
969.365	2952.18
969.666	2995.8
969.968	2983.14
970.269	2969.58
970.571	2956.25
970.872	2933.2
971.174	2942.47
971.475	2938.4
971.776	2897.95
972.077	2884.84
972.378	2866.76
972.679	2894.1
972.98	2872.18
973.281	2823.82
973.582	2809.59
973.883	2824.05
974.183	2776.37
974.484	2797.84
974.785	2782.92
975.085	2753.09
975.386	2768.01
975.686	2706.31
975.986	2741.11
976.287	2727.1
976.587	2702.47
976.887	2714.22
977.187	2674.9
977.487	2686.65
977.787	2651.63
978.087	2657.73
978.387	2638.97
978.687	2643.72
978.987	2600.78
979.286	2581.34
979.586	2597.84
979.885	2569.82
980.185	2535.47
980.484	2561.01
980.784	2539.09
981.083	2519.65
981.382	2525.98
981.682	2495.02
981.981	2532.76
982.28	2484.62
982.579	2499.09
982.878	2497.73
983.177	2447.56
983.475	2476.94
983.774	2436.26
984.073	2439.65
984.372	2399.65
984.67	2422.03
984.969	2433.1
985.267	2422.25
985.566	2393.55
985.864	2374.34
986.162	2351.75
986.461	2352.65
986.759	2319.66
987.057	2329.15
987.355	2300.45
987.653	2289.15
987.951	2272.65
988.249	2278.98
988.547	2290.96
988.844	2249.15
989.142	2265.65
989.44	2228.36
989.737	2237.62
990.035	2238.08
990.332	2188.81
990.63	2228.81
990.927	2194.24
991.224	2198.53
991.521	2156.95
991.819	2158.53
992.116	2132.77
992.413	2153.11
992.71	2139.1
993.006	2148.81
993.303	2144.97
993.6	2130.06
993.897	2109.04
994.193	2112.66
994.49	2094.35
994.787	2091.41
995.083	2072.21
995.379	2018.87
995.676	2028.14
995.972	2054.8
996.268	2034.47
996.565	2016.16
996.861	2009.61
997.157	1980.68
997.453	1973.22
997.749	1975.71
998.044	1933
998.34	1941.14
998.636	1967.58
998.932	1907.92
999.227	1912.21
999.523	1928.25
999.818	1884.64
1000.114	1895.03
1000.409	1902.27
1000.704	1867.69
1001	1865.21
1001.295	1844.41
1001.59	1866.34
1001.885	1841.7
1002.18	1827.24
1002.475	1830.63
1002.77	1832.44
1003.065	1789.05
1003.359	1823.17
1003.654	1791.08
1003.949	1778.88
1004.243	1755.38
1004.538	1759.67
1004.832	1736.4
1005.127	1729.16
1005.421	1727.58
1005.715	1702.95
1006.009	1708.83
1006.304	1700.01
1006.598	1672.22
1006.892	1671.09
1007.186	1680.13
1007.48	1659.56
1007.773	1661.37
1008.067	1645.1
1008.361	1658.66
1008.655	1626.57
1008.948	1620.24
1009.242	1614.14
1009.535	1617.3
1009.829	1601.48
1010.122	1596.51
1010.415	1579.79
1010.708	1570.07
1011.001	1544.08
1011.295	1527.13
1011.588	1541.6
1011.881	1537.53
1012.173	1561.03
1012.466	1504.54
1012.759	1507.7
1013.052	1457.53
1013.344	1492.11
1013.637	1474.26
1013.93	1482.84
1014.222	1506.57
1014.514	1469.06
1014.807	1430.41
1015.099	1446.23
1015.391	1452.56
1015.683	1435.61
1015.976	1435.61
1016.268	1423.41
1016.56	1399.68
1016.851	1413.69
1017.143	1410.3
1017.435	1364.43
1017.727	1357.42
1018.018	1359.91
1018.31	1377.76
1018.602	1344.54
1018.893	1349.51
1019.185	1323.3
1019.476	1324.2
1019.767	1296.86
1020.058	1307.48
1020.35	1295.73
1020.641	1295.28
1020.932	1260.25
1021.223	1280.36
1021.514	1267.48
1021.804	1240.36
1022.095	1247.59
1022.386	1238.56
1022.677	1225.45
1022.967	1236.3
1023.258	1206.47
1023.548	1199.91
1023.839	1188.61
1024.129	1192.45
1024.419	1202.4
1024.709	1210.99
1025	1136.86
1025.29	1163.75
1025.58	1177.54
1025.87	1156.98
1026.16	1133.7
1026.449	1132.57
1026.739	1144.77
1027.029	1135.51
1027.319	1124.66
1027.608	1085.11
1027.898	1099.8
1028.187	1111.78
1028.477	1099.8
1028.766	1055.28
1029.055	1083.76
1029.344	1057.54
1029.634	1072.46
1029.923	1050.09
1030.212	1033.81
1030.501	1055.73
1030.79	1031.55
1031.078	1040.59
1031.367	1013.7
1031.656	1005.79
1031.945	1009.18
1032.233	1003.53
1032.522	1023.87
1032.81	1005.34
1033.099	995.17
1033.387	970.31
1033.675	977.32
1033.963	964.89
1034.251	978
1034.54	946.59
1034.828	956.98
1035.116	973.25
1035.403	938.22
1035.691	927.6
1035.979	902.52
1036.267	935.74
1036.554	926.7
1036.842	913.82
1037.129	900.71
1037.417	883.99
1037.704	910.65
1037.992	882.63
1038.279	880.6
1038.566	874.27
1038.853	874.27
1039.14	874.27
