Data from hue_130_FLMS001491_00048.txt Node
Date: Tue Feb 07 16:57:40 GMT 2017
User: dcchb
Spectrometer: FLMS00149
Trigger mode: 0
Integration Time (sec): 2.000000E-2
Scans to average: 10
Electric dark correction enabled: true
Nonlinearity correction enabled: false
Boxcar width: 0
XAxis mode: Wavelengths
Number of Pixels in Spectrum: 2048
>>>>>Begin Spectral Data<<<<<
341.393	2.26
341.776	2.26
342.16	2.26
342.543	-48.81
342.927	-77.51
343.31	-73.67
343.693	-74.57
344.077	-54.24
344.46	-42.26
344.843	-66.89
345.226	-48.36
345.61	-49.94
345.993	-20.56
346.376	-13.78
346.759	32.09
347.142	11.98
347.525	54.01
347.908	39.1
348.291	74.8
348.674	108.47
349.057	123.84
349.44	124.74
349.823	133.33
350.206	184.18
350.588	195.7
350.971	211.52
351.354	215.14
351.737	235.7
352.119	262.14
352.502	265.53
352.884	255.59
353.267	271.63
353.65	292.42
354.032	289.26
354.414	317.96
354.797	312.99
355.179	318.41
355.562	313.21
355.944	328.13
356.326	332.42
356.709	337.17
357.091	338.75
357.473	350.5
357.855	344.62
358.238	336.26
358.62	338.75
359.002	336.26
359.384	360.67
359.766	358.63
360.148	342.36
360.53	344.4
360.912	344.17
361.294	334.45
361.676	354.79
362.057	317.05
362.439	328.35
362.821	332.42
363.203	297.17
363.584	321.12
363.966	340.56
364.348	330.61
364.729	304.17
365.111	307.79
365.493	316.6
365.874	312.76
366.256	313.44
366.637	306.66
367.019	312.76
367.4	320.22
367.781	309.14
368.163	320.44
368.544	310.73
368.925	301.01
369.306	306.43
369.688	305.75
370.069	315.47
370.45	301.91
370.831	323.83
371.212	332.87
371.593	306.88
371.974	304.17
372.355	335.36
372.736	316.38
373.117	315.25
373.498	324.74
373.879	311.86
374.26	330.84
374.641	325.19
375.021	320.44
375.402	339.43
375.783	342.14
376.163	342.82
376.544	357.96
376.925	322.25
377.305	319.09
377.686	324.51
378.066	336.71
378.447	329.48
378.827	324.96
379.208	320.9
379.588	327.45
379.968	325.42
380.349	309.37
380.729	322.48
381.109	318.18
381.489	334.23
381.87	363.61
382.25	330.84
382.63	349.6
383.01	316.83
383.39	347.11
383.77	342.59
384.15	322.48
384.53	361.8
384.91	344.85
385.29	363.38
385.67	342.36
386.049	372.42
386.429	329.93
386.809	352.08
387.189	357.5
387.568	352.99
387.948	331.52
388.328	356.15
388.707	348.69
389.087	329.48
389.466	345.75
389.846	371.52
390.225	362.02
390.605	379.2
390.984	357.96
391.363	371.29
391.743	359.31
392.122	389.37
392.501	372.19
392.881	378.97
393.26	371.97
393.639	361.35
394.018	365.19
394.397	370.16
394.776	375.13
395.155	378.97
395.534	381.01
395.913	389.59
396.292	396.15
396.671	362.48
397.05	374.91
397.429	372.19
397.808	396.37
398.186	405.64
398.565	407.22
398.944	375.13
399.323	398.63
399.701	393.89
400.08	405.41
400.458	408.8
400.837	418.07
401.215	406.54
401.594	380.78
401.972	410.84
402.351	412.42
402.729	423.94
403.107	408.35
403.486	415.58
403.864	418.07
404.242	439.31
404.62	415.81
404.999	421.68
405.377	423.27
405.755	431.63
406.133	434.79
406.511	444.28
406.889	428.69
407.267	426.66
407.645	435.02
408.023	430.05
408.401	448.35
408.779	440.44
409.156	452.19
409.534	463.04
409.912	467.33
410.29	457.84
410.667	449.25
411.045	479.31
411.422	457.16
411.8	465.98
412.178	505.75
412.555	492.87
412.933	452.64
413.31	512.08
413.687	480.21
414.065	503.49
414.442	501.23
414.819	486.54
415.197	485.64
415.574	505.3
415.951	496.03
416.328	511.17
416.705	510.27
417.082	506.2
417.46	522.47
417.837	512.3
418.214	523.15
418.591	503.26
418.967	525.41
419.344	515.01
419.721	528.12
420.098	516.6
420.475	542.13
420.852	543.26
421.228	543.04
421.605	551.4
421.982	574.9
422.358	577.84
422.735	565.41
423.111	556.82
423.488	545.75
423.864	548.23
424.241	570.38
424.617	564.28
424.994	578.06
425.37	578.29
425.746	575.8
426.123	575.58
426.499	596.82
426.875	583.26
427.251	593.88
427.627	621.9
428.003	602.02
428.379	617.61
428.756	632.3
429.132	662.36
429.507	632.07
429.883	628.01
430.259	624.62
430.635	626.42
431.011	643.15
431.387	658.97
431.763	666.2
432.138	670.26
432.514	673.88
432.89	668.01
433.265	676.59
433.641	672.3
434.016	683.6
434.392	706.2
434.767	724.05
435.143	705.29
435.518	719.3
435.894	728.34
436.269	731.96
436.644	750.04
437.02	732.18
437.395	787.1
437.77	784.61
438.145	767.66
438.52	765.4
438.895	780.77
439.271	789.36
439.646	806.31
440.021	792.75
440.395	794.1
440.77	804.95
441.145	791.39
441.52	799.53
441.895	831.39
442.27	819.19
442.645	821.9
443.019	827.32
443.394	836.14
443.769	863.25
444.143	830.49
444.518	831.62
444.892	842.92
445.267	852.63
445.641	844.72
446.016	854.44
446.39	866.19
446.764	865.51
447.139	886.53
447.513	887.21
447.887	882.91
448.262	889.69
448.636	928.56
449.01	889.02
449.384	918.85
449.758	926.08
450.132	938.05
450.506	928.11
450.88	931.27
451.254	955
451.628	969.24
452.002	990.48
452.376	975.79
452.75	969.47
453.123	995.68
453.497	992.97
453.871	1020.54
454.244	1029.8
454.618	1034.1
454.992	1031.39
455.365	1010.59
455.739	1060.54
456.112	1069.58
456.486	1093.3
456.859	1132.85
457.232	1086.75
457.606	1116.58
457.979	1138.28
458.352	1155
458.725	1179.4
459.099	1173.53
459.472	1196.13
459.845	1215.34
460.218	1227.99
460.591	1236.13
460.964	1225.5
461.337	1259.85
461.71	1284.49
462.083	1276.8
462.456	1305.95
462.829	1317.93
463.201	1293.53
463.574	1329.91
463.947	1342.56
464.32	1359.74
464.692	1418.72
465.065	1406.06
465.438	1416.91
465.81	1431.15
466.183	1458.49
466.555	1499.62
466.928	1496.01
467.3	1506.85
467.672	1539.39
468.045	1603.8
468.417	1581.65
468.789	1621.43
469.161	1633.18
469.534	1673.85
469.906	1719.73
470.278	1699.62
470.65	1753.17
471.022	1811.48
471.394	1843.57
471.766	1849.89
472.138	1911.14
472.51	1930.57
472.882	1946.84
473.253	2048.53
473.625	2072.49
473.997	2086.05
474.369	2127.85
474.74	2175.31
475.112	2232.48
475.484	2288.75
475.855	2334.85
476.227	2364.01
476.598	2442.2
476.97	2460.73
477.341	2549.09
477.713	2649.42
478.084	2641.51
478.455	2748.85
478.827	2814.16
479.198	2905.69
479.569	2936.19
479.94	3035.4
480.311	3137.32
480.682	3174.38
481.053	3323.53
481.424	3401.94
481.795	3462.06
482.166	3573.24
482.537	3697.3
482.908	3763.29
483.279	3867.92
483.65	4001.25
484.021	4088.93
484.391	4127.8
484.762	4255.03
485.133	4378.42
485.503	4419.54
485.874	4586.77
486.244	4672.87
486.615	4829.25
486.985	4948.8
487.356	5092.52
487.726	5242.57
488.097	5365.96
488.467	5411.16
488.837	5589.91
489.207	5723.01
489.578	5913.74
489.948	6002.33
490.318	6160.52
490.688	6214.3
491.058	6394.63
491.428	6507.85
491.798	6665.81
492.168	6875.53
492.538	6955.3
492.908	7096.54
493.278	7268.74
493.648	7311.67
494.017	7488.62
494.387	7594.6
494.757	7744.66
495.126	7913.46
495.496	7954.37
495.866	8156.85
496.235	8262.38
496.605	8392.1
496.974	8499.89
497.344	8658.76
497.713	8721.58
498.082	8933.32
498.452	9089.03
498.821	9127.44
499.19	9197.05
499.559	9350.94
499.928	9429.81
500.298	9512.97
500.667	9672.97
501.036	9746.64
501.405	9863.24
501.774	9933.98
502.143	10089.45
502.512	10142.11
502.88	10230.24
503.249	10257.36
503.618	10387.07
503.987	10409.22
504.356	10411.48
504.724	10690.57
505.093	10721.07
505.462	10731.02
505.83	10873.84
506.199	10925.81
506.567	11059.14
506.936	11148.63
507.304	11277.22
507.672	11365.35
508.041	11352.92
508.409	11458.23
508.777	11522.63
509.145	11719.92
509.514	11684.66
509.882	11733.25
510.25	11694.38
510.618	11843.76
510.986	11886.02
511.354	12009.85
511.722	12080.13
512.09	12152.9
512.458	12065.67
512.826	12238.1
513.193	12332.33
513.561	12356.29
513.929	12463.18
514.297	12513.57
514.664	12565.09
515.032	12557.86
515.4	12688.25
515.767	12682.38
516.135	12735.03
516.502	12640.8
516.869	12894.58
517.237	12843.05
517.604	12849.38
517.972	12847.57
518.339	12957.17
518.706	12977.29
519.073	13066.32
519.44	13104.29
519.808	13113.33
520.175	13139.77
520.542	13255.02
520.909	13301.12
521.276	13263.83
521.643	13317.62
522.009	13416.6
522.376	13512.87
522.743	13422.47
523.11	13480.55
523.477	13615.69
523.843	13644.61
524.21	13704.5
524.577	13745.18
524.943	13671.28
525.31	13819.3
525.676	13937.03
526.043	13963.02
526.409	13914.44
526.776	13973.87
527.142	13938.62
527.508	14031.95
527.874	14034.43
528.241	14029.24
528.607	13977.26
528.973	14164.37
529.339	14069.46
529.705	14161.66
530.071	14081.21
530.437	14163.24
530.803	14166.86
531.169	14247.53
531.535	14111.49
531.901	14133.19
532.267	14151.72
532.632	14226.29
532.998	14185.39
533.364	14262.68
533.73	14154.43
534.095	14210.47
534.461	14198.27
534.826	14171.6
535.192	14104.04
535.557	14169.57
535.923	14150.59
536.288	14106.07
536.653	14139.74
537.019	13969.58
537.384	14008.22
537.749	14139.74
538.114	13994.21
538.479	14007.09
538.845	14007.09
539.21	13850.03
539.575	13915.79
539.94	13943.81
540.305	13931.39
540.67	13852.74
541.034	13834.89
541.399	13817.72
541.764	13820.2
542.129	13750.37
542.494	13746.76
542.858	13728.9
543.223	13740.43
543.587	13716.48
543.952	13675.35
544.316	13662.24
544.681	13552.19
545.045	13548.34
545.41	13550.15
545.774	13547.67
546.138	13538.4
546.503	13490.04
546.867	13472.41
547.231	13455.47
547.595	13421.12
547.959	13379.99
548.324	13386.77
548.688	13263.15
549.052	13283.72
549.416	13262.7
549.779	13214.12
550.143	13210.5
550.507	13239.43
550.871	13299.99
551.235	13233.55
551.599	13209.6
551.962	13152.42
552.326	13152.2
552.689	13173.66
553.053	13072.65
553.417	13074.01
553.78	13172.99
554.143	13100.22
554.507	13025.65
554.87	12947.23
555.234	13073.78
555.597	12978.42
555.96	12925.99
556.323	12971.86
556.686	12941.35
557.05	12959.66
557.413	13089.15
557.776	13010.96
558.139	12958.76
558.502	12963.95
558.865	12875.59
559.228	12939.77
559.59	12972.77
559.953	12909.27
560.316	12992.2
560.679	12938.64
561.041	13051.18
561.404	13036.95
561.767	13098.19
562.129	12911.3
562.492	13013.44
562.854	12997.4
563.217	12940.45
563.579	13011.41
563.941	13069.03
564.304	12966.66
564.666	13043.27
565.028	13006.89
565.39	13061.13
565.753	13038.75
566.115	13099.32
566.477	13226.32
566.839	13187.22
567.201	13189.26
567.563	13139.32
567.925	13268.58
568.287	13195.13
568.648	13245.98
569.01	13225.87
569.372	13354.23
569.734	13216.38
570.095	13311.51
570.457	13408.01
570.819	13326.66
571.18	13294.79
571.542	13337.73
571.903	13278.97
572.265	13392.64
572.626	13387.44
572.987	13365.75
573.349	13342.47
573.71	13360.1
574.071	13454.34
574.432	13408.24
574.794	13534.33
575.155	13468.57
575.516	13459.31
575.877	13412.53
576.238	13562.58
576.599	13582.92
576.96	13462.02
577.32	13517.84
577.681	13498.63
578.042	13551.06
578.403	13565.29
578.763	13586.54
579.124	13566.2
579.485	13504.5
579.845	13612.98
580.206	13589.47
580.566	13529.14
580.927	13503.37
581.287	13604.61
581.648	13540.66
582.008	13544.05
582.368	13535.69
582.728	13603.94
583.089	13558.29
583.449	13518.74
583.809	13423.15
584.169	13621.34
584.529	13548.34
584.889	13586.31
585.249	13458.18
585.609	13504.96
585.969	13559.42
586.329	13461.79
586.688	13435.35
587.048	13436.26
587.408	13443.04
587.768	13453.43
588.127	13464.73
588.487	13400.55
588.846	13488.68
589.206	13433.55
589.565	13345.86
589.925	13455.92
590.284	13329.14
590.643	13406.65
591.003	13452.53
591.362	13368.01
591.721	13451.4
592.08	13359.87
592.44	13421.34
592.799	13376.82
593.158	13384.96
593.517	13315.36
593.876	13400.55
594.235	13296.83
594.593	13356.94
594.952	13359.42
595.311	13311.06
595.67	13346.54
596.029	13366.43
596.387	13391.29
596.746	13274.68
597.104	13299.09
597.463	13238.52
597.822	13376.15
598.18	13273.32
598.538	13334.56
598.897	13344.06
599.255	13206.43
599.613	13416.14
599.972	13270.61
600.33	13284.62
600.688	13253.44
601.046	13349.48
601.404	13339.54
601.762	13297.96
602.12	13379.54
602.478	13337.05
602.836	13380.89
603.194	13327.79
603.552	13274.23
603.91	13272.19
604.268	13349.93
604.625	13224.96
604.983	13343.83
605.341	13209.14
605.698	13310.61
606.056	13338.41
606.413	13332.3
606.771	13370.04
607.128	13332.08
607.485	13295.7
607.843	13311.51
608.2	13384.05
608.557	13393.55
608.914	13391.96
609.272	13435.35
609.629	13495.01
609.986	13515.35
610.343	13508.57
610.7	13507.67
611.057	13449.36
611.414	13457.73
611.771	13406.43
612.127	13558.06
612.484	13450.95
612.841	13535.24
613.198	13490.94
613.554	13524.39
613.911	13507.89
614.267	13598.51
614.624	13495.01
614.98	13568.91
615.337	13613.65
615.693	13537.05
616.05	13552.19
616.406	13659.08
616.762	13591.51
617.118	13571.85
617.475	13635.57
617.831	13572.07
618.187	13640.32
618.543	13681.9
618.899	13714.44
619.255	13653.2
619.611	13711.73
619.967	13732.29
620.323	13772.75
620.678	13768.23
621.034	13601.68
621.39	13669.92
621.746	13614.78
622.101	13839.18
622.457	13671.5
622.812	13675.57
623.168	13782.46
623.523	13716.7
623.879	13771.39
624.234	13689.36
624.589	13711.5
624.945	13777.04
625.3	13733.42
625.655	13810.71
626.01	13681.22
626.365	13725.97
626.72	13738.4
627.075	13658.17
627.43	13669.25
627.785	13678.96
628.14	13650.94
628.495	13693.2
628.85	13643.03
629.205	13583.15
629.559	13690.26
629.914	13606.2
630.269	13641.45
630.623	13672.18
630.978	13647.32
631.332	13678.74
631.687	13648.91
632.041	13668.34
632.396	13702.92
632.75	13532.07
633.104	13586.76
633.459	13450.27
633.813	13401.23
634.167	13484.17
634.521	13560.32
634.875	13466.76
635.229	13491.85
635.583	13460.66
635.937	13469.48
636.291	13416.14
636.645	13391.51
636.999	13417.95
637.352	13380.21
637.706	13320.1
638.06	13373.21
638.413	13356.48
638.767	13368.69
639.121	13311.51
639.474	13196.72
639.828	13268.13
640.181	13307.45
640.534	13252.76
640.888	13323.27
641.241	13167.56
641.594	13204.4
641.947	13171.63
642.301	13227.45
642.654	13187.9
643.007	13213.66
643.36	13323.72
643.713	13188.35
644.066	13149.71
644.419	13109.71
644.771	13012.99
645.124	13004.63
645.477	12905.88
645.83	12890.96
646.182	12839.21
646.535	12635.83
646.888	12822.04
647.24	12700.46
647.593	12761.02
647.945	12732.77
648.298	12669.05
648.65	12598.99
649.002	12587.92
649.355	12725.54
649.707	12712.66
650.059	12722.15
650.411	12852.77
650.763	12918.08
651.115	13024.29
651.467	12949.26
651.819	12947.68
652.171	13008.25
652.523	12935.25
652.875	12946.55
653.227	12970.96
653.578	13030.17
653.93	12986.78
654.282	12914.24
654.633	12896.61
654.985	13018.41
655.337	12929.38
655.688	12977.51
656.039	13019.09
656.391	12935.93
656.742	12963.95
657.094	12888.25
657.445	12927.8
657.796	12948.81
658.147	12993.78
658.498	12874.92
658.849	12966.21
659.2	12964.4
659.551	12900.68
659.902	13061.58
660.253	12969.6
660.604	13063.39
660.955	13043.5
661.306	13007.57
661.656	12965.53
662.007	12951.3
662.358	12913.78
662.708	13036.95
663.059	13053.89
663.409	12938.42
663.76	13038.08
664.11	13048.47
664.461	13015.7
664.811	13047.57
665.161	13033.33
665.511	12990.62
665.862	13048.02
666.212	12987.68
666.562	13030.84
666.912	13061.35
667.262	12985.42
667.612	13038.3
667.962	12960.79
668.312	12982.26
668.662	13083.05
669.011	13036.95
669.361	13021.35
669.711	12976.83
670.06	12990.62
670.41	12946.55
670.76	12922.6
671.109	12958.98
671.459	12986.1
671.808	12924.86
672.157	12919.43
672.507	12876.05
672.856	12847.35
673.205	12883.05
673.554	12899.1
673.904	12882.83
674.253	12911.75
674.602	12864.52
674.951	12709.72
675.3	12620.01
675.649	12829.72
675.998	12832.66
676.346	12747.24
676.695	12823.84
677.044	12676.5
677.393	12775.26
677.741	12840.57
678.09	12739.33
678.438	12633.79
678.787	12653.68
679.135	12722.6
679.484	12623.85
679.832	12733
680.181	12580.23
680.529	12643.51
680.877	12540.91
681.225	12497.75
681.573	12647.13
681.922	12571.65
682.27	12502.5
682.618	12542.95
682.966	12520.12
683.314	12513.57
683.661	12498.2
684.009	12380.47
684.357	12415.49
684.705	12371.88
685.053	12352.22
685.4	12341.82
685.748	12287.59
686.095	12304.76
686.443	12276.51
686.79	12221.15
687.138	12173.69
687.485	12193.35
687.832	12144.77
688.18	12128.27
688.527	12055.73
688.874	12060.47
689.221	12070.64
689.568	11989.74
689.915	11932.12
690.262	11966.92
690.609	11933.7
690.956	11881.5
691.303	11890.31
691.65	11780.93
691.997	11843.76
692.344	11735.06
692.69	11702.52
693.037	11622.29
693.383	11591.79
693.73	11627.26
694.077	11453.03
694.423	11540.94
694.769	11443.31
695.116	11478.12
695.462	11373.71
695.808	11353.15
696.155	11365.8
696.501	11283.55
696.847	11293.04
697.193	11194.73
697.539	11176.66
697.885	11098.24
698.231	11047.39
698.577	11087.62
698.923	11001.52
699.269	10970.56
699.614	10881.75
699.96	10849.66
700.306	10858.25
700.651	10805.59
700.997	10765.82
701.342	10766.04
701.688	10775.08
702.033	10669.78
702.379	10693.5
702.724	10598.37
703.069	10622.09
703.415	10540.51
703.76	10537.8
704.105	10441.99
704.45	10525.37
704.795	10422.55
705.14	10378.71
705.485	10368.99
705.83	10262.33
706.175	10322.89
706.52	10293.97
706.865	10208.09
707.209	10172.61
707.554	10172.39
707.899	10133.29
708.243	10076.8
708.588	10140.07
708.932	9994.77
709.277	10059.17
709.621	10052.39
709.966	9877.93
710.31	9960.42
710.654	9795.22
710.998	9875.22
711.342	9855.11
711.687	9823.7
712.031	9841.32
712.375	9655.34
712.719	9750.7
713.063	9758.84
713.407	9774.88
713.75	9726.52
714.094	9764.26
714.438	9681.1
714.782	9655.11
715.125	9683.81
715.469	9628.45
715.812	9622.35
716.156	9639.29
716.499	9618.5
716.843	9606.98
717.186	9528.79
717.53	9593.19
717.873	9612.18
718.216	9590.71
718.559	9559.07
718.902	9484.5
719.246	9512.07
719.589	9466.87
719.932	9403.59
720.275	9435.91
720.617	9397.04
720.96	9331.96
721.303	9346.87
721.646	9403.59
721.989	9304.84
722.331	9366.99
722.674	9394.56
723.016	9385.74
723.359	9314.78
723.701	9333.31
724.044	9249.02
724.386	9226.88
724.729	9302.13
725.071	9250.83
725.413	9266.87
725.755	9203.37
726.097	9202.7
726.439	9157.5
726.782	9173.54
727.124	9197.95
727.465	9218.74
727.807	9124.05
728.149	9187.33
728.491	9103.26
728.833	9122.92
729.175	9137.16
729.516	9086.77
729.858	9150.27
730.199	9136.03
730.541	9162.7
730.882	9099.2
731.224	9146.2
731.565	9154.34
731.906	9049.93
732.248	9109.37
732.589	9047.45
732.93	9058.52
733.271	9087.9
733.612	9070.72
733.953	9073.66
734.294	9023.94
734.635	9023.72
734.976	9068.01
735.317	9038.18
735.658	9051.74
735.999	9035.02
736.339	9021.01
736.68	9089.48
737.021	9138.52
737.361	9051.74
737.702	9162.92
738.042	9155.47
738.383	9060.55
738.723	9119.08
739.063	9105.98
739.404	9131.06
739.744	9109.14
740.084	9074.34
740.424	9163.15
740.764	9137.61
741.104	9202.24
741.444	9240.21
741.784	9186.43
742.124	9158.63
742.464	9199.08
742.804	9213.54
743.143	9292.41
743.483	9250.38
743.823	9226.88
744.162	9279.08
744.502	9253.54
744.841	9292.86
745.181	9366.31
745.52	9368.12
745.86	9398.85
746.199	9461.45
746.538	9544.38
746.877	9587.54
747.216	9633.65
747.556	9538.28
747.895	9693.76
748.234	9747.54
748.573	9719.52
748.911	9761.33
749.25	9859.63
749.589	9894.2
749.928	10005.61
750.267	10077.02
750.605	10138.94
750.944	10190.24
751.283	10286.06
751.621	10347.07
751.96	10353.17
752.298	10487.86
752.636	10590
752.975	10616.44
753.313	10632.71
753.651	10921.07
753.989	10935.31
754.327	11025.92
754.666	11160.84
755.004	11288.06
755.342	11422.07
755.679	11556.76
756.017	11626.81
756.355	11781.61
756.693	11850.54
757.031	12033.36
757.368	12075.84
757.706	12246.91
758.044	12379.11
758.381	12538.2
758.719	12681.93
759.056	12775.03
759.394	12969.38
759.731	13131.63
760.068	13224.74
760.405	13414.11
760.743	13569.13
761.08	13725.51
761.417	13838.05
761.754	14024.94
762.091	14163.92
762.428	14173.86
762.765	14398.94
763.102	14655.89
763.438	14788.54
763.775	14843.23
764.112	15130.9
764.449	15311.91
764.785	15288.64
765.122	15498.8
765.458	15557.56
765.795	15740.6
766.131	15933.37
766.467	16020.37
766.804	16134.27
767.14	16231.89
767.476	16445.22
767.812	16504.88
768.148	16716.4
768.485	16720.01
768.821	16766.11
769.157	16942.15
769.492	17106.44
769.828	17158.87
770.164	17270.28
770.5	17365.65
770.836	17508.24
771.171	17495.13
771.507	17696.26
771.842	17694
772.178	17832.53
772.513	17874.78
772.849	17935.12
773.184	18094.89
773.519	18185.96
773.855	18201.56
774.19	18223.7
774.525	18257.37
774.86	18437.48
775.195	18416.69
775.53	18450.59
775.865	18506.63
776.2	18426.18
776.535	18459.4
776.87	18513.41
777.205	18511.15
777.539	18531.04
777.874	18770.81
778.209	18569.91
778.543	18603.58
778.878	18645.16
779.212	18699.17
779.547	18694.88
779.881	18821.65
780.215	18776.68
780.55	18750.02
780.884	18684.93
781.218	18799.28
781.552	18778.26
781.886	18707.76
782.22	18700.07
782.554	18681.99
782.888	18585.05
783.222	18590.7
783.556	18627.76
783.889	18653.75
784.223	18498.95
784.557	18486.75
784.89	18550.7
785.224	18581.88
785.557	18495.33
785.891	18476.12
786.224	18451.49
786.558	18546.86
786.891	18374.21
787.224	18339.18
787.557	18396.58
787.891	18322.68
788.224	18405.17
788.557	18465.05
788.89	18399.74
789.223	18389.8
789.556	18312.51
789.888	18331.27
790.221	18213.08
790.554	18077.72
790.887	18131.95
791.219	18057.83
791.552	18117.94
791.884	18000.88
792.217	18075.91
792.549	17971.73
792.882	17828.23
793.214	17883.37
793.546	17926.53
793.879	17789.81
794.211	17709.59
794.543	17779.65
794.875	17712.75
795.207	17815.12
795.539	17674.11
795.871	17614.23
796.203	17563.61
796.535	17394.8
796.867	17465.98
797.198	17352.99
797.53	17386.66
797.862	17238.64
798.193	17437.73
798.525	17225.54
798.856	17247.46
799.188	17131.3
799.519	17117.74
799.85	17037.07
800.182	17009.72
800.513	17091.08
800.844	16897.18
801.175	16967.24
801.506	16888.37
801.837	16790.07
802.168	16887.92
802.499	16769.95
802.83	16708.94
803.161	16657.64
803.491	16677.3
803.822	16700.13
804.153	16554.14
804.483	16510.3
804.814	16546.46
805.145	16405.44
805.475	16419.23
805.805	16437.76
806.136	16391.66
806.466	16370.64
806.796	16384.88
807.126	16158.9
807.457	16193.02
807.787	16230.99
808.117	16147.6
808.447	16026.25
808.777	16058.11
809.107	16007.26
809.436	16028.28
809.766	16019.47
810.096	15990.31
810.426	15818.12
810.755	15888.85
811.085	15868.74
811.414	15741.96
811.744	15635.52
812.073	15713.94
812.403	15777.66
812.732	15601.62
813.061	15607.5
813.39	15499.48
813.719	15533.38
814.049	15642.53
814.378	15495.64
814.707	15415.19
815.036	15357.11
815.365	15315.3
815.693	15156.66
816.022	15329.54
816.351	15189.43
816.68	15198.92
817.008	15207.96
817.337	15033.5
817.665	15030.11
817.994	15111.47
818.322	15113.73
818.651	14927.74
818.979	14991.92
819.307	15040.73
819.636	15000.28
819.964	14952.38
820.292	15072.37
820.62	14945.37
820.948	14862.43
821.276	14903.79
821.604	14939.95
821.932	14890.68
822.259	14883
822.587	14928.87
822.915	14870.57
823.243	14865.15
823.57	14850.46
823.898	14915.99
824.225	14731.82
824.553	14799.61
824.88	14894.3
825.207	14858.59
825.535	14866.28
825.862	14801.19
826.189	14849.55
826.516	14888.42
826.843	14911.47
827.17	14889.33
827.497	14903.11
827.824	14975.2
828.151	14916.22
828.478	14900.85
828.805	14924.81
829.131	14852.26
829.458	14863.34
829.785	14798.48
830.111	14892.49
830.438	14845.03
830.764	15019.94
831.09	14930.91
831.417	14739.5
831.743	14932.26
832.069	14825.82
832.395	14826.95
832.722	14868.99
833.048	14829.44
833.374	14805.94
833.7	14662.21
834.026	14786.5
834.351	14825.37
834.677	14815.2
835.003	14780.18
835.329	14806.62
835.654	14774.75
835.98	14718.94
836.306	14686.85
836.631	14574.08
836.956	14667.41
837.282	14692.95
837.607	14639.84
837.932	14571.37
838.258	14600.75
838.583	14553.52
838.908	14488.66
839.233	14497.47
839.558	14460.41
839.883	14375.22
840.208	14325.95
840.533	14321.66
840.858	14371.83
841.182	14350.81
841.507	14320.08
841.832	14252.05
842.156	14197.59
842.481	14232.17
842.805	14263.35
843.13	14253.41
843.454	14164.6
843.778	14177.71
844.103	13994.66
844.427	14017.94
844.751	14034.21
845.075	14065.39
845.399	13939.97
845.723	13920.99
846.047	13858.17
846.371	13815.46
846.695	13759.19
847.019	13733.88
847.343	13663.6
847.666	13543.15
847.99	13517.16
848.313	13542.24
848.637	13404.62
848.96	13349.71
849.284	13408.01
849.607	13239.2
849.931	13254.79
850.254	13179.09
850.577	13068.81
850.9	12937.74
851.223	13023.16
851.546	12921.47
851.869	12899.77
852.192	12904.29
852.515	12805.31
852.838	12732.55
853.161	12664.3
853.483	12670.63
853.806	12643.74
854.129	12645.54
854.451	12573.68
854.774	12448.49
855.096	12408.94
855.419	12428.37
855.741	12409.39
856.063	12313.12
856.385	12189.96
856.708	12294.37
857.03	12223.86
857.352	12242.62
857.674	12166.01
857.996	12138.21
858.318	12039.01
858.64	12035.39
858.961	11983.87
859.283	11930.53
859.605	11956.3
859.926	11937.77
860.248	11935.05
860.57	11857.77
860.891	11854.83
861.212	11674.5
861.534	11695.74
861.855	11686.92
862.176	11693.93
862.498	11619.36
862.819	11705.23
863.14	11649.41
863.461	11692.57
863.782	11606.25
864.103	11619.36
864.424	11539.36
864.745	11602.41
865.065	11435.41
865.386	11474.73
865.707	11429.3
866.027	11476.08
866.348	11381.4
866.668	11408.51
866.989	11344.79
867.309	11340.72
867.63	11321.28
867.95	11277.67
868.27	11230.21
868.59	11252.36
868.91	11232.92
869.23	11253.49
869.55	11195.19
869.87	11243.77
870.19	11210.33
870.51	11148.18
870.83	11156.32
871.15	11104.11
871.469	11145.02
871.789	11116.32
872.109	11089.43
872.428	10976.89
872.748	11095.75
873.067	10991.35
873.386	10987.51
873.706	10974.17
874.025	10911.58
874.344	11014.4
874.663	10945.25
874.982	10875.42
875.301	10908.41
875.62	10903.89
875.939	10879.26
876.258	10876.78
876.577	10845.59
876.896	10882.88
877.214	10791.35
877.533	10757.68
877.852	10783.67
878.17	10746.38
878.489	10730.57
878.807	10713.62
879.125	10749.77
879.444	10726.95
879.762	10685.59
880.08	10672.71
880.398	10623.68
880.716	10623.45
881.034	10597.01
881.352	10580.74
881.67	10526.73
881.988	10581.42
882.306	10503
882.624	10407.64
882.941	10398.6
883.259	10440.86
883.577	10401.08
883.894	10272.27
884.212	10374.87
884.529	10291.48
884.846	10289.22
885.164	10240.86
885.481	10197.7
885.798	10209
886.115	10164.48
886.432	10150.24
886.75	10176
887.067	10150.47
887.383	10093.07
887.7	10083.58
888.017	10003.13
888.334	10080.64
888.651	9951.38
888.967	9998.16
889.284	9947.31
889.6	9980.98
889.917	9847.2
890.233	9906.41
890.55	9785.28
890.866	9800.65
891.182	9773.75
891.498	9776.24
891.815	9649.24
892.131	9795.22
892.447	9658.28
892.763	9623.93
893.079	9634.1
893.395	9581.22
893.71	9536.47
894.026	9534.21
894.342	9557.94
894.657	9472.07
894.973	9429.36
895.289	9395.69
895.604	9338.29
895.92	9319.08
896.235	9311.85
896.55	9246.99
896.865	9222.81
897.181	9246.54
897.496	9303.26
897.811	9125.64
898.126	9090.61
898.441	9100.78
898.756	9069.59
899.071	9064.85
899.386	9081.8
899.7	8904.17
900.015	8920.22
900.33	8792.31
900.644	8840.67
900.959	8784.85
901.273	8799.54
901.588	8727.23
901.902	8697.17
902.216	8701.69
902.531	8678.19
902.845	8692.2
903.159	8569.04
903.473	8560.23
903.787	8527.69
904.101	8446.11
904.415	8524.3
904.729	8482.94
905.042	8359.1
905.356	8392.1
905.67	8339.22
905.984	8297.63
906.297	8320.69
906.611	8244.3
906.924	8278.65
907.237	8182.61
907.551	8178.54
907.864	8139.22
908.177	8097.87
908.491	8077.08
908.804	7990.3
909.117	7949.85
909.43	7949.4
909.743	7891.32
910.056	7846.8
910.368	7883.18
910.681	7868.72
910.994	7790.08
911.307	7802.05
911.619	7735.84
911.932	7743.75
912.244	7709.4
912.557	7607.94
912.869	7592.57
913.181	7570.42
913.494	7559.12
913.806	7492.68
914.118	7496.53
914.43	7482.52
914.742	7399.35
915.054	7366.81
915.366	7329.75
915.678	7310.77
915.99	7293.59
916.302	7278.68
916.613	7243.2
916.925	7222.86
917.236	7133.15
917.548	7150.09
917.859	7136.76
918.171	7094.28
918.482	7072.36
918.794	7073.03
919.105	7027.16
919.416	6975.64
919.727	6959.59
920.038	6929.76
920.349	6873.49
920.66	6884.34
920.971	6828.52
921.282	6831.68
921.593	6799.14
921.903	6747.85
922.214	6720.73
922.525	6690.45
922.835	6699.03
923.146	6608.19
923.456	6648.64
923.767	6591.24
924.077	6567.96
924.387	6552.14
924.697	6474.63
925.008	6438.7
925.318	6469.89
925.628	6427.4
925.938	6388.76
926.248	6355.99
926.558	6353.28
926.867	6336.33
927.177	6286.39
927.487	6287.97
927.796	6224.02
928.106	6230.57
928.416	6186.73
928.725	6184.02
929.034	6158.26
929.344	6116.68
929.653	6069.44
929.962	6064.02
930.271	6024.02
930.581	6012.72
930.89	5968.2
931.199	5961.65
931.508	5905.38
931.817	5918.94
932.125	5937.47
932.434	5866.74
932.743	5806.63
933.051	5859.28
933.36	5805.5
933.669	5721.88
933.977	5754.88
934.286	5681.43
934.594	5680.08
934.902	5670.59
935.21	5667.2
935.519	5589.23
935.827	5620.64
936.135	5559.18
936.443	5580.64
936.751	5519.18
937.059	5541.1
937.367	5487.54
937.674	5475.11
937.982	5432.17
938.29	5442.79
938.597	5426.75
938.905	5346.07
939.213	5319.41
939.52	5312.18
939.827	5313.76
940.135	5269.24
940.442	5254.33
940.749	5260.88
941.056	5225.4
941.363	5196.02
941.67	5188.34
941.977	5139.07
942.284	5111.73
942.591	5100.2
942.898	5063.37
943.205	5045.74
943.511	5051.84
943.818	5024.5
944.125	4988.34
944.431	4973.65
944.738	5004.61
945.044	4920.55
945.35	4895.24
945.657	4872.87
945.963	4826.99
946.269	4832.64
946.575	4828.12
946.881	4798.52
947.187	4780.44
947.493	4750.61
947.799	4745.64
948.105	4741.12
948.41	4690.27
948.716	4720.78
949.022	4659.99
949.327	4660.67
949.633	4627.45
949.938	4639.88
950.244	4619.54
950.549	4553.55
950.854	4535.93
951.16	4515.59
951.465	4482.59
951.77	4450.96
952.075	4476.94
952.38	4410.96
952.685	4452.31
952.99	4408.25
953.294	4350.62
953.599	4367.79
953.904	4309.72
954.209	4297.97
954.513	4336.16
954.818	4319.89
955.122	4284.86
955.426	4297.29
955.731	4205.31
956.035	4247.8
956.339	4245.09
956.643	4184.52
956.948	4167.57
957.252	4179.1
957.556	4143.62
957.86	4102.94
958.163	4145.88
958.467	4078.54
958.771	4073.79
959.075	4034.02
959.378	4024.75
959.682	4003.06
959.985	4004.64
960.289	3955.6
960.592	3957.41
960.896	3940.91
961.199	3955.6
961.502	3945.88
961.805	3921.7
962.108	3893.68
962.411	3910.18
962.714	3826.34
963.017	3827.92
963.32	3824.53
963.623	3784.08
963.926	3760.81
964.228	3742.5
964.531	3736.85
964.833	3773.69
965.136	3717.87
965.438	3695.5
965.741	3672.45
966.043	3641.03
966.345	3644.88
966.648	3641.03
966.95	3623.41
967.252	3580.92
967.554	3588.15
967.856	3555.16
968.158	3515.61
968.46	3530.08
968.761	3554.26
969.063	3504.09
969.365	3485.11
969.666	3512
969.968	3444.66
970.269	3472.23
970.571	3427.93
970.872	3412.11
971.174	3409.4
971.475	3384.09
971.776	3383.19
972.077	3336.18
972.378	3356.3
972.679	3359.91
972.98	3316.07
973.281	3298.67
973.582	3299.8
973.883	3246.69
974.183	3272.68
974.484	3277.65
974.785	3223.64
975.085	3229.52
975.386	3215.28
975.686	3167.6
975.986	3186.13
976.287	3168.5
976.587	3154.95
976.887	3134.15
977.187	3107.26
977.487	3100.03
977.787	3089.64
978.087	3094.61
978.387	3059.35
978.687	3075.17
978.987	3055.06
979.286	2995.4
979.586	3021.62
979.885	2987.72
980.185	2956.76
980.484	2975.06
980.784	2971.9
981.083	2961.28
981.382	2922.41
981.682	2919.47
981.981	2883.99
982.28	2873.6
982.579	2865.91
982.878	2886.93
983.177	2864.56
983.475	2864.56
983.774	2801.96
984.073	2819.59
984.372	2772.13
984.67	2776.42
984.969	2798.12
985.267	2760.61
985.566	2730.55
985.864	2747.27
986.162	2707.95
986.461	2679.7
986.759	2712.92
987.057	2648.97
987.355	2670.66
987.653	2664.34
987.951	2617.56
988.249	2603.77
988.547	2632.25
988.844	2620.5
989.142	2613.04
989.44	2585.47
989.737	2591.57
990.035	2574.4
990.332	2556.32
990.63	2552.48
990.927	2542.08
991.224	2501.4
991.521	2494.17
991.819	2508.18
992.116	2482.42
992.413	2457.56
992.71	2450.78
993.006	2461.63
993.303	2434.74
993.6	2430.44
993.897	2404.91
994.193	2392.48
994.49	2393.38
994.787	2370.56
995.083	2351.58
995.379	2349.54
995.676	2369.43
995.972	2362.65
996.268	2327.62
996.565	2327.85
996.861	2286.27
997.157	2260.51
997.453	2262.77
997.749	2265.03
998.044	2273.84
998.34	2279.26
998.636	2257.12
998.932	2237.23
999.227	2217.79
999.523	2189.77
999.818	2216.66
1000.114	2150.45
1000.409	2171.47
1000.704	2142.54
1001	2117.91
1001.295	2150
1001.59	2113.16
1001.885	2119.27
1002.18	2095.54
1002.475	2076.56
1002.77	2080.62
1003.065	2055.99
1003.359	2071.81
1003.654	2063.9
1003.949	2036.56
1004.243	2012.6
1004.538	1975.32
1004.832	2009.66
1005.127	1980.29
1005.421	1948.42
1005.715	1956.56
1006.009	1944.36
1006.304	1959.04
1006.598	1925.37
1006.892	1893.96
1007.186	1908.65
1007.48	1887.86
1007.773	1865.04
1008.067	1895.54
1008.361	1879.27
1008.655	1862.32
1008.948	1851.7
1009.242	1818.03
1009.535	1822.55
1009.829	1827.52
1010.122	1789.78
1010.415	1817.81
1010.708	1750.46
1011.001	1765.83
1011.295	1775.09
1011.588	1750.24
1011.881	1736.23
1012.173	1745.72
1012.466	1724.93
1012.759	1699.62
1013.052	1696.68
1013.344	1708.66
1013.637	1654.42
1013.93	1669.56
1014.222	1690.35
1014.514	1640.63
1014.807	1637.02
1015.099	1615.32
1015.391	1630.69
1015.683	1597.02
1015.976	1595.44
1016.268	1584.37
1016.56	1580.75
1016.851	1575.78
1017.143	1545.04
1017.435	1557.02
1017.727	1534.2
1018.018	1540.98
1018.31	1494.42
1018.602	1509.56
1018.893	1500.98
1019.185	1495.55
1019.476	1454.2
1019.767	1481.99
1020.058	1469.79
1020.35	1475.22
1020.641	1447.87
1020.932	1430.7
1021.223	1451.71
1021.514	1433.18
1021.804	1419.17
1022.095	1416.69
1022.386	1388.89
1022.677	1381.43
1022.967	1382.56
1023.258	1348.89
1023.548	1360.42
1023.839	1363.35
1024.129	1328.33
1024.419	1333.75
1024.709	1323.13
1025	1308.67
1025.29	1313.64
1025.58	1287.42
1025.87	1271.15
1026.16	1307.99
1026.449	1296.24
1026.739	1278.84
1027.029	1244.49
1027.319	1244.49
1027.608	1227.09
1027.898	1203.81
1028.187	1201.55
1028.477	1203.36
1028.766	1196.35
1029.055	1212.4
1029.344	1180.76
1029.634	1185.73
1029.923	1190.7
1030.212	1177.14
1030.501	1171.27
1030.79	1173.3
1031.078	1121.33
1031.367	1142.79
1031.656	1156.81
1031.945	1141.21
1032.233	1114.1
1032.522	1104.83
1032.81	1115.22
1033.099	1119.97
1033.387	1111.16
1033.675	1084.49
1033.963	1068.22
1034.251	1091.04
1034.54	1054.89
1034.828	1049.24
1035.116	1070.03
1035.403	1039.07
1035.691	1032.29
1035.979	1009.92
1036.267	1023.25
1036.554	1013.76
1036.842	1023.25
1037.129	982.35
1037.417	998.17
1037.704	999.75
1037.992	983.25
1038.279	994.32
1038.566	957.49
1038.853	957.49
1039.14	957.49
