Data from hue_30_FLMS001491_10.txt Node
Date: Mon Feb 06 15:04:35 GMT 2017
User: dcchb
Spectrometer: FLMS00149
Trigger mode: 0
Integration Time (sec): 2.000000E-2
Scans to average: 10
Electric dark correction enabled: true
Nonlinearity correction enabled: false
Boxcar width: 0
XAxis mode: Wavelengths
Number of Pixels in Spectrum: 2048
>>>>>Begin Spectral Data<<<<<
341.393	-1.48
341.776	-1.48
342.16	-1.48
342.543	-66.34
342.927	-60.46
343.31	-67.02
343.693	-88.03
344.077	-57.53
344.46	-56.4
344.843	-60.92
345.226	-43.06
345.61	-28.37
345.993	-40.8
346.376	-8.94
346.759	19.76
347.142	26.99
347.525	38.97
347.908	64.73
348.291	93.43
348.674	90.27
349.057	116.93
349.44	121
349.823	164.16
350.206	168.23
350.588	209.36
350.971	229.25
351.354	201.68
351.737	239.87
352.119	238.51
352.502	262.69
352.884	282.58
353.267	273.76
353.65	298.17
354.032	314.44
354.414	306.98
354.797	311.05
355.179	322.8
355.562	328.9
355.944	324.84
356.326	334.55
356.709	333.42
357.091	330.94
357.473	330.94
357.855	356.47
358.238	345.85
358.62	318.28
359.002	344.5
359.384	338.4
359.766	341.11
360.148	334.1
360.53	359.41
360.912	336.59
361.294	341.78
361.676	334.78
362.057	339.52
362.439	327.77
362.821	312.41
363.203	320.54
363.584	329.13
363.966	329.13
364.348	331.84
364.729	326.64
365.111	325.74
365.493	319.64
365.874	303.59
366.256	299.53
366.637	295.91
367.019	298.17
367.4	324.16
367.781	322.8
368.163	311.05
368.544	316.7
368.925	298.4
369.306	328
369.688	308.11
370.069	313.76
370.45	307.44
370.831	318.51
371.212	312.41
371.593	323.48
371.974	318.51
372.355	295.91
372.736	317.15
373.117	320.99
373.498	340.88
373.879	330.71
374.26	324.84
374.641	316.25
375.021	313.31
375.402	309.92
375.783	298.85
376.163	331.39
376.544	350.82
376.925	316.02
377.305	306.76
377.686	297.49
378.066	340.65
378.447	329.36
378.827	341.33
379.208	331.16
379.588	323.03
379.968	335.46
380.349	328
380.729	321.45
381.109	332.52
381.489	336.36
381.87	332.75
382.25	349.69
382.63	325.97
383.01	333.2
383.39	333.2
383.77	335.68
384.15	347.66
384.53	334.33
384.91	346.3
385.29	331.62
385.67	349.02
386.049	350.6
386.429	338.62
386.809	345.63
387.189	361.45
387.568	340.2
387.948	354.67
388.328	344.27
388.707	365.06
389.087	348.56
389.466	352.18
389.846	349.02
390.225	353.31
390.605	355.12
390.984	330.71
391.363	366.42
391.743	368.9
392.122	374.33
392.501	356.47
392.881	359.41
393.26	372.07
393.639	379.3
394.018	356.25
394.397	386.53
394.776	382.46
395.155	343.59
395.534	360.99
395.913	394.21
396.292	365.96
396.671	356.47
397.05	366.42
397.429	353.54
397.808	360.32
398.186	399.18
398.565	385.17
398.944	364.38
399.323	389.69
399.701	368.68
400.08	395.57
400.458	373.42
400.837	381.33
401.215	378.17
401.594	369.58
401.972	387.89
402.351	376.81
402.729	369.13
403.107	400.77
403.486	408.45
403.864	393.31
404.242	397.15
404.62	401.9
404.999	400.31
405.377	386.98
405.755	422.69
406.133	402.8
406.511	412.29
406.889	408.45
407.267	409.81
407.645	420.65
408.023	438.05
408.401	411.61
408.779	420.2
409.156	436.92
409.534	413.65
409.912	429.92
410.29	421.78
410.667	428.79
411.045	432.86
411.422	422.69
411.8	436.92
412.178	459.75
412.555	427.43
412.933	450.71
413.31	440.31
413.687	458.84
414.065	443.25
414.442	451.16
414.819	435.12
415.197	471.5
415.574	447.54
415.951	466.08
416.328	474.21
416.705	478.05
417.082	465.85
417.46	468.34
417.837	457.49
418.214	465.62
418.591	505.85
418.967	497.26
419.344	481.89
419.721	473.08
420.098	492.52
420.475	474.66
420.852	497.71
421.228	497.71
421.605	502.01
421.982	517.6
422.358	497.26
422.735	516.47
423.111	509.46
423.488	519.86
423.864	529.12
424.241	517.6
424.617	514.66
424.994	536.58
425.37	525.28
425.746	531.38
426.123	553.76
426.499	540.65
426.875	533.64
427.251	517.37
427.627	555.34
428.003	549.69
428.379	545.17
428.756	553.08
429.132	557.82
429.507	553.3
429.883	561.89
430.259	592.85
430.635	580.65
431.011	592.4
431.387	578.39
431.763	578.84
432.138	558.5
432.514	583.81
432.89	589.91
433.265	609.8
433.641	603.7
434.016	587.43
434.392	596.02
434.767	607.31
435.143	615.9
435.518	629.69
435.894	636.47
436.269	640.53
436.644	639.18
437.02	653.42
437.395	626.3
437.77	661.1
438.145	665.39
438.52	687.09
438.895	680.76
439.271	679.4
439.646	654.32
440.021	696.8
440.395	669.23
440.77	660.19
441.145	691.61
441.52	695.67
441.895	691.38
442.27	688.44
442.645	687.09
443.019	714.88
443.394	718.05
443.769	721.89
444.143	718.72
444.518	739.51
444.892	727.09
445.267	725.5
445.641	750.36
446.016	734.54
446.39	731.83
446.764	751.27
447.139	742.68
447.513	731.61
447.887	751.72
448.262	734.99
448.636	750.81
449.01	752.4
449.384	758.95
449.758	760.76
450.132	794.43
450.506	775.45
450.88	798.95
451.254	774.99
451.628	791.04
452.002	781.32
452.376	795.11
452.75	791.04
453.123	813.18
453.497	829.68
453.871	824.71
454.244	833.52
454.618	839.62
454.992	852.28
455.365	848.66
455.739	858.83
456.112	869.45
456.486	870.81
456.859	863.35
457.232	882.34
457.606	871.26
457.979	887.99
458.352	911.94
458.725	917.59
459.099	955.55
459.472	951.71
459.845	949.23
460.218	957.59
460.591	975.44
460.964	958.04
461.337	1001.2
461.71	1004.37
462.083	1024.25
462.456	1005.95
462.829	1010.02
463.201	1017.25
463.574	1020.64
463.947	1025.61
464.32	1064.25
464.692	1082.33
465.065	1081.88
465.438	1093.4
465.81	1132.95
466.183	1120.52
466.555	1161.65
466.928	1133.18
467.3	1135.89
467.672	1163.23
468.045	1203.46
468.417	1204.14
468.789	1215.89
469.161	1218.15
469.534	1252.04
469.906	1259.05
470.278	1263.34
470.65	1272.83
471.022	1319.39
471.394	1330.69
471.766	1351.48
472.138	1367.75
472.51	1380.18
472.882	1440.51
473.253	1426.95
473.625	1481.64
473.997	1460.63
474.369	1473.96
474.74	1492.26
475.112	1542.21
475.484	1561.41
475.855	1578.81
476.227	1613.62
476.598	1693.39
476.97	1701.3
477.341	1710.79
477.713	1734.97
478.084	1783.55
478.455	1794.63
478.827	1866.49
479.198	1870.78
479.569	1907.62
479.94	1956.43
480.311	2000.72
480.682	2009.09
481.053	2091.57
481.424	2158.46
481.795	2178.57
482.166	2197.56
482.537	2206.37
482.908	2306.03
483.279	2329.53
483.65	2411.79
484.021	2434.84
484.391	2467.6
484.762	2535.85
485.133	2556.19
485.503	2602.29
485.874	2672.8
486.244	2719.35
486.615	2790.99
486.985	2817.43
487.356	2873.92
487.726	2930.42
488.097	3030.75
488.467	3050.87
488.837	3094.25
489.207	3166.34
489.578	3220.13
489.948	3291.99
490.318	3304.87
490.688	3333.12
491.058	3441.14
491.428	3471.87
491.798	3524.98
492.168	3568.59
492.538	3651.53
492.908	3741.02
493.278	3758.19
493.648	3809.94
494.017	3826.66
494.387	3895.36
494.757	3920
495.126	4021.91
495.496	4046.32
495.866	4127
496.235	4142.14
496.605	4175.36
496.974	4220.55
497.344	4242.93
497.713	4276.14
498.082	4352.98
498.452	4437.5
498.821	4422.36
499.19	4502.81
499.559	4554.1
499.928	4571.73
500.298	4581
500.667	4627.32
501.036	4686.3
501.405	4719.07
501.774	4702.35
502.143	4767.88
502.512	4838.84
502.88	4895.34
503.249	4900.53
503.618	4915
503.987	4962.91
504.356	4996.8
504.724	5046.75
505.093	5067.76
505.462	5096.69
505.83	5113.41
506.199	5185.73
506.567	5278.15
506.936	5249.68
507.304	5273.63
507.672	5291.94
508.041	5388.43
508.409	5428.88
508.777	5429.33
509.145	5454.87
509.514	5479.28
509.882	5526.96
510.25	5512.27
510.618	5576.68
510.986	5613.28
511.354	5646.96
511.722	5700.29
512.09	5737.8
512.458	5748.42
512.826	5815.54
513.193	5793.17
513.561	5864.13
513.929	5876.55
514.297	5873.16
514.664	5953.39
515.032	5968.76
515.4	6012.14
515.767	6045.14
516.135	6058.47
516.502	6049.21
516.869	6093.27
517.237	6072.93
517.604	6117
517.972	6198.13
518.339	6209.88
518.706	6257.11
519.073	6251.46
519.44	6269.99
519.808	6320.84
520.175	6339.37
520.542	6411.23
520.909	6431.79
521.276	6420.27
521.643	6434.51
522.009	6541.17
522.376	6540.72
522.743	6594.73
523.11	6654.16
523.477	6650.32
523.843	6745.01
524.21	6765.12
524.577	6856.19
524.943	6790.88
525.31	6815.06
525.676	6914.95
526.043	6898.67
526.409	6978.22
526.776	6963.76
527.142	7031.1
527.508	7060.48
527.874	7140.48
528.241	7139.35
528.607	7171.44
528.973	7215.73
529.339	7290.98
529.705	7271.77
530.071	7380.47
530.437	7431.32
530.803	7441.26
531.169	7468.6
531.535	7455.27
531.901	7504.08
532.267	7495.95
532.632	7587.24
532.998	7628.37
533.364	7627.47
533.73	7714.47
534.095	7733.23
534.461	7758.31
534.826	7732.55
535.192	7886.22
535.557	7886.67
535.923	7911.08
536.288	7878.76
536.653	8003.05
537.019	7969.15
537.384	7971.41
537.749	7960.79
538.114	8080.34
538.479	8074.91
538.845	8128.02
539.21	8092.77
539.575	8236.49
539.94	8234.23
540.305	8283.72
540.67	8235.59
541.034	8330.5
541.399	8334.57
541.764	8377.28
542.129	8382.93
542.494	8490.27
542.858	8485.07
543.223	8531.85
543.587	8569.59
543.952	8589.48
544.316	8629.93
544.681	8643.04
545.045	8701.34
545.41	8681.68
545.774	8749.25
546.138	8756.25
546.503	8766.65
546.867	8782.01
547.231	8878.96
547.595	8910.15
547.959	8921.22
548.324	8990.6
548.688	8963.25
549.052	9006.19
549.416	9035.79
549.779	9058.84
550.143	9090.71
550.507	9229.23
550.871	9176.35
551.235	9175.9
551.599	9249.57
551.962	9337.48
552.326	9273.3
552.689	9345.39
553.053	9303.81
553.417	9330.48
553.78	9511.49
554.143	9400.53
554.507	9506.97
554.87	9551.03
555.234	9581.32
555.597	9494.99
555.96	9578.83
556.323	9590.13
556.686	9663.12
557.05	9761.88
557.413	9723.91
557.776	9753.06
558.139	9801.2
558.502	9840.52
558.865	9795.32
559.228	9938.82
559.59	9909.67
559.953	9908.09
560.316	10095.2
560.679	9995.54
561.041	10040.06
561.404	10094.75
561.767	10215.42
562.129	10123.45
562.492	10228.98
562.854	10270.56
563.217	10283.44
563.579	10289.09
563.941	10289.55
564.304	10343.33
564.666	10474.63
565.028	10449.77
565.39	10474.17
565.753	10551.91
566.115	10510.33
566.477	10562.31
566.839	10629.88
567.201	10727.05
567.563	10629.65
567.925	10807.5
568.287	10815.41
568.648	10779.7
569.01	10935.18
569.372	10953.71
569.734	11001.84
570.095	11005.91
570.457	11033.26
570.819	11104.21
571.18	11036.87
571.542	11190.54
571.903	11230.31
572.265	11226.47
572.626	11359.35
572.987	11353.92
573.349	11446.13
573.71	11413.36
574.071	11499.23
574.432	11582.85
574.794	11647.7
575.155	11710.53
575.516	11796.17
575.877	11791.2
576.238	11943.29
576.599	12084.07
576.96	12148.93
577.32	12184.41
577.681	12285.43
578.042	12384.86
578.403	12455.14
578.763	12475.7
579.124	12684.96
579.485	12835.24
579.845	12853.32
580.206	13024.39
580.566	13077.27
580.927	13226.87
581.287	13448.11
581.648	13513.42
582.008	13667.54
582.368	13851.49
582.728	13888.1
583.089	14119.95
583.449	14261.19
583.809	14405.6
584.169	14542.77
584.529	14752.03
584.889	15049.19
585.249	15118.8
585.609	15260.71
585.969	15551.55
586.329	15741.38
586.688	15914.03
587.048	16113.8
587.408	16209.62
587.768	16556.95
588.127	16684.63
588.487	16862.03
588.846	17205.52
589.206	17317.61
589.565	17524.38
589.925	17886.86
590.284	18070.58
590.643	18316.68
591.003	18577.92
591.362	18970.45
591.721	19061.52
592.08	19359.14
592.44	19593.48
592.799	19915.73
593.158	20107.59
593.517	20391.43
593.876	20653.57
594.235	20892.2
594.593	21168.81
594.952	21419.87
595.311	21595.24
595.67	21891.5
596.029	22313.86
596.387	22470.02
596.746	22817.35
597.104	22865.94
597.463	23191.81
597.822	23616.2
598.18	23683.77
598.538	23846.03
598.897	24260.03
599.255	24345.45
599.613	24897.75
599.972	24964.87
600.33	25237.4
600.688	25428.36
601.046	25829.25
601.404	26196.02
601.762	26233.99
602.12	26626.97
602.478	26878.71
602.836	26983.34
603.194	27044.81
603.552	27255.65
603.91	27464.91
604.268	27753.95
604.625	27981.74
604.983	28256.98
605.341	28166.36
605.698	28514.6
606.056	28742.39
606.413	28912.78
606.771	29305.54
607.128	29446.78
607.485	29461.7
607.843	29721.35
608.2	30063.94
608.557	30166.76
608.914	30319.75
609.272	30629.12
609.629	30757.26
609.986	31115.44
610.343	31122.44
610.7	31458.93
611.057	31548.65
611.414	31543.45
611.771	31990.22
612.127	32055.08
612.484	32194.05
612.841	32393.37
613.198	32371.23
613.554	32466.82
613.911	32774.15
614.267	32925.79
614.624	32956.75
614.98	33097.53
615.337	33498.43
615.693	33431.76
616.05	33513.79
616.406	33805.54
616.762	33926.66
617.118	33989.71
617.475	33994.69
617.831	34273.1
618.187	34425.41
618.543	34369.36
618.899	34796.92
619.255	34740.43
619.611	34852.52
619.967	34923.02
620.323	35032.4
620.678	35120.31
621.034	35091.61
621.39	35173.41
621.746	35186.07
622.101	35694.3
622.457	35362.11
622.812	35571.59
623.168	35700.18
623.523	35656.34
623.879	35986.72
624.234	35818.37
624.589	35999.38
624.945	36115.99
625.3	36251.8
625.655	36306.94
626.01	36305.36
626.365	36319.82
626.72	36453.6
627.075	36412.93
627.43	36411.12
627.785	36393.04
628.14	36445.92
628.495	36593.04
628.85	36530.89
629.205	36459.03
629.559	36781.5
629.914	36555.07
630.269	36727.72
630.623	36637.55
630.978	36607.27
631.332	36736.53
631.687	36901.73
632.041	36687.95
632.396	36815.63
632.75	36700.83
633.104	36772.24
633.459	36703.31
633.813	36666.03
634.167	36574.5
634.521	36787.83
634.875	36652.47
635.229	36711.68
635.583	36673.26
635.937	36685.91
636.291	36680.26
636.645	36826.02
636.999	36774.5
637.352	36744.22
637.706	36712.35
638.06	36768.4
638.413	36733.14
638.767	36582.64
639.121	36629.64
639.474	36395.53
639.828	36594.39
640.181	36712.13
640.534	36572.7
640.888	36542.87
641.241	36423.1
641.594	36521.4
641.947	36581.74
642.301	36519.59
642.654	36436.88
643.007	36537.44
643.36	36480.5
643.713	36434.17
644.066	36376.54
644.419	36460.84
644.771	36228.52
645.124	35839.16
645.477	35651.14
645.83	35534.53
646.182	35419.28
646.535	35328.21
646.888	35476.45
647.24	35266.74
647.593	35455.66
647.945	35445.49
648.298	35308.77
648.65	35182.22
649.002	35113.3
649.355	35189.68
649.707	35195.78
650.059	35345.61
650.411	35761.19
650.763	35878.25
651.115	36091.35
651.467	36005.71
651.819	35986.27
652.171	35923.67
652.523	36101.97
652.875	35890.45
653.227	35807.97
653.578	36099.49
653.93	35975.88
654.282	35838.25
654.633	35784.92
654.985	35761.42
655.337	35869.66
655.688	35892.04
656.039	35955.54
656.391	35588.09
656.742	35817.24
657.094	35676
657.445	35821.3
657.796	35687.07
658.147	35705.37
658.498	35718.26
658.849	35696.11
659.2	35702.44
659.551	35625.6
659.902	35662.21
660.253	35594.87
660.604	35601.2
660.955	35536.57
661.306	35665.15
661.656	35499.05
662.007	35632.83
662.358	35575.43
662.708	35638.03
663.059	35539.05
663.409	35333.63
663.76	35601.87
664.11	35642.33
664.461	35536.79
664.811	35584.25
665.161	35572.27
665.511	35525.27
665.862	35519.39
666.212	35574.53
666.562	35652.27
666.912	35569.33
667.262	35551.03
667.612	35432.16
667.962	35524.36
668.312	35337.25
668.662	35748.54
669.011	35546.73
669.361	35421.31
669.711	35418.15
670.06	35294.54
670.41	35311.26
670.76	35326.63
671.109	35440.75
671.459	35436.23
671.808	35269.23
672.157	35206.86
672.507	35125.73
672.856	35278.04
673.205	35156.24
673.554	35240.75
673.904	35201.66
674.253	35292.5
674.602	35288.21
674.951	34698.17
675.3	34614.56
675.649	35097.48
675.998	35085.96
676.346	35197.59
676.695	35286.85
677.044	34910.59
677.393	35074.2
677.741	35103.13
678.09	34985.39
678.438	34971.83
678.787	34917.6
679.135	34960.54
679.484	34894.32
679.832	34862.91
680.181	34692.29
680.529	34808.68
680.877	34655.68
681.225	34592.18
681.573	34897.94
681.922	34736.81
682.27	34506.99
682.618	34573.43
682.966	34504.28
683.314	34472.64
683.661	34275.58
684.009	34226.77
684.357	34312.19
684.705	34049.15
685.053	34158.07
685.4	34158.3
685.748	33934.57
686.095	34008.7
686.443	33840.11
686.79	33731.87
687.138	33857.74
687.485	33927.57
687.832	33756.5
688.18	33718.53
688.527	33514.25
688.874	33567.13
689.221	33505.66
689.568	33376.85
689.915	33350.18
690.262	33309.28
690.609	33262.5
690.956	33140.7
691.303	33121.71
691.65	32947.71
691.997	33005.11
692.344	32727.15
692.69	32700.93
693.037	32786.13
693.383	32525.8
693.73	32600.82
694.077	32400.38
694.423	32463.43
694.769	32324.9
695.116	32269.53
695.462	32301.17
695.808	32019.82
696.155	32117.22
696.501	31837.68
696.847	31875.19
697.193	31661.41
697.539	31641.98
697.885	31555.43
698.231	31396.11
698.577	31483.56
698.923	31455.32
699.269	31138.26
699.614	31237.02
699.96	31071.15
700.306	31138.49
700.651	30902.79
700.997	30924.03
701.342	30809.68
701.688	30733.3
702.033	30523.36
702.379	30702.12
702.724	30644.72
703.069	30615.11
703.415	30310.04
703.76	30289.25
704.105	30321.56
704.45	30184.39
704.795	30050.83
705.14	29892.87
705.485	29908.92
705.83	29717.06
706.175	29816.72
706.52	29721.8
706.865	29601.58
707.209	29605.2
707.554	29510.51
707.899	29523.39
708.243	29379.67
708.588	29305.54
708.932	29130.18
709.277	29179.22
709.621	29277.07
709.966	28955.95
710.31	29102.38
710.654	28762.51
710.998	28805.22
711.342	28816.52
711.687	28829.17
712.031	28643.64
712.375	28587.82
712.719	28520.93
713.063	28515.51
713.407	28652.45
713.75	28499.24
714.094	28287.04
714.438	28295.4
714.782	28348.96
715.125	28124.56
715.469	28259.47
715.812	27892.02
716.156	27991.23
716.499	28000.94
716.843	27943.32
717.186	27818.8
717.53	27953.26
717.873	27863.1
718.216	27800.95
718.559	27791.91
718.902	27555.98
719.246	27521.18
719.589	27574.06
719.932	27481.64
720.275	27415.65
720.617	27332.71
720.96	27278.25
721.303	27279.61
721.646	27451.13
721.989	27201.42
722.331	27236.44
722.674	27029.44
723.016	27213.39
723.359	27010.24
723.701	27122.32
724.044	26827.64
724.386	26798.04
724.729	26925.04
725.071	26802.56
725.413	26760.98
725.755	26758.27
726.097	26600.76
726.439	26509.68
726.782	26542
727.124	26672.62
727.465	26504.71
727.807	26498.39
728.149	26389.69
728.491	26353.53
728.833	26439.86
729.175	26256.36
729.516	26320.99
729.858	26202.35
730.199	26208.45
730.541	26168
730.882	26011.62
731.224	26138.62
731.565	25925.74
731.906	25865.63
732.248	25961.45
732.589	25764.39
732.93	25728.01
733.271	25840.1
733.612	25801.91
733.953	25862.7
734.294	25646.88
734.635	25740.66
734.976	25723.49
735.317	25503.16
735.658	25560.33
735.999	25597.62
736.339	25552.87
736.68	25626.77
737.021	25440.56
737.361	25358.53
737.702	25518.75
738.042	25393.78
738.383	25468.13
738.723	25338.64
739.063	25256.61
739.404	25370.96
739.744	25244.41
740.084	25137.29
740.424	25170.06
740.764	25153.34
741.104	25200.11
741.444	24949.73
741.784	24969.39
742.124	25079.21
742.464	25017.52
742.804	24962.83
743.143	24828.6
743.483	24940.46
743.823	24792.44
744.162	24716.51
744.502	24768.71
744.841	24759.9
745.181	24726
745.52	24596.51
745.86	24636.29
746.199	24550.41
746.538	24601.03
746.877	24613.01
747.216	24483.97
747.556	24481.04
747.895	24457.31
748.234	24387.71
748.573	24336.86
748.911	24360.59
749.25	24333.7
749.589	24198.78
749.928	24159.24
750.267	24303.19
750.605	24091.67
750.944	24153.14
751.283	24048.05
751.621	24025
751.96	23908.85
752.298	23895.74
752.636	23942.29
752.975	23846.03
753.313	23882.41
753.651	23896.87
753.989	23688.74
754.327	23713.83
754.666	23667.95
755.004	23688.06
755.342	23752.69
755.679	23589.76
756.017	23454.62
756.355	23488.97
756.693	23454.85
757.031	23489.2
757.368	23243.78
757.706	23411.01
758.044	23248.53
758.381	23130.79
758.719	23180.96
759.056	23165.59
759.394	22979.38
759.731	22994.97
760.068	22947.97
760.405	22818.26
760.743	22690.58
761.08	22743.91
761.417	22703.46
761.754	22496
762.091	22552.27
762.428	22491.71
762.765	22407.42
763.102	22469.79
763.438	22246.29
763.775	22205.16
764.112	22292.85
764.449	22148.22
764.785	22046.98
765.122	21925.17
765.458	21999.52
765.795	21965.85
766.131	21804.5
766.467	21786.19
766.804	21753.43
767.14	21610.38
767.476	21655.57
767.812	21486.09
768.148	21529.93
768.485	21322.48
768.821	21326.32
769.157	21237.05
769.492	21175.36
769.828	21121.8
770.164	20987.34
770.5	20974.01
770.836	21003.61
771.171	20831.64
771.507	20762.49
771.842	20587.35
772.178	20480.69
772.513	20469.62
772.849	20505.55
773.184	20374.7
773.519	20458.54
773.855	20263.29
774.19	20186.01
774.525	20121.15
774.86	20059.01
775.195	20029.4
775.53	19975.39
775.865	19870.99
776.2	19680.94
776.535	19658.11
776.87	19555.29
777.205	19585.12
777.539	19450.43
777.874	19539.47
778.209	19355.97
778.543	19238.46
778.878	19107.62
779.212	19052.03
779.547	19069.88
779.881	19032.59
780.215	18894.29
780.55	18998.47
780.884	18799.6
781.218	18723.9
781.552	18725.48
781.886	18638.7
782.22	18588.76
782.554	18490.46
782.888	18363.46
783.222	18242.11
783.556	18168.43
783.889	18149
784.223	18042.11
784.557	17990.36
784.89	18080.08
785.224	17927.99
785.557	17792.4
785.891	17834.88
786.224	17738.84
786.558	17914.66
786.891	17535.68
787.224	17542.01
787.557	17515.8
787.891	17508.57
788.224	17356.93
788.557	17404.16
788.89	17283.94
789.223	17277.16
789.556	17218.86
789.888	17056.6
790.221	17033.1
790.554	16880.78
790.887	16926.21
791.219	16811.86
791.552	16798.3
791.884	16704.07
792.217	16676.27
792.549	16565.54
792.882	16490.74
793.214	16529.38
793.546	16465.65
793.879	16387.01
794.211	16246.23
794.543	16289.84
794.875	16190.41
795.207	16317.64
795.539	16144.31
795.871	16102.5
796.203	16018.89
796.535	15900.7
796.867	15898.21
797.198	15837.65
797.53	15810.08
797.862	15717.88
798.193	15772.34
798.525	15702.28
798.856	15628.16
799.188	15435.63
799.519	15454.83
799.85	15345.46
800.182	15403.31
800.513	15378
800.844	15245.12
801.175	15274.73
801.506	15317.66
801.837	15227.95
802.168	15129.42
802.499	15161.06
802.83	15059.36
803.161	14980.04
803.491	14915.19
803.822	14971.23
804.153	14874.06
804.483	14715.87
804.814	14640.62
805.145	14678.81
805.475	14734.63
805.805	14632.93
806.136	14576.89
806.466	14626.38
806.796	14557
807.126	14404.69
807.457	14390.23
807.787	14468.19
808.117	14347.52
808.447	14332.83
808.777	14274.98
809.107	14277.46
809.436	14166.05
809.766	14167.41
810.096	14096.23
810.426	14102.33
810.755	14150.01
811.085	14007.64
811.414	14039.5
811.744	13887.87
812.073	13911.15
812.403	13810.58
812.732	13787.76
813.061	13799.74
813.39	13672.96
813.719	13718.16
814.049	13719.29
814.378	13669.57
814.707	13580.76
815.036	13598.39
815.365	13563.58
815.693	13379.41
816.022	13437.49
816.351	13436.36
816.68	13279.98
817.008	13352.74
817.337	13319.75
817.665	13189.13
817.994	13262.58
818.322	13210.37
818.651	13099.19
818.979	13063.48
819.307	13075.46
819.636	13075.46
819.964	12999.98
820.292	13082.24
820.62	12970.61
820.948	12993.88
821.276	12955.92
821.604	12980.55
821.932	12985.75
822.259	13044.73
822.587	12927.67
822.915	12944.84
823.243	12945.07
823.57	12945.3
823.898	12931.06
824.225	12914.56
824.553	13017.38
824.88	12887.22
825.207	12933.09
825.535	12856.03
825.862	12959.98
826.189	12873.88
826.516	12902.81
826.843	12886.99
827.17	12906.43
827.497	12958.18
827.824	12885.86
828.151	12879.31
828.478	12946.2
828.805	12932.41
829.131	12832.53
829.458	12877.95
829.785	12861
830.111	12866.2
830.438	12889.7
830.764	12942.81
831.09	12884.28
831.417	12768.58
831.743	12853.55
832.069	12875.01
832.395	12782.36
832.722	12821.23
833.048	12743.94
833.374	12805.41
833.7	12755.02
834.026	12757.73
834.351	12768.35
834.677	12661.01
835.003	12791.63
835.329	12733.1
835.654	12678.64
835.98	12693.32
836.306	12709.37
836.631	12637.73
836.956	12753.44
837.282	12655.59
837.607	12633.21
837.932	12584.4
838.258	12531.52
838.583	12585.76
838.908	12472.99
839.233	12496.95
839.558	12401.13
839.883	12414.69
840.208	12375.14
840.533	12375.59
840.858	12355.48
841.182	12310.74
841.507	12231.87
841.832	12259.44
842.156	12274.8
842.481	12356.16
842.805	12162.26
843.13	12182.83
843.454	12190.51
843.778	12096.5
844.103	12061.02
844.427	12094.47
844.751	12125.66
845.075	12067.8
845.399	11976.73
845.723	11966.56
846.047	11942.84
846.371	11812.67
846.695	11829.39
847.019	11710.3
847.343	11726.34
847.666	11579.46
847.99	11549.85
848.313	11529.74
848.637	11417.88
848.96	11422.62
849.284	11439.8
849.607	11349.63
849.931	11294.94
850.254	11273.02
850.577	11169.07
850.9	11137.89
851.223	11110.32
851.546	11079.58
851.869	10946.7
852.192	11048.62
852.515	10977.44
852.838	10869.64
853.161	10943.09
853.483	10899.93
853.806	10812.47
854.129	10737.44
854.451	10772.92
854.774	10657.22
855.096	10642.76
855.419	10574.06
855.741	10589.65
856.063	10589.2
856.385	10573.15
856.708	10586.71
857.03	10421.97
857.352	10439.37
857.674	10452.25
857.996	10407.06
858.318	10367.96
858.64	10330.9
858.961	10308.75
859.283	10286.38
859.605	10200.28
859.926	10251.58
860.248	10166.61
860.57	10192.37
860.891	10119.15
861.212	10043
861.534	10060.17
861.855	10052.72
862.176	10037.35
862.498	10090
862.819	10024.24
863.14	9965.94
863.461	9942.21
863.782	9902.66
864.103	9896.11
864.424	9937.24
864.745	9826.28
865.065	9891.14
865.386	9845.49
865.707	9767.53
866.027	9788.77
866.348	9743.57
866.668	9766.85
866.989	9735.89
867.309	9631.26
867.63	9763.46
867.95	9746.06
868.27	9638.72
868.59	9645.04
868.91	9624.48
869.23	9546.51
869.55	9610.92
869.87	9578.38
870.19	9572.05
870.51	9603.69
870.83	9517.36
871.15	9474.65
871.469	9540.41
871.789	9563.46
872.109	9511.04
872.428	9485.27
872.748	9459.96
873.067	9391.94
873.386	9471.94
873.706	9471.04
874.025	9377.71
874.344	9406.41
874.663	9426.29
874.982	9325.5
875.301	9356.69
875.62	9378.16
875.939	9329.35
876.258	9283.7
876.577	9238.73
876.896	9282.34
877.214	9210.7
877.533	9326.63
877.852	9271.04
878.17	9256.8
878.489	9207.77
878.807	9224.49
879.125	9161.44
879.444	9129.58
879.762	9172.51
880.08	9129.8
880.398	9046.64
880.716	9112.63
881.034	9089.58
881.352	9029.24
881.67	9029.69
881.988	9004.16
882.306	9036.92
882.624	8900.2
882.941	8920.54
883.259	8867.66
883.577	8847.32
883.894	8860.66
884.212	8841.9
884.529	8810.71
884.846	8766.2
885.164	8829.02
885.481	8777.95
885.798	8758.06
886.115	8675.35
886.432	8715.58
886.75	8704.73
887.067	8658.63
887.383	8722.58
887.7	8590.16
888.017	8555.58
888.334	8586.09
888.651	8576.6
888.967	8510.38
889.284	8463.38
889.6	8509.25
889.917	8443.94
890.233	8449.59
890.55	8421.8
890.866	8401.69
891.182	8419.09
891.498	8377.51
891.815	8266.32
892.131	8318.52
892.447	8279.66
892.763	8332.76
893.079	8265.42
893.395	8169.6
893.71	8261.35
894.026	8166.89
894.342	8168.47
894.657	8069.94
894.973	8010.96
895.289	8057.06
895.604	8043.96
895.92	8015.93
896.235	7962.38
896.55	8012.77
896.865	7952.21
897.181	7944.3
897.496	7922.6
897.811	7860.23
898.126	7811.42
898.441	7858.65
898.756	7727.35
899.071	7750.86
899.386	7749.95
899.7	7653.46
900.015	7632.44
900.33	7559.67
900.644	7577.53
900.959	7588.37
901.273	7523.97
901.588	7522.16
901.902	7474.48
902.216	7449.39
902.531	7481.48
902.845	7402.16
903.159	7368.94
903.473	7353.35
903.787	7345.22
904.101	7292.34
904.415	7256.41
904.729	7297.08
905.042	7194.71
905.356	7215.28
905.67	7142.74
905.984	7145.9
906.297	7152.91
906.611	7071.55
906.924	7121.95
907.237	7074.04
907.551	7069.07
907.864	7001.95
908.177	6999.91
908.491	7001.04
908.804	6865.23
909.117	6865.68
909.43	6817.32
909.743	6785.23
910.056	6836.3
910.368	6800.82
910.681	6716.08
910.994	6686.93
911.307	6662.07
911.619	6637.66
911.932	6673.6
912.244	6636.53
912.557	6584.33
912.869	6585.01
913.181	6527.61
913.494	6497.1
913.806	6458.46
914.118	6425.69
914.43	6390.44
914.742	6385.02
915.054	6355.41
915.366	6348.86
915.678	6344.34
915.99	6307.05
916.302	6237.22
916.613	6207.17
916.925	6176.43
917.236	6222.76
917.548	6141.18
917.859	6121.52
918.171	6059.83
918.482	6069.09
918.794	6050.11
919.105	6068.64
919.416	5988.87
919.727	5951.81
920.038	6018.7
920.349	5933.28
920.66	5916.1
920.971	5917.23
921.282	5872.26
921.593	5811.92
921.903	5797.46
922.214	5792.71
922.525	5813.51
922.835	5709.1
923.146	5692.83
923.456	5659.61
923.767	5658.03
924.077	5612.38
924.387	5636.33
924.697	5613.96
925.008	5591.36
925.318	5563.79
925.628	5585.26
925.938	5558.82
926.248	5498.71
926.558	5434.53
926.867	5440.86
927.177	5424.36
927.487	5470.01
927.796	5335.55
928.106	5357.92
928.416	5319.73
928.725	5273.86
929.034	5267.53
929.344	5282.67
929.653	5263.69
929.962	5204.71
930.271	5212.17
930.581	5134.2
930.89	5164.03
931.199	5125.84
931.508	5133.07
931.817	5096.01
932.125	5057.14
932.434	5074.32
932.743	5035.67
933.051	4998.61
933.36	4995.67
933.669	4933.08
933.977	4941.89
934.286	4933.75
934.594	4910.93
934.902	4865.28
935.21	4825.28
935.519	4884.94
935.827	4817.83
936.135	4780.31
936.443	4758.39
936.751	4754.1
937.059	4748.67
937.367	4748.9
937.674	4712.52
937.982	4689.02
938.29	4666.64
938.597	4638.17
938.905	4554.78
939.213	4611.73
939.52	4534.67
939.827	4616.47
940.135	4554.33
940.442	4545.74
940.749	4514.33
941.056	4497.83
941.363	4481.11
941.67	4457.83
941.977	4461.68
942.284	4402.24
942.591	4413.77
942.898	4346.2
943.205	4359.98
943.511	4316.6
943.818	4349.14
944.125	4284.96
944.431	4244.28
944.738	4243.83
945.044	4225.75
945.35	4186.66
945.657	4209.03
945.963	4173.55
946.269	4133.55
946.575	4158.18
946.881	4146.2
947.187	4089.03
947.493	4095.13
947.799	4068.47
948.105	4073.44
948.41	4026.89
948.716	4044.96
949.022	4012.65
949.327	3962.93
949.633	3951.63
949.938	3965.19
950.244	3916.61
950.549	3921.8
950.854	3912.09
951.16	3887.68
951.465	3900.79
951.77	3863.73
952.075	3843.16
952.38	3835.7
952.685	3827.34
952.99	3789.38
953.294	3809.26
953.599	3756.84
953.904	3735.59
954.209	3715.71
954.513	3748.93
954.818	3681.36
955.122	3675.71
955.426	3643.62
955.731	3656.95
956.035	3617.18
956.339	3597.29
956.643	3679.32
956.948	3596.39
957.252	3559.1
957.556	3570.63
957.86	3553.68
958.163	3532.66
958.467	3508.03
958.771	3498.76
959.075	3535.15
959.378	3496.5
959.682	3495.37
959.985	3395.72
960.289	3431.65
960.592	3385.09
960.896	3386.9
961.199	3371.31
961.502	3366.11
961.805	3373.57
962.108	3297.87
962.411	3296.96
962.714	3283.63
963.017	3277.3
963.32	3271.88
963.623	3267.58
963.926	3227.58
964.228	3233.01
964.531	3269.62
964.833	3235.27
965.136	3223.97
965.438	3201.37
965.741	3169.28
966.043	3135.38
966.345	3122.73
966.648	3140.81
966.95	3104.2
967.252	3097.64
967.554	3100.58
967.856	3095.16
968.158	3004.09
968.46	3049.06
968.761	3042.73
969.063	3003.64
969.365	3010.87
969.666	3018.32
969.968	2964.99
970.269	2990.3
970.571	2953.02
970.872	2979.68
971.174	2916.18
971.475	2905.11
971.776	2854.94
972.077	2921.83
972.378	2877.09
972.679	2862.62
972.98	2846.35
973.281	2848.61
973.582	2832.79
973.883	2819.46
974.183	2789.4
974.484	2800.25
974.785	2799.8
975.085	2794.83
975.386	2774.49
975.686	2743.3
975.986	2712.34
976.287	2722.51
976.587	2701.95
976.887	2695.17
977.187	2707.82
977.487	2694.27
977.787	2663.76
978.087	2665.57
978.387	2625.79
978.687	2641.39
978.987	2605
979.286	2597.32
979.586	2647.49
979.885	2616.3
980.185	2583.31
980.484	2531.11
980.784	2533.14
981.083	2541.73
981.382	2507.6
981.682	2502.86
981.981	2520.48
982.28	2469.41
982.579	2456.53
982.878	2501.95
983.177	2491.78
983.475	2457.66
983.774	2440.71
984.073	2405.23
984.372	2400.49
984.67	2445.68
984.969	2415.4
985.267	2420.83
985.566	2367.72
985.864	2370.88
986.162	2329.98
986.461	2337.89
986.759	2322.07
987.057	2320.04
987.355	2306.7
987.653	2318.46
987.951	2306.7
988.249	2275.97
988.547	2296.31
988.844	2253.15
989.142	2218.8
989.44	2261.96
989.737	2223.32
990.035	2229.64
990.332	2226.48
990.63	2203.43
990.927	2205.69
991.224	2205.92
991.521	2188.06
991.819	2162.08
992.116	2163.66
992.413	2162.3
992.71	2090.67
993.006	2138.57
993.303	2110.1
993.6	2102.87
993.897	2098.8
994.193	2089.76
994.49	2091.34
994.787	2059.48
995.083	2074.39
995.379	2080.5
995.676	2045.69
995.972	2064.9
996.268	2026.94
996.565	1999.37
996.861	2014.51
997.157	2000.72
997.453	1990.33
997.749	1941.29
998.044	1962.76
998.34	1938.13
998.636	1934.96
998.932	1928.86
999.227	1901.74
999.523	1918.69
999.818	1925.92
1000.114	1885.02
1000.409	1889.54
1000.704	1855.19
1001	1891.57
1001.295	1873.27
1001.59	1863.78
1001.885	1855.64
1002.18	1862.65
1002.475	1801.86
1002.77	1805.7
1003.065	1800.28
1003.359	1770.45
1003.654	1774.29
1003.949	1766.15
1004.243	1759.83
1004.538	1732.71
1004.832	1765.02
1005.127	1745.82
1005.421	1706.04
1005.715	1721.18
1006.009	1713.73
1006.304	1696.78
1006.598	1698.81
1006.892	1674.63
1007.186	1654.29
1007.48	1664.69
1007.773	1617.01
1008.067	1645.48
1008.361	1654.74
1008.655	1607.74
1008.948	1659.94
1009.242	1605.03
1009.535	1589.44
1009.829	1565.71
1010.122	1585.14
1010.415	1544.92
1010.708	1533.17
1011.001	1565.03
1011.295	1543.11
1011.588	1546.05
1011.881	1539.72
1012.173	1535.65
1012.466	1515.31
1012.759	1492.04
1013.052	1487.07
1013.344	1471.25
1013.637	1489.1
1013.93	1494.75
1014.222	1485.26
1014.514	1471.7
1014.807	1466.5
1015.099	1468.08
1015.391	1466.05
1015.683	1413.17
1015.976	1440.51
1016.268	1398.48
1016.56	1397.35
1016.851	1380.85
1017.143	1378.37
1017.435	1386.73
1017.727	1384.24
1018.018	1389.89
1018.31	1352.61
1018.602	1338.82
1018.893	1324.13
1019.185	1354.64
1019.476	1322.1
1019.767	1319.39
1020.058	1315.77
1020.35	1287.97
1020.641	1275.77
1020.932	1271.93
1021.223	1281.42
1021.514	1252.27
1021.804	1270.57
1022.095	1251.82
1022.386	1225.15
1022.677	1236.22
1022.967	1226.51
1023.258	1204.36
1023.548	1235.32
1023.839	1198.71
1024.129	1213.17
1024.419	1187.86
1024.709	1199.16
1025	1141.31
1025.29	1143.12
1025.58	1149.9
1025.87	1161.88
1026.16	1163.46
1026.449	1118.04
1026.739	1140.86
1027.029	1115.1
1027.319	1131.59
1027.608	1104.7
1027.898	1118.49
1028.187	1067.87
1028.477	1087.53
1028.766	1071.48
1029.055	1052.05
1029.344	1066.51
1029.634	1067.87
1029.923	1047.98
1030.212	1065.83
1030.501	1032.84
1030.79	1008.66
1031.078	1033.52
1031.367	1047.08
1031.656	1005.04
1031.945	1023.12
1032.233	1002.11
1032.522	992.39
1032.81	968.66
1033.099	995.78
1033.387	991.49
1033.675	988.32
1033.963	970.24
1034.251	987.64
1034.54	970.24
1034.828	930.02
1035.116	939.06
1035.403	908.32
1035.691	938.83
1035.979	912.39
1036.267	911.04
1036.554	938.83
1036.842	893.63
1037.129	924.59
1037.417	880.98
1037.704	890.47
1037.992	865.84
1038.279	874.88
1038.566	859.29
1038.853	859.29
1039.14	859.29
