Data from hue_240_FLMS001491_00040.txt Node
Date: Tue Feb 07 16:35:25 GMT 2017
User: dcchb
Spectrometer: FLMS00149
Trigger mode: 0
Integration Time (sec): 2.000000E-2
Scans to average: 10
Electric dark correction enabled: true
Nonlinearity correction enabled: false
Boxcar width: 0
XAxis mode: Wavelengths
Number of Pixels in Spectrum: 2048
>>>>>Begin Spectral Data<<<<<
341.393	-15.01
341.776	-15.01
342.16	-15.01
342.543	-53.88
342.927	-74.67
343.31	-55.46
343.693	-75.58
344.077	-77.84
344.46	-57.95
344.843	-48.23
345.226	-65.86
345.61	-34.67
345.993	-6.88
346.376	1.93
346.759	-8.91
347.142	10.07
347.525	55.72
347.908	71.99
348.291	74.48
348.674	107.02
349.057	110.18
349.44	134.59
349.823	146.79
350.206	135.72
350.588	212.55
350.971	211.87
351.354	221.14
351.737	214.81
352.119	247.58
352.502	257.97
352.884	270.85
353.267	264.98
353.65	268.59
354.032	271.31
354.414	293
354.797	305.88
355.179	331.19
355.562	318.31
355.944	315.83
356.326	334.36
356.709	319.21
357.091	328.25
357.473	339.1
357.855	342.49
358.238	332.55
358.62	333.68
359.002	334.58
359.384	336.62
359.766	320.34
360.148	325.77
360.53	351.53
360.912	341.81
361.294	315.83
361.676	326.9
362.057	325.99
362.439	317.63
362.821	320.34
363.203	302.94
363.584	318.76
363.966	328.03
364.348	291.87
364.729	326.67
365.111	314.47
365.493	321.02
365.874	325.99
366.256	309.72
366.637	301.14
367.019	288.71
367.4	295.26
367.781	315.37
368.163	312.44
368.544	293.9
368.925	288.71
369.306	328.25
369.688	289.61
370.069	319.67
370.45	310.4
370.831	292.32
371.212	284.87
371.593	315.37
371.974	297.07
372.355	323.96
372.736	320.57
373.117	325.54
373.498	324.41
373.879	309.72
374.26	312.89
374.641	316.95
375.021	313.11
375.402	314.7
375.783	331.64
376.163	314.24
376.544	335.94
376.925	341.14
377.305	313.57
377.686	320.34
378.066	310.18
378.447	333.23
378.827	306.11
379.208	338.42
379.588	328.03
379.968	311.76
380.349	333.68
380.729	324.64
381.109	318.31
381.489	329.38
381.87	330.74
382.25	340.23
382.63	338.42
383.01	330.06
383.39	349.5
383.77	344.75
384.15	328.71
384.53	332.77
384.91	336.62
385.29	346.56
385.67	345.88
386.049	332.77
386.429	350.4
386.809	343.62
387.189	345.88
387.568	313.34
387.948	351.76
388.328	343.62
388.707	368.93
389.087	343.62
389.466	366.67
389.846	354.92
390.225	358.08
390.605	368.93
390.984	364.64
391.363	365.77
391.743	376.61
392.122	350.17
392.501	359.21
392.881	379.55
393.26	365.54
393.639	371.19
394.018	368.7
394.397	371.19
394.776	365.77
395.155	356.95
395.534	384.07
395.913	371.87
396.292	367.35
396.671	380
397.05	416.16
397.429	385.88
397.808	390.4
398.186	395.82
398.565	394.92
398.944	408.93
399.323	380.23
399.701	408.03
400.08	408.03
400.458	417.52
400.837	421.36
401.215	412.77
401.594	422.94
401.972	397.4
402.351	413
402.729	421.36
403.107	403.05
403.486	421.13
403.864	420.91
404.242	436.73
404.62	435.6
404.999	436.95
405.377	425.2
405.755	442.38
406.133	445.09
406.511	434.24
406.889	455.03
407.267	445.99
407.645	459.78
408.023	441.47
408.401	465.88
408.779	469.27
409.156	462.94
409.534	473.34
409.912	481.24
410.29	483.96
410.667	495.03
411.045	483.73
411.422	519.44
411.8	507.46
412.178	515.14
412.555	489.15
412.933	526.89
413.31	539.77
413.687	532.09
414.065	535.93
414.442	525.09
414.819	560.34
415.197	554.46
415.574	559.89
415.951	572.32
416.328	579.32
416.705	575.25
417.082	573.45
417.46	613.44
417.837	598.08
418.214	617.51
418.591	603.95
418.967	615.48
419.344	622.03
419.721	611.18
420.098	652.31
420.475	643.27
420.852	650.73
421.228	670.17
421.605	668.13
421.982	663.39
422.358	694.12
422.735	684.4
423.111	697.06
423.488	718.07
423.864	714.01
424.241	730.96
424.617	743.84
424.994	720.79
425.37	759.88
425.746	793.78
426.123	782.03
426.499	777.06
426.875	777.73
427.251	797.39
427.627	811.63
428.003	828.35
428.379	834
428.756	826.09
429.132	833.1
429.507	836.72
429.883	845.98
430.259	874
430.635	875.36
431.011	867.67
431.387	901.35
431.763	921.01
432.138	937.96
432.514	939.09
432.89	942.25
433.265	970.72
433.641	966.66
434.016	962.36
434.392	1007.56
434.767	1022.25
435.143	978.18
435.518	1029.93
435.894	1036.94
436.269	1034.45
436.644	1086.43
437.02	1090.04
437.395	1109.25
437.77	1117.16
438.145	1126.65
438.52	1160.77
438.895	1149.48
439.271	1180.44
439.646	1203.26
440.021	1208.46
440.395	1203.71
440.77	1200.55
441.145	1239.64
441.52	1272.86
441.895	1261.79
442.27	1273.77
442.645	1286.42
443.019	1290.26
443.394	1282.13
443.769	1309.92
444.143	1316.7
444.518	1327.1
444.892	1318.28
445.267	1350.6
445.641	1365.06
446.016	1358.96
446.39	1387.44
446.764	1396.02
447.139	1375.91
447.513	1423.59
447.887	1423.59
448.262	1430.15
448.636	1417.94
449.01	1444.83
449.384	1447.09
449.758	1473.31
450.132	1477.15
450.506	1467.21
450.88	1519.41
451.254	1466.08
451.628	1523.7
452.002	1557.37
452.376	1547.66
452.75	1561.67
453.123	1597.37
453.497	1612.97
453.871	1606.19
454.244	1611.16
454.618	1635.79
454.992	1663.81
455.365	1653.42
455.739	1698.84
456.112	1698.84
456.486	1725.05
456.859	1747.43
457.232	1780.65
457.606	1788.55
457.979	1807.99
458.352	1817.48
458.725	1813.86
459.099	1857.48
459.472	1902.45
459.845	1887.76
460.218	1932.96
460.591	1961.66
460.964	1935.22
461.337	1961.66
461.71	2015.89
462.083	2021.77
462.456	2040.3
462.829	2063.8
463.201	2042.11
463.574	2072.84
463.947	2099.51
464.32	2138.38
464.692	2165.49
465.065	2157.81
465.438	2194.65
465.81	2233.29
466.183	2258.37
466.555	2256.79
466.928	2295.89
467.3	2314.19
467.672	2321.2
468.045	2428.99
468.417	2382.21
468.789	2412.49
469.161	2435.09
469.534	2482.32
469.906	2525.03
470.278	2485.03
470.65	2534.07
471.022	2607.74
471.394	2635.31
471.766	2645.26
472.138	2687.29
472.51	2700.85
472.882	2755.08
473.253	2787.62
473.625	2842.99
473.997	2875.76
474.369	2872.82
474.74	2900.39
475.112	2960.5
475.484	2992.59
475.855	3049.09
476.227	3087.96
476.598	3147.61
476.97	3174.51
477.341	3223.09
477.713	3335.18
478.084	3289.76
478.455	3319.81
478.827	3400.26
479.198	3466.48
479.569	3468.51
479.94	3588.51
480.311	3564.1
480.682	3633.25
481.053	3692.46
481.424	3773.36
481.795	3794.83
482.166	3824.89
482.537	3939.46
482.908	3959.57
483.279	4006.35
483.65	4055.84
484.021	4129.06
484.391	4160.24
484.762	4194.14
485.133	4237.3
485.503	4252.44
485.874	4345.1
486.244	4390.75
486.615	4477.07
486.985	4525.88
487.356	4570.63
487.726	4566.56
488.097	4712.32
488.467	4686.33
488.837	4813.56
489.207	4794.8
489.578	4880.22
489.948	4946.89
490.318	4985.08
490.688	4969.94
491.058	5064.85
491.428	5109.6
491.798	5155.7
492.168	5197.5
492.538	5245.64
492.908	5322.25
493.278	5338.74
493.648	5381.45
494.017	5425.75
494.387	5399.31
494.757	5548.23
495.126	5566.31
495.496	5592.97
495.866	5573.99
496.235	5680.43
496.605	5669.36
496.974	5730.15
497.344	5721.11
497.713	5734.89
498.082	5799.52
498.452	5865.06
498.821	5873.42
499.19	5812.63
499.559	5914.55
499.928	5924.27
500.298	6005.39
500.667	6013.75
501.036	6023.02
501.405	6103.47
501.774	6104.37
502.143	6100.98
502.512	6104.6
502.88	6174.65
503.249	6170.13
503.618	6157.71
503.987	6194.54
504.356	6216.91
504.724	6278.15
505.093	6286.52
505.462	6267.76
505.83	6314.31
506.199	6412.16
506.567	6466.85
506.936	6329.9
507.304	6504.59
507.672	6423.46
508.041	6526.96
508.409	6566.28
508.777	6541.42
509.145	6604.25
509.514	6548.88
509.882	6571.25
510.25	6605.15
510.618	6683.34
510.986	6653.51
511.354	6745.94
511.722	6745.26
512.09	6808.31
512.458	6717.69
512.826	6782.77
513.193	6803.56
513.561	6837.91
513.929	6839.04
514.297	6872.49
514.664	6935.54
515.032	6865.48
515.4	6984.8
515.767	6961.98
516.135	6971.47
516.502	6953.16
516.869	6997.68
517.237	7084.46
517.604	7001.07
517.972	7048.3
518.339	7075.42
518.706	7110
519.073	7080.84
519.44	7122.2
519.808	7123.33
520.175	7093.27
520.542	7174.18
520.909	7167.17
521.276	7142.09
521.643	7183.44
522.009	7278.58
522.376	7255.98
522.743	7258.02
523.11	7305.25
523.477	7371.23
523.843	7371.68
524.21	7417.79
524.577	7406.71
524.943	7448.74
525.31	7431.57
525.676	7496.2
526.043	7488.52
526.409	7513.83
526.776	7549.08
527.142	7578.46
527.508	7599.48
527.874	7571
528.241	7644.67
528.607	7566.26
528.973	7657.55
529.339	7638.12
529.705	7689.42
530.071	7694.39
530.437	7750.66
530.803	7689.19
531.169	7757.89
531.535	7704.11
531.901	7762.63
532.267	7765.57
532.632	7751.79
532.998	7751.34
533.364	7730.55
533.73	7731.68
534.095	7792.69
534.461	7822.97
534.826	7776.87
535.192	7775.52
535.557	7792.01
535.923	7811
536.288	7825.91
536.653	7797.89
537.019	7720.15
537.384	7798.34
537.749	7784.33
538.114	7731.45
538.479	7722.18
538.845	7828.17
539.21	7777.1
539.575	7818.45
539.94	7813.26
540.305	7850.54
540.67	7756.76
541.034	7740.26
541.399	7792.92
541.764	7814.16
542.129	7755.4
542.494	7681.73
542.858	7754.73
543.223	7757.89
543.587	7755.4
543.952	7731
544.316	7740.49
544.681	7653.03
545.045	7678.34
545.41	7725.8
545.774	7683.31
546.138	7636.31
546.503	7705.24
546.867	7636.31
547.231	7757.89
547.595	7669.76
547.959	7682.41
548.324	7713.37
548.688	7691.68
549.052	7604.45
549.416	7685.35
549.779	7641.73
550.143	7634.28
550.507	7663.43
550.871	7692.13
551.235	7581.4
551.599	7614.16
551.962	7604.45
552.326	7584.11
552.689	7666.82
553.053	7621.17
553.417	7592.7
553.78	7713.6
554.143	7664.78
554.507	7556.99
554.87	7594.28
555.234	7691.45
555.597	7618.01
555.96	7677.89
556.323	7681.28
556.686	7648.29
557.05	7636.54
557.413	7668.4
557.776	7670.89
558.139	7703.2
558.502	7699.81
558.865	7658.68
559.228	7677.44
559.59	7732.13
559.953	7685.12
560.316	7801.73
560.679	7746.82
561.041	7831.56
561.404	7821.62
561.767	7792.01
562.129	7807.83
562.492	7871.33
562.854	7829.3
563.217	7877.66
563.579	7849.64
563.941	7858.68
564.304	7941.61
564.666	7924.66
565.028	7967.38
565.39	7938.45
565.753	7943.65
566.115	8055.96
566.477	8056.86
566.839	8052.57
567.201	8108.16
567.563	8097.09
567.925	8028.84
568.287	8138.9
568.648	8153.13
569.01	8198.1
569.372	8207.59
569.734	8152.91
570.095	8262.96
570.457	8208.5
570.819	8245.79
571.18	8280.59
571.542	8312.45
571.903	8261.83
572.265	8316.29
572.626	8340.47
572.987	8396.74
573.349	8383.86
573.71	8316.07
574.071	8372.11
574.432	8406.91
574.794	8492.79
575.155	8447.36
575.516	8492.33
575.877	8498.43
576.238	8510.86
576.599	8453.01
576.96	8547.7
577.32	8478.32
577.681	8532.33
578.042	8645.78
578.403	8675.38
578.763	8626.79
579.124	8660.01
579.485	8678.09
579.845	8666.11
580.206	8705.66
580.566	8683.06
580.927	8673.35
581.287	8744.76
581.648	8715.6
582.008	8742.5
582.368	8799.67
582.728	8863.4
583.089	8761.03
583.449	8801.93
583.809	8862.72
584.169	8826.11
584.529	8832.21
584.889	8815.49
585.249	8797.41
585.609	8805.77
585.969	8896.39
586.329	8853.91
586.688	8918.99
587.048	8909.72
587.408	8937.97
587.768	8914.02
588.127	8935.26
588.487	8933.9
588.846	8918.99
589.206	8934.13
589.565	8960.12
589.925	8988.14
590.284	8929.16
590.643	8955.6
591.003	9013
591.362	8996.73
591.721	8991.08
592.08	8963.28
592.44	9053.22
592.799	9004.18
593.158	8993.79
593.517	8980.23
593.876	8971.42
594.235	9051.41
594.593	9021.36
594.952	9081.92
595.311	9045.99
595.67	9062.26
596.029	9145.65
596.387	9112.88
596.746	9093
597.104	9104.52
597.463	9059.55
597.822	9134.12
598.18	9134.12
598.538	9061.81
598.897	9155.82
599.255	9036.73
599.613	9234.23
599.972	9144.97
600.33	9176.16
600.688	9135.93
601.046	9243.73
601.404	9174.58
601.762	9168.25
602.12	9194.01
602.478	9188.81
602.836	9187.23
603.194	9177.06
603.552	9178.64
603.91	9199.21
604.268	9187.46
604.625	9213.67
604.983	9215.03
605.341	9202.82
605.698	9288.7
606.056	9242.37
606.413	9310.39
606.771	9236.72
607.128	9246.89
607.485	9280.79
607.843	9278.75
608.2	9319.66
608.557	9296.61
608.914	9292.99
609.272	9300.22
609.629	9419.54
609.986	9431.52
610.343	9272.2
610.7	9397.62
611.057	9392.42
611.414	9340.45
611.771	9403.72
612.127	9416.15
612.484	9484.62
612.841	9472.19
613.198	9429.26
613.554	9445.98
613.911	9522.14
614.267	9466.32
614.624	9436.04
614.98	9441.91
615.337	9442.59
615.693	9492.98
616.05	9439.65
616.406	9570.27
616.762	9414.57
617.118	9558.07
617.475	9520.1
617.831	9519.88
618.187	9552.19
618.543	9559.2
618.899	9542.48
619.255	9516.94
619.611	9598.07
619.967	9605.75
620.323	9621.8
620.678	9558.29
621.034	9558.97
621.39	9523.94
621.746	9550.16
622.101	9607.33
622.457	9538.63
622.812	9594
623.168	9574.11
623.523	9570.27
623.879	9585.64
624.234	9551.06
624.589	9552.42
624.945	9538.63
625.3	9539.99
625.655	9617.28
626.01	9564.85
626.365	9519.42
626.72	9545.41
627.075	9629.93
627.43	9556.26
627.785	9542.25
628.14	9548.12
628.495	9554.9
628.85	9546.54
629.205	9557.39
629.559	9492.08
629.914	9506.54
630.269	9490.05
630.623	9538.18
630.978	9478.3
631.332	9491.18
631.687	9430.39
632.041	9459.09
632.396	9450.27
632.75	9435.59
633.104	9450.27
633.459	9402.37
633.813	9364.17
634.167	9387.45
634.521	9358.75
634.875	9367.34
635.229	9438.52
635.583	9386.77
635.937	9358.3
636.291	9322.59
636.645	9303.84
636.999	9300.67
637.352	9248.47
637.706	9284.4
638.06	9338.41
638.413	9310.84
638.767	9274.91
639.121	9281.69
639.474	9177.29
639.828	9250.05
640.181	9212.54
640.534	9218.87
640.888	9203.05
641.241	9151.75
641.594	9204.63
641.947	9153.56
642.301	9136.61
642.654	9165.76
643.007	9131.86
643.36	9088.02
643.713	9129.6
644.066	9139.32
644.419	9165.08
644.771	9081.92
645.124	8976.39
645.477	8973.22
645.83	8902.94
646.182	8776.62
646.535	8819.1
646.888	8860.01
647.24	8818.43
647.593	8862.49
647.945	8843.06
648.298	8754.93
648.65	8761.25
649.002	8719.9
649.355	8748.37
649.707	8732.1
650.059	8794.02
650.411	8950.17
650.763	8887.35
651.115	8978.42
651.467	8961.02
651.819	8949.5
652.171	8881.7
652.523	8901.14
652.875	8915.6
653.227	8907.01
653.578	8888.25
653.93	8906.79
654.282	8908.59
654.633	8832.21
654.985	8888.48
655.337	8889.61
655.688	8869.95
656.039	8945.43
656.391	8914.47
656.742	8908.37
657.094	8943.62
657.445	8919.67
657.796	8905.43
658.147	8949.04
658.498	8931.42
658.849	8866.11
659.2	8894.58
659.551	8840.12
659.902	8872.44
660.253	8883.06
660.604	8911.31
660.955	8867.01
661.306	8876.28
661.656	8898.88
662.007	8906.11
662.358	8896.84
662.708	8864.53
663.059	8862.94
663.409	8850.97
663.76	8820.01
664.11	8948.37
664.461	8916.28
664.811	8908.14
665.161	8886.67
665.511	8907.01
665.862	8891.42
666.212	8902.72
666.562	8894.13
666.912	8872.21
667.262	8867.46
667.612	8947.91
667.962	8897.07
668.312	8884.41
668.662	8897.29
669.011	8899.55
669.361	8907.01
669.711	8879.89
670.06	8863.17
670.41	8850.74
670.76	8853.23
671.109	8843.28
671.459	8813.45
671.808	8824.53
672.157	8788.14
672.507	8778.43
672.856	8785.43
673.205	8834.25
673.554	8826.79
673.904	8841.93
674.253	8889.84
674.602	8808.94
674.951	8645.1
675.3	8594.93
675.649	8762.61
675.998	8734.36
676.346	8777.52
676.695	8765.55
677.044	8688.03
677.393	8692.33
677.741	8788.14
678.09	8698.2
678.438	8693.46
678.787	8726.45
679.135	8721.71
679.484	8658.88
679.832	8665.89
680.181	8611.88
680.529	8607.81
680.877	8655.04
681.225	8633.8
681.573	8663.18
681.922	8596.29
682.27	8534.14
682.618	8592.44
682.966	8522.84
683.314	8548.6
683.661	8479
684.009	8428.61
684.357	8436.97
684.705	8441.49
685.053	8350.64
685.4	8457.98
685.748	8361.94
686.095	8401.26
686.443	8321.72
686.79	8312.45
687.138	8382.28
687.485	8281.72
687.832	8266.8
688.18	8253.7
688.527	8212.57
688.874	8251.21
689.221	8155.84
689.568	8189.06
689.915	8225.45
690.262	8139.12
690.609	8116.07
690.956	8062.97
691.303	8050.76
691.65	8027.03
691.997	8021.39
692.344	8014.15
692.69	7983.65
693.037	8048.73
693.383	7914.72
693.73	7959.01
694.077	7919.92
694.423	7876.08
694.769	7872.24
695.116	7835.4
695.462	7803.54
695.808	7726.93
696.155	7825.23
696.501	7801.5
696.847	7710.66
697.193	7717.21
697.539	7749.3
697.885	7627.72
698.231	7629.31
698.577	7583.66
698.923	7561.06
699.269	7530.55
699.614	7495.3
699.96	7451.91
700.306	7493.49
700.651	7391.57
700.997	7409.42
701.342	7389.31
701.688	7329.43
702.033	7343.66
702.379	7310.44
702.724	7329.88
703.069	7316.09
703.415	7208.53
703.76	7238.81
704.105	7222.54
704.45	7221.41
704.795	7159.94
705.14	7186.83
705.485	7120.39
705.83	7115.42
706.175	7108.64
706.52	7101.86
706.865	7083.78
707.209	7043.11
707.554	6981.64
707.899	7032.48
708.243	7008.76
708.588	6947.06
708.932	6869.1
709.277	6869.55
709.621	6938.7
709.966	6833.39
710.31	6899.15
710.654	6782.1
710.998	6796.33
711.342	6849.21
711.687	6781.19
712.031	6802.66
712.375	6760.18
712.719	6779.84
713.063	6754.3
713.407	6705.49
713.75	6754.53
714.094	6708.88
714.438	6676.34
714.782	6681.31
715.125	6697.13
715.469	6679.73
715.812	6665.49
716.156	6548.66
716.499	6631.37
716.843	6581.87
717.186	6489.9
717.53	6649.67
717.873	6595.21
718.216	6582.1
718.559	6543.46
718.902	6516.57
719.246	6563.34
719.589	6480.18
719.932	6458.49
720.275	6486.51
720.617	6533.51
720.96	6510.01
721.303	6453.52
721.646	6473.63
721.989	6427.08
722.331	6450.35
722.674	6428.66
723.016	6459.62
723.359	6460.75
723.701	6451.93
724.044	6420.98
724.386	6400.18
724.729	6379.39
725.071	6433.4
725.413	6407.19
725.755	6386.63
726.097	6350.92
726.439	6354.54
726.782	6361.99
727.124	6371.26
727.465	6324.48
727.807	6339.17
728.149	6371.71
728.491	6345.95
728.833	6359.51
729.175	6354.31
729.516	6284.26
729.858	6370.81
730.199	6361.99
730.541	6294.42
730.882	6318.83
731.224	6301.88
731.565	6282.45
731.906	6325.61
732.248	6318.61
732.589	6231.83
732.93	6258.04
733.271	6250.13
733.612	6306.85
733.953	6307.76
734.294	6270.7
734.635	6236.12
734.976	6279.28
735.317	6221.43
735.658	6251.94
735.999	6253.52
736.339	6204.94
736.68	6282.45
737.021	6237.7
737.361	6274.99
737.702	6282.67
738.042	6240.42
738.383	6236.12
738.723	6255.1
739.063	6224.14
739.404	6265.05
739.744	6299.4
740.084	6267.31
740.424	6265.73
740.764	6247.65
741.104	6359.51
741.444	6300.75
741.784	6289.68
742.124	6293.75
742.464	6303.46
742.804	6300.3
743.143	6293.52
743.483	6316.12
743.823	6313.18
744.162	6388.66
744.502	6348.66
744.841	6395.67
745.181	6453.74
745.52	6470.69
745.86	6457.13
746.199	6486.06
746.538	6504.14
746.877	6500.97
747.216	6510.01
747.556	6585.72
747.895	6636.79
748.234	6580.75
748.573	6578.26
748.911	6632.72
749.25	6623.46
749.589	6651.7
749.928	6753.62
750.267	6786.39
750.605	6892.15
750.944	6858.93
751.283	6867.29
751.621	6939.15
751.96	7008.53
752.298	7009.66
752.636	7083.56
752.975	7182.54
753.313	7183.44
753.651	7277.22
753.989	7318.13
754.327	7366.94
754.666	7443.77
755.004	7550.66
755.342	7591.34
755.679	7684.44
756.017	7739.58
756.355	7776.87
756.693	7893.25
757.031	7989.07
757.368	8003.98
757.706	8122.4
758.044	8160.14
758.381	8287.14
758.719	8358.55
759.056	8483.75
759.394	8518.55
759.731	8549.73
760.068	8736.17
760.405	8738.65
760.743	8829.27
761.08	8951.76
761.417	9005.77
761.754	9174.35
762.091	9212.54
762.428	9393.78
762.765	9416.83
763.102	9525.75
763.438	9556.26
763.775	9669.03
764.112	9776.37
764.449	9887.1
764.785	9966.87
765.122	9946.31
765.458	10040.54
765.795	10205.51
766.131	10193.76
766.467	10302.46
766.804	10344.49
767.14	10402.79
767.476	10432.85
767.812	10526.18
768.148	10633.07
768.485	10681.65
768.821	10752.16
769.157	10834.64
769.492	10918.48
769.828	10990.12
770.164	10963.45
770.5	11021.98
770.836	11096.78
771.171	11115.99
771.507	11151.92
771.842	11168.87
772.178	11217.69
772.513	11279.6
772.849	11293.84
773.184	11237.12
773.519	11348.53
773.855	11348.98
774.19	11386.95
774.525	11458.81
774.86	11502.2
775.195	11539.94
775.53	11517.56
775.865	11487.73
776.2	11454.06
776.535	11498.36
776.87	11557.56
777.205	11450.67
777.539	11545.36
777.874	11588.3
778.209	11452.71
778.543	11466.49
778.878	11528.41
779.212	11557.79
779.547	11557.56
779.881	11593.04
780.215	11491.8
780.55	11666.94
780.884	11614.74
781.218	11544.91
781.552	11622.87
781.886	11535.42
782.22	11514.17
782.554	11559.15
782.888	11407.51
783.222	11440.5
783.556	11535.87
783.889	11423.1
784.223	11334.52
784.557	11328.19
784.89	11466.72
785.224	11309.89
785.557	11373.84
785.891	11312.82
786.224	11305.59
786.558	11290.68
786.891	11257.68
787.224	11240.74
787.557	11226.72
787.891	11241.64
788.224	11250.23
788.557	11267.63
788.89	11197.57
789.223	11300.17
789.556	11135.43
789.888	11128.65
790.221	11077.12
790.554	11020.63
790.887	11148.76
791.219	10971.59
791.552	10966.62
791.884	10961.65
792.217	10947.64
792.549	10972.49
792.882	10874.64
793.214	10845.49
793.546	10957.13
793.879	10704.7
794.211	10704.7
794.543	10789
794.875	10775.44
795.207	10824.7
795.539	10771.14
795.871	10767.3
796.203	10745.61
796.535	10572.5
796.867	10601.88
797.198	10572.5
797.53	10591.94
797.862	10496.8
798.193	10471.26
798.525	10464.48
798.856	10453.64
799.188	10377.93
799.519	10384.71
799.85	10297.03
800.182	10361.44
800.513	10315.11
800.844	10241.89
801.175	10335.9
801.506	10268.33
801.837	10219.29
802.168	10230.82
802.499	10209.58
802.83	10153.98
803.161	10115.79
803.491	10116.7
803.822	10105.17
804.153	10054.78
804.483	9954.89
804.814	10025.85
805.145	10021.56
805.475	9981.11
805.805	9961.67
806.136	9911.28
806.466	9905.86
806.796	9918.51
807.126	9873.77
807.457	9815.01
807.787	9895.23
808.117	9825.63
808.447	9733.66
808.777	9852.07
809.107	9746.54
809.436	9716.93
809.766	9660.21
810.096	9696.6
810.426	9641.46
810.755	9642.81
811.085	9652.08
811.414	9552.19
811.744	9529.14
812.073	9464.29
812.403	9553.77
812.732	9471.29
813.061	9488.92
813.39	9399.43
813.719	9369.37
814.049	9408.24
814.378	9361.46
814.707	9438.3
815.036	9329.6
815.365	9390.16
815.693	9252.54
816.022	9320.11
816.351	9255.25
816.68	9179.77
817.008	9269.49
817.337	9151.07
817.665	9151.3
817.994	9149.72
818.322	9173.67
818.651	9055.26
818.979	9112.2
819.307	9144.29
819.636	9169.6
819.964	9073.56
820.292	9107.23
820.62	9142.49
820.948	9077.4
821.276	9176.38
821.604	9050.51
821.932	9104.97
822.259	9090.74
822.587	9023.17
822.915	9067.23
823.243	9125.08
823.57	9008.7
823.898	9116.05
824.225	9060
824.553	8975.71
824.88	9001.7
825.207	9098.87
825.535	9041.02
825.862	9070.62
826.189	9057.29
826.516	9112.43
826.843	9166.21
827.17	9077.85
827.497	9112.43
827.824	9092.09
828.151	9165.08
828.478	9107.91
828.805	9118.53
829.131	9085.76
829.458	9018.2
829.785	9047.57
830.111	9037.18
830.438	9146.78
830.764	9078.53
831.09	9154.91
831.417	8980.91
831.743	9005.77
832.069	9092.54
832.395	8970.96
832.722	9020.91
833.048	8991.53
833.374	9032.43
833.7	8991.3
834.026	8965.32
834.351	8963.51
834.677	8998.53
835.003	8983.62
835.329	8934.36
835.654	8941.59
835.98	8940.91
836.306	8928.25
836.631	8935.49
836.956	8914.02
837.282	8925.09
837.607	8811.19
837.932	8863.17
838.258	8869.95
838.583	8816.39
838.908	8827.24
839.233	8882.38
839.558	8847.13
839.883	8771.87
840.208	8814.36
840.533	8802.83
840.858	8728.94
841.182	8730.97
841.507	8823.4
841.832	8741.82
842.156	8686
842.481	8733.46
842.805	8696.62
843.13	8662.95
843.454	8602.84
843.778	8572.56
844.103	8560.81
844.427	8500.02
844.751	8591.77
845.075	8542.28
845.399	8476.06
845.723	8420.24
846.047	8493.46
846.371	8459.57
846.695	8384.31
847.019	8401.71
847.343	8286.46
847.666	8294.82
847.99	8272.23
848.313	8253.92
848.637	8202.85
848.96	8180.25
849.284	8135.05
849.607	8171.44
849.931	8132.57
850.254	8053.47
850.577	8029.97
850.9	7961.05
851.223	7966.25
851.546	7902.29
851.869	7826.81
852.192	7869.52
852.515	7795.4
852.838	7787.04
853.161	7789.98
853.483	7776.19
853.806	7753.14
854.129	7752.01
854.451	7615.52
854.774	7596.09
855.096	7633.82
855.419	7611
855.741	7651
856.063	7517.22
856.385	7521.96
856.708	7491.91
857.03	7428.18
857.352	7498.69
857.674	7367.84
857.996	7413.27
858.318	7443.32
858.64	7390.22
858.961	7355.19
859.283	7284.68
859.605	7277.22
859.926	7326.26
860.248	7301.4
860.57	7253.27
860.891	7255.76
861.212	7278.81
861.534	7207.17
861.855	7179.15
862.176	7199.49
862.498	7189.32
862.819	7178.7
863.14	7181.18
863.461	7125.59
863.782	7131.92
864.103	7088.08
864.424	7100.51
864.745	7114.06
865.065	7037.46
865.386	7054.4
865.707	7037.68
866.027	7093.73
866.348	6994.07
866.668	7053.27
866.989	7048.76
867.309	6950.23
867.63	7012.6
867.95	6980.96
868.27	6862.09
868.59	6947.97
868.91	6861.87
869.23	6847.86
869.55	6916.1
869.87	6919.49
870.19	6818.03
870.51	6889.21
870.83	6895.31
871.15	6839.04
871.469	6842.43
871.789	6848.31
872.109	6763.11
872.428	6794.3
872.748	6840.85
873.067	6834.75
873.386	6814.86
873.706	6749.78
874.025	6729.89
874.344	6745.94
874.663	6747.75
874.982	6714.75
875.301	6720.18
875.62	6672.27
875.939	6713.17
876.258	6740.74
876.577	6674.3
876.896	6648.54
877.214	6622.55
877.533	6704.58
877.852	6639.5
878.17	6665.26
878.489	6662.1
878.807	6622.1
879.125	6655.55
879.444	6580.29
879.762	6559.05
880.08	6574.42
880.398	6570.35
880.716	6551.82
881.034	6512.27
881.352	6564.02
881.67	6521.09
881.988	6510.24
882.306	6444.48
882.624	6421.43
882.941	6376.46
883.259	6428.88
883.577	6440.64
883.894	6406.96
884.212	6350.69
884.529	6435.44
884.846	6341.88
885.164	6328.55
885.481	6303.01
885.798	6348.43
886.115	6269.79
886.432	6260.53
886.75	6290.13
887.067	6285.61
887.383	6215.33
887.7	6273.18
888.017	6185.73
888.334	6252.39
888.651	6223.01
888.967	6181.21
889.284	6179.4
889.6	6130.14
889.917	6133.53
890.233	6094.88
890.55	6073.64
890.866	6122.45
891.182	6013.3
891.498	6063.7
891.815	6017.82
892.131	5975.79
892.447	5984.38
892.763	6003.13
893.079	5922.46
893.395	5976.24
893.71	5903.02
894.026	5922.01
894.342	5938.73
894.657	5874.32
894.973	5828.9
895.289	5857.37
895.604	5804.04
895.92	5809.01
896.235	5762.69
896.55	5766.3
896.865	5750.03
897.181	5722.24
897.496	5732.63
897.811	5699.41
898.126	5665.06
898.441	5621
898.756	5645.18
899.071	5586.19
899.386	5599.53
899.7	5606.31
900.015	5558.17
900.33	5569.02
900.644	5562.47
900.959	5525.63
901.273	5553.2
901.588	5470.27
901.902	5484.5
902.216	5404.96
902.531	5399.76
902.845	5367.9
903.159	5331.06
903.473	5365.41
903.787	5302.59
904.101	5296.26
904.415	5278.18
904.729	5273.43
905.042	5294
905.356	5195.24
905.67	5161.35
905.984	5177.84
906.297	5186.88
906.611	5184.4
906.924	5124.29
907.237	5145.75
907.551	5104.85
907.864	5068.24
908.177	5112.08
908.491	5099.88
908.804	5025.76
909.117	5016.27
909.43	4989.6
909.743	4941.24
910.056	4956.83
910.368	4940.34
910.681	4911.64
910.994	4886.55
911.307	4861.24
911.619	4845.65
911.932	4835.93
912.244	4811.75
912.557	4815.59
912.869	4810.17
913.181	4741.25
913.494	4749.15
913.806	4702.38
914.118	4693.11
914.43	4667.8
914.742	4698.99
915.054	4677.97
915.366	4604.53
915.678	4651.53
915.99	4587.35
916.302	4561.14
916.613	4570.63
916.925	4498.09
917.236	4516.39
917.548	4478.2
917.859	4516.17
918.171	4465.77
918.482	4461.25
918.794	4471.2
919.105	4446.11
919.416	4381.93
919.727	4447.69
920.038	4373.12
920.349	4382.61
920.66	4350.75
920.971	4372.44
921.282	4335.15
921.593	4304.19
921.903	4282.95
922.214	4282.27
922.525	4243.41
922.835	4236.85
923.146	4252.44
923.456	4252.9
923.767	4151.43
924.077	4169.73
924.387	4158.66
924.697	4105.1
925.008	4143.97
925.318	4087.25
925.628	4079.12
925.938	4085.9
926.248	4043.86
926.558	4035.95
926.867	4051.55
927.177	4012.23
927.487	4010.42
927.796	3941.72
928.106	3948.27
928.416	3926.58
928.725	3951.44
929.034	3931.55
929.344	3905.11
929.653	3880.93
929.962	3827.6
930.271	3811.78
930.581	3828.5
930.89	3798.67
931.199	3768.62
931.508	3783.98
931.817	3766.13
932.125	3776.07
932.434	3751.44
932.743	3706.7
933.051	3692.01
933.36	3687.26
933.669	3681.61
933.977	3680.71
934.286	3655.62
934.594	3670.77
934.902	3623.99
935.21	3648.39
935.519	3582.86
935.827	3579.02
936.135	3581.05
936.443	3545.57
936.751	3532.92
937.059	3528.62
937.367	3483.65
937.674	3477.32
937.982	3539.02
938.29	3473.93
938.597	3468.74
938.905	3423.77
939.213	3436.65
939.52	3373.6
939.827	3425.35
940.135	3390.55
940.442	3341.96
940.749	3343.54
941.056	3354.84
941.363	3322.3
941.67	3315.29
941.977	3282.53
942.284	3276.88
942.591	3294.5
942.898	3265.35
943.205	3252.02
943.511	3230.55
943.818	3225.13
944.125	3212.92
944.431	3196.2
944.738	3191.23
945.044	3143.55
945.35	3175.41
945.657	3094.06
945.963	3121.85
946.269	3120.5
946.575	3096.99
946.881	3059.71
947.187	3071.91
947.493	3093.61
947.799	3028.07
948.105	3047.28
948.41	2996.21
948.716	3019.03
949.022	2996.66
949.327	3024
949.633	2971.57
949.938	3028.97
950.244	2975.87
950.549	2943.1
950.854	2927.96
951.16	2944
951.465	2903.33
951.77	2892.25
952.075	2891.12
952.38	2866.72
952.685	2903.78
952.99	2816.32
953.294	2819.04
953.599	2833.05
953.904	2805.93
954.209	2794.18
954.513	2806.16
954.818	2753.05
955.122	2785.59
955.426	2764.12
955.731	2749.66
956.035	2716.89
956.339	2748.76
956.643	2728.19
956.948	2713.73
957.252	2683.22
957.556	2697.46
957.86	2660.4
958.163	2648.87
958.467	2655.65
958.771	2645.26
959.075	2606.84
959.378	2618.36
959.682	2614.3
959.985	2633.28
960.289	2592.15
960.592	2562.09
960.896	2561.64
961.199	2556.9
961.502	2548.99
961.805	2520.96
962.108	2531.81
962.411	2520.29
962.714	2523.22
963.017	2484.36
963.32	2500.4
963.623	2467.63
963.926	2473.96
964.228	2482.55
964.531	2468.08
964.833	2462.21
965.136	2426.73
965.438	2389.67
965.741	2379.95
966.043	2353.06
966.345	2399.61
966.648	2375.66
966.95	2382.21
967.252	2375.66
967.554	2347.18
967.856	2312.61
968.158	2332.95
968.46	2316.22
968.761	2309.22
969.063	2296.11
969.365	2321.2
969.666	2286.39
969.968	2274.64
970.269	2246.17
970.571	2272.84
970.872	2255.44
971.174	2252.05
971.475	2240.75
971.776	2183.57
972.077	2189.9
972.378	2193.74
972.679	2196
972.98	2177.02
973.281	2186.28
973.582	2173.63
973.883	2183.8
974.183	2144.93
974.484	2097.93
974.785	2122.56
975.085	2106.29
975.386	2090.92
975.686	2091.82
975.986	2083.01
976.287	2076.46
976.587	2065.61
976.887	2071.26
977.187	2025.61
977.487	2053.41
977.787	2050.02
978.087	2022.45
978.387	2011.6
978.687	2036.23
978.987	2048.66
979.286	1986.52
979.586	1995.1
979.885	1954.43
980.185	1967.08
980.484	1939.29
980.784	1956.69
981.083	1967.53
981.382	1924.14
981.682	1924.14
981.981	1935.44
982.28	1922.56
982.579	1892.05
982.878	1922.11
983.177	1917.14
983.475	1892.28
983.774	1872.62
984.073	1862.45
984.372	1857.93
984.67	1878.27
984.969	1837.82
985.267	1862.68
985.566	1843.02
985.864	1820.19
986.162	1835.79
986.461	1819.74
986.759	1802.79
987.057	1778.16
987.355	1788.33
987.653	1782
987.951	1796.24
988.249	1748.56
988.547	1726.41
988.844	1764.15
989.142	1750.82
989.44	1738.84
989.737	1723.7
990.035	1721.21
990.332	1743.36
990.63	1683.02
990.927	1722.34
991.224	1689.57
991.521	1664.72
991.819	1694.09
992.116	1673.98
992.413	1663.13
992.71	1668.78
993.006	1649.8
993.303	1666.07
993.6	1641.67
993.897	1638.95
994.193	1615.23
994.49	1615.68
994.787	1570.93
995.083	1609.35
995.379	1575.9
995.676	1570.93
995.972	1548.11
996.268	1572.52
996.565	1553.53
996.861	1565.06
997.157	1548.79
997.453	1570.26
997.749	1550.59
998.044	1527.32
998.34	1509.69
998.636	1473.53
998.932	1501.1
999.227	1536.58
999.523	1483.48
999.818	1517.38
1000.114	1466.53
1000.409	1463.37
1000.704	1465.85
1001	1478.05
1001.295	1446.42
1001.59	1443.03
1001.885	1456.13
1002.18	1406.87
1002.475	1441.45
1002.77	1413.42
1003.065	1409.36
1003.359	1411.16
1003.654	1390.83
1003.949	1434.44
1004.243	1390.15
1004.538	1362.8
1004.832	1394.21
1005.127	1367.77
1005.421	1358.06
1005.715	1348.79
1006.009	1364.84
1006.304	1347.21
1006.598	1320.09
1006.892	1341.11
1007.186	1312.41
1007.48	1291.84
1007.773	1294.1
1008.067	1281
1008.361	1294.1
1008.655	1276.93
1008.948	1266.53
1009.242	1284.16
1009.535	1263.37
1009.829	1248.23
1010.122	1244.16
1010.415	1240.77
1010.708	1238.96
1011.001	1248.23
1011.295	1215.69
1011.588	1241.22
1011.881	1204.16
1012.173	1192.41
1012.466	1185.63
1012.759	1175.01
1013.052	1202.36
1013.344	1199.64
1013.637	1172.3
1013.93	1164.39
1014.222	1166.88
1014.514	1151.74
1014.807	1144.73
1015.099	1150.15
1015.391	1134.79
1015.683	1123.49
1015.976	1116.71
1016.268	1123.71
1016.56	1137.27
1016.851	1104.5
1017.143	1101.57
1017.435	1100.89
1017.727	1082.13
1018.018	1075.13
1018.31	1055.01
1018.602	1056.82
1018.893	1081
1019.185	1087.1
1019.476	1051.17
1019.767	1053.43
1020.058	1066.09
1020.35	1033.55
1020.641	1022.02
1020.932	1028.35
1021.223	1007.11
1021.514	1039.87
1021.804	1018.86
1022.095	1005.98
1022.386	970.27
1022.677	976.82
1022.967	975.92
1023.258	973.43
1023.548	982.02
1023.839	969.14
1024.129	959.2
1024.419	947.9
1024.709	936.15
1025	962.59
1025.29	954.9
1025.58	933.66
1025.87	925.75
1026.16	930.95
1026.449	943.38
1026.739	903.38
1027.029	916.71
1027.319	892.76
1027.608	912.65
1027.898	902.25
1028.187	863.16
1028.477	904.51
1028.766	881.23
1029.055	872.19
1029.344	875.58
1029.634	869.48
1029.923	868.8
1030.212	849.6
1030.501	877.84
1030.79	840.33
1031.078	850.5
1031.367	827.68
1031.656	835.81
1031.945	816.83
1032.233	829.94
1032.522	817.51
1032.81	829.48
1033.099	803.27
1033.387	775.25
1033.675	791.29
1033.963	804.63
1034.251	805.3
1034.54	770.28
1034.828	776.83
1035.116	782.93
1035.403	750.16
1035.691	748.36
1035.979	770.5
1036.267	776.6
1036.554	739.99
1036.842	748.58
1037.129	768.69
1037.417	756.49
1037.704	742.93
1037.992	733.89
1038.279	723.72
1038.566	721.69
1038.853	721.69
1039.14	721.69
