Data from hue_230_FLMS001491_00086.txt Node
Date: Tue Feb 07 16:37:51 GMT 2017
User: dcchb
Spectrometer: FLMS00149
Trigger mode: 0
Integration Time (sec): 2.000000E-2
Scans to average: 10
Electric dark correction enabled: true
Nonlinearity correction enabled: false
Boxcar width: 0
XAxis mode: Wavelengths
Number of Pixels in Spectrum: 2048
>>>>>Begin Spectral Data<<<<<
341.393	1.36
341.776	1.36
342.16	1.36
342.543	-79.09
342.927	-68.25
343.31	-54.46
343.693	-74.35
344.077	-67.57
344.46	-61.47
344.843	-60.56
345.226	-49.49
345.61	-36.38
345.993	-14.46
346.376	-13.33
346.759	11.3
347.142	48.59
347.525	42.71
347.908	61.69
348.291	85.2
348.674	83.61
349.057	98.98
349.44	132.65
349.823	130.62
350.206	140.11
350.588	209.03
350.971	192.76
351.354	200.22
351.737	237.06
352.119	250.39
352.502	264.4
352.884	248.58
353.267	272.99
353.65	285.87
354.032	296.49
354.414	301.69
354.797	307.56
355.179	320.9
355.562	306.43
355.944	312.99
356.326	325.87
356.709	330.16
357.091	316.83
357.473	350.73
357.855	319.31
358.238	333.78
358.62	348.69
359.002	353.66
359.384	330.39
359.766	345.98
360.148	345.98
360.53	329.48
360.912	327.45
361.294	321.35
361.676	322.93
362.057	329.93
362.439	308.01
362.821	328.58
363.203	316.6
363.584	304.4
363.966	309.14
364.348	305.75
364.729	312.99
365.111	302.82
365.493	323.61
365.874	315.7
366.256	311.63
366.637	306.43
367.019	289.71
367.4	303.95
367.781	285.64
368.163	319.31
368.544	310.27
368.925	297.17
369.306	300.33
369.688	287.45
370.069	317.28
370.45	312.31
370.831	326.77
371.212	305.98
371.593	309.14
371.974	332.42
372.355	299.43
372.736	299.88
373.117	309.82
373.498	302.59
373.879	309.14
374.26	289.94
374.641	293.78
375.021	321.57
375.402	296.94
375.783	294.91
376.163	342.36
376.544	293.33
376.925	332.87
377.305	327.67
377.686	322.48
378.066	301.91
378.447	319.54
378.827	315.92
379.208	321.57
379.588	316.6
379.968	325.64
380.349	310.5
380.729	320.9
381.109	324.06
381.489	331.52
381.87	332.87
382.25	332.65
382.63	337.39
383.01	337.62
383.39	326.77
383.77	333.55
384.15	334.45
384.53	350.05
384.91	360.44
385.29	323.83
385.67	343.04
386.049	335.36
386.429	337.17
386.809	355.47
387.189	333.1
387.568	336.71
387.948	355.7
388.328	345.3
388.707	347.11
389.087	324.96
389.466	366.54
389.846	357.05
390.225	350.27
390.605	349.6
390.984	352.76
391.363	342.14
391.743	364.96
392.122	381.46
392.501	359.09
392.881	365.19
393.26	375.58
393.639	376.94
394.018	350.73
394.397	394.11
394.776	362.93
395.155	359.31
395.534	388.46
395.913	401.57
396.292	375.58
396.671	387.56
397.05	382.14
397.429	376.71
397.808	388.92
398.186	391.18
398.565	420.55
398.944	395.92
399.323	405.87
399.701	390.27
400.08	378.97
400.458	400.44
400.837	405.87
401.215	415.36
401.594	405.19
401.972	395.47
402.351	406.99
402.729	402.93
403.107	394.79
403.486	417.39
403.864	421.23
404.242	421.23
404.62	435.47
404.999	425.07
405.377	435.47
405.755	444.73
406.133	431.4
406.511	418.75
406.889	425.98
407.267	433.43
407.645	451.51
408.023	439.54
408.401	477.73
408.779	472.08
409.156	446.99
409.534	475.92
409.912	465.07
410.29	481.57
410.667	492.19
411.045	494.68
411.422	481.8
411.8	502.81
412.178	507.11
412.555	516.14
412.933	534.9
413.31	531.06
413.687	560.44
414.065	574.9
414.442	573.77
414.819	548.46
415.197	554.11
415.574	587.56
415.951	598.4
416.328	569.7
416.705	571.06
417.082	591.17
417.46	604.73
417.837	622.13
418.214	640.89
418.591	606.54
418.967	611.28
419.344	613.77
419.721	616.93
420.098	644.95
420.475	647.21
420.852	652.86
421.228	679.53
421.605	690.83
421.982	695.35
422.358	686.08
422.735	701
423.111	700.09
423.488	687.67
423.864	715.46
424.241	748.91
424.617	766.08
424.994	765.63
425.37	775.8
425.746	759.3
426.123	784.39
426.499	822.8
426.875	795.69
427.251	818.28
427.627	849.02
428.003	836.81
428.379	863.25
428.756	843.59
429.132	843.37
429.507	892.18
429.883	875.46
430.259	883.37
430.635	905.29
431.011	914.78
431.387	934.21
431.763	932.86
432.138	953.42
432.514	971.95
432.89	981.67
433.265	1015.79
433.641	1018.73
434.016	1028.45
434.392	1051.27
434.767	1060.09
435.143	1067.99
435.518	1057.37
435.894	1122
436.269	1111.61
436.644	1115.45
437.02	1147.31
437.395	1176.92
437.77	1166.75
438.145	1227.99
438.52	1225.73
438.895	1232.28
439.271	1237.71
439.646	1260.08
440.021	1269.8
440.395	1282.68
440.77	1231.61
441.145	1292.4
441.52	1331.26
441.895	1336.91
442.27	1342.34
442.645	1366.29
443.019	1390.25
443.394	1401.55
443.769	1420.08
444.143	1404.93
444.518	1440.41
444.892	1406.97
445.267	1432.05
445.641	1434.99
446.016	1476.57
446.39	1481.54
446.764	1453.75
447.139	1487.64
447.513	1506.4
447.887	1514.76
448.262	1517.02
448.636	1528.1
449.01	1556.34
449.384	1539.17
449.758	1562.9
450.132	1583.01
450.506	1606.29
450.88	1595.44
451.254	1591.6
451.628	1616
452.002	1653.97
452.376	1675.44
452.75	1694.19
453.123	1662.1
453.497	1734.42
453.871	1727.19
454.244	1775.09
454.618	1757.24
454.992	1791.59
455.365	1786.17
455.739	1823
456.112	1823.91
456.486	1834.75
456.859	1874.08
457.232	1910.68
457.606	1890.8
457.979	1908.42
458.352	1956.33
458.725	1969.67
459.099	1971.7
459.472	1998.82
459.845	2025.71
460.218	2054.64
460.591	2059.61
460.964	2086.05
461.337	2104.58
461.71	2161.3
462.083	2159.27
462.456	2141.64
462.829	2143.67
463.201	2225.03
463.574	2233.61
463.947	2253.05
464.32	2291.92
464.692	2312.26
465.065	2327.85
465.438	2359.94
465.81	2359.03
466.183	2385.7
466.555	2435.87
466.928	2461.86
467.3	2459.37
467.672	2500.5
468.045	2503.21
468.417	2569.42
468.789	2580.72
469.161	2564.45
469.534	2651.23
469.906	2708.86
470.278	2717.89
470.65	2734.62
471.022	2789.76
471.394	2827.5
471.766	2862.3
472.138	2851.68
472.51	2898.68
472.882	2922.64
473.253	2940.04
473.625	3027.27
473.997	3053.48
474.369	3062.74
474.74	3108.84
475.112	3131.67
475.484	3236.75
475.855	3261.16
476.227	3256.86
476.598	3396.97
476.97	3371.21
477.341	3420.93
477.713	3465.9
478.084	3537.99
478.455	3587.7
478.827	3615.72
479.198	3686
479.569	3714.25
479.94	3787.47
480.311	3788.15
480.682	3907.24
481.053	3960.12
481.424	4010.29
481.795	4020.23
482.166	4063.17
482.537	4151.76
482.908	4212.77
483.279	4235.14
483.65	4268.14
484.021	4363.05
484.391	4417.74
484.762	4430.62
485.133	4469.49
485.503	4542.93
485.874	4581.57
486.244	4651.4
486.615	4729.59
486.985	4799.42
487.356	4844.17
487.726	4850.27
488.097	4987.67
488.467	4977.27
488.837	5007.1
489.207	5076.7
489.578	5145.18
489.948	5215
490.318	5265.62
490.688	5260.65
491.058	5336.58
491.428	5396.47
491.798	5421.33
492.168	5527.09
492.538	5532.74
492.908	5563.7
493.278	5631.04
493.648	5619.97
494.017	5719.85
494.387	5784.71
494.757	5779.51
495.126	5813.41
495.496	5829.45
495.866	5935.44
496.235	5946.06
496.605	5972.72
496.974	5959.39
497.344	6043.46
497.713	6029.67
498.082	6124.81
498.452	6146.96
498.821	6141.76
499.19	6190.8
499.559	6228.54
499.928	6219.5
500.298	6295.43
500.667	6298.59
501.036	6290.68
501.405	6310.12
501.774	6327.29
502.143	6407.97
502.512	6392.37
502.88	6405.03
503.249	6482.77
503.618	6473.28
503.987	6457.01
504.356	6510.56
504.724	6522.99
505.093	6624.23
505.462	6567.51
505.83	6601.18
506.199	6629.2
506.567	6682.08
506.936	6673.04
507.304	6740.84
507.672	6726.15
508.041	6754.4
508.409	6774.51
508.777	6814.51
509.145	6823.32
509.514	6831.91
509.882	6839.14
510.25	6892.93
510.618	6834.4
510.986	6871.91
511.354	6915.07
511.722	6925.24
512.09	6985.35
512.458	6997.78
512.826	7026.03
513.193	7057.22
513.561	7058.12
513.929	6991.23
514.297	7079.81
514.664	7155.07
515.032	7114.62
515.4	7197.78
515.767	7118.46
516.135	7210.43
516.502	7070.1
516.869	7216.99
517.237	7209.3
517.604	7168.4
517.972	7269.41
518.339	7222.63
518.706	7235.97
519.073	7211.56
519.44	7254.27
519.808	7267.83
520.175	7265.12
520.542	7250.66
520.909	7344.67
521.276	7321.62
521.643	7312.35
522.009	7393.48
522.376	7374.04
522.743	7359.35
523.11	7412.46
523.477	7440.03
523.843	7459.46
524.21	7450.88
524.577	7546.92
524.943	7529.07
525.31	7558.67
525.676	7567.71
526.043	7569.29
526.409	7579.91
526.776	7574.04
527.142	7560.25
527.508	7597.77
527.874	7636.41
528.241	7654.04
528.607	7544.43
528.973	7601.38
529.339	7588.28
529.705	7667.6
530.071	7675.5
530.437	7668.72
530.803	7604.09
531.169	7675.05
531.535	7644.32
531.901	7633.25
532.267	7647.03
532.632	7655.39
532.998	7656.52
533.364	7671.21
533.73	7639.8
534.095	7713.47
534.461	7689.52
534.826	7673.24
535.192	7642.96
535.557	7698.33
535.923	7637.09
536.288	7663.53
536.653	7709.4
537.019	7595.73
537.384	7588.95
537.749	7593.02
538.114	7533.14
538.479	7560.25
538.845	7593.47
539.21	7544.89
539.575	7541.72
539.94	7539.24
540.305	7522.29
540.67	7509.41
541.034	7531.55
541.399	7478.67
541.764	7500.37
542.129	7468.5
542.494	7443.87
542.858	7504.66
543.223	7439.58
543.587	7427.6
543.952	7388.96
544.316	7397.32
544.681	7369.75
545.045	7391.44
545.41	7379.92
545.774	7378.79
546.138	7325.46
546.503	7366.13
546.867	7317.55
547.231	7356.87
547.595	7277.77
547.959	7292.69
548.324	7271
548.688	7202.07
549.052	7263.76
549.416	7261.28
549.779	7238
550.143	7227.38
550.507	7244.78
550.871	7230.09
551.235	7194.16
551.599	7195.97
551.962	7189.64
552.326	7171.34
552.689	7208.17
553.053	7200.71
553.417	7138.34
553.78	7129.08
554.143	7138.57
554.507	7146.03
554.87	7098.57
555.234	7155.07
555.597	7120.72
555.96	7084.79
556.323	7115.97
556.686	7099.93
557.05	7141.28
557.413	7101.73
557.776	7119.81
558.139	7132.02
558.502	7126.59
558.865	7115.75
559.228	7087.27
559.59	7139.47
559.953	7139.25
560.316	7205.23
560.679	7160.26
561.041	7173.14
561.404	7188.29
561.767	7233.93
562.129	7204.33
562.492	7192.81
562.854	7185.35
563.217	7117.1
563.579	7161.62
563.941	7219.7
564.304	7228.74
564.666	7295.85
565.028	7185.57
565.39	7296.08
565.753	7252.92
566.115	7289.3
566.477	7347.38
566.839	7298.57
567.201	7328.39
567.563	7358
567.925	7342.86
568.287	7358.22
568.648	7376.3
569.01	7369.52
569.372	7467.37
569.734	7433.7
570.095	7439.13
570.457	7496.98
570.819	7453.36
571.18	7488.39
571.542	7469.86
571.903	7470.31
572.265	7488.84
572.626	7503.31
572.987	7536.07
573.349	7512.8
573.71	7666.01
574.071	7593.47
574.432	7618.33
574.794	7709.85
575.155	7640.93
575.516	7658.56
575.877	7696.75
576.238	7720.7
576.599	7719.57
576.96	7725.22
577.32	7783.3
577.681	7772.68
578.042	7753.24
578.403	7745.33
578.763	7751.66
579.124	7816.07
579.485	7872.56
579.845	7927.93
580.206	7839.12
580.566	7843.64
580.927	7849.29
581.287	7941.26
581.648	7920.02
582.008	7960.69
582.368	7926.57
582.728	7971.54
583.089	7975.61
583.449	7974.71
583.809	7961.15
584.169	7949.62
584.529	7968.83
584.889	8011.31
585.249	8040.92
585.609	7977.64
585.969	8085.89
586.329	7991.88
586.688	8038.21
587.048	8110.3
587.408	8007.02
587.768	8022.16
588.127	8051.09
588.487	8066.45
588.846	8149.16
589.206	8127.92
589.565	8107.58
589.925	8137.64
590.284	8084.76
590.643	8120.69
591.003	8212.44
591.362	8152.55
591.721	8196.17
592.08	8113.68
592.44	8221.93
592.799	8233.23
593.158	8175.38
593.517	8145.77
593.876	8198.88
594.235	8208.15
594.593	8225.55
594.952	8213.8
595.311	8219.44
595.67	8239.78
596.029	8225.09
596.387	8318.43
596.746	8256.28
597.104	8242.27
597.463	8219.22
597.822	8274.58
598.18	8293.57
598.538	8237.3
598.897	8290.4
599.255	8261.7
599.613	8348.48
599.972	8275.94
600.33	8352.32
600.688	8332.66
601.046	8331.08
601.404	8318.43
601.762	8311.42
602.12	8419.67
602.478	8407.91
602.836	8414.47
603.194	8362.94
603.552	8416.95
603.91	8337.18
604.268	8381.47
604.625	8374.92
604.983	8437.07
605.341	8388.48
605.698	8401.14
606.056	8386.22
606.413	8419.89
606.771	8434.35
607.128	8426.45
607.485	8350.29
607.843	8423.96
608.2	8369.5
608.557	8442.04
608.914	8421.7
609.272	8510.28
609.629	8435.26
609.986	8552.77
610.343	8508.02
610.7	8532.88
611.057	8524.07
611.414	8509.83
611.771	8478.65
612.127	8551.87
612.484	8517.06
612.841	8586.67
613.198	8506.89
613.554	8543.28
613.911	8612.2
614.267	8581.47
614.624	8522.71
614.98	8489.95
615.337	8602.49
615.693	8586.67
616.05	8590.28
616.406	8699.21
616.762	8607.01
617.118	8602.26
617.475	8606.1
617.831	8605.65
618.187	8672.54
618.543	8607.01
618.899	8647.91
619.255	8665.76
619.611	8680.22
619.967	8719.32
620.323	8725.87
620.678	8670.73
621.034	8674.57
621.39	8601.13
621.746	8661.02
622.101	8773.78
622.457	8711.18
622.812	8713.44
623.168	8766.78
623.523	8724.29
623.879	8793.22
624.234	8719.54
624.589	8637.29
624.945	8678.64
625.3	8714.57
625.655	8768.81
626.01	8752.76
626.365	8682.48
626.72	8785.76
627.075	8681.13
627.43	8762.03
627.785	8643.16
628.14	8765.65
628.495	8681.13
628.85	8682.94
629.205	8654.91
629.559	8653.78
629.914	8645.65
630.269	8553.9
630.623	8681.58
630.978	8590.96
631.332	8617.4
631.687	8666.44
632.041	8590.51
632.396	8648.36
632.75	8619.89
633.104	8585.76
633.459	8544.18
633.813	8511.64
634.167	8468.25
634.521	8567.46
634.875	8557.52
635.229	8538.76
635.583	8408.37
635.937	8478.65
636.291	8475.94
636.645	8490.4
636.999	8487.69
637.352	8534.46
637.706	8449.5
638.06	8422.38
638.413	8417.86
638.767	8399.1
639.121	8382.6
639.474	8405.2
639.828	8371.98
640.181	8378.54
640.534	8428.03
640.888	8355.49
641.241	8310.74
641.594	8375.82
641.947	8368.37
642.301	8365.88
642.654	8356.84
643.007	8324.53
643.36	8302.38
643.713	8378.54
644.066	8375.6
644.419	8323.85
644.771	8266.22
645.124	8167.47
645.477	8168.37
645.83	8049.51
646.182	8061.03
646.535	8063.06
646.888	8096.28
647.24	8037.53
647.593	8097.64
647.945	8065.1
648.298	8019.22
648.65	8006.12
649.002	7968.38
649.355	8010.64
649.707	8048.6
650.059	8056.06
650.411	8124.31
650.763	8187.13
651.115	8162.05
651.467	8166.34
651.819	8194.36
652.171	8220.8
652.523	8162.95
652.875	8151.65
653.227	8121.59
653.578	8192.33
653.93	8134.02
654.282	8092.67
654.633	8171.99
654.985	8127.47
655.337	8198.2
655.688	8094.48
656.039	8190.07
656.391	8076.17
656.742	8188.94
657.094	8164.53
657.445	8185.32
657.796	8138.32
658.147	8174.25
658.498	8185.1
658.849	8156.62
659.2	8188.94
659.551	8131.54
659.902	8185.77
660.253	8188.71
660.604	8153.91
660.955	8153.91
661.306	8229.61
661.656	8227.35
662.007	8155.04
662.358	8151.88
662.708	8190.07
663.059	8156.17
663.409	8121.37
663.76	8200.01
664.11	8153.68
664.461	8158.2
664.811	8208.6
665.161	8152.55
665.511	8122.5
665.862	8233
666.212	8265.09
666.562	8188.71
666.912	8205.43
667.262	8159.33
667.612	8176.06
667.962	8181.93
668.312	8181.48
668.662	8260.12
669.011	8183.29
669.361	8157.07
669.711	8177.86
670.06	8160.01
670.41	8164.76
670.76	8118.66
671.109	8139.9
671.459	8199.33
671.808	8121.82
672.157	8178.32
672.507	8119.79
672.856	8086.12
673.205	8048.38
673.554	8132.89
673.904	8065.55
674.253	8130.41
674.602	8123.4
674.951	8006.8
675.3	7917.31
675.649	8018.55
675.998	8092.67
676.346	8066
676.695	8101.71
677.044	8051.09
677.393	8044.31
677.741	8036.4
678.09	7975.16
678.438	7995.04
678.787	8006.12
679.135	7981.71
679.484	7969.73
679.832	7967.47
680.181	7905.55
680.529	7959.34
680.877	7896.29
681.225	7936.74
681.573	7987.13
681.922	7872.34
682.27	7810.19
682.618	7835.95
682.966	7831.21
683.314	7882.96
683.661	7795.73
684.009	7817.87
684.357	7719.35
684.705	7752.34
685.053	7713.47
685.4	7781.04
685.748	7740.14
686.095	7669.18
686.443	7628.95
686.79	7630.99
687.138	7644.32
687.485	7560.48
687.832	7603.87
688.18	7604.09
688.527	7556.41
688.874	7588.28
689.221	7540.14
689.568	7530.42
689.915	7530.88
690.262	7450.2
690.609	7511.89
690.956	7404.33
691.303	7383.53
691.65	7338.56
691.997	7376.76
692.344	7303.99
692.69	7365.91
693.037	7320.94
693.383	7233.03
693.73	7315.74
694.077	7241.39
694.423	7245.91
694.769	7218.12
695.116	7192.58
695.462	7143.99
695.808	7125.01
696.155	7128.17
696.501	7092.24
696.847	7077.78
697.193	7018.12
697.539	7079.81
697.885	6949.65
698.231	6983.55
698.577	6969.99
698.923	6940.38
699.269	6917.33
699.614	6906.71
699.96	6836.2
700.306	6893.83
700.651	6822.42
700.997	6761.18
701.342	6764.79
701.688	6732.7
702.033	6772.25
702.379	6756.21
702.724	6675.76
703.069	6709.88
703.415	6668.98
703.76	6641.63
704.105	6653.84
704.45	6668.75
704.795	6561.18
705.14	6530.45
705.485	6515.53
705.83	6488.42
706.175	6467.85
706.52	6442.32
706.865	6475.76
707.209	6398.7
707.554	6360.51
707.899	6462.43
708.243	6344.69
708.588	6380.62
708.932	6344.24
709.277	6294.98
709.621	6308.08
709.966	6324.58
710.31	6292.49
710.654	6267.18
710.998	6301.08
711.342	6206.39
711.687	6231.02
712.031	6233.06
712.375	6170.01
712.719	6201.19
713.063	6175.88
713.407	6213.85
713.75	6178.37
714.094	6130.69
714.438	6129.33
714.782	6090.91
715.125	6066.96
715.469	6115.55
715.812	6088.43
716.156	6063.12
716.499	6056.79
716.843	6055.21
717.186	6010.69
717.53	6029.22
717.873	6057.69
718.216	6007.07
718.559	6015.89
718.902	5926.62
719.246	5947.19
719.589	5993.51
719.932	5945.15
720.275	5912.84
720.617	6004.81
720.96	5971.59
721.303	5912.61
721.646	5932.73
721.989	5932.73
722.331	5946.96
722.674	5918.71
723.016	5906.29
723.359	5927.53
723.701	5896.34
724.044	5893.4
724.386	5857.02
724.729	5928.21
725.071	5825.61
725.413	5883.69
725.755	5871.71
726.097	5856.12
726.439	5803.01
726.782	5796.46
727.124	5875.55
727.465	5851.82
727.807	5852.73
728.149	5837.36
728.491	5760.3
728.833	5824.48
729.175	5786.06
729.516	5825.61
729.858	5785.38
730.199	5813.86
730.541	5740.41
730.882	5747.87
731.224	5792.84
731.565	5784.71
731.906	5757.81
732.248	5866.51
732.589	5772.73
732.93	5803.46
733.271	5730.7
733.612	5753.97
733.953	5797.36
734.294	5759.4
734.635	5758.27
734.976	5759.62
735.317	5773.41
735.658	5822.67
735.999	5787.87
736.339	5800.98
736.68	5808.66
737.021	5803.24
737.361	5780.64
737.702	5765.27
738.042	5777.02
738.383	5800.3
738.723	5824.03
739.063	5824.25
739.404	5831.03
739.744	5787.64
740.084	5815.44
740.424	5774.54
740.764	5849.34
741.104	5837.13
741.444	5827.64
741.784	5846.17
742.124	5855.21
742.464	5841.65
742.804	5950.35
743.143	5880.98
743.483	5971.37
743.823	5929.56
744.162	5937.7
744.502	5939.05
744.841	5937.7
745.181	6040.29
745.52	5999.16
745.86	6045.04
746.199	6038.49
746.538	6066.73
746.877	6117.13
747.216	6151.7
747.556	6175.66
747.895	6245.03
748.234	6238.03
748.573	6245.03
748.911	6304.92
749.25	6310.12
749.589	6377.46
749.928	6401.87
750.267	6508.3
750.605	6543.33
750.944	6528.87
751.283	6595.76
751.621	6636.21
751.96	6701.74
752.298	6764.79
752.636	6835.75
752.975	6899.93
753.313	6945.81
753.651	7068.97
753.989	7124.78
754.327	7188.06
754.666	7171.79
755.004	7345.57
755.342	7446.81
755.679	7513.7
756.017	7530.2
756.355	7673.92
756.693	7742.62
757.031	7896.52
757.368	7959.11
757.706	8120.01
758.044	8122.95
758.381	8293.34
758.719	8350.51
759.056	8469.83
759.394	8576.05
759.731	8702.37
760.068	8823.27
760.405	8882.93
760.743	8991.85
761.08	9072.53
761.417	9248.12
761.754	9350.49
762.091	9437.94
762.428	9579.41
762.765	9697.82
763.102	9868.22
763.438	9878.61
763.775	9967.2
764.112	10136.23
764.449	10311.14
764.785	10368.77
765.122	10380.97
765.458	10540.51
765.795	10589.1
766.131	10732.6
766.467	10856.66
766.804	10965.14
767.14	11037
767.476	11086.04
767.812	11275.41
768.148	11358.35
768.485	11403.54
768.821	11454.39
769.157	11521.05
769.492	11629.98
769.828	11819.58
770.164	11803.08
770.5	11828.62
770.836	11989.97
771.171	11994.03
771.507	12057.76
771.842	12084.43
772.178	12132.11
772.513	12228.83
772.849	12267.25
773.184	12298.43
773.519	12361.93
773.855	12386.57
774.19	12492.1
774.525	12435.38
774.86	12644.64
775.195	12566.45
775.53	12715.82
775.865	12594.02
776.2	12603.28
776.535	12577.97
776.87	12588.82
777.205	12659.78
777.539	12621.82
777.874	12739.1
778.209	12689.61
778.543	12823.62
778.878	12765.99
779.212	12764.64
779.547	12731.42
779.881	12833.11
780.215	12864.75
780.55	12909.27
780.884	12838.08
781.218	12890.73
781.552	12918.53
781.886	12875.59
782.22	12785.88
782.554	12783.39
782.888	12762.15
783.222	12707.69
783.556	12803.28
783.889	12719.44
784.223	12701.59
784.557	12768.7
784.89	12775.03
785.224	12674.92
785.557	12641.25
785.891	12665.43
786.224	12617.97
786.558	12638.09
786.891	12644.41
787.224	12618.88
787.557	12513.57
787.891	12551.08
788.224	12544.53
788.557	12593.57
788.89	12535.26
789.223	12533.23
789.556	12518.77
789.888	12487.13
790.221	12416.17
790.554	12394.48
790.887	12373.23
791.219	12355.38
791.552	12350.86
791.884	12349.96
792.217	12317.64
792.549	12343.4
792.882	12209.62
793.214	12234.71
793.546	12256.17
793.879	12212.33
794.211	12143.41
794.543	12177.53
794.875	12090.08
795.207	12180.47
795.539	12104.54
795.871	12159
796.203	11945.22
796.535	11938.44
796.867	11896.64
797.198	11899.35
797.53	11924.88
797.862	11876.07
798.193	11853.93
798.525	11800.82
798.856	11857.32
799.188	11685.57
799.519	11679.69
799.85	11654.38
800.182	11643.54
800.513	11595.18
800.844	11580.49
801.175	11736.41
801.506	11583.65
801.837	11507.72
802.168	11547.27
802.499	11533.93
802.83	11484.44
803.161	11436.54
803.491	11485.35
803.822	11436.08
804.153	11428.4
804.483	11292.36
804.814	11317.44
805.145	11276.99
805.475	11235.41
805.805	11266.14
806.136	11212.81
806.466	11211
806.796	11202.19
807.126	11085.58
807.457	11046.26
807.787	11077.45
808.117	11093.95
808.447	11008.07
808.777	11086.71
809.107	10945.47
809.436	10954.74
809.766	10989.32
810.096	10946.6
810.426	10903.44
810.755	10847.62
811.085	10898.47
811.414	10894.4
811.744	10829.77
812.073	10744.12
812.403	10785.93
812.732	10684.24
813.061	10717.46
813.39	10702.32
813.719	10682.88
814.049	10688.98
814.378	10614.86
814.707	10616.67
815.036	10571.25
815.365	10589.1
815.693	10531.7
816.022	10504.58
816.351	10467.52
816.68	10331.25
817.008	10458.03
817.337	10328.32
817.665	10367.64
817.994	10382.1
818.322	10378.94
818.651	10322.21
818.979	10310.69
819.307	10340.97
819.636	10330.8
819.964	10235.89
820.292	10276.57
820.62	10270.69
820.948	10205.61
821.276	10324.47
821.604	10263.23
821.932	10276.79
822.259	10226.62
822.587	10256.23
822.915	10191.14
823.243	10275.89
823.57	10246.28
823.898	10224.82
824.225	10211.93
824.553	10225.04
824.88	10124.48
825.207	10241.76
825.535	10287.41
825.862	10217.58
826.189	10211.48
826.516	10245.38
826.843	10214.65
827.17	10274.53
827.497	10257.81
827.824	10238.15
828.151	10266.62
828.478	10298.71
828.805	10263.68
829.131	10202.22
829.458	10180.98
829.785	10133.97
830.111	10267.3
830.438	10324.02
830.764	10291.93
831.09	10257.81
831.417	10227.98
831.743	10295.55
832.069	10225.49
832.395	10217.81
832.722	10211.48
833.048	10183.91
833.374	10251.71
833.7	10193.86
834.026	10187.3
834.351	10234.31
834.677	10214.87
835.003	10194.76
835.329	10162.9
835.654	10160.18
835.98	10121.32
836.306	10083.35
836.631	10047.19
836.956	10096.23
837.282	10106.17
837.607	10022.79
837.932	10059.4
838.258	10016.69
838.583	9978.95
838.908	9928.1
839.233	9941.43
839.558	9961.77
839.883	9987.76
840.208	9897.82
840.533	9870.7
840.858	9938.04
841.182	9931.94
841.507	9923.81
841.832	9872.28
842.156	9831.61
842.481	9867.54
842.805	9856.24
843.13	9796.8
843.454	9816.01
843.778	9749.57
844.103	9689.24
844.427	9753.42
844.751	9766.3
845.075	9720.87
845.399	9618.96
845.723	9635.68
846.047	9580.31
846.371	9484.5
846.695	9550.71
847.019	9498.73
847.343	9383.71
847.666	9360.66
847.99	9372.18
848.313	9316.37
848.637	9241.34
848.96	9305.07
849.284	9285.41
849.607	9113.88
849.931	9157.27
850.254	9089.7
850.577	9049.93
850.9	9032.76
851.223	8975.81
851.546	8956.6
851.869	8947.79
852.192	8974.91
852.515	8797.51
852.838	8824.85
853.161	8807.68
853.483	8832.31
853.806	8756.61
854.129	8698.53
854.451	8692.88
854.774	8665.08
855.096	8676.61
855.419	8599.77
855.741	8597.51
856.063	8577.85
856.385	8449.5
856.708	8497.18
857.03	8517.97
857.352	8462.38
857.674	8455.37
857.996	8346
858.318	8342.61
858.64	8362.72
858.961	8308.26
859.283	8331.76
859.605	8249.95
859.926	8241.37
860.248	8240.91
860.57	8237.75
860.891	8199.78
861.212	8125.44
861.534	8143.06
861.855	8147.13
862.176	8180.12
862.498	8098.09
862.819	8075.72
863.14	8013.8
863.461	8088.83
863.782	8075.95
864.103	7998.43
864.424	8006.12
864.745	8051.31
865.065	7967.25
865.386	7999.56
865.707	7964.76
866.027	7988.04
866.348	7915.05
866.668	7919.34
866.989	7923.63
867.309	7866.23
867.63	7830.08
867.95	7890.19
868.27	7870.98
868.59	7884.54
868.91	7803.64
869.23	7786.69
869.55	7748.95
869.87	7825.56
870.19	7779.91
870.51	7789.63
870.83	7804.09
871.15	7750.08
871.469	7743.3
871.789	7741.27
872.109	7711.21
872.428	7696.07
872.748	7731.32
873.067	7707.59
873.386	7745.11
873.706	7644.54
874.025	7675.28
874.344	7534.94
874.663	7598.44
874.982	7569.29
875.301	7620.59
875.62	7559.58
875.939	7530.65
876.258	7563.19
876.577	7555.28
876.896	7521.61
877.214	7471.22
877.533	7514.6
877.852	7508.5
878.17	7529.52
878.489	7470.99
878.807	7430.54
879.125	7401.61
879.444	7413.14
879.762	7373.59
880.08	7470.31
880.398	7382.4
880.716	7389.41
881.034	7414.04
881.352	7416.08
881.67	7351.45
881.988	7325.46
882.306	7323.65
882.624	7314.38
882.941	7298.79
883.259	7294.5
883.577	7244.1
883.894	7217.66
884.212	7133.37
884.529	7171.56
884.846	7168.4
885.164	7104.22
885.481	7060.15
885.798	7199.36
886.115	7024.67
886.432	7096.99
886.75	7031
887.067	7059.02
887.383	7019.25
887.7	6979.03
888.017	7010.44
888.334	6992.36
888.651	6906.26
888.967	7020.15
889.284	6981.51
889.6	6927.95
889.917	6918.91
890.233	6874.85
890.55	6843.66
890.866	6818.35
891.182	6820.61
891.498	6835.53
891.815	6786.49
892.131	6740.61
892.447	6790.78
892.763	6749.2
893.079	6699.71
893.395	6689.54
893.71	6722.08
894.026	6626.94
894.342	6678.02
894.657	6585.82
894.973	6553.05
895.289	6647.96
895.604	6553.73
895.92	6514.18
896.235	6445.71
896.55	6446.16
896.865	6459.27
897.181	6405.93
897.496	6384.46
897.811	6385.82
898.126	6406.84
898.441	6297.46
898.756	6327.97
899.071	6342.66
899.386	6300.17
899.7	6212.27
900.015	6218.14
900.33	6172.72
900.644	6203.45
900.959	6161.87
901.273	6116
901.588	6150.8
901.902	6076.68
902.216	6105.15
902.531	6052.95
902.845	6113.96
903.159	6022.89
903.473	6007.75
903.787	5974.53
904.101	5887.98
904.415	6000.29
904.729	5907.64
905.042	5860.41
905.356	5874.2
905.67	5864.93
905.984	5811.15
906.297	5815.21
906.611	5783.58
906.924	5769.79
907.237	5720.75
907.551	5713.3
907.864	5673.52
908.177	5759.4
908.491	5673.07
908.804	5640.08
909.117	5610.02
909.43	5542.91
909.743	5542.91
910.056	5537.71
910.368	5519.63
910.681	5456.13
910.994	5476.92
911.307	5493.64
911.619	5414.32
911.932	5451.38
912.244	5424.26
912.557	5328.22
912.869	5324.38
913.181	5372.06
913.494	5313.08
913.806	5276.7
914.118	5262.91
914.43	5255
914.742	5193.31
915.054	5227.43
915.366	5220.88
915.678	5142.24
915.99	5135.23
916.302	5177.94
916.613	5097.49
916.925	5098.85
917.236	5075.12
917.548	5070.83
917.859	5092.75
918.171	5053.43
918.482	5021.79
918.794	4983.37
919.105	5012.75
919.416	4932.3
919.727	4945.18
920.038	4912.41
920.349	4884.39
920.66	4877.16
920.971	4862.25
921.282	4840.55
921.593	4767.33
921.903	4764.17
922.214	4755.13
922.525	4761.23
922.835	4736.37
923.146	4740.44
923.456	4697.96
923.767	4666.09
924.077	4655.24
924.387	4547.45
924.697	4578.86
925.008	4599.43
925.318	4614.12
925.628	4601.69
925.938	4537.06
926.248	4516.27
926.558	4486.66
926.867	4462.48
927.177	4477.85
927.487	4455.93
927.796	4400.56
928.106	4432.65
928.416	4387
928.725	4402.37
929.034	4354.01
929.344	4348.81
929.653	4361.47
929.962	4271.98
930.271	4339.55
930.581	4297.29
930.89	4241.24
931.199	4208.48
931.508	4226.1
931.817	4229.04
932.125	4197.4
932.434	4190.17
932.743	4140.68
933.051	4154.92
933.36	4100.68
933.669	4098.2
933.977	4065.2
934.286	4105.43
934.594	4095.03
934.902	4040.8
935.21	4073.11
935.519	4052.55
935.827	3985.66
936.135	3989.95
936.443	3975.04
936.751	3973.23
937.059	3925.32
937.367	3928.26
937.674	3911.99
937.982	3912.44
938.29	3838.09
938.597	3880.8
938.905	3796.51
939.213	3857.98
939.52	3826.79
939.827	3802.16
940.135	3779.56
940.442	3725.78
940.749	3730.07
941.056	3762.61
941.363	3716.74
941.67	3672.45
941.977	3712.44
942.284	3683.29
942.591	3633.58
942.898	3631.77
943.205	3655.5
943.511	3574.14
943.818	3615.5
944.125	3605.33
944.431	3546.57
944.738	3538.89
945.044	3509.51
945.35	3490.3
945.657	3513.58
945.963	3513.81
946.269	3436.75
946.575	3410.08
946.881	3440.36
947.187	3442.17
947.493	3414.15
947.799	3398.78
948.105	3411.21
948.41	3387.48
948.716	3353.81
949.022	3315.85
949.327	3354.71
949.633	3270.42
949.938	3261.38
950.244	3287.15
950.549	3254.83
950.854	3259.35
951.16	3252.12
951.465	3259.12
951.77	3209.18
952.075	3244.21
952.38	3170.76
952.685	3198.56
952.99	3178.67
953.294	3162.63
953.599	3133.93
953.904	3126.92
954.209	3128.28
954.513	3083.99
954.818	3086.47
955.122	3085.34
955.426	3081.95
955.731	3080.82
956.035	3035.4
956.339	3027.72
956.643	3061.61
956.948	3010.09
957.252	2976.19
957.556	3007.38
957.86	2972.13
958.163	2934.61
958.467	2909.08
958.771	2957.21
959.075	2909.75
959.378	2884.9
959.682	2927.15
959.985	2838.57
960.289	2899.13
960.592	2809.87
960.896	2876.53
961.199	2847.38
961.502	2817.55
961.805	2855.74
962.108	2808.51
962.411	2800.83
962.714	2758.8
963.017	2773.49
963.32	2797.67
963.623	2762.64
963.926	2738.23
964.228	2739.59
964.531	2719.7
964.833	2677.67
965.136	2666.6
965.438	2693.94
965.741	2701.17
966.043	2662.53
966.345	2634.96
966.648	2655.3
966.95	2602.42
967.252	2583.89
967.554	2596.32
967.856	2606.03
968.158	2542.53
968.46	2537.56
968.761	2546.15
969.063	2573.72
969.365	2535.07
969.666	2526.94
969.968	2500.5
970.269	2543.21
970.571	2503.66
970.872	2492.59
971.174	2472.03
971.475	2428.64
971.776	2484
972.077	2452.14
972.378	2423.67
972.679	2438.58
972.98	2418.47
973.281	2427.51
973.582	2391.12
973.883	2387.51
974.183	2396.77
974.484	2366.27
974.785	2385.02
975.085	2333.27
975.386	2336.21
975.686	2327.4
975.986	2320.39
976.287	2332.59
976.587	2293.5
976.887	2284.01
977.187	2292.82
977.487	2254.86
977.787	2267.51
978.087	2276.78
978.387	2229.77
978.687	2251.01
978.987	2205.37
979.286	2220.96
979.586	2221.86
979.885	2203.78
980.185	2160.62
980.484	2131.92
980.784	2142.54
981.083	2163.33
981.382	2150.45
981.682	2137.34
981.981	2127.4
982.28	2109.32
982.579	2107.97
982.878	2102.32
983.177	2095.09
983.475	2119.27
983.774	2084.69
984.073	2073.17
984.372	2036.56
984.67	2046.05
984.969	2067.29
985.267	2012.15
985.566	2005.15
985.864	2046.5
986.162	1997.24
986.461	1977.35
986.759	1983.22
987.057	1959.5
987.355	1934.86
987.653	1968.99
987.951	1968.08
988.249	1945.26
988.547	1930.34
988.844	1957.69
989.142	1930.12
989.44	1907.75
989.737	1931.7
990.035	1889.44
990.332	1893.96
990.63	1903.68
990.927	1859.16
991.224	1872.95
991.521	1848.76
991.819	1846.05
992.116	1875.66
992.413	1827.97
992.71	1818.03
993.006	1815.09
993.303	1825.71
993.6	1806.05
993.897	1786.39
994.193	1792.5
994.49	1788.2
994.787	1763.34
995.083	1776.22
995.379	1726.28
995.676	1742.33
995.972	1751.59
996.268	1717.02
996.565	1704.14
996.861	1697.13
997.157	1731.25
997.453	1711.37
997.749	1708.88
998.044	1665.94
998.34	1681.54
998.636	1658.49
998.932	1669.79
999.227	1663.46
999.523	1653.97
999.818	1640.86
1000.114	1641.99
1000.409	1623.01
1000.704	1586.4
1001	1608.55
1001.295	1583.01
1001.59	1592.05
1001.885	1597.92
1002.18	1552.95
1002.475	1600.86
1002.77	1565.16
1003.065	1515.89
1003.359	1540.3
1003.654	1524.03
1003.949	1512.95
1004.243	1515.67
1004.538	1476.57
1004.832	1525.61
1005.127	1470.24
1005.421	1481.54
1005.715	1468.21
1006.009	1466.4
1006.304	1498.94
1006.598	1452.17
1006.892	1454.88
1007.186	1438.15
1007.48	1434.76
1007.773	1425.95
1008.067	1423.69
1008.361	1412.39
1008.655	1387.08
1008.948	1390.7
1009.242	1359.96
1009.535	1370.59
1009.829	1334.43
1010.122	1362
1010.415	1347.31
1010.708	1335.56
1011.001	1348.89
1011.295	1333.07
1011.588	1347.76
1011.881	1299.63
1012.173	1313.19
1012.466	1311.6
1012.759	1301.66
1013.052	1297.14
1013.344	1299.85
1013.637	1301.66
1013.93	1300.76
1014.222	1259.4
1014.514	1239.52
1014.807	1269.57
1015.099	1254.43
1015.391	1225.5
1015.683	1262.11
1015.976	1218.5
1016.268	1196.35
1016.56	1219.4
1016.851	1220.76
1017.143	1222.57
1017.435	1180.31
1017.727	1205.84
1018.018	1202.45
1018.31	1193.41
1018.602	1168.56
1018.893	1177.14
1019.185	1141.21
1019.476	1154.77
1019.767	1154.55
1020.058	1098.05
1020.35	1116.13
1020.641	1122.23
1020.932	1119.07
1021.223	1096.69
1021.514	1089.91
1021.804	1081.78
1022.095	1096.92
1022.386	1060.76
1022.677	1078.39
1022.967	1058.05
1023.258	1081.78
1023.548	1059.63
1023.839	1063.47
1024.129	1027.09
1024.419	1030.03
1024.709	1037.49
1025	1012.4
1025.29	1030.26
1025.58	998.39
1025.87	992.52
1026.16	981.44
1026.449	966.75
1026.739	968.56
1027.029	996.13
1027.319	976.7
1027.608	976.02
1027.898	973.08
1028.187	960.88
1028.477	965.85
1028.766	960.88
1029.055	938.28
1029.344	917.72
1029.634	917.94
1029.923	928.34
1030.212	916.36
1030.501	896.47
1030.79	914.78
1031.078	900.32
1031.367	901.22
1031.656	889.92
1031.945	865.06
1032.233	854.89
1032.522	895.57
1032.81	883.37
1033.099	853.99
1033.387	849.7
1033.675	868.45
1033.963	844.27
1034.251	846.76
1034.54	847.66
1034.828	812.18
1035.116	838.62
1035.403	830.94
1035.691	823.03
1035.979	830.03
1036.267	814.22
1036.554	816.02
1036.842	790.04
1037.129	813.76
1037.417	782.8
1037.704	777.38
1037.992	790.71
1038.279	767.66
1038.566	762.92
1038.853	762.92
1039.14	762.92
