Data from hue_110_FLMS001491_00068.txt Node
Date: Tue Feb 07 17:01:40 GMT 2017
User: dcchb
Spectrometer: FLMS00149
Trigger mode: 0
Integration Time (sec): 2.000000E-2
Scans to average: 10
Electric dark correction enabled: true
Nonlinearity correction enabled: false
Boxcar width: 0
XAxis mode: Wavelengths
Number of Pixels in Spectrum: 2048
>>>>>Begin Spectral Data<<<<<
341.393	-4.55
341.776	-4.55
342.16	-4.55
342.543	-61.04
342.927	-80.03
343.31	-73.02
343.693	-67.6
344.077	-62.63
344.46	-68.5
344.843	-55.85
345.226	-31.44
345.61	-31.67
345.993	-15.85
346.376	-17.2
346.759	-5.68
347.142	42.23
347.525	35.68
347.908	72.96
348.291	76.13
348.674	88.11
349.057	114.32
349.44	122.68
349.823	154.77
350.206	157.71
350.588	194.99
350.971	201.1
351.354	213.98
351.737	234.77
352.119	244.71
352.502	273.64
352.884	260.3
353.267	266.18
353.65	287.87
354.032	284.94
354.414	295.33
354.797	331.04
355.179	324.26
355.562	313.41
355.944	336.23
356.326	325.84
356.709	322.68
357.091	330.81
357.473	340.98
357.855	338.04
358.238	318.38
358.62	347.99
359.002	338.95
359.384	331.49
359.766	331.49
360.148	328.55
360.53	319.74
360.912	325.39
361.294	328.78
361.676	313.86
362.057	340.98
362.439	328.32
362.821	324.71
363.203	320.19
363.584	300.53
363.966	338.04
364.348	317.48
364.729	314.77
365.111	313.86
365.493	326.74
365.874	328.78
366.256	304.6
366.637	297.59
367.019	298.49
367.4	314.09
367.781	295.56
368.163	307.53
368.544	310.02
368.925	301.88
369.306	309.79
369.688	320.19
370.069	306.86
370.45	314.77
370.831	301.88
371.212	316.8
371.593	309.12
371.974	329.23
372.355	320.64
372.736	329.45
373.117	321.55
373.498	302.56
373.879	331.94
374.26	313.18
374.641	304.82
375.021	301.66
375.402	347.08
375.783	332.62
376.163	317.93
376.544	327.65
376.925	328.55
377.305	324.48
377.686	331.26
378.066	324.71
378.447	305.05
378.827	328.1
379.208	344.6
379.588	333.97
379.968	332.39
380.349	340.08
380.729	342.34
381.109	343.47
381.489	342.11
381.87	326.29
382.25	340.08
382.63	336.01
383.01	325.39
383.39	351.15
383.77	340.3
384.15	344.14
384.53	323.13
384.91	327.65
385.29	333.52
385.67	340.08
386.049	355.67
386.429	347.31
386.809	343.92
387.189	349.34
387.568	366.52
387.948	355.22
388.328	373.97
388.707	376.01
389.087	345.5
389.466	371.26
389.846	370.81
390.225	350.02
390.605	378.94
390.984	364.03
391.363	359.74
391.743	357.25
392.122	373.07
392.501	369.91
392.881	353.41
393.26	364.71
393.639	387.08
394.018	385.72
394.397	381.43
394.776	364.93
395.155	387.08
395.534	384.14
395.913	365.39
396.292	400.41
396.671	396.57
397.05	394.54
397.429	380.3
397.808	393.63
398.186	382.56
398.565	382.33
398.944	381.88
399.323	394.09
399.701	395.22
400.08	407.64
400.458	415.78
400.837	426.85
401.215	409.23
401.594	398.38
401.972	398.61
402.351	400.64
402.729	434.76
403.107	421.66
403.486	407.19
403.864	428.89
404.242	437.02
404.62	424.59
404.999	429.11
405.377	435.44
405.755	426.4
406.133	449.9
406.511	470.24
406.889	431.82
407.267	450.58
407.645	448.55
408.023	461.2
408.401	419.4
408.779	448.77
409.156	449.23
409.534	449.45
409.912	469.79
410.29	468.89
410.667	497.59
411.045	455.78
411.422	493.97
411.8	501.88
412.178	465.04
412.555	474.08
412.933	460.3
413.31	501.88
413.687	498.26
414.065	493.97
414.442	499.39
414.819	506.17
415.197	537.81
415.574	520.41
415.951	498.94
416.328	506.63
416.705	525.16
417.082	538.49
417.46	511.82
417.837	520.41
418.214	547.98
418.591	536.68
418.967	533.07
419.344	545.49
419.721	530.35
420.098	538.04
420.475	556.12
420.852	546.85
421.228	536.45
421.605	535.78
421.982	563.35
422.358	546.17
422.735	567.41
423.111	574.19
423.488	571.26
423.864	583.69
424.241	573.52
424.617	587.07
424.994	599.96
425.37	575.1
425.746	608.09
426.123	624.36
426.499	604.7
426.875	609.67
427.251	609.22
427.627	623.91
428.003	606.51
428.379	612.39
428.756	636.57
429.132	632.5
429.507	644.7
429.883	655.32
430.259	667.3
430.635	665.04
431.011	675.66
431.387	697.35
431.763	684.02
432.138	694.64
432.514	710.69
432.89	700.07
433.265	686.51
433.641	723.34
434.016	711.14
434.392	734.87
434.767	731.03
435.143	726.05
435.518	745.94
435.894	780.74
436.269	768.31
436.644	773.28
437.02	766.05
437.395	776.67
437.77	778.93
438.145	787.07
438.52	777.8
438.895	791.36
439.271	798.59
439.646	828.65
440.021	817.58
440.395	823.45
440.77	815.54
441.145	820.52
441.52	837.01
441.895	850.12
442.27	861.64
442.645	853.73
443.019	844.7
443.394	885.37
443.769	874.3
444.143	868.65
444.518	884.69
444.892	883.34
445.267	888.31
445.641	926.28
446.016	914.52
446.39	912.72
446.764	910.91
447.139	907.74
447.513	913.17
447.887	937.57
448.262	951.36
448.636	948.65
449.01	962.21
449.384	946.61
449.758	978.03
450.132	977.8
450.506	999.72
450.88	994.75
451.254	992.04
451.628	1014.86
452.002	1009.44
452.376	1036.33
452.75	1023.9
453.123	1046.72
453.497	1055.99
453.871	1070.23
454.244	1098.25
454.618	1070.68
454.992	1108.64
455.365	1110.45
455.739	1144.35
456.112	1162.43
456.486	1158.13
456.859	1163.56
457.232	1197.45
457.606	1178.92
457.979	1190.45
458.352	1222.31
458.725	1239.94
459.099	1251.46
459.472	1260.73
459.845	1259.83
460.218	1300.95
460.591	1309.32
460.964	1309.32
461.337	1336.66
461.71	1355.19
462.083	1374.62
462.456	1386.6
462.829	1397.22
463.201	1401.52
463.574	1418.24
463.947	1474.28
464.32	1483.77
464.692	1495.75
465.065	1490.78
465.438	1526.94
465.81	1558.8
466.183	1575.3
466.555	1622.08
466.928	1645.13
467.3	1643.32
467.672	1685.35
468.045	1745.91
468.417	1709.98
468.789	1757.89
469.161	1731.68
469.534	1797.89
469.906	1874.05
470.278	1843.77
470.65	1864.1
471.022	1983.65
471.394	2017.32
471.766	2012.57
472.138	2011.9
472.51	2100.71
472.882	2141.61
473.253	2177.32
473.625	2201.72
473.997	2246.01
474.369	2300.48
474.74	2364.43
475.112	2412.56
475.484	2448.04
475.855	2525.1
476.227	2572.56
476.598	2616.17
476.97	2679.9
477.341	2781.14
477.713	2811.88
478.084	2882.61
478.455	3022.72
478.827	3070.85
479.198	3150.85
479.569	3187.23
479.94	3298.19
480.311	3402.14
480.682	3474.91
481.053	3596.04
481.424	3688.91
481.795	3777.27
482.166	3858.4
482.537	3937.27
482.908	4111.5
483.279	4175.91
483.65	4328.22
484.021	4418.61
484.391	4565.73
484.762	4676.46
485.133	4727.31
485.503	4812.73
485.874	5000.52
486.244	5117.8
486.615	5220.4
486.985	5363.45
487.356	5539.94
487.726	5633.27
488.097	5762.08
488.467	5854.28
488.837	6062.86
489.207	6148.06
489.578	6323.2
489.948	6430.54
490.318	6671.21
490.688	6719.12
491.058	6896.29
491.428	7059
491.798	7212.44
492.168	7377.63
492.538	7477.97
492.908	7630.28
493.278	7715.02
493.648	7897.84
494.017	8014.68
494.387	8187.33
494.757	8327.44
495.126	8471.16
495.496	8523.14
495.866	8725.39
496.235	8875.22
496.605	9007.42
496.974	9054.87
497.344	9242.67
497.713	9338.26
498.082	9517.24
498.452	9632.03
498.821	9668.42
499.19	9821.86
499.559	9900.28
499.928	10113.38
500.298	10203.55
500.667	10312.92
501.036	10423.88
501.405	10569.41
501.774	10642.86
502.143	10724.89
502.512	10755.85
502.88	10951.32
503.249	11001.72
503.618	11130.07
503.987	11171.43
504.356	11253.01
504.724	11392.44
505.093	11424.76
505.462	11509.73
505.83	11596.05
506.199	11769.61
506.567	11842.6
506.936	11925.76
507.304	12039.43
507.672	12160.78
508.041	12215.02
508.409	12275.58
508.777	12375.69
509.145	12502.69
509.514	12469.47
509.882	12633.76
510.25	12625.18
510.618	12760.09
510.986	12737.49
511.354	12939.07
511.722	12975.9
512.09	13110.14
512.458	13112.4
512.826	13110.36
513.193	13229.23
513.561	13222.22
513.929	13336.8
514.297	13434.65
514.664	13448.43
515.032	13517.13
515.4	13611.37
515.767	13614.98
516.135	13780.4
516.502	13604.36
516.869	13881.87
517.237	13778.82
517.604	13829.66
517.972	13947.63
518.339	13916.44
518.706	13955.31
519.073	14067.62
519.44	14135.42
519.808	14234.4
520.175	14189.2
520.542	14394.85
520.909	14308.97
521.276	14366.83
521.643	14442.98
522.009	14486.37
522.376	14488.86
522.743	14630.77
523.11	14679.36
523.477	14770.2
523.843	14807.94
524.21	14824.21
524.577	14915.06
524.943	14921.84
525.31	14977.43
525.676	15115.73
526.043	15148.73
526.409	15112.12
526.776	15251.55
527.142	15148.27
527.508	15224.66
527.874	15243.64
528.241	15321.6
528.607	15393.47
528.973	15364.54
529.339	15351.88
529.705	15454.71
530.071	15515.72
530.437	15466.68
530.803	15503.97
531.169	15527.7
531.535	15464.2
531.901	15515.95
532.267	15485.89
532.632	15501.71
532.998	15543.97
533.364	15529.05
533.73	15520.47
534.095	15544.42
534.461	15538.09
534.826	15628.26
535.192	15638.43
535.557	15621.71
535.923	15539.22
536.288	15614.7
536.653	15494.48
537.019	15517.08
537.384	15382.17
537.749	15454.71
538.114	15522.95
538.479	15451.32
538.845	15412
539.21	15361.6
539.575	15368.38
539.94	15393.24
540.305	15371.09
540.67	15409.28
541.034	15366.35
541.399	15321.83
541.764	15273.47
542.129	15241.6
542.494	15279.57
542.858	15293.35
543.223	15260.14
543.587	15253.36
543.952	15189.63
544.316	15208.84
544.681	15044.32
545.045	15135.84
545.41	15147.37
545.774	15115.51
546.138	14938.34
546.503	15016.07
546.867	14960.26
547.231	15078.9
547.595	14957.09
547.959	14953.93
548.324	14924.33
548.688	14876.64
549.052	14910.99
549.416	14812.24
549.779	14815.63
550.143	14790.09
550.507	14881.61
550.871	14743.99
551.235	14763.43
551.599	14735.4
551.962	14688.63
552.326	14683.65
552.689	14729.75
553.053	14644.11
553.417	14565.46
553.78	14815.18
554.143	14651.34
554.507	14652.47
554.87	14610.44
555.234	14641.39
555.597	14529.08
555.96	14589.87
556.323	14545.58
556.686	14562.3
557.05	14576.76
557.413	14519.82
557.776	14518.91
558.139	14511.45
558.502	14592.36
558.865	14524.56
559.228	14602.98
559.59	14621.28
559.953	14520.04
560.316	14606.37
560.679	14589.19
561.041	14679.59
561.404	14704.44
561.767	14734.05
562.129	14618.8
562.492	14722.52
562.854	14689.3
563.217	14684.33
563.579	14649.53
563.941	14735.63
564.304	14687.04
564.666	14769.53
565.028	14803.2
565.39	14748.51
565.753	14833.93
566.115	14813.37
566.477	14817.89
566.839	14886.59
567.201	14991.44
567.563	14861.05
567.925	14912.57
568.287	14891.56
568.648	14920.71
569.01	14993.48
569.372	15005.68
569.734	14922.29
570.095	15027.15
570.457	15003.42
570.819	15024.66
571.18	15008.84
571.542	15060.14
571.903	15075.51
572.265	15038.22
572.626	15083.64
572.987	15088.16
573.349	15101.95
573.71	15162.28
574.071	15158.67
574.432	15157.31
574.794	15229.63
575.155	15237.99
575.516	15128.84
575.877	15179.91
576.238	15192.79
576.599	15225.79
576.96	15254.71
577.32	15154.15
577.681	15284.32
578.042	15301.49
578.403	15292.23
578.763	15327.7
579.124	15266.24
579.485	15358.44
579.845	15306.01
580.206	15289.06
580.566	15341.49
580.927	15246.58
581.287	15326.12
581.648	15226.24
582.008	15252.45
582.368	15344.43
582.728	15197.76
583.089	15251.77
583.449	15245.67
583.809	15185.11
584.169	15303.52
584.529	15220.59
584.889	15300.13
585.249	15147.37
585.609	15134.26
585.969	15319.12
586.329	15178.1
586.688	15265.56
587.048	15157.99
587.408	15085.9
587.768	15157.54
588.127	15179.46
588.487	15032.12
588.846	15231.44
589.206	15032.34
589.565	15110.99
589.925	15154.83
590.284	15107.6
590.643	15148.5
591.003	15141.95
591.362	15136.07
591.721	15025.57
592.08	15070.99
592.44	15184.88
592.799	15128.84
593.158	15045.68
593.517	14972.23
593.876	15075.73
594.235	15022.4
594.593	14998.22
594.952	15027.15
595.311	14977.66
595.67	14972.69
596.029	15034.83
596.387	15057.65
596.746	15088.61
597.104	15026.24
597.463	15008.16
597.822	14992.8
598.18	14983.76
598.538	14913.03
598.897	14929.52
599.255	14946.47
599.613	15061.27
599.972	14921.61
600.33	14960.48
600.688	14939.92
601.046	15023.76
601.404	14969.3
601.762	15008.16
602.12	14991.89
602.478	15040.71
602.836	15102.63
603.194	15021.05
603.552	14970.65
603.91	14920.71
604.268	15019.24
604.625	14992.35
604.983	15022.85
605.341	14876.19
605.698	14978.11
606.056	15072.57
606.413	15019.01
606.771	15041.38
607.128	15007.71
607.485	14943.31
607.843	14941.27
608.2	15051.78
608.557	15141.04
608.914	15033.25
609.272	15029.86
609.629	15075.28
609.986	15097.2
610.343	15026.47
610.7	15162.06
611.057	15116.64
611.414	15108.28
611.771	15103.98
612.127	15200.48
612.484	15169.74
612.841	15261.94
613.198	15174.04
613.554	15177.65
613.911	15296.29
614.267	15206.8
614.624	15217.65
614.98	15234.6
615.337	15320.47
615.693	15278.89
616.05	15286.12
616.406	15428.94
616.762	15309.17
617.118	15310.53
617.475	15386.46
617.831	15323.18
618.187	15395.5
618.543	15368.61
618.899	15456.74
619.255	15463.52
619.611	15351.66
619.967	15377.42
620.323	15401.15
620.678	15383.75
621.034	15300.13
621.39	15340.81
621.746	15333.35
622.101	15508.94
622.457	15432.11
622.812	15357.53
623.168	15370.64
623.523	15420.81
623.879	15562.05
624.234	15355.05
624.589	15480.24
624.945	15459
625.3	15470.3
625.655	15403.41
626.01	15453.12
626.365	15469.17
626.72	15445.22
627.075	15495.84
627.43	15397.31
627.785	15454.25
628.14	15418.32
628.495	15442.28
628.85	15341.04
629.205	15296.07
629.559	15425.78
629.914	15341.49
630.269	15323.86
630.623	15312.34
630.978	15321.15
631.332	15242.06
631.687	15370.19
632.041	15286.58
632.396	15371.54
632.75	15192.79
633.104	15292.23
633.459	15195.96
633.813	15272.34
634.167	15064.66
634.521	15199.35
634.875	15231.44
635.229	15143.08
635.583	14998.9
635.937	15118.44
636.291	15051.1
636.645	15150.99
636.999	14971.56
637.352	15103.53
637.706	14965.45
638.06	15080.03
638.413	14983.53
638.767	14975.4
639.121	14883.65
639.474	14822.18
639.828	14878.9
640.181	14874.38
640.534	14914.61
640.888	14881.61
641.241	14810.66
641.594	14801.39
641.947	14877.55
642.301	14811.11
642.654	14835.06
643.007	14849.07
643.36	14768.62
643.713	14795.97
644.066	14807.04
644.419	14754.61
644.771	14691.56
645.124	14501.74
645.477	14544.45
645.83	14404.56
646.182	14334.74
646.535	14381.06
646.888	14360.05
647.24	14273.04
647.593	14392.14
647.945	14274.17
648.298	14142.2
648.65	14205.7
649.002	14262.2
649.355	14233.95
649.707	14298.8
650.059	14384.23
650.411	14529.08
650.763	14514.39
651.115	14666.25
651.467	14582.87
651.819	14647.27
652.171	14615.18
652.523	14589.87
652.875	14614.5
653.227	14565.92
653.578	14655.86
653.93	14581.96
654.282	14496.99
654.633	14522.75
654.985	14549.42
655.337	14551.68
655.688	14558.23
656.039	14721.17
656.391	14501.96
656.742	14524.11
657.094	14592.58
657.445	14610.21
657.796	14563.2
658.147	14581.74
658.498	14528.86
658.849	14682.07
659.2	14546.48
659.551	14627.38
659.902	14665.8
660.253	14645.69
660.604	14698.57
660.955	14576.31
661.306	14708.29
661.656	14630.1
662.007	14549.42
662.358	14624.45
662.708	14614.28
663.059	14545.58
663.409	14577.89
663.76	14696.08
664.11	14586.25
664.461	14739.7
664.811	14661.06
665.161	14623.99
665.511	14550.78
665.862	14665.8
666.212	14704.67
666.562	14666.25
666.912	14594.39
667.262	14656.31
667.612	14626.03
667.962	14689.53
668.312	14656.08
668.662	14729.08
669.011	14573.37
669.361	14653.82
669.711	14586.03
670.06	14632.58
670.41	14544.22
670.76	14545.8
671.109	14673.94
671.459	14555.52
671.808	14631.9
672.157	14549.65
672.507	14518.69
672.856	14435.98
673.205	14546.03
673.554	14587.84
673.904	14487.05
674.253	14606.82
674.602	14518.91
674.951	14237.79
675.3	14209.77
675.649	14417.45
675.998	14427.39
676.346	14391.01
676.695	14411.8
677.044	14302.42
677.393	14316.21
677.741	14412.7
678.09	14304.91
678.438	14187.17
678.787	14327.96
679.135	14304.68
679.484	14168.86
679.832	14243.67
680.181	14233.95
680.529	14255.19
680.877	14111.24
681.225	14064.23
681.573	14259.03
681.922	13997.57
682.27	14087.51
682.618	14015.2
682.966	14002.99
683.314	14078.02
683.661	13926.16
684.009	13931.36
684.357	13891.81
684.705	13853.84
685.053	13979.04
685.4	13840.51
685.748	13822.66
686.095	13814.07
686.443	13747.63
686.79	13773.39
687.138	13743.11
687.485	13757.12
687.832	13630.57
688.18	13624.02
688.527	13505.15
688.874	13559.16
689.221	13442.1
689.568	13481.88
689.915	13436.68
690.262	13353.97
690.609	13374.08
690.956	13286.85
691.303	13300.86
691.65	13266.29
691.997	13271.94
692.344	13183.81
692.69	13083.24
693.037	13038.5
693.383	12994.43
693.73	13052.74
694.077	12964.83
694.423	12937.48
694.769	12910.82
695.116	12839.86
695.462	12809.58
695.808	12737.94
696.155	12779.52
696.501	12588.12
696.847	12640.32
697.193	12530.49
697.539	12628.79
697.885	12499.98
698.231	12299.54
698.577	12474.9
698.923	12360.1
699.269	12339.31
699.614	12242.81
699.96	12226.54
700.306	12136.15
700.651	12155.36
700.997	12099.54
701.342	12111.97
701.688	12052.08
702.033	11958.53
702.379	11963.5
702.724	11838.08
703.069	11960.79
703.415	11733.67
703.76	11782.03
704.105	11780
704.45	11710.4
704.795	11626.78
705.14	11527.35
705.485	11594.47
705.83	11491.65
706.175	11504.53
706.52	11518.09
706.865	11427.47
707.209	11335.04
707.554	11344.08
707.899	11373.46
708.243	11349.5
708.588	11241.26
708.932	11149.28
709.277	11142.05
709.621	11148.61
709.966	11121.71
710.31	11141.15
710.654	11017.08
710.998	11037.2
711.342	11041.04
711.687	10979.12
712.031	10961.72
712.375	10931.44
712.719	10941.6
713.063	10861.83
713.407	10833.13
713.75	10875.84
714.094	10876.52
714.438	10891.44
714.782	10755.85
715.125	10826.35
715.469	10756.53
715.812	10781.16
716.156	10687.37
716.499	10711.55
716.843	10681.27
717.186	10631.1
717.53	10679.92
717.873	10570.99
718.216	10674.04
718.559	10644.21
718.902	10606.02
719.246	10614.38
719.589	10489.19
719.932	10553.14
720.275	10513.59
720.617	10472.46
720.96	10480.83
721.303	10476.76
721.646	10478.11
721.989	10390.21
722.331	10462.3
722.674	10473.37
723.016	10388.63
723.359	10400.15
723.701	10359.25
724.044	10315.86
724.386	10342.75
724.729	10401.28
725.071	10336.42
725.413	10311.57
725.755	10251.91
726.097	10321.96
726.439	10209.65
726.782	10229.31
727.124	10262.75
727.465	10274.96
727.807	10182.75
728.149	10265.46
728.491	10219.36
728.833	10227.27
729.175	10162.64
729.516	10144.56
729.858	10182.75
730.199	10185.24
730.541	10175.75
730.882	10173.49
731.224	10200.16
731.565	10084.23
731.906	10189.99
732.248	10137.11
732.589	10133.72
732.93	10121.29
733.271	10121.51
733.612	10124.45
733.953	10149.54
734.294	10104.11
734.635	10060.27
734.976	10185.24
735.317	10099.14
735.658	10131.68
735.999	10104.11
736.339	10126.03
736.68	10125.58
737.021	10158.12
737.361	10150.44
737.702	10155.64
738.042	10127.62
738.383	10114.73
738.723	10137.56
739.063	10169.42
739.404	10191.57
739.744	10219.14
740.084	10253.49
740.424	10185.47
740.764	10232.25
741.104	10225.01
741.444	10248.06
741.784	10277.44
742.124	10257.33
742.464	10291.23
742.804	10223.88
743.143	10313.37
743.483	10311.34
743.823	10332.13
744.162	10373.71
744.502	10413.48
744.841	10391.11
745.181	10460.04
745.52	10464.1
745.86	10419.58
746.199	10531.67
746.538	10530.99
746.877	10716.53
747.216	10732.12
747.556	10759.01
747.895	10875.39
748.234	10811.44
748.573	10899.12
748.911	11015.95
749.25	10992.23
749.589	11007.37
749.928	11138.44
750.267	11237.42
750.605	11295.04
750.944	11373.01
751.283	11384.76
751.621	11538.88
751.96	11577.52
752.298	11659.55
752.636	11825.2
752.975	11863.61
753.313	11954.01
753.651	12149.03
753.989	12090.05
754.327	12211.63
754.666	12371.4
755.004	12473.54
755.342	12704.04
755.679	12775.46
756.017	12808.67
756.355	12965.96
756.693	13055.9
757.031	13334.08
757.368	13272.39
757.706	13492.27
758.044	13618.37
758.381	13894.3
758.719	14005.03
759.056	14134.52
759.394	14305.81
759.731	14424.45
760.068	14564.79
760.405	14700.6
760.743	14846.81
761.08	15032.57
761.417	15056.75
761.754	15310.3
762.091	15509.17
762.428	15569.51
762.765	15642.27
763.102	15934.02
763.438	15989.83
763.775	16177.85
764.112	16264.18
764.449	16548.92
764.785	16522.48
765.122	16632.08
765.458	16781.45
765.795	16986.19
766.131	17138.28
766.467	17172.4
766.804	17309.12
767.14	17378.95
767.476	17563.8
767.812	17691.48
768.148	17696.46
768.485	17869.33
768.821	17952.49
769.157	18001.08
769.492	18216.67
769.828	18314.74
770.164	18263.67
770.5	18459.6
770.836	18460.05
771.171	18538.69
771.507	18637.9
771.842	18609.65
772.178	18723.32
772.513	18784.56
772.849	18828.18
773.184	18902.98
773.519	18985.24
773.855	19061.17
774.19	19036.99
774.525	19128.28
774.86	19171.45
775.195	19307.03
775.53	19274.27
775.865	19255.51
776.2	19212.8
776.535	19166.93
776.87	19232.69
777.205	19318.56
777.539	19248.28
777.874	19367.82
778.209	19268.84
778.543	19348.84
778.878	19279.69
779.212	19380.25
779.547	19319.92
779.881	19361.04
780.215	19368.28
780.55	19441.95
780.884	19312.46
781.218	19416.64
781.552	19379.58
781.886	19285.11
782.22	19335.51
782.554	19396.3
782.888	19127.6
783.222	19138.9
783.556	19160.37
783.889	19209.18
784.223	19063.2
784.557	19086.02
784.89	19117.66
785.224	19015.97
785.557	18968.06
785.891	19009.87
786.224	18941.85
786.558	19046.48
786.891	18872.7
787.224	18850.55
787.557	18839.48
787.891	18796.77
788.224	18820.95
788.557	18954.05
788.89	18789.99
789.223	18868.85
789.556	18692.59
789.888	18778.69
790.221	18657.79
790.554	18475.87
790.887	18529.2
791.219	18494.17
791.552	18548.41
791.884	18360.84
792.217	18434.06
792.549	18376.21
792.882	18250.79
793.214	18294.86
793.546	18350.22
793.879	18117.24
794.211	18054.86
794.543	18168.53
794.875	18077.69
795.207	18113.39
795.539	17980.29
795.871	18021.87
796.203	17900.07
796.535	17768.09
796.867	17757.02
797.198	17798.37
797.53	17725.61
797.862	17609.68
798.193	17689.9
798.525	17403.36
798.856	17524.26
799.188	17381.44
799.519	17356.35
799.85	17310.7
800.182	17336.24
800.513	17327.88
800.844	17201.1
801.175	17316.8
801.506	17232.06
801.837	17113.65
802.168	17076.81
802.499	17121.56
802.83	16937.61
803.161	16875.69
803.491	16952.29
803.822	16916.36
804.153	16719.08
804.483	16750.27
804.814	16660.78
805.145	16662.58
805.475	16618.74
805.805	16566.32
806.136	16586.65
806.466	16492.87
806.796	16525.19
807.126	16390.73
807.457	16439.77
807.787	16375.59
808.117	16343.72
808.447	16289.26
808.777	16371.52
809.107	16217.62
809.436	16183.5
809.766	16167
810.096	16093.79
810.426	16086.78
810.755	16136.72
811.085	15998.65
811.414	16020.12
811.744	15988.25
812.073	16010.17
812.403	15868.03
812.732	15783.06
813.061	15816.51
813.39	15748.26
813.719	15637.3
814.049	15807.01
814.378	15621.93
814.707	15624.65
815.036	15573.8
815.365	15614.93
815.693	15462.16
816.022	15504.65
816.351	15435.95
816.68	15333.81
817.008	15502.61
817.337	15227.59
817.665	15232.57
817.994	15286.35
818.322	15302.85
818.651	15194.83
818.979	15091.78
819.307	15200.7
819.636	15171.32
819.964	15115.05
820.292	15214.71
820.62	15105.11
820.948	15028.5
821.276	15078.9
821.604	15090.42
821.932	15033.25
822.259	15039.58
822.587	15019.46
822.915	14994.61
823.243	15063.98
823.57	14943.31
823.898	15045.45
824.225	15012.68
824.553	14972.69
824.88	14961.84
825.207	15027.6
825.535	14978.33
825.862	15028.96
826.189	15047.49
826.516	15034.6
826.843	15078.9
827.17	15079.12
827.497	15014.27
827.824	15032.57
828.151	15083.64
828.478	15116.18
828.805	15172.23
829.131	15025.79
829.458	15021.5
829.785	14985.79
830.111	14990.09
830.438	15055.4
830.764	15045.23
831.09	15088.16
831.417	14881.16
831.743	14981.72
832.069	15021.95
832.395	14925.23
832.722	15017.66
833.048	14959.35
833.374	15019.69
833.7	14803.88
834.026	14929.97
834.351	14855.17
834.677	14873.7
835.003	14919.13
835.329	14861.05
835.654	14891.11
835.98	14799.13
836.306	14833.03
836.631	14752.35
836.956	14861.73
837.282	14845.68
837.607	14768.85
837.932	14758.23
838.258	14694.73
838.583	14687.72
838.908	14633.49
839.233	14687.27
839.558	14618.12
839.883	14555.3
840.208	14484.34
840.533	14478.24
840.858	14573.6
841.182	14522.98
841.507	14443.89
841.832	14354.62
842.156	14439.37
842.481	14417.67
842.805	14382.19
843.13	14336.54
843.454	14278.47
843.778	14200.73
844.103	14161.18
844.427	14125.25
844.751	14113.72
845.075	14175.42
845.399	14074.18
845.723	13994.41
846.047	13997.8
846.371	13854.3
846.695	13890.68
847.019	13712.61
847.343	13777.24
847.666	13631.93
847.99	13555.1
848.313	13532.95
848.637	13473.97
848.96	13499.05
849.284	13423.8
849.607	13297.25
849.931	13252.5
850.254	13179.96
850.577	13125.95
850.9	13028.56
851.223	13080.31
851.546	13000.76
851.869	12864.94
852.192	12911.5
852.515	12765.74
852.838	12782.01
853.161	12772.97
853.483	12742.01
853.806	12649.36
854.129	12615.69
854.451	12622.69
854.774	12510.6
855.096	12525.07
855.419	12497.5
855.741	12482.13
856.063	12408.23
856.385	12417.95
856.708	12353.09
857.03	12311.74
857.352	12277.39
857.674	12242.36
857.996	12207.33
858.318	12095.7
858.64	12118.07
858.961	12072.42
859.283	12056.38
859.605	12014.12
859.926	11999.43
860.248	11957.4
860.57	11951.52
860.891	11902.26
861.212	11861.81
861.534	11839.21
861.855	11747.01
862.176	11833.11
862.498	11841.02
862.819	11778.19
863.14	11708.82
863.461	11642.6
863.782	11682.6
864.103	11739.1
864.424	11614.58
864.745	11641.7
865.065	11549.5
865.386	11541.82
865.707	11446.9
866.027	11586.33
866.348	11430.18
866.668	11455.49
866.989	11438.99
867.309	11396.28
867.63	11424.08
867.95	11388.6
868.27	11355.38
868.59	11404.64
868.91	11268.15
869.23	11378.88
869.55	11224.54
869.87	11357.41
870.19	11262.5
870.51	11246.68
870.83	11261.37
871.15	11215.5
871.469	11184.31
871.789	11197.19
872.109	11184.54
872.428	11135.5
872.748	11107.93
873.067	11063.41
873.386	11046.91
873.706	11122.84
874.025	11034.71
874.344	11044.2
874.663	11059.79
874.982	10847.82
875.301	10896.63
875.62	10986.35
875.939	10963.07
876.258	10932.57
876.577	10897.09
876.896	10869.52
877.214	10838.78
877.533	10866.13
877.852	10907.48
878.17	10774.38
878.489	10888.72
878.807	10826.81
879.125	10764.21
879.444	10738.67
879.762	10745.23
880.08	10771.21
880.398	10634.27
880.716	10671.78
881.034	10655.28
881.352	10635.62
881.67	10532.8
881.988	10626.81
882.306	10581.61
882.624	10519.24
882.941	10493.71
883.259	10499.36
883.577	10442.86
883.894	10392.47
884.212	10427.95
884.529	10423.43
884.846	10340.49
885.164	10369.64
885.481	10221.17
885.798	10339.81
886.115	10252.13
886.432	10226.6
886.75	10169.87
887.067	10206.48
887.383	10204
887.7	10178.01
888.017	10101.63
888.334	10094.17
888.651	10076.77
888.967	10028.63
889.284	10012.14
889.6	9967.17
889.917	9975.53
890.233	9816.21
890.55	9890.33
890.866	9924.68
891.182	9818.47
891.498	9792.71
891.815	9775.08
892.131	9741.18
892.447	9731.47
892.763	9641.07
893.079	9625.03
893.395	9631.81
893.71	9621.87
894.026	9558.59
894.342	9532.83
894.657	9512.49
894.973	9486.73
895.289	9463.68
895.604	9424.81
895.92	9357.24
896.235	9290.8
896.55	9323.79
896.865	9271.37
897.181	9218.49
897.496	9277.47
897.811	9194.53
898.126	9192.95
898.441	9137.36
898.756	9056.91
899.071	9090.35
899.386	9055.33
899.7	9024.14
900.015	8987.76
900.33	8892.17
900.644	8886.29
900.959	8841.77
901.273	8848.55
901.588	8818.72
901.902	8806.97
902.216	8698.5
902.531	8689.01
902.845	8683.81
903.159	8660.76
903.473	8564.49
903.787	8548
904.101	8491.05
904.415	8512.52
904.729	8526.3
905.042	8405.4
905.356	8402.01
905.67	8376.93
905.984	8391.62
906.297	8345.29
906.611	8239.08
906.924	8272.3
907.237	8250.6
907.551	8251.51
907.864	8166.08
908.177	8136.48
908.491	8105.75
908.804	8062.13
909.117	7994.34
909.43	7941.01
909.743	7901.01
910.056	7924.06
910.368	7887
910.681	7809.26
910.994	7835.47
911.307	7804.96
911.619	7720.9
911.932	7750.95
912.244	7697.17
912.557	7695.36
912.869	7624.4
913.181	7587.34
913.494	7624.18
913.806	7502.15
914.118	7494.69
914.43	7462.15
914.742	7414.92
915.054	7404.3
915.366	7425.54
915.678	7375.6
915.99	7313
916.302	7306.67
916.613	7243.85
916.925	7247.46
917.236	7246.56
917.548	7146
917.859	7186.68
918.171	7138.99
918.482	7144.42
918.794	7069.16
919.105	7039.11
919.416	6979
919.727	7016.28
920.038	6997.3
920.349	6960.47
920.66	6932.44
920.971	6887.93
921.282	6817.19
921.593	6803.41
921.903	6769.96
922.214	6738.33
922.525	6694.03
922.835	6671.43
923.146	6603.19
923.456	6683.41
923.767	6581.95
924.077	6582.85
924.387	6608.39
924.697	6570.87
925.008	6464.43
925.318	6466.47
925.628	6518.67
925.938	6402.97
926.248	6410.65
926.558	6350.54
926.867	6354.38
927.177	6337.88
927.487	6306.02
927.796	6242.07
928.106	6225.8
928.416	6206.59
928.725	6200.94
929.034	6160.04
929.344	6160.26
929.653	6124.1
929.962	6087.95
930.271	6009.08
930.581	6010.21
930.89	6056.31
931.199	5977.22
931.508	5942.19
931.817	5923.43
932.125	5907.16
932.434	5900.61
932.743	5861.96
933.051	5865.35
933.36	5788.75
933.669	5769.09
933.977	5771.57
934.286	5776.32
934.594	5706.26
934.902	5739.48
935.21	5601.18
935.519	5659.48
935.827	5583.78
936.135	5636.21
936.443	5531.58
936.751	5539.94
937.059	5526.38
937.367	5526.15
937.674	5524.35
937.982	5503.33
938.29	5428.76
938.597	5443.9
938.905	5397.34
939.213	5337.23
939.52	5345.37
939.827	5327.97
940.135	5364.58
940.442	5278.7
940.749	5250.68
941.056	5212.26
941.363	5208.42
941.67	5194.41
941.977	5166.16
942.284	5145.83
942.591	5109.22
942.898	5076.22
943.205	5085.49
943.511	5042.55
943.818	5055.21
944.125	5024.92
944.431	4970.91
944.738	4996.45
945.044	4961.88
945.35	4903.8
945.657	4883.23
945.963	4901.31
946.269	4828.32
946.575	4822.67
946.881	4818.6
947.187	4796.91
947.493	4714.88
947.799	4786.74
948.105	4753.07
948.41	4701.09
948.716	4739.73
949.022	4673.97
949.327	4668.1
949.633	4640.75
949.938	4593.98
950.244	4595.33
950.549	4574.09
950.854	4612.28
951.16	4518.5
951.465	4563.02
951.77	4494.99
952.075	4467.42
952.38	4448.89
952.685	4468.1
952.99	4385.39
953.294	4375.9
953.599	4338.84
953.904	4371.61
954.209	4300.65
954.513	4358.05
954.818	4354.66
955.122	4289.35
955.426	4253.42
955.731	4297.71
956.035	4238.5
956.339	4250.71
956.643	4195.57
956.948	4173.87
957.252	4153.31
957.556	4158.28
957.86	4163.93
958.163	4099.07
958.467	4116.25
958.771	4061.33
959.075	4036.25
959.378	4047.55
959.682	4002.35
959.985	4042.13
960.289	3967.33
960.592	4009.13
960.896	3960.77
961.199	3974.33
961.502	3931.85
961.805	3910.83
962.108	3867.21
962.411	3885.97
962.714	3869.47
963.017	3881.45
963.32	3831.74
963.623	3808.69
963.926	3751.51
964.228	3748.8
964.531	3749.03
964.833	3753.09
965.136	3716.03
965.438	3687.56
965.741	3675.81
966.043	3612.98
966.345	3666.54
966.648	3658.63
966.95	3628.12
967.252	3599.88
967.554	3576.83
967.856	3587.9
968.158	3564.62
968.46	3531.86
968.761	3543.83
969.063	3526.88
969.365	3512.87
969.666	3515.13
969.968	3462.48
970.269	3449.15
970.571	3498.41
970.872	3398.53
971.174	3405.53
971.475	3374.57
971.776	3357.4
972.077	3372.09
972.378	3352.65
972.679	3356.27
972.98	3375.02
973.281	3320.56
973.582	3292.77
973.883	3271.98
974.183	3275.37
974.484	3292.54
974.785	3228.81
975.085	3277.85
975.386	3234.01
975.686	3218.19
975.986	3185.88
976.287	3168.02
976.587	3138.19
976.887	3145.65
977.187	3118.99
977.487	3101.13
977.787	3072.66
978.087	3086.44
978.387	3048.93
978.687	3045.32
978.987	3032.89
979.286	3028.37
979.586	3014.36
979.885	2984.3
980.185	2960.12
980.484	2981.14
980.784	2946.33
981.083	2952.44
981.382	2936.17
981.682	2956.05
981.981	2845.77
982.28	2898.65
982.579	2860.24
982.878	2856.85
983.177	2882.16
983.475	2861.82
983.774	2800.12
984.073	2831.54
984.372	2816.85
984.67	2784.08
984.969	2807.81
985.267	2768.03
985.566	2759.45
985.864	2756.28
986.162	2711.54
986.461	2719.22
986.759	2719.9
987.057	2660.92
987.355	2697.75
987.653	2646.23
987.951	2659.11
988.249	2662.73
988.547	2655.27
988.844	2619.56
989.142	2620.02
989.44	2613.91
989.737	2583.63
990.035	2577.31
990.332	2563.29
990.63	2530.98
990.927	2559.23
991.224	2499.12
991.521	2503.63
991.819	2498.44
992.116	2532.56
992.413	2501.6
992.71	2475.84
993.006	2446.01
993.303	2419.57
993.6	2432.45
993.897	2420.93
994.193	2418.44
994.49	2394.94
994.787	2395.61
995.083	2380.93
995.379	2344.99
995.676	2398.78
995.972	2335.96
996.268	2316.07
996.565	2303.87
996.861	2282.4
997.157	2282.62
997.453	2276.97
997.749	2265.22
998.044	2240.14
998.34	2266.35
998.636	2240.36
998.932	2249.18
999.227	2215.05
999.523	2152.46
999.818	2149.29
1000.114	2192.46
1000.409	2133.93
1000.704	2147.94
1001	2147.26
1001.295	2138.67
1001.59	2126.02
1001.885	2125.34
1002.18	2103.42
1002.475	2135.28
1002.77	2058.67
1003.065	2077.66
1003.359	2062.06
1003.654	2073.59
1003.949	2020.48
1004.243	2072.23
1004.538	2032.46
1004.832	2006.47
1005.127	2006.7
1005.421	1952.01
1005.715	1971.22
1006.009	1976.19
1006.304	1958.34
1006.598	1914.05
1006.892	1929.41
1007.186	1891
1007.48	1892.35
1007.773	1898
1008.067	1886.25
1008.361	1897.1
1008.655	1836.76
1008.948	1857.78
1009.242	1823.88
1009.535	1802.86
1009.829	1799.25
1010.122	1815.07
1010.415	1825.23
1010.708	1783.65
1011.001	1781.17
1011.295	1779.81
1011.588	1755.86
1011.881	1744.56
1012.173	1717.44
1012.466	1715.41
1012.759	1707.5
1013.052	1714.05
1013.344	1700.94
1013.637	1696.65
1013.93	1668.63
1014.222	1647.16
1014.514	1653.49
1014.807	1625.47
1015.099	1637.22
1015.391	1613.04
1015.683	1636.99
1015.976	1622.08
1016.268	1596.09
1016.56	1600.16
1016.851	1604.68
1017.143	1567.16
1017.435	1544.34
1017.727	1540.04
1018.018	1546.37
1018.31	1546.6
1018.602	1510.89
1018.893	1506.15
1019.185	1511.8
1019.476	1510.21
1019.767	1462.08
1020.058	1488.75
1020.35	1454.17
1020.641	1435.87
1020.932	1446.49
1021.223	1422.08
1021.514	1413.27
1021.804	1412.14
1022.095	1411.69
1022.386	1396.77
1022.677	1373.72
1022.967	1384.12
1023.258	1369.65
1023.548	1331.91
1023.839	1350.67
1024.129	1325.13
1024.419	1347.73
1024.709	1345.02
1025	1328.98
1025.29	1316.1
1025.58	1303.89
1025.87	1306.38
1026.16	1272.93
1026.449	1255.53
1026.739	1234.29
1027.029	1238.36
1027.319	1249.43
1027.608	1243.78
1027.898	1246.04
1028.187	1231.13
1028.477	1205.82
1028.766	1230
1029.055	1194.06
1029.344	1195.87
1029.634	1186.38
1029.923	1211.01
1030.212	1175.08
1030.501	1187.96
1030.79	1170.11
1031.078	1187.51
1031.367	1152.26
1031.656	1124.46
1031.945	1136.21
1032.233	1107.29
1032.522	1115.2
1032.81	1095.99
1033.099	1092.15
1033.387	1098.47
1033.675	1043.79
1033.963	1082.43
1034.251	1068.42
1034.54	1039.72
1034.828	1058.93
1035.116	1061.41
1035.403	1035.42
1035.691	1008.76
1035.979	1038.81
1036.267	1029.32
1036.554	1002.43
1036.842	1004.92
1037.129	1001.75
1037.417	1003.11
1037.704	989.78
1037.992	997.01
1038.279	971.92
1038.566	961.08
1038.853	961.08
1039.14	961.08
