Data from hue_320_FLMS001491_66.txt Node
Date: Mon Feb 06 15:47:32 GMT 2017
User: dcchb
Spectrometer: FLMS00149
Trigger mode: 0
Integration Time (sec): 2.000000E-2
Scans to average: 10
Electric dark correction enabled: true
Nonlinearity correction enabled: false
Boxcar width: 0
XAxis mode: Wavelengths
Number of Pixels in Spectrum: 2048
>>>>>Begin Spectral Data<<<<<
341.393	7.54
341.776	7.54
342.16	7.54
342.543	-62.74
342.927	-58.44
343.31	-55.28
343.693	-80.59
344.077	-81.95
344.46	-34.94
344.843	-42.4
345.226	-55.51
345.61	-28.84
345.993	-3.53
346.376	-12.8
346.759	-2.63
347.142	35.11
347.525	47.77
347.908	45.73
348.291	71.27
348.674	82.34
349.057	116.24
349.44	130.7
349.823	148.56
350.206	196.46
350.588	181.55
350.971	205.5
351.354	235.78
351.737	254.32
352.119	249.34
352.502	248.67
352.884	271.26
353.267	283.69
353.65	289.12
354.032	312.17
354.414	310.13
354.797	317.59
355.179	310.13
355.562	319.4
355.944	319.62
356.326	335.9
356.709	342.22
357.091	313.07
357.473	325.95
357.855	325.73
358.238	344.71
358.62	331.15
359.002	354.2
359.384	338.15
359.766	330.92
360.148	360.3
360.53	333.64
360.912	334.31
361.294	317.14
361.676	339.06
362.057	329.34
362.439	331.6
362.821	300.87
363.203	318.27
363.584	330.25
363.966	302.22
364.348	337.93
364.729	308.33
365.111	313.52
365.493	342.45
365.874	315.56
366.256	312.17
366.637	306.97
367.019	282.34
367.4	309.23
367.781	316.23
368.163	315.33
368.544	303.58
368.925	310.13
369.306	316.23
369.688	318.04
370.069	303.35
370.45	290.7
370.831	310.59
371.212	315.78
371.593	303.13
371.974	315.56
372.355	298.38
372.736	296.8
373.117	315.78
373.498	332.73
373.879	307.42
374.26	300.19
374.641	326.86
375.021	325.27
375.402	312.17
375.783	307.65
376.163	339.74
376.544	316.01
376.925	327.53
377.305	329.79
377.686	324.14
378.066	329.57
378.447	310.13
378.827	318.04
379.208	339.74
379.588	314.43
379.968	329.34
380.349	320.98
380.729	330.25
381.109	322.79
381.489	334.31
381.87	335.9
382.25	320.75
382.63	336.57
383.01	338.61
383.39	342.9
383.77	333.86
384.15	342.9
384.53	339.96
384.91	329.79
385.29	347.19
385.67	334.09
386.049	349
386.429	351.94
386.809	336.57
387.189	344.26
387.568	367.31
387.948	350.13
388.328	344.93
388.707	343.8
389.087	356.23
389.466	354.65
389.846	338.83
390.225	361.43
390.605	356.91
390.984	362.56
391.363	349.45
391.743	343.13
392.122	366.63
392.501	370.02
392.881	373.18
393.26	355.78
393.639	370.02
394.018	365.72
394.397	380.41
394.776	364.59
395.155	383.13
395.534	356.91
395.913	383.8
396.292	341.77
396.671	363.24
397.05	375.22
397.429	374.54
397.808	389
398.186	390.13
398.565	386.29
398.944	361.66
399.323	375.89
399.701	389.91
400.08	404.82
400.458	381.54
400.837	403.92
401.215	388.1
401.594	382
401.972	383.35
402.351	394.88
402.729	400.75
403.107	392.84
403.486	399.4
403.864	398.27
404.242	386.74
404.62	407.98
404.999	408.66
405.377	409.11
405.755	435.1
406.133	406.85
406.511	429
406.889	416.34
407.267	412.05
407.645	439.62
408.023	442.11
408.401	430.13
408.779	433.29
409.156	423.58
409.534	467.87
409.912	461.99
410.29	436.91
410.667	458.38
411.045	475.33
411.422	486.85
411.8	462.9
412.178	492.05
412.555	502.9
412.933	499.96
413.31	508.55
413.687	510.13
414.065	502.67
414.442	532.05
414.819	523.91
415.197	537.7
415.574	531.82
415.951	531.82
416.328	537.47
416.705	528.43
417.082	524.82
417.46	557.81
417.837	563.46
418.214	575.66
418.591	567.98
418.967	570.01
419.344	616.34
419.721	592.39
420.098	589.45
420.475	630.58
420.852	606.4
421.228	624.7
421.605	624.93
421.982	636.9
422.358	634.64
422.735	646.85
423.111	645.27
423.488	650.24
423.864	653.85
424.241	671.93
424.617	668.32
424.994	671.48
425.37	682.33
425.746	691.59
426.123	699.95
426.499	715.77
426.875	708.54
427.251	728.43
427.627	714.19
428.003	739.5
428.379	758.03
428.756	727.98
429.132	758.48
429.507	767.97
429.883	765.94
430.259	774.53
430.635	804.13
431.011	798.03
431.387	829.22
431.763	826.05
432.138	824.24
432.514	810.46
432.89	838.48
433.265	853.85
433.641	863.34
434.016	859.95
434.392	891.36
434.767	865.6
435.143	854.98
435.518	894.52
435.894	904.69
436.269	924.58
436.644	915.54
437.02	934.52
437.395	937.91
437.77	957.35
438.145	941.98
438.52	961.64
438.895	957.35
439.271	952.38
439.646	975.43
440.021	952.15
440.395	986.27
440.77	1005.48
441.145	1007.29
441.52	997.35
441.895	1003
442.27	1014.97
442.645	1010.23
443.019	1026.5
443.394	1016.56
443.769	1052.26
444.143	1048.42
444.518	1038.7
444.892	1024.92
445.267	1041.41
445.641	1066.05
446.016	1062.88
446.39	1073.73
446.764	1086.38
447.139	1057.23
447.513	1081.64
447.887	1074.63
448.262	1057.46
448.636	1052.71
449.01	1116.21
449.384	1099.26
449.758	1106.27
450.132	1100.85
450.506	1101.52
450.88	1106.27
451.254	1133.61
451.628	1115.31
452.002	1128.19
452.376	1152.37
452.75	1151.69
453.123	1152.37
453.497	1155.99
453.871	1164.57
454.244	1184.23
454.618	1161.41
454.992	1188.75
455.365	1185.36
455.739	1207.96
456.112	1199.6
456.486	1205.25
456.859	1218.13
457.232	1272.82
457.606	1208.87
457.979	1258.58
458.352	1257
458.725	1284.57
459.099	1262.42
459.472	1325.93
459.845	1284.8
460.218	1297
460.591	1297.9
460.964	1315.98
461.337	1344.91
461.71	1358.69
462.083	1379.71
462.456	1378.81
462.829	1348.75
463.201	1380.16
463.574	1388.3
463.947	1405.7
464.32	1401.63
464.692	1422.87
465.065	1417.22
465.438	1442.76
465.81	1468.52
466.183	1459.71
466.555	1500.16
466.928	1499.93
467.3	1511.68
467.672	1503.55
468.045	1516.66
468.417	1540.61
468.789	1540.38
469.161	1573.38
469.534	1534.96
469.906	1600.27
470.278	1610.44
470.65	1624.45
471.022	1621.29
471.394	1677.78
471.766	1671.91
472.138	1678.68
472.51	1698.35
472.882	1727.27
473.253	1721.85
473.625	1758.23
473.997	1775.41
474.369	1797.1
474.74	1812.47
475.112	1813.6
475.484	1837.78
475.855	1871.9
476.227	1875.29
476.598	1942.63
476.97	1927.04
477.341	1940.6
477.713	1931.11
478.084	1970.43
478.455	2022.18
478.827	2023.08
479.198	2054.49
479.569	2104.44
479.94	2099.46
480.311	2144.66
480.682	2170.2
481.053	2187.82
481.424	2229.86
481.795	2243.87
482.166	2250.65
482.537	2306.69
482.908	2313.24
483.279	2308.95
483.65	2377.88
484.021	2380.36
484.391	2396.63
484.762	2409.51
485.133	2417.65
485.503	2478.89
485.874	2490.19
486.244	2516.63
486.615	2549.4
486.985	2569.73
487.356	2645.44
487.726	2611.99
488.097	2678.88
488.467	2640.69
488.837	2744.65
489.207	2727.02
489.578	2758.2
489.948	2763.85
490.318	2797.75
490.688	2834.81
491.058	2829.61
491.428	2877.75
491.798	2906.45
492.168	2934.47
492.538	2963.62
492.908	2952.78
493.278	3018.99
493.648	2993
494.017	3013.56
494.387	3087.01
494.757	3102.83
495.126	3095.14
495.496	3113.68
495.866	3171.75
496.235	3155.03
496.605	3172.2
496.974	3164.97
497.344	3215.14
497.713	3237.06
498.082	3257.17
498.452	3257.17
498.821	3311.86
499.19	3252.65
499.559	3290.85
499.928	3275.25
500.298	3311.64
500.667	3364.06
501.036	3341.69
501.405	3367.23
501.774	3371.75
502.143	3417.17
502.512	3412.65
502.88	3406.55
503.249	3474.12
503.618	3477.51
503.987	3439.32
504.356	3484.96
504.724	3490.39
505.093	3508.69
505.462	3500.56
505.83	3524.29
506.199	3521.8
506.567	3559.77
506.936	3571.74
507.304	3586.88
507.672	3583.49
508.041	3636.15
508.409	3629.14
508.777	3613.55
509.145	3675.92
509.514	3653.77
509.882	3661.46
510.25	3678.63
510.618	3672.08
510.986	3681.34
511.354	3743.26
511.722	3720.89
512.09	3733.55
512.458	3716.15
512.826	3762.47
513.193	3781
513.561	3771.51
513.929	3774.9
514.297	3797.5
514.664	3841.79
515.032	3819.65
515.4	3860.77
515.767	3834.33
516.135	3858.29
516.502	3845.18
516.869	3861.45
517.237	3869.81
517.604	3842.92
517.972	3916.37
518.339	3901.45
518.706	3930.15
519.073	3923.15
519.44	3916.82
519.808	3969.25
520.175	3953.2
520.542	3991.39
520.909	4020.77
521.276	3958.85
521.643	4011.5
522.009	4012.86
522.376	4063.48
522.743	4052.18
523.11	4087.21
523.477	4086.3
523.843	4076.14
524.21	4086.53
524.577	4143.93
524.943	4155.91
525.31	4115.46
525.676	4184.38
526.043	4235.23
526.409	4217.83
526.776	4276.58
527.142	4272.06
527.508	4283.81
527.874	4326.98
528.241	4311.16
528.607	4351.61
528.973	4381.44
529.339	4331.95
529.705	4446.75
530.071	4490.14
530.437	4471.61
530.803	4450.14
531.169	4519.97
531.535	4496.92
531.901	4487.2
532.267	4514.54
532.632	4578.72
532.998	4539.4
533.364	4600.19
533.73	4585.05
534.095	4630.25
534.461	4651.49
534.826	4655.33
535.192	4723.35
535.557	4726.74
535.923	4752.73
536.288	4710.7
536.653	4824.82
537.019	4760.41
537.384	4803.57
537.749	4781.65
538.114	4801.99
538.479	4808.55
538.845	4839.96
539.21	4824.82
539.575	4846.51
539.94	4900.29
540.305	4904.81
540.67	4910.24
541.034	4962.89
541.399	4987.75
541.764	5001.08
542.129	5019.16
542.494	5023.46
542.858	5037.92
543.223	5016
543.587	5098.03
543.952	5107.07
544.316	5100.97
544.681	5118.14
545.045	5249.21
545.41	5205.6
545.774	5182.55
546.138	5218.93
546.503	5258.25
546.867	5268.19
547.231	5325.82
547.595	5254.64
547.959	5318.14
548.324	5357.68
548.688	5324.69
549.052	5373.28
549.416	5341.19
549.779	5418.7
550.143	5414.41
550.507	5446.27
550.871	5451.01
551.235	5479.71
551.599	5481.97
551.962	5497.79
552.326	5538.02
552.689	5587.51
553.053	5564.01
553.417	5545.48
553.78	5678.81
554.143	5652.37
554.507	5587.96
554.87	5675.19
555.234	5700.5
555.597	5683.55
555.96	5688.3
556.323	5724.45
556.686	5741.4
557.05	5767.16
557.413	5746.6
557.776	5792.47
558.139	5784.34
558.502	5812.14
558.865	5799.48
559.228	5898.01
559.59	5850.33
559.953	5910.66
560.316	5914.96
560.679	5973.49
561.041	5965.8
561.404	5974.84
561.767	6020.72
562.129	5992.92
562.492	6046.03
562.854	6006.71
563.217	6009.64
563.579	6029.98
563.941	6098.46
564.304	6126.93
564.666	6100.72
565.028	6096.87
565.39	6159.47
565.753	6180.26
566.115	6186.14
566.477	6255.29
566.839	6217.1
567.201	6275.4
567.563	6284.89
567.925	6326.25
568.287	6353.14
568.648	6300.71
569.01	6407.15
569.372	6439.92
569.734	6394.27
570.095	6499.35
570.457	6516.3
570.819	6499.8
571.18	6525.56
571.542	6579.12
571.903	6592.45
572.265	6636.97
572.626	6649.63
572.987	6691.21
573.349	6741.6
573.71	6790.41
574.071	6820.47
574.432	6808.49
574.794	6942.05
575.155	6968.72
575.516	6964.65
575.877	7042.84
576.238	7108.6
576.599	7162.83
576.96	7214.36
577.32	7323.73
577.681	7367.12
578.042	7488.25
578.403	7500
578.763	7564.41
579.124	7664.06
579.485	7746.77
579.845	7911.29
580.206	7916.03
580.566	8043.72
580.927	8132.98
581.287	8270.83
581.648	8381.56
582.008	8527.77
582.368	8674.66
582.728	8734.09
583.089	8934.54
583.449	9087.98
583.809	9262.21
584.169	9402.55
584.529	9534.07
584.889	9794.86
585.249	9909.43
585.609	10032.36
585.969	10231.68
586.329	10444.1
586.688	10636.42
587.048	10799.35
587.408	11002.73
587.768	11325.66
588.127	11502.38
588.487	11641.36
588.846	11967
589.206	12262.36
589.565	12378.29
589.925	12738.96
590.284	12824.83
590.643	13244.48
591.003	13450.13
591.362	13697.58
591.721	13901.41
592.08	14186.6
592.44	14523.54
592.799	14841.05
593.158	15064.32
593.517	15303.41
593.876	15643.74
594.235	15873.57
594.593	16144.07
594.952	16471.97
595.311	16689.82
595.67	17026.98
596.029	17363.47
596.387	17621.77
596.746	17993.28
597.104	18155.31
597.463	18444.57
597.822	18833.94
598.18	19015.86
598.538	19239.13
598.897	19682.51
599.255	19788.94
599.613	20374.92
599.972	20547.57
600.33	20822.36
600.688	20984.39
601.046	21314.78
601.404	21686.97
601.762	21937.14
602.12	22232.49
602.478	22545.93
602.836	22672.26
603.194	23001.97
603.552	23172.13
603.91	23397.66
604.268	23774.37
604.625	23909.51
604.983	24320.8
605.341	24363.06
605.698	24719.43
606.056	24921.01
606.413	25108.58
606.771	25451.39
607.128	25751.95
607.485	25820.42
607.843	25993.98
608.2	26441.2
608.557	26667.18
608.914	26890.9
609.272	27108.52
609.629	27368.86
609.986	27681.84
610.343	27623.99
610.7	28057.88
611.057	28126.12
611.414	28362.95
611.771	28568.83
612.127	28945.76
612.484	28931.53
612.841	29336.04
613.198	29289.94
613.554	29472.76
613.911	29612.41
614.267	29877.94
614.624	30001.78
614.98	30169.46
615.337	30417.82
615.693	30394.09
616.05	30595.89
616.406	30906.62
616.762	30983
617.118	31165.59
617.475	31228.87
617.831	31512.02
618.187	31556.54
618.543	31870.66
618.899	32117.66
619.255	32108.17
619.611	32310.87
619.967	32414.37
620.323	32547.93
620.678	32626.8
621.034	32567.59
621.39	32790.41
621.746	32867.7
622.101	33242.15
622.457	33063.4
622.812	33267.68
623.168	33274.92
623.523	33537.28
623.879	33553.33
624.234	33518.53
624.589	33733.89
624.945	33884.17
625.3	33940.44
625.655	33885.97
626.01	34104.95
626.365	34034.44
626.72	34052.07
627.075	34205.97
627.43	34331.39
627.785	34293.19
628.14	34405.06
628.495	34366.64
628.85	34487.31
629.205	34492.96
629.559	34697.48
629.914	34690.02
630.269	34772.5
630.623	34490.48
630.978	34635.33
631.332	34853.63
631.687	34793.29
632.041	34814.08
632.396	34941.99
632.75	34753.07
633.104	35010.01
633.459	34830.58
633.813	34781.77
634.167	34866.96
634.521	34939.05
634.875	34951.26
635.229	34838.94
635.583	34754.65
635.937	34840.07
636.291	34833.52
636.645	34984.7
636.999	34860.41
637.352	34943.35
637.706	34802.11
638.06	34898.38
638.413	35051.82
638.767	34861.09
639.121	34944.48
639.474	34812.73
639.828	34825.16
640.181	34916
640.534	34985.38
640.888	34836.91
641.241	34863.57
641.594	34826.97
641.947	34858.15
642.301	34803.69
642.654	34858.38
643.007	34876
643.36	34882.33
643.713	34869.68
644.066	34907.19
644.419	34766.18
644.771	34519.4
645.124	34277.6
645.477	34238.28
645.83	33909.25
646.182	33876.71
646.535	33889.59
646.888	33931.85
647.24	33870.38
647.593	33890.04
647.945	33985.63
648.298	33625.42
648.65	33679.2
649.002	33600.11
649.355	33809.59
649.707	33723.49
650.059	33818.63
650.411	34194.21
650.763	34236.25
651.115	34743.58
651.467	34440.31
651.819	34527.09
652.171	34443.92
652.523	34473.3
652.875	34528.89
653.227	34250.03
653.578	34615.22
653.93	34294.78
654.282	34269.24
654.633	34406.41
654.985	34260.43
655.337	34349.92
655.688	34234.66
656.039	34431.72
656.391	34234.44
656.742	34180.43
657.094	34277.38
657.445	34427.65
657.796	34314.89
658.147	34325.51
658.498	34111.05
658.849	34269.24
659.2	34172.97
659.551	34134.55
659.902	34308.79
660.253	34135.23
660.604	34265.4
660.955	33981.56
661.306	34219.75
661.656	34123.48
662.007	34078.51
662.358	34075.12
662.708	34167.32
663.059	34081.67
663.409	33876.26
663.76	34048.91
664.11	34022.47
664.461	34224.27
664.811	34019.3
665.161	34115.12
665.511	34061.34
665.862	34037.38
666.212	34177.04
666.562	34160.99
666.912	34088.91
667.262	34031.73
667.612	34020.66
667.962	34117.83
668.312	34095.69
668.662	34246.87
669.011	34088.23
669.361	33930.04
669.711	33979.98
670.06	33984.28
670.41	33932.3
670.76	33883.94
671.109	33985.18
671.459	33972.52
671.808	33968.46
672.157	33961.68
672.507	33749.93
672.856	33823.38
673.205	33801.46
673.554	33927.78
673.904	33844.62
674.253	33899.98
674.602	33838.74
674.951	33356.27
675.3	33212.09
675.649	33831.06
675.998	33667.67
676.346	33674.45
676.695	33855.69
677.044	33538.86
677.393	33640.1
677.741	33771.85
678.09	33545.87
678.438	33598.98
678.787	33643.95
679.135	33635.36
679.484	33394.91
679.832	33566.66
680.181	33276.27
680.529	33383.16
680.877	33330.96
681.225	33241.47
681.573	33404.86
681.922	33046.45
682.27	33022.49
682.618	33122.6
682.966	33028.37
683.314	33209.16
683.661	33038.76
684.009	32910.86
684.357	32840.58
684.705	32824.98
685.053	32832.22
685.4	32775.95
685.748	32568.04
686.095	32647.36
686.443	32629.28
686.79	32518.55
687.138	32617.76
687.485	32590.87
687.832	32315.85
688.18	32399.68
688.527	32287.82
688.874	32213.93
689.221	32191.78
689.568	32211.89
689.915	32111.56
690.262	31958.34
690.609	31905.69
690.956	31776.88
691.303	31892.35
691.65	31705.92
691.997	31626.6
692.344	31445.13
692.69	31532.81
693.037	31366.94
693.383	31234.29
693.73	31461.4
694.077	31033.17
694.423	31100.51
694.769	30971.7
695.116	31044.24
695.462	30936.45
695.808	30898.93
696.155	30834.75
696.501	30685.15
696.847	30547.08
697.193	30474.31
697.539	30548.66
697.885	30349.34
698.231	30264.83
698.577	30392.28
698.923	30189.12
699.269	30089.69
699.614	29938.51
699.96	29855.8
700.306	29989.8
700.651	29748.68
700.997	29711.62
701.342	29606.09
701.688	29623.03
702.033	29457.84
702.379	29477.5
702.724	29333.32
703.069	29494.45
703.415	29063.73
703.76	29134.91
704.105	29138.75
704.45	29174.68
704.795	28853.79
705.14	28745.09
705.485	28851.08
705.83	28613.8
706.175	28731.98
706.52	28600.24
706.865	28561.82
707.209	28520.46
707.554	28363.41
707.899	28391.2
708.243	28341.03
708.588	28249.29
708.932	28133.13
709.277	28096.07
709.621	28108.5
709.966	27875.28
710.31	28028.73
710.654	27758.9
710.998	27707.15
711.342	27859.69
711.687	27706.93
712.031	27656.08
712.375	27598
712.719	27478.23
713.063	27512.13
713.407	27720.94
713.75	27371.12
714.094	27390.55
714.438	27196.21
714.782	27331.34
715.125	27135.19
715.469	27303.55
715.812	27087.28
716.156	26964.57
716.499	26964.35
716.843	27036.21
717.186	26855.2
717.53	26974.97
717.873	26898.81
718.216	26771.58
718.559	26718.03
718.902	26480.29
719.246	26553.96
719.589	26500.63
719.932	26423.34
720.275	26410.24
720.617	26418.6
720.96	26337.02
721.303	26366.4
721.646	26407.98
721.989	26187.42
722.331	26193.29
722.674	26102.45
723.016	26086.4
723.359	26105.61
723.701	26026.75
724.044	25912.85
724.386	25751.27
724.729	26036.01
725.071	25720.76
725.413	25888.22
725.755	25876.01
726.097	25690.48
726.439	25628.34
726.782	25586.08
727.124	25831.72
727.465	25538.4
727.807	25489.13
728.149	25422.92
728.491	25365.75
728.833	25458.85
729.175	25195.58
729.516	25257.27
729.858	25215.24
730.199	25336.37
730.541	25332.07
730.882	25166.88
731.224	25367.78
731.565	25009.6
731.906	24998.75
732.248	25039.65
732.589	24961.69
732.93	24878.98
733.271	24816.61
733.612	24897.51
733.953	24816.61
734.294	24757.63
734.635	24719.21
734.976	24800.34
735.317	24636.05
735.658	24741.81
735.999	24690.51
736.339	24567.12
736.68	24730.73
737.021	24474.47
737.361	24472.66
737.702	24498.65
738.042	24462.04
738.383	24382.27
738.723	24336.39
739.063	24383.4
739.404	24324.87
739.744	24213.23
740.084	24207.81
740.424	24192.44
740.764	24021.37
741.104	24303.17
741.444	24070.86
741.784	23922.39
742.124	24091.43
742.464	24010.75
742.804	23968.72
743.143	24033.8
743.483	23927.14
743.823	23804.88
744.162	23766.47
744.502	23824.54
744.841	23651.44
745.181	23695.96
745.52	23751.55
745.86	23680.82
746.199	23515.85
746.538	23572.8
746.877	23635.62
747.216	23632.23
747.556	23442.86
747.895	23529.86
748.234	23440.6
748.573	23345.91
748.911	23250.09
749.25	23299.36
749.589	23234.95
749.928	23203.09
750.267	23304.1
750.605	23128.74
750.944	23160.61
751.283	23025.69
751.621	23134.62
751.96	22926.94
752.298	22975.07
752.636	22954.96
752.975	22856.66
753.313	22694.18
753.651	22856.21
753.989	22668.19
754.327	22736.21
754.666	22600.85
755.004	22564.69
755.342	22610.11
755.679	22587.97
756.017	22326.5
756.355	22390
756.693	22298.48
757.031	22289.44
757.368	22173.96
757.706	22224.36
758.044	22152.72
758.381	22065.95
758.719	22048.32
759.056	21971.48
759.394	21911.37
759.731	21875.22
760.068	21838.38
760.405	21740.76
760.743	21629.12
761.08	21656.24
761.417	21624.37
761.754	21487.43
762.091	21402.01
762.428	21414.21
762.765	21139.87
763.102	21314.55
763.438	21210.37
763.775	21096.93
764.112	21126.08
764.449	21088.8
764.785	20978.52
765.122	20833.89
765.458	20807.45
765.795	20787.79
766.131	20718.86
766.467	20675.25
766.804	20616.04
767.14	20458.76
767.476	20484.74
767.812	20398.87
768.148	20489.26
768.485	20380.57
768.821	20162.94
769.157	20115.49
769.492	20102.83
769.828	20153.23
770.164	19854.48
770.5	19818.09
770.836	19831.88
771.171	19668.72
771.507	19623.98
771.842	19560.7
772.178	19546.69
772.513	19431.66
772.849	19451.55
773.184	19251.1
773.519	19257.66
773.855	19168.62
774.19	19123.65
774.525	18983.31
774.86	19053.37
775.195	18972.47
775.53	18869.42
775.865	18794.39
776.2	18648.63
776.535	18557.34
776.87	18614.06
777.205	18494.74
777.539	18349.66
777.874	18481.86
778.209	18268.98
778.543	18253.16
778.878	18224.01
779.212	18130.23
779.547	18104.02
779.881	18072.15
780.215	17954.19
780.55	17972.04
780.884	17793.52
781.218	17737.47
781.552	17723.91
781.886	17665.16
782.22	17573.41
782.554	17555.1
782.888	17436.46
783.222	17281.44
783.556	17225.17
783.889	17209.35
784.223	17007.55
784.557	17013.2
784.89	17063.36
785.224	16886.65
785.557	16895.69
785.891	16845.07
786.224	16723.03
786.558	16751.73
786.891	16620.21
787.224	16561.91
787.557	16540.44
787.891	16456.6
788.224	16420.22
788.557	16482.14
788.89	16380.22
789.223	16313.78
789.556	16218.87
789.888	16086.22
790.221	16191.75
790.554	15918.76
790.887	15972.55
791.219	15894.13
791.552	15933.68
791.884	15784.98
792.217	15812.1
792.549	15742.72
792.882	15590.64
793.214	15516.51
793.546	15525.55
793.879	15523.07
794.211	15408.72
794.543	15388.38
794.875	15378.89
795.207	15375.5
795.539	15236.07
795.871	15307.25
796.203	15173.02
796.535	15046.69
796.867	15006.92
797.198	14957.66
797.53	14957.43
797.862	14848.06
798.193	14888.51
798.525	14789.98
798.856	14873.37
799.188	14637.89
799.519	14686.03
799.85	14584.79
800.182	14674.5
800.513	14573.26
800.844	14454.17
801.175	14529.65
801.506	14492.59
801.837	14340.27
802.168	14340.05
802.499	14256.21
802.83	14223.89
803.161	14182.99
803.491	14114.06
803.822	14232.93
804.153	14034.29
804.483	13959.72
804.814	13981.41
805.145	13857.57
805.475	13896.22
805.805	13819.61
806.136	13765.6
806.466	13826.39
806.796	13791.36
807.126	13636.11
807.457	13617.35
807.787	13601.76
808.117	13505.27
808.447	13486.51
808.777	13503.68
809.107	13463.69
809.436	13344.59
809.766	13428.43
810.096	13436.79
810.426	13440.86
810.755	13251.94
811.085	13258.04
811.414	13253.07
811.744	13091.94
812.073	13114.99
812.403	13090.36
812.732	12961.33
813.061	13027.54
813.39	12944.6
813.719	12937.82
814.049	12987.09
814.378	12951.38
814.707	12837.04
815.036	12870.93
815.365	12777.38
815.693	12691.05
816.022	12773.53
816.351	12634.78
816.68	12585.06
817.008	12582.13
817.337	12499.87
817.665	12396.59
817.994	12531.51
818.322	12595.23
818.651	12415.8
818.979	12360.89
819.307	12432.53
819.636	12381.68
819.964	12344.62
820.292	12296.03
820.62	12324.51
820.948	12303.94
821.276	12307.33
821.604	12279.54
821.932	12212.19
822.259	12287.67
822.587	12309.82
822.915	12169.26
823.243	12328.57
823.57	12292.42
823.898	12265.75
824.225	12196.6
824.553	12171.29
824.88	12276.37
825.207	12225.3
825.535	12167
825.862	12241.34
826.189	12218.75
826.516	12251.97
826.843	12324.05
827.17	12289.48
827.497	12282.7
827.824	12192.08
828.151	12223.04
828.478	12259.2
828.805	12277.5
829.131	12234.34
829.458	12197.5
829.785	12153.44
830.111	12167
830.438	12170.39
830.764	12245.86
831.09	12216.94
831.417	12074.34
831.743	12165.64
832.069	12126.09
832.395	12118.41
832.722	12125.64
833.048	12070.05
833.374	12063.27
833.7	12011.97
834.026	12111.4
834.351	12082.25
834.677	12133.1
835.003	11971.75
835.329	11975.36
835.654	12093.33
835.98	11971.3
836.306	12014.23
836.631	11911.86
836.956	11992.76
837.282	11948.25
837.607	11910.28
837.932	11874.35
838.258	11896.95
838.583	11785.31
838.908	11722.49
839.233	11757.06
839.558	11761.36
839.883	11797.51
840.208	11697.4
840.533	11677.97
840.858	11679.1
841.182	11630.74
841.507	11665.31
841.832	11616.95
842.156	11563.62
842.481	11609.95
842.805	11546.45
843.13	11512.55
843.454	11458.31
843.778	11434.59
844.103	11437.75
844.427	11361.59
844.751	11345.55
845.075	11383.74
845.399	11328.37
845.723	11262.84
846.047	11228.26
846.371	11159.79
846.695	11155.95
847.019	11128.38
847.343	11087.7
847.666	11017.42
847.99	10948.95
848.313	10915.73
848.637	10854.04
848.96	10872.34
849.284	10829.4
849.607	10734.04
849.931	10689.07
850.254	10629.86
850.577	10583.54
850.9	10582.18
851.223	10532.92
851.546	10464.44
851.869	10441.84
852.192	10519.36
852.515	10371.11
852.838	10365.46
853.161	10325.24
853.483	10241.17
853.806	10175.41
854.129	10201.85
854.451	10146.48
854.774	10143.32
855.096	10040.05
855.419	10032.59
855.741	10021.74
856.063	10006.83
856.385	9970.44
856.708	9960.27
857.03	9894.29
857.352	9880.73
857.674	9820.84
857.996	9768.19
858.318	9745.59
858.64	9786.27
858.961	9765.48
859.283	9680.28
859.605	9712.15
859.926	9675.31
860.248	9608.65
860.57	9605.48
860.891	9611.81
861.212	9587.63
861.534	9477.58
861.855	9503.11
862.176	9501.3
862.498	9509.89
862.819	9508.08
863.14	9409.33
863.461	9416.56
863.782	9327.3
864.103	9373.85
864.424	9363.68
864.745	9356.45
865.065	9301.99
865.386	9263.57
865.707	9273.29
866.027	9257.24
866.348	9221.31
866.668	9211.14
866.989	9187.87
867.309	9078.49
867.63	9189.9
867.95	9120.52
868.27	9160.75
868.59	9210.24
868.91	9166.62
869.23	9080.98
869.55	9117.36
869.87	9113.07
870.19	9050.02
870.51	9079.39
870.83	9050.24
871.15	8993.07
871.469	9001.88
871.789	9062.22
872.109	9032.16
872.428	8970.02
872.748	9049.34
873.067	9030.36
873.386	8964.14
873.706	8944.71
874.025	8935.67
874.344	8934.99
874.663	8941.32
874.982	8822.9
875.301	8828.33
875.62	8845.5
875.939	8801.66
876.258	8763.02
876.577	8751.27
876.896	8799.63
877.214	8783.36
877.533	8757.37
877.852	8727.99
878.17	8713.53
878.489	8719.63
878.807	8698.39
879.125	8601.21
879.444	8642.34
879.762	8627.88
880.08	8624.04
880.398	8554.89
880.716	8587.66
881.034	8584.94
881.352	8561.44
881.67	8503.14
881.988	8512.63
882.306	8519.18
882.624	8503.36
882.941	8474.89
883.259	8425.4
883.577	8406.42
883.894	8391.5
884.212	8332.07
884.529	8328.23
884.846	8351.73
885.164	8372.52
885.481	8305.18
885.798	8261.34
886.115	8285.74
886.432	8273.31
886.75	8236.25
887.067	8212.52
887.383	8175.01
887.7	8224.95
888.017	8117.16
888.334	8111.74
888.651	8111.06
888.967	8097.5
889.284	7975.69
889.6	8059.76
889.917	7986.54
890.233	7997.39
890.55	7961.68
890.866	8005.98
891.182	7957.16
891.498	7953.32
891.815	7890.5
892.131	7836.94
892.447	7873.78
892.763	7831.74
893.079	7755.81
893.395	7786.77
893.71	7705.42
894.026	7663.61
894.342	7710.84
894.657	7666.78
894.973	7596.72
895.289	7551.07
895.604	7535.71
895.92	7594.69
896.235	7449.83
896.55	7501.13
896.865	7486.22
897.181	7435.37
897.496	7468.36
897.811	7430.4
898.126	7344.98
898.441	7404.41
898.756	7346.11
899.071	7268.14
899.386	7277.63
899.7	7222.04
900.015	7163.06
900.33	7156.28
900.644	7145.89
900.959	7176.39
901.273	7160.57
901.588	7088.03
901.902	7079.22
902.216	7051.42
902.531	7018.21
902.845	6995.38
903.159	6982.95
903.473	6961.94
903.787	6874.93
904.101	6903.41
904.415	6871.99
904.729	6889.17
905.042	6823.86
905.356	6839.9
905.67	6747.7
905.984	6733.47
906.297	6721.49
906.611	6768.04
906.924	6651.89
907.237	6688.95
907.551	6636.52
907.864	6638.33
908.177	6576.41
908.491	6530.08
908.804	6520.14
909.117	6533.02
909.43	6443.08
909.743	6461.16
910.056	6423.19
910.368	6383.42
910.681	6420.03
910.994	6368.73
911.307	6295.96
911.619	6311.11
911.932	6326.25
912.244	6254.38
912.557	6212.8
912.869	6206.02
913.181	6199.7
913.494	6180.71
913.806	6151.56
914.118	6153.14
914.43	6069.53
914.742	6089.87
915.054	6050.55
915.366	6027.72
915.678	5976.65
915.99	5961.06
916.302	5918.8
916.613	5932.81
916.925	5896.43
917.236	5839.48
917.548	5853.04
917.859	5862.3
918.171	5740.27
918.482	5758.58
918.794	5746.37
919.105	5709.31
919.416	5689.2
919.727	5708.41
920.038	5715.64
920.349	5613.95
920.66	5578.02
920.971	5589.09
921.282	5536.21
921.593	5488.53
921.903	5520.39
922.214	5521.97
922.525	5459.15
922.835	5439.04
923.146	5424.57
923.456	5372.6
923.767	5386.61
924.077	5361.98
924.387	5302.77
924.697	5290.12
925.008	5289.66
925.318	5277.23
925.628	5292.83
925.938	5258.93
926.248	5160.85
926.558	5182.77
926.867	5175.54
927.177	5129.67
927.487	5085.37
927.796	5077.47
928.106	5063.45
928.416	5071.59
928.725	5013.74
929.034	5008.99
929.344	5043.57
929.653	4962.21
929.962	4925.83
930.271	4945.27
930.581	4858.71
930.89	4866.62
931.199	4864.36
931.508	4860.3
931.817	4806.29
932.125	4798.83
932.434	4792.28
932.743	4747.08
933.051	4769
933.36	4679.51
933.669	4628.89
933.977	4648.55
934.286	4649.23
934.594	4661.66
934.902	4630.25
935.21	4581.89
935.519	4604.26
935.827	4547.54
936.135	4496.69
936.443	4470.48
936.751	4508.89
937.059	4474.32
937.367	4404.04
937.674	4451.95
937.982	4385.51
938.29	4375.34
938.597	4398.39
938.905	4346.64
939.213	4307.09
939.52	4333.53
939.827	4337.15
940.135	4257.37
940.442	4270.48
940.749	4265.51
941.056	4259.86
941.363	4201.78
941.67	4184.61
941.977	4215.57
942.284	4124.72
942.591	4169.92
942.898	4119.52
943.205	4147.77
943.511	4079.3
943.818	4106.42
944.125	4095.34
944.431	4063.25
944.738	4060.77
945.044	4015.12
945.35	3983.03
945.657	3990.94
945.963	4026.19
946.269	3941.45
946.575	3920.43
946.881	3941.22
947.187	3896.71
947.493	3901.68
947.799	3805.86
948.105	3889.25
948.41	3850.38
948.716	3871.62
949.022	3799.08
949.327	3808.57
949.633	3741.23
949.938	3755.01
950.244	3731.74
950.549	3709.82
950.854	3717.95
951.16	3677.5
951.465	3659.65
951.77	3682.93
952.075	3638.63
952.38	3615.13
952.685	3625.53
952.99	3585.08
953.294	3543.04
953.599	3562.02
953.904	3540.78
954.209	3532.87
954.513	3477.28
954.818	3527.9
955.122	3493.55
955.426	3498.52
955.731	3462.82
956.035	3455.14
956.339	3406.77
956.643	3465.08
956.948	3424.18
957.252	3397.74
957.556	3371.75
957.86	3330.62
958.163	3341.47
958.467	3331.75
958.771	3306.66
959.075	3306.89
959.378	3290.85
959.682	3286.1
959.985	3295.14
960.289	3268.47
960.592	3251.98
960.896	3194.35
961.199	3219.21
961.502	3209.72
961.805	3228.93
962.108	3158.42
962.411	3163.84
962.714	3155.71
963.017	3135.82
963.32	3103.73
963.623	3103.96
963.926	3124.97
964.228	3083.62
964.531	3041.81
964.833	3052.43
965.136	3005.43
965.438	2999.78
965.741	3030.29
966.043	3001.36
966.345	2983.28
966.648	2924.75
966.95	2960.68
967.252	2968.82
967.554	2915.26
967.856	2918.88
968.158	2873.46
968.46	2886.56
968.761	2842.72
969.063	2831.42
969.365	2863.29
969.666	2835.72
969.968	2807.69
970.269	2848.15
970.571	2787.81
970.872	2811.54
971.174	2783.97
971.475	2797.98
971.776	2801.37
972.077	2753.46
972.378	2696.51
972.679	2704.19
972.98	2735.61
973.281	2709.39
973.582	2695.61
973.883	2686.57
974.183	2631.43
974.484	2673.69
974.785	2663.52
975.085	2628.49
975.386	2629.39
975.686	2635.95
975.986	2588.72
976.287	2557.53
976.587	2596.4
976.887	2609.96
977.187	2565.89
977.487	2541.71
977.787	2553.24
978.087	2548.49
978.387	2537.19
978.687	2486.12
978.987	2492
979.286	2475.5
979.586	2477.99
979.885	2439.12
980.185	2450.19
980.484	2438.21
980.784	2446.35
981.083	2452.68
981.382	2400.47
981.682	2378.55
981.981	2380.14
982.28	2366.58
982.579	2373.36
982.878	2357.54
983.177	2358.21
983.475	2327.71
983.774	2356.41
984.073	2294.26
984.372	2289.52
984.67	2285
984.969	2288.39
985.267	2260.59
985.566	2276.18
985.864	2256.07
986.162	2296.97
986.461	2235.51
986.759	2229.18
987.057	2211.55
987.355	2233.25
987.653	2228.95
987.951	2213.59
988.249	2167.71
988.547	2200.03
988.844	2166.36
989.142	2164.32
989.44	2137.43
989.737	2132.23
990.035	2117.54
990.332	2107.83
990.63	2096.53
990.927	2076.64
991.224	2085.45
991.521	2057.43
991.819	2058.79
992.116	2060.82
992.413	2042.74
992.71	2050.88
993.006	2033.03
993.303	1998
993.6	2013.59
993.897	1996.42
994.193	1962.29
994.49	1962.29
994.787	1972.91
995.083	1936.76
995.379	1938.34
995.676	1949.64
995.972	1968.17
996.268	1942.41
996.565	1921.62
996.861	1927.04
997.157	1909.19
997.453	1900.83
997.749	1887.72
998.044	1871.9
998.34	1878.68
998.636	1875.06
998.932	1845.69
999.227	1831.68
999.523	1848.4
999.818	1824.22
1000.114	1816.31
1000.409	1795.29
1000.704	1791.68
1001	1794.16
1001.295	1767.27
1001.59	1776.54
1001.885	1742.41
1002.18	1745.8
1002.475	1750.32
1002.77	1740.6
1003.065	1699.93
1003.359	1706.25
1003.654	1706.93
1003.949	1721.62
1004.243	1675.97
1004.538	1684.79
1004.832	1671.45
1005.127	1661.96
1005.421	1651.11
1005.715	1623.54
1006.009	1656.54
1006.304	1615.64
1006.598	1613.6
1006.892	1612.02
1007.186	1590.1
1007.48	1606.37
1007.773	1572.92
1008.067	1570.44
1008.361	1545.13
1008.655	1573.6
1008.948	1540.84
1009.242	1539.03
1009.535	1531.12
1009.829	1518.01
1010.122	1527.5
1010.415	1527.73
1010.708	1486.6
1011.001	1483.89
1011.295	1482.53
1011.588	1457.67
1011.881	1437.56
1012.173	1421.52
1012.466	1454.96
1012.759	1439.37
1013.052	1454.06
1013.344	1405.02
1013.637	1428.97
1013.93	1390.78
1014.222	1391.91
1014.514	1379.26
1014.807	1386.49
1015.099	1413.61
1015.391	1355.76
1015.683	1375.64
1015.976	1352.82
1016.268	1334.96
1016.56	1350.33
1016.851	1316.89
1017.143	1332.25
1017.435	1320.95
1017.727	1329.32
1018.018	1284.57
1018.31	1273.5
1018.602	1240.28
1018.893	1288.64
1019.185	1276.89
1019.476	1289.09
1019.767	1264.46
1020.058	1276.44
1020.35	1248.87
1020.641	1247.06
1020.932	1240.28
1021.223	1204.8
1021.514	1211.35
1021.804	1171.58
1022.095	1202.31
1022.386	1208.87
1022.677	1174.29
1022.967	1181.97
1023.258	1175.87
1023.548	1165.25
1023.839	1158.92
1024.129	1182.2
1024.419	1142.43
1024.709	1115.54
1025	1129.09
1025.29	1121.41
1025.58	1104.01
1025.87	1108.76
1026.16	1094.52
1026.449	1105.14
1026.739	1104.24
1027.029	1076.89
1027.319	1052.71
1027.608	1093.16
1027.898	1076.21
1028.187	1053.16
1028.477	1057.01
1028.766	1046.61
1029.055	1020.17
1029.344	1036.44
1029.634	1025.14
1029.923	1011.13
1030.212	990.34
1030.501	1005.71
1030.79	1012.71
1031.078	993.5
1031.367	986.5
1031.656	968.87
1031.945	968.42
1032.233	953.73
1032.522	957.57
1032.81	959.38
1033.099	919.83
1033.387	960.06
1033.675	920.29
1033.963	936.78
1034.251	929.1
1034.54	924.81
1034.828	932.94
1035.116	929.1
1035.403	904.02
1035.691	908.31
1035.979	895.2
1036.267	886.84
1036.554	881.87
1036.842	867.41
1037.129	832.83
1037.417	863.34
1037.704	864.92
1037.992	868.76
1038.279	847.75
1038.566	878.48
1038.853	878.48
1039.14	878.48
