Data from hue_260_FLMS001491_00065.txt Node
Date: Tue Feb 07 15:59:24 GMT 2017
User: dcchb
Spectrometer: FLMS00149
Trigger mode: 0
Integration Time (sec): 2.000000E-2
Scans to average: 10
Electric dark correction enabled: true
Nonlinearity correction enabled: false
Boxcar width: 0
XAxis mode: Wavelengths
Number of Pixels in Spectrum: 2048
>>>>>Begin Spectral Data<<<<<
341.393	-14.91
341.776	-14.91
342.16	-14.91
342.543	-64.86
342.927	-77.74
343.31	-74.35
343.693	-67.57
344.077	-41.81
344.46	-38.19
344.843	-59.89
345.226	-50.39
345.61	-19.43
345.993	-15.82
346.376	-8.36
346.759	4.97
347.142	19.43
347.525	44.52
347.908	46.33
348.291	66.89
348.674	98.53
349.057	95.14
349.44	99.43
349.823	143.5
350.206	156.83
350.588	186.21
350.971	188.02
351.354	205.42
351.737	245.42
352.119	244.74
352.502	266.66
352.884	256.49
353.267	280.44
353.65	270.5
354.032	269.82
354.414	310.05
354.797	311.18
355.179	318.41
355.562	298.98
355.944	305.75
356.326	321.35
356.709	324.29
357.091	324.51
357.473	326.55
357.855	313.89
358.238	332.19
358.62	322.7
359.002	331.52
359.384	340.78
359.766	310.05
360.148	332.42
360.53	336.71
360.912	331.74
361.294	328.58
361.676	329.71
362.057	303.27
362.439	324.51
362.821	330.84
363.203	323.38
363.584	329.93
363.966	308.24
364.348	307.11
364.729	306.43
365.111	310.27
365.493	319.54
365.874	308.69
366.256	308.01
366.637	322.93
367.019	316.83
367.4	298.98
367.781	316.15
368.163	347.79
368.544	305.3
368.925	317.96
369.306	316.6
369.688	326.32
370.069	304.62
370.45	312.08
370.831	317.96
371.212	318.64
371.593	298.75
371.974	317.05
372.355	290.39
372.736	292.65
373.117	312.53
373.498	304.17
373.879	300.56
374.26	315.7
374.641	281.8
375.021	308.69
375.402	309.82
375.783	327
376.163	325.64
376.544	316.83
376.925	312.99
377.305	303.49
377.686	314.79
378.066	310.05
378.447	312.31
378.827	321.57
379.208	330.39
379.588	331.06
379.968	319.54
380.349	315.25
380.729	332.65
381.109	305.08
381.489	329.26
381.87	328.58
382.25	334.91
382.63	317.96
383.01	324.96
383.39	325.19
383.77	330.61
384.15	338.75
384.53	319.54
384.91	349.37
385.29	335.58
385.67	353.21
386.049	323.16
386.429	343.04
386.809	357.5
387.189	357.73
387.568	335.13
387.948	341.23
388.328	355.24
388.707	349.37
389.087	368.8
389.466	368.13
389.846	354.11
390.225	362.7
390.605	358.18
390.984	350.05
391.363	359.54
391.743	347.56
392.122	353.21
392.501	371.52
392.881	371.97
393.26	370.16
393.639	376.26
394.018	375.13
394.397	369.03
394.776	376.94
395.155	377.39
395.534	380.1
395.913	366.09
396.292	379.88
396.671	388.24
397.05	389.59
397.429	379.43
397.808	394.57
398.186	411.29
398.565	412.19
398.944	395.7
399.323	398.86
399.701	424.17
400.08	415.36
400.458	422.36
400.837	409.48
401.215	428.69
401.594	399.54
401.972	409.03
402.351	424.62
402.729	410.84
403.107	431.63
403.486	418.75
403.864	421.68
404.242	411.06
404.62	424.85
404.999	419.2
405.377	442.25
405.755	439.08
406.133	446.77
406.511	419.65
406.889	451.97
407.267	455.13
407.645	452.42
408.023	474.56
408.401	470.04
408.779	468.91
409.156	495.81
409.534	478.63
409.912	489.03
410.29	486.99
410.667	503.72
411.045	513.21
411.422	519.08
411.8	532.19
412.178	536.26
412.555	541
412.933	541
413.31	537.84
413.687	560.21
414.065	555.92
414.442	603.6
414.819	576.48
415.197	575.35
415.574	595.24
415.951	585.75
416.328	619.42
416.705	595.92
417.082	620.1
417.46	621.23
417.837	631.62
418.214	623.71
418.591	652.64
418.967	644.05
419.344	647.21
419.721	656.48
420.098	676.37
420.475	685.86
420.852	673.43
421.228	691.51
421.605	695.12
421.982	705.52
422.358	728.79
422.735	729.02
423.111	754.56
423.488	731.51
423.864	753.88
424.241	763.37
424.617	777.83
424.994	783.71
425.37	795.23
425.746	832.75
426.123	827.32
426.499	823.71
426.875	823.48
427.251	832.97
427.627	856.7
428.003	874.1
428.379	878.17
428.756	878.17
429.132	917.94
429.507	921.11
429.883	913.42
430.259	948.9
430.635	915.23
431.011	942.12
431.387	978.05
431.763	973.31
432.138	990.48
432.514	1019.63
432.89	1020.99
433.265	1026.19
433.641	1048.56
434.016	1081.1
434.392	1082.46
434.767	1068.22
435.143	1110.03
435.518	1116.81
435.894	1140.08
436.269	1186.64
436.644	1181.66
437.02	1182.34
437.395	1204.71
437.77	1244.94
438.145	1253.07
438.52	1257.82
438.895	1296.92
439.271	1288.1
439.646	1303.02
440.021	1322.45
440.395	1327.2
440.77	1348.89
441.145	1348.67
441.52	1389.12
441.895	1376.01
442.27	1396.8
442.645	1397.93
443.019	1398.38
443.394	1446.52
443.769	1438.83
444.143	1445.61
444.518	1453.07
444.892	1489.68
445.267	1513.63
445.641	1519.28
446.016	1493.07
446.39	1500.98
446.764	1520.86
447.139	1532.84
447.513	1534.42
447.887	1557.7
448.262	1575.1
448.636	1575.55
449.01	1605.38
449.384	1604.25
449.758	1663.91
450.132	1616
450.506	1652.39
450.88	1660.97
451.254	1644.25
451.628	1697.81
452.002	1698.03
452.376	1738.71
452.75	1729.67
453.123	1742.33
453.497	1759.05
453.871	1762.21
454.244	1806.51
454.618	1803.12
454.992	1805.6
455.365	1834.3
455.739	1879.5
456.112	1892.83
456.486	1903.68
456.859	1925.15
457.232	1946.62
457.606	1937.58
457.979	1978.25
458.352	2005.37
458.725	2026.16
459.099	1999.5
459.472	2065.93
459.845	2084.01
460.218	2117.68
460.591	2136.22
460.964	2107.06
461.337	2184.12
461.71	2213.05
462.083	2239.72
462.456	2247.4
462.829	2239.94
463.201	2298.02
463.574	2303.67
463.947	2329.66
464.32	2337.79
464.692	2394.97
465.065	2373.04
465.438	2433.16
465.81	2458.01
466.183	2473.16
466.555	2500.5
466.928	2561.06
467.3	2546.6
467.672	2582.3
468.045	2614.85
468.417	2642.64
468.789	2628.63
469.161	2657.33
469.534	2718.35
469.906	2785.24
470.278	2769.64
470.65	2814.62
471.022	2870.43
471.394	2907.72
471.766	2938.23
472.138	2925.12
472.51	3008.96
472.882	3024.33
473.253	3060.94
473.625	3159.92
473.997	3149.3
474.369	3172.8
474.74	3222.74
475.112	3258.9
475.484	3316.52
475.855	3370.53
476.227	3400.81
476.598	3444.88
476.97	3490.53
477.341	3551.32
477.713	3578.66
478.084	3603.07
478.455	3678.55
478.827	3748.38
479.198	3782.95
479.569	3833.12
479.94	3910.86
480.311	3952.66
480.682	3979.33
481.053	4092.55
481.424	4151.3
481.795	4213.45
482.166	4222.71
482.537	4264.75
482.908	4416.83
483.279	4395.82
483.65	4442.6
484.021	4506.77
484.391	4547.45
484.762	4589.03
485.133	4631.74
485.503	4682.59
485.874	4762.59
486.244	4801
486.615	4845.07
486.985	4927.33
487.356	5002.13
487.726	5012.07
488.097	5063.82
488.467	5146.08
488.837	5242.35
489.207	5270.6
489.578	5324.61
489.948	5388.56
490.318	5427.88
490.688	5462.68
491.058	5557.59
491.428	5597.37
491.798	5643.69
492.168	5738.83
492.538	5743.13
492.908	5766.85
493.278	5866.06
493.648	5850.02
494.017	5859.05
494.387	5915.78
494.757	5991.25
495.126	6054.53
495.496	6000.07
495.866	6091.14
496.235	6132.04
496.605	6195.54
496.974	6190.12
497.344	6255.2
497.713	6288.87
498.082	6304.02
498.452	6334.97
498.821	6396.22
499.19	6399.61
499.559	6440.28
499.928	6485.25
500.298	6485.03
500.667	6525.03
501.036	6532.71
501.405	6566.16
501.774	6550.79
502.143	6619.26
502.512	6602.54
502.88	6715.3
503.249	6672.82
503.618	6754.17
503.987	6695.64
504.356	6763.21
504.724	6800.27
505.093	6834.85
505.462	6845.92
505.83	6839.59
506.199	6923.89
506.567	6928.18
506.936	6927.28
507.304	6973.83
507.672	6959.59
508.041	6994.39
508.409	7082.53
508.777	7105.35
509.145	7153.03
509.514	7160.49
509.882	7216.76
510.25	7156.87
510.618	7101.73
510.986	7224.44
511.354	7208.85
511.722	7334.95
512.09	7313.71
512.458	7284.1
512.826	7329.75
513.193	7370.88
513.561	7337.89
513.929	7420.6
514.297	7472.57
514.664	7435.96
515.032	7457.66
515.4	7554.15
515.767	7447.04
516.135	7493.59
516.502	7457.88
516.869	7551.44
517.237	7538.11
517.604	7555.51
517.972	7583.53
518.339	7571.33
518.706	7605
519.073	7662.85
519.44	7618.1
519.808	7648.84
520.175	7652.23
520.542	7699.23
520.909	7696.07
521.276	7706.01
521.643	7706.69
522.009	7768.61
522.376	7863.52
522.743	7857.19
523.11	7887.48
523.477	7871.88
523.843	7933.35
524.21	7885.44
524.577	7894.71
524.943	7948.49
525.31	8003.41
525.676	8015.83
526.043	8002.73
526.409	8073.91
526.776	8135.38
527.142	8087.02
527.508	8111.88
527.874	8137.41
528.241	8125.89
528.607	8130.86
528.973	8173.8
529.339	8101.71
529.705	8211.76
530.071	8234.81
530.437	8236.17
530.803	8232.78
531.169	8251.31
531.535	8233.46
531.901	8226.22
532.267	8199.56
532.632	8282.27
532.998	8233.91
533.364	8289.27
533.73	8256.28
534.095	8319.56
534.461	8302.38
534.826	8320.23
535.192	8329.72
535.557	8291.53
535.923	8266.45
536.288	8313.23
536.653	8284.75
537.019	8289.5
537.384	8311.19
537.749	8307.8
538.114	8258.09
538.479	8202.27
538.845	8279.1
539.21	8250.18
539.575	8212.44
539.94	8266
540.305	8287.24
540.67	8233.68
541.034	8157.3
541.399	8223.96
541.764	8254.7
542.129	8223.06
542.494	8217.86
542.858	8237.98
543.223	8165.66
543.587	8230.52
543.952	8275.26
544.316	8219.44
544.681	8220.12
545.045	8220.57
545.41	8205.89
545.774	8223.74
546.138	8164.31
546.503	8190.75
546.867	8149.39
547.231	8178.77
547.595	8165.21
547.959	8136.96
548.324	8148.71
548.688	8125.21
549.052	8152.1
549.416	8174.93
549.779	8078.88
550.143	8091.09
550.507	8106.91
550.871	8143.74
551.235	8054.7
551.599	8085.89
551.962	8112.78
552.326	8144.64
552.689	8150.97
553.053	8079.11
553.417	8133.8
553.78	8219.67
554.143	8113.23
554.507	8105.55
554.87	8101.48
555.234	8208.37
555.597	8115.04
555.96	8120.46
556.323	8153.46
556.686	8049.51
557.05	8148.94
557.413	8179.9
557.776	8137.64
558.139	8214.7
558.502	8157.98
558.865	8098.77
559.228	8107.36
559.59	8196.39
559.953	8190.52
560.316	8240.46
560.679	8269.39
561.041	8289.05
561.404	8246.79
561.767	8276.62
562.129	8257.86
562.492	8321.59
562.854	8292.21
563.217	8325.66
563.579	8319.56
563.941	8348.48
564.304	8343.74
564.666	8395.49
565.028	8404.98
565.39	8412.43
565.753	8379.67
566.115	8440
566.477	8496.95
566.839	8415.82
567.201	8520.45
567.563	8499.44
567.925	8539.21
568.287	8568.81
568.648	8626.21
569.01	8560.9
569.372	8640
569.734	8637.74
570.095	8666.21
570.457	8649.26
570.819	8645.65
571.18	8681.58
571.542	8696.27
571.903	8720.22
572.265	8760.22
572.626	8770.62
572.987	8815.36
573.349	8809.49
573.71	8860.11
574.071	8919.09
574.432	8837.06
574.794	8928.8
575.155	8906.66
575.516	8879.77
575.877	8991.63
576.238	9034.11
576.599	8948.92
576.96	8999.76
577.32	9006.77
577.681	9049.25
578.042	9030.95
578.403	9049.25
578.763	9050.16
579.124	9104.17
579.485	9124.05
579.845	9167.44
580.206	9118.18
580.566	9185.3
580.927	9192.98
581.287	9191.4
581.648	9224.84
582.008	9348.45
582.368	9340.55
582.728	9280.89
583.089	9361.11
583.449	9291.96
583.809	9293.09
584.169	9367.66
584.529	9324.73
584.889	9424.61
585.249	9336.7
585.609	9396.59
585.969	9453.08
586.329	9422.8
586.688	9448.57
587.048	9423.71
587.408	9514.33
587.768	9473.65
588.127	9414.22
588.487	9428
588.846	9533.31
589.206	9422.8
589.565	9511.16
589.925	9576.47
590.284	9538.96
590.643	9543.93
591.003	9574.21
591.362	9630.93
591.721	9586.41
592.08	9616.92
592.44	9583.93
592.799	9690.37
593.158	9655.34
593.517	9653.76
593.876	9707.99
594.235	9684.72
594.593	9649.69
594.952	9734.66
595.311	9658.96
595.67	9666.64
596.029	9758.61
596.387	9812.4
596.746	9752.29
597.104	9726.98
597.463	9747.31
597.822	9837.93
598.18	9731.5
598.538	9767.43
598.897	9800.65
599.255	9765.62
599.613	9867.54
599.972	9756.58
600.33	9842.23
600.688	9806.97
601.046	9783.47
601.404	9897.14
601.762	9863.02
602.12	9917.71
602.478	9939.4
602.836	9938.5
603.194	9803.36
603.552	9845.16
603.91	9799.74
604.268	9934.2
604.625	9825.28
604.983	9886.52
605.341	9874.77
605.698	9964.48
606.056	9912.73
606.413	9883.58
606.771	9976.23
607.128	9952.28
607.485	9874.54
607.843	9912.06
608.2	9981.66
608.557	10042.9
608.914	9972.17
609.272	10012.39
609.629	9992.28
609.986	10019.4
610.343	9942.79
610.7	10107.98
611.057	10087.19
611.414	10011.49
611.771	10104.82
612.127	10046.74
612.484	10086.29
612.841	10133.29
613.198	10081.54
613.554	10096.23
613.911	10140.07
614.267	10110.02
614.624	10117.47
614.98	10159.73
615.337	10195.21
615.693	10170.81
616.05	10149.11
616.406	10182.78
616.762	10145.04
617.118	10176.68
617.475	10200.64
617.831	10121.32
618.187	10190.69
618.543	10197.02
618.899	10239.96
619.255	10196.57
619.611	10193.86
619.967	10254.65
620.323	10239.73
620.678	10259.39
621.034	10291.48
621.39	10244.48
621.746	10241.31
622.101	10307.75
622.457	10230.92
622.812	10282.22
623.168	10228.43
623.523	10320.86
623.879	10296.23
624.234	10288.54
624.589	10266.62
624.945	10254.42
625.3	10320.18
625.655	10206.29
626.01	10223.23
626.365	10302.78
626.72	10270.46
627.075	10206.96
627.43	10207.42
627.785	10213.97
628.14	10197.7
628.495	10190.24
628.85	10136.68
629.205	10216.68
629.559	10285.61
629.914	10221.43
630.269	10222.78
630.623	10151.15
630.978	10120.86
631.332	10149.56
631.687	10161.77
632.041	10123.35
632.396	10152.73
632.75	10087.42
633.104	10130.58
633.459	10024.14
633.813	10071.83
634.167	10125.84
634.521	10051.49
634.875	10056.01
635.229	10083.12
635.583	9963.35
635.937	10027.31
636.291	10048.32
636.645	9990.47
636.999	9977.82
637.352	10025.27
637.706	9947.31
638.06	9984.37
638.413	9931.94
638.767	9895.78
639.121	9938.5
639.474	9793.19
639.828	9824.37
640.181	9807.43
640.534	9850.14
640.888	9845.84
641.241	9842.45
641.594	9825.73
641.947	9867.76
642.301	9808.56
642.654	9773.98
643.007	9731.72
643.36	9794.77
643.713	9782.34
644.066	9813.75
644.419	9737.37
644.771	9628.67
645.124	9663.7
645.477	9545.96
645.83	9586.19
646.182	9463.71
646.535	9465.29
646.888	9470.03
647.24	9388.91
647.593	9426.42
647.945	9472.52
648.298	9422.8
648.65	9393.2
649.002	9370.15
649.355	9422.8
649.707	9397.27
650.059	9468
650.411	9546.42
650.763	9544.83
651.115	9681.55
651.467	9647.66
651.819	9605.17
652.171	9624.83
652.523	9560.2
652.875	9565.62
653.227	9637.71
653.578	9604.04
653.93	9619.63
654.282	9598.39
654.633	9632.52
654.985	9607.88
655.337	9608.56
655.688	9602.01
656.039	9662.8
656.391	9509.81
656.742	9578.51
657.094	9571.05
657.445	9593.19
657.796	9610.59
658.147	9555.45
658.498	9570.37
658.849	9611.5
659.2	9635.68
659.551	9618.73
659.902	9560.88
660.253	9566.3
660.604	9610.59
660.955	9531.5
661.306	9594.1
661.656	9667.09
662.007	9605.85
662.358	9627.54
662.708	9594.55
663.059	9635.45
663.409	9531.5
663.76	9605.62
664.11	9616.92
664.461	9682.23
664.811	9564.72
665.161	9547.77
665.511	9624.83
665.862	9589.8
666.212	9615.11
666.562	9646.53
666.912	9574.44
667.262	9599.52
667.612	9626.64
667.962	9590.71
668.312	9581.89
668.662	9609.46
669.011	9569.92
669.361	9589.58
669.711	9544.61
670.06	9567.88
670.41	9612.4
670.76	9503.93
671.109	9578.51
671.459	9588.45
671.808	9529.47
672.157	9559.07
672.507	9521.11
672.856	9505.06
673.205	9484.27
673.554	9528.34
673.904	9467.1
674.253	9585.51
674.602	9571.05
674.951	9378.74
675.3	9365.4
675.649	9439.98
675.998	9491.05
676.346	9386.19
676.695	9430.49
677.044	9392.97
677.393	9403.14
677.741	9400.88
678.09	9367.89
678.438	9382.13
678.787	9385.97
679.135	9422.8
679.484	9297.83
679.832	9332.41
680.181	9275.91
680.529	9327.89
680.877	9308.68
681.225	9290.83
681.573	9386.19
681.922	9246.54
682.27	9180.78
682.618	9220.1
682.966	9152.08
683.314	9228.01
683.661	9125.18
684.009	9118.63
684.357	9119.53
684.705	9129.93
685.053	9142.81
685.4	9098.07
685.748	9005.41
686.095	8971.06
686.443	8996.15
686.79	8962.02
687.138	8937.62
687.485	8995.02
687.832	8905.75
688.18	8913.21
688.527	8847.22
688.874	8846.55
689.221	8832.08
689.568	8755.02
689.915	8807
690.262	8760
690.609	8728.13
690.956	8677.29
691.303	8698.75
691.65	8689.26
691.997	8654.46
692.344	8568.36
692.69	8603.62
693.037	8624.41
693.383	8508.7
693.73	8588.47
694.077	8484.3
694.423	8491.75
694.769	8433
695.116	8441.81
695.462	8371.31
695.808	8362.49
696.155	8396.39
696.501	8292.44
696.847	8343.74
697.193	8253.12
697.539	8242.95
697.885	8222.61
698.231	8190.52
698.577	8164.53
698.923	8167.92
699.269	8058.32
699.614	8050.41
699.96	7998.43
700.306	7956.85
700.651	7970.41
700.997	7921.83
701.342	7928.38
701.688	7907.81
702.033	7838.44
702.379	7892.45
702.724	7847.25
703.069	7861.94
703.415	7764.99
703.76	7744.43
704.105	7723.64
704.45	7733.13
704.795	7752.79
705.14	7645.9
705.485	7565.22
705.83	7582.63
706.175	7627.37
706.52	7568.39
706.865	7512.57
707.209	7574.94
707.554	7467.15
707.899	7548.73
708.243	7448.17
708.588	7389.64
708.932	7392.57
709.277	7393.25
709.621	7381.95
709.966	7319.58
710.31	7346.02
710.654	7278.68
710.998	7238
711.342	7263.09
711.687	7230.32
712.031	7242.3
712.375	7204.33
712.719	7209.08
713.063	7141.96
713.407	7146.48
713.75	7162.07
714.094	7186.48
714.438	7134.95
714.782	7170.66
715.125	7087.5
715.469	7067.61
715.812	7091.34
716.156	7031.23
716.499	7041.17
716.843	7042.53
717.186	6994.39
717.53	6995.52
717.873	7047.05
718.216	7030.32
718.559	6992.81
718.902	6897.9
719.246	6952.81
719.589	6920.04
719.932	6865.58
720.275	6884.56
720.617	6860.16
720.96	6903.1
721.303	6852.93
721.646	6935.86
721.989	6867.16
722.331	6865.58
722.674	6796.88
723.016	6871.46
723.359	6846.37
723.701	6841.4
724.044	6827.84
724.386	6748.07
724.729	6788.07
725.071	6815.87
725.413	6737.68
725.755	6773.16
726.097	6730.44
726.439	6769.31
726.782	6707.62
727.124	6785.58
727.465	6706.26
727.807	6747.17
728.149	6669.66
728.491	6741.29
728.833	6716.43
729.175	6709.88
729.516	6758.69
729.858	6692.93
730.199	6718.92
730.541	6685.02
730.882	6706.26
731.224	6714.85
731.565	6715.76
731.906	6654.29
732.248	6735.42
732.589	6650.67
732.93	6579.04
733.271	6596.66
733.612	6724.57
733.953	6649.99
734.294	6728.18
734.635	6701.07
734.976	6633.5
735.317	6668.75
735.658	6659.71
735.999	6627.17
736.339	6637.34
736.68	6660.84
737.021	6681.86
737.361	6677.56
737.702	6642.31
738.042	6639.15
738.383	6658.81
738.723	6686.6
739.063	6666.72
739.404	6705.59
739.744	6648.86
740.084	6691.12
740.424	6721.63
740.764	6745.36
741.104	6739.26
741.444	6710.56
741.784	6723.21
742.124	6761.63
742.464	6784
742.804	6784.45
743.143	6767.28
743.483	6807.73
743.823	6819.71
744.162	6809.31
744.502	6839.82
744.841	6834.4
745.181	6901.29
745.52	6929.54
745.86	6920.04
746.199	6897.67
746.538	7022.87
746.877	7030.78
747.216	7038.91
747.556	7087.95
747.895	7052.47
748.234	7122.52
748.573	7140.6
748.911	7204.78
749.25	7216.76
749.589	7269.87
749.928	7285.68
750.267	7338.56
750.605	7369.75
750.944	7515.73
751.283	7596.86
751.621	7630.76
751.96	7651.1
752.298	7701.04
752.636	7842.51
752.975	7861.04
753.313	7936.97
753.651	8000.47
753.989	8088.83
754.327	8207.92
754.666	8185.55
755.004	8296.51
755.342	8394.58
755.679	8558.65
756.017	8575.14
756.355	8735.36
756.693	8817.85
757.031	8923.38
757.368	9044.96
757.706	9129.25
758.044	9187.33
758.381	9273.65
758.719	9435.68
759.056	9614.66
759.394	9724.04
759.731	9827.54
760.068	9846.97
760.405	9986.63
760.743	10110.24
761.08	10250.13
761.417	10389.11
761.754	10490.12
762.091	10590.46
762.428	10663.67
762.765	10799.04
763.102	10934.4
763.438	11104.34
763.775	11126.26
764.112	11307.73
764.449	11476.31
764.785	11550.66
765.122	11631.56
765.458	11730.99
765.795	11765.79
766.131	11925.79
766.467	12000.14
766.804	12180.92
767.14	12227.7
767.476	12231.32
767.812	12373.69
768.148	12531.2
768.485	12555.38
768.821	12678.99
769.157	12816.39
769.492	12923.73
769.828	12995.36
770.164	12968.7
770.5	13062.93
770.836	13179.99
771.171	13177.73
771.507	13275.36
771.842	13299.31
772.178	13396.03
772.513	13475.35
772.849	13522.36
773.184	13580.43
773.519	13667.21
773.855	13754.21
774.19	13724.38
774.525	13754.89
774.86	13818.39
775.195	13878.51
775.53	13836.02
775.865	13811.39
776.2	13883.93
776.535	13852.97
776.87	13941.1
777.205	13938.39
777.539	13936.58
777.874	14091.15
778.209	14015
778.543	13982.01
778.878	13985.39
779.212	14121.44
779.547	13975
779.881	14114.88
780.215	14140.19
780.55	14200.53
780.884	14135.22
781.218	14126.41
781.552	14132.96
781.886	14087.54
782.22	14120.98
782.554	14097.03
782.888	13967.99
783.222	14069.69
783.556	13966.86
783.889	13982.01
784.223	13940.2
784.557	13971.61
784.89	14043.25
785.224	13882.35
785.557	13939.52
785.891	13873.08
786.224	13801.45
786.558	13939.97
786.891	13852.74
787.224	13822.01
787.557	13767.77
787.891	13843.93
788.224	13775.23
788.557	13786.3
788.89	13800.32
789.223	13723.93
789.556	13682.13
789.888	13669.7
790.221	13708.11
790.554	13606.87
790.887	13619.75
791.219	13559.19
791.552	13543.6
791.884	13501.11
792.217	13508.35
792.549	13508.12
792.882	13405.07
793.214	13361.46
793.546	13400.1
793.879	13349.48
794.211	13401.46
794.543	13389.03
794.875	13283.94
795.207	13307.22
795.539	13318.52
795.871	13303.38
796.203	13207.34
796.535	13156.72
796.867	13131.41
797.198	13101.35
797.53	13130.28
797.862	13022.93
798.193	13019.32
798.525	13022.03
798.856	12948.59
799.188	12913.11
799.519	12847.57
799.85	12788.82
800.182	12855.26
800.513	12770.51
800.844	12665.66
801.175	12767.35
801.506	12717.86
801.837	12649.61
802.168	12688.71
802.499	12595.83
802.83	12525.09
803.161	12483.06
803.491	12575.71
803.822	12527.81
804.153	12474.7
804.483	12382.95
804.814	12347.25
805.145	12326.68
805.475	12344.99
805.805	12295.72
806.136	12312.9
806.466	12342.05
806.796	12297.3
807.126	12214.37
807.457	12145.9
807.787	12205.78
808.117	12084.2
808.447	12076.97
808.777	12130.3
809.107	12081.94
809.436	11927.14
809.766	12032
810.096	11998.78
810.426	11923.53
810.755	11893.47
811.085	11958.33
811.414	11886.69
811.744	11855.06
812.073	11873.59
812.403	11820.25
812.732	11773.48
813.061	11868.84
813.39	11697.77
813.719	11742.52
814.049	11707.71
814.378	11658.68
814.707	11652.8
815.036	11575.74
815.365	11561.5
815.693	11492.58
816.022	11562.86
816.351	11522.63
816.68	11434.73
817.008	11452.35
817.337	11368.97
817.665	11379.36
817.994	11411.23
818.322	11435.63
818.651	11327.61
818.979	11244.22
819.307	11382.75
819.636	11316.09
819.964	11176.66
820.292	11286.93
820.62	11266.37
820.948	11248.97
821.276	11265.24
821.604	11216.88
821.932	11304.56
822.259	11222.08
822.587	11251
822.915	11196.99
823.243	11251.23
823.57	11264.11
823.898	11192.25
824.225	11159.93
824.553	11244.68
824.88	11165.36
825.207	11214.39
825.535	11178.01
825.862	11261.62
826.189	11243.09
826.516	11294.39
826.843	11286.93
827.17	11262.98
827.497	11314.28
827.824	11205.81
828.151	11321.51
828.478	11252.36
828.805	11298.23
829.131	11216.2
829.458	11230.44
829.785	11148.18
830.111	11175.98
830.438	11271.12
830.764	11219.82
831.09	11244
831.417	11164.68
831.743	11261.85
832.069	11255.75
832.395	11152.7
832.722	11144.57
833.048	11187.28
833.374	11146.37
833.7	11117
834.026	11127.17
834.351	11098.24
834.677	11095.08
835.003	11128.29
835.329	11128.75
835.654	11111.35
835.98	11037
836.306	11049.43
836.631	11013.04
836.956	11103.21
837.282	11107.73
837.607	10979.37
837.932	10960.62
838.258	11056.43
838.583	10945.25
838.908	10901.18
839.233	10947.73
839.558	10880.62
839.883	10862.09
840.208	10835.42
840.533	10825.7
840.858	10897.11
841.182	10798.13
841.507	10826.83
841.832	10777.12
842.156	10683.11
842.481	10745.48
842.805	10689.21
843.13	10723.11
843.454	10674.07
843.778	10624.35
844.103	10588.2
844.427	10653.51
844.751	10617.57
845.075	10508.2
845.399	10524.92
845.723	10420.52
846.047	10491.48
846.371	10379.39
846.695	10376.9
847.019	10300.75
847.343	10252.84
847.666	10263.23
847.99	10238.83
848.313	10168.77
848.637	10146.63
848.96	10086.97
849.284	10086.97
849.607	10016.23
849.931	9978.95
850.254	9898.04
850.577	9863.47
850.9	9847.42
851.223	9754.32
851.546	9780.53
851.869	9670.93
852.192	9778.95
852.515	9692.4
852.838	9672.29
853.161	9654.21
853.483	9596.81
853.806	9540.09
854.129	9562.01
854.451	9431.84
854.774	9465.06
855.096	9456.25
855.419	9354.56
855.741	9394.78
856.063	9323.37
856.385	9308.46
856.708	9303.26
857.03	9258.74
857.352	9190.94
857.674	9195.01
857.996	9160.21
858.318	9091.96
858.64	9133.32
858.961	9108.46
859.283	9082.7
859.605	9032.76
859.926	9044.51
860.248	9059.42
860.57	9002.7
860.891	9039.76
861.212	8962.25
861.534	8912.08
861.855	8834.8
862.176	8884.96
862.498	8928.8
862.819	8880.67
863.14	8860.11
863.461	8844.74
863.782	8810.62
864.103	8740.34
864.424	8776.94
864.745	8766.32
865.065	8699.21
865.386	8713.67
865.707	8681.35
866.027	8739.21
866.348	8675.48
866.668	8726.55
866.989	8634.35
867.309	8543.5
867.63	8618.08
867.95	8637.96
868.27	8558.19
868.59	8539.44
868.91	8551.64
869.23	8569.94
869.55	8512.09
869.87	8584.18
870.19	8487.69
870.51	8449.27
870.83	8498.08
871.15	8447.01
871.469	8455.6
871.789	8454.69
872.109	8415.82
872.428	8398.65
872.748	8477.74
873.067	8345.54
873.386	8452.21
873.706	8342.15
874.025	8326.79
874.344	8269.84
874.663	8299.67
874.982	8267.58
875.301	8303.51
875.62	8256.28
875.939	8305.09
876.258	8255.83
876.577	8238.43
876.896	8178.54
877.214	8190.75
877.533	8205.66
877.852	8255.6
878.17	8193.46
878.489	8211.99
878.807	8190.75
879.125	8126.57
879.444	8154.14
879.762	8088.15
880.08	8136.74
880.398	8096.96
880.716	8061.03
881.034	8043.63
881.352	8046.34
881.67	8007.25
881.988	8047.92
882.306	7960.47
882.624	8018.09
882.941	7871.66
883.259	7943.29
883.577	7959.11
883.894	7894.26
884.212	7902.84
884.529	7889.51
884.846	7870.98
885.164	7857.65
885.481	7777.65
885.798	7840.7
886.115	7759.57
886.432	7732
886.75	7673.7
887.067	7711.89
887.383	7663.98
887.7	7696.75
888.017	7676.41
888.334	7672.34
888.651	7663.75
888.967	7636.41
889.284	7583.3
889.6	7528.62
889.917	7521.38
890.233	7499.24
890.55	7466.02
890.866	7477.09
891.182	7440.71
891.498	7445
891.815	7404.55
892.131	7375.85
892.447	7371.11
892.763	7356.87
893.079	7327.04
893.395	7257.44
893.71	7301.05
894.026	7232.35
894.342	7202.52
894.657	7225.35
894.973	7155.07
895.289	7182.64
895.604	7164.33
895.92	7047.95
896.235	7087.05
896.55	7045.46
896.865	7012.7
897.181	7055.41
897.496	6974.73
897.811	6970.89
898.126	6958.46
898.441	6903.32
898.756	6928.18
899.071	6863.55
899.386	6856.77
899.7	6835.53
900.015	6762.08
900.33	6706.26
900.644	6682.31
900.959	6747.85
901.273	6675.98
901.588	6655.19
901.902	6694.29
902.216	6612.93
902.531	6584.91
902.845	6625.59
903.159	6555.31
903.473	6506.27
903.787	6510.79
904.101	6428.53
904.415	6449.1
904.729	6451.36
905.042	6387.18
905.356	6393.73
905.67	6391.24
905.984	6336.33
906.297	6347.18
906.611	6314.18
906.924	6346.05
907.237	6290.23
907.551	6245.03
907.864	6219.05
908.177	6206.62
908.491	6229.21
908.804	6153.51
909.117	6085.26
909.43	6101.53
909.743	6024.47
910.056	6065.38
910.368	6022.21
910.681	6000.07
910.994	5924.82
911.307	5876
911.619	5910.81
911.932	5892.27
912.244	5823.12
912.557	5898.38
912.869	5839.85
913.181	5810.24
913.494	5834.42
913.806	5735.44
914.118	5751.94
914.43	5663.35
914.742	5705.84
915.054	5641.21
915.366	5671.94
915.678	5604.15
915.99	5608.44
916.302	5536.13
916.613	5508.1
916.925	5501.1
917.236	5499.06
917.548	5450.03
917.859	5446.41
918.171	5433.98
918.482	5416.81
918.794	5428.78
919.105	5398.05
919.416	5333.65
919.727	5360.99
920.038	5334.55
920.349	5351.72
920.66	5245.74
920.971	5285.06
921.282	5216.59
921.593	5159.64
921.903	5189.69
922.214	5165.74
922.525	5181.11
922.835	5105.4
923.146	5081.9
923.456	5068.34
923.767	5000.55
924.077	5034.22
924.387	4994.22
924.697	5048.23
925.008	4970.49
925.318	4938.63
925.628	4940.66
925.938	4941.34
926.248	4825.86
926.558	4854.79
926.867	4864.96
927.177	4861.57
927.487	4834.9
927.796	4751.06
928.106	4742.7
928.416	4787.22
928.725	4722.36
929.034	4742.02
929.344	4752.87
929.653	4713.1
929.962	4615.92
930.271	4684.62
930.581	4655.02
930.89	4632.19
931.199	4600.33
931.508	4613.66
931.817	4567.34
932.125	4565.08
932.434	4539.77
932.743	4485.76
933.051	4485.31
933.36	4480.56
933.669	4455.25
933.977	4455.25
934.286	4403.27
934.594	4440.34
934.902	4381.58
935.21	4349.26
935.519	4345.2
935.827	4336.61
936.135	4318.76
936.443	4308.14
936.751	4291.19
937.059	4292.99
937.367	4239.89
937.674	4197.63
937.982	4218.19
938.29	4200.12
938.597	4163.96
938.905	4130.29
939.213	4089.84
939.52	4108.82
939.827	4135.03
940.135	4108.59
940.442	4071.76
940.749	4061.36
941.056	4051.19
941.363	3966.22
941.67	3994.7
941.977	3980.01
942.284	3917.19
942.591	3974.58
942.898	3887.36
943.205	3934.13
943.511	3881.03
943.818	3864.53
944.125	3865.89
944.431	3831.99
944.738	3816.4
945.044	3832.89
945.35	3819.56
945.657	3753.12
945.963	3770.52
946.269	3743.4
946.575	3758.09
946.881	3701.6
947.187	3668.38
947.493	3708.6
947.799	3668.38
948.105	3624.76
948.41	3648.27
948.716	3664.54
949.022	3617.98
949.327	3632.9
949.633	3568.04
949.938	3544.77
950.244	3554.03
950.549	3539.79
950.854	3494.82
951.16	3520.81
951.465	3528.95
951.77	3482.17
952.075	3446.24
952.38	3457.76
952.685	3478.55
952.99	3422.28
953.294	3401.72
953.599	3373.92
953.904	3361.49
954.209	3362.62
954.513	3340.93
954.818	3336.41
955.122	3339.57
955.426	3308.84
955.731	3265.22
956.035	3259.8
956.339	3258.22
956.643	3234.49
956.948	3234.27
957.252	3232.46
957.556	3202.63
957.86	3186.81
958.163	3174.38
958.467	3134.15
958.771	3159.01
959.075	3146.58
959.378	3151.78
959.682	3122.86
959.985	3139.13
960.289	3083.31
960.592	3052.12
960.896	3075.17
961.199	3048.28
961.502	3030.88
961.805	3079.92
962.108	3049.19
962.411	2994.27
962.714	3004.21
963.017	3004.89
963.32	2967.83
963.623	2949.98
963.926	2939.36
964.228	2957.66
964.531	2905.46
964.833	2904.33
965.136	2916.99
965.438	2903.43
965.741	2846.93
966.043	2838.57
966.345	2829.08
966.648	2829.76
966.95	2823.43
967.252	2800.38
967.554	2821.62
967.856	2763.77
968.158	2789.31
968.46	2771.45
968.761	2761.74
969.063	2772.13
969.365	2744.33
969.666	2776.65
969.968	2675.18
970.269	2723.77
970.571	2712.47
970.872	2659.82
971.174	2686.48
971.475	2685.58
971.776	2651.91
972.077	2598.8
972.378	2643.77
972.679	2613.72
972.98	2621.85
973.281	2579.14
973.582	2591.12
973.883	2535.98
974.183	2554.28
974.484	2550.67
974.785	2515.19
975.085	2502.76
975.386	2520.16
975.686	2482.42
975.986	2454.85
976.287	2470.67
976.587	2479.48
976.887	2457.34
977.187	2435.87
977.487	2419.6
977.787	2409.43
978.087	2425.7
978.387	2416.66
978.687	2414.63
978.987	2400.84
979.286	2341.63
979.586	2354.06
979.885	2401.07
980.185	2312.03
980.484	2361.29
980.784	2328.3
981.083	2350.67
981.382	2295.31
981.682	2266.83
981.981	2291.01
982.28	2267.06
982.579	2255.99
982.878	2248.53
983.177	2265.25
983.475	2222.77
983.774	2228.87
984.073	2222.31
984.372	2182.77
984.67	2169.89
984.969	2201.52
985.267	2161.75
985.566	2170.56
985.864	2162.88
986.162	2148.42
986.461	2176.21
986.759	2102.09
987.057	2114.97
987.355	2089.66
987.653	2125.59
987.951	2087.4
988.249	2101.41
988.547	2062.09
988.844	2039.72
989.142	2052.6
989.44	2053.05
989.737	2046.27
990.035	2021.19
990.332	1999.5
990.63	2042.21
990.927	1987.74
991.224	1976.9
991.521	1967.18
991.819	1977.35
992.116	1972.38
992.413	1941.64
992.71	1919.95
993.006	1936.22
993.303	1920.85
993.6	1891.7
993.897	1926.28
994.193	1918.37
994.49	1879.5
994.787	1881.76
995.083	1870.69
995.379	1856.22
995.676	1870.46
995.972	1865.49
996.268	1841.31
996.565	1838.6
996.861	1843.57
997.157	1840.63
997.453	1805.83
997.749	1783.68
998.044	1804.02
998.34	1774.64
998.636	1742.1
998.932	1761.31
999.227	1752.95
999.523	1776
999.818	1722.21
1000.114	1701.65
1000.409	1700.97
1000.704	1736.9
1001	1700.07
1001.295	1689.45
1001.59	1693.97
1001.885	1666.85
1002.18	1710.92
1002.475	1662.78
1002.77	1683.35
1003.065	1613.97
1003.359	1617.13
1003.654	1623.91
1003.949	1626.62
1004.243	1616.68
1004.538	1577.13
1004.832	1590.69
1005.127	1601.09
1005.421	1555.21
1005.715	1556.34
1006.009	1581.65
1006.304	1561.99
1006.598	1538.94
1006.892	1535.1
1007.186	1536.68
1007.48	1490.58
1007.773	1491.94
1008.067	1483.12
1008.361	1493.75
1008.655	1456.23
1008.948	1480.87
1009.242	1477.02
1009.535	1468.44
1009.829	1445.61
1010.122	1430.92
1010.415	1422.11
1010.708	1434.31
1011.001	1413.75
1011.295	1401.09
1011.588	1390.7
1011.881	1378.95
1012.173	1386.4
1012.466	1383.24
1012.759	1338.04
1013.052	1348.21
1013.344	1340.3
1013.637	1353.86
1013.93	1340.3
1014.222	1320.64
1014.514	1330.13
1014.807	1317.25
1015.099	1297.82
1015.391	1323.58
1015.683	1286.07
1015.976	1288.78
1016.268	1261.21
1016.56	1276.12
1016.851	1269.57
1017.143	1251.27
1017.435	1250.81
1017.727	1250.59
1018.018	1241.1
1018.31	1224.6
1018.602	1220.76
1018.893	1218.05
1019.185	1213.08
1019.476	1196.35
1019.767	1187.54
1020.058	1199.29
1020.35	1195.45
1020.641	1193.64
1020.932	1155.22
1021.223	1147.31
1021.514	1129.91
1021.804	1163.36
1022.095	1123.36
1022.386	1135.56
1022.677	1104.38
1022.967	1127.88
1023.258	1115
1023.548	1122
1023.839	1108.9
1024.129	1081.78
1024.419	1091.5
1024.709	1068.22
1025	1076.36
1025.29	1064.15
1025.58	1056.24
1025.87	1048.33
1026.16	1053.08
1026.449	1059.41
1026.739	1004.49
1027.029	1036.36
1027.319	1030.48
1027.608	1020.09
1027.898	1010.37
1028.187	995.91
1028.477	993.19
1028.766	1022.8
1029.055	977.15
1029.344	959.75
1029.634	981.22
1029.923	960.65
1030.212	965.17
1030.501	968.11
1030.79	957.71
1031.078	952.07
1031.367	920.88
1031.656	930.6
1031.945	907.55
1032.233	930.82
1032.522	909.35
1032.81	921.33
1033.099	912.29
1033.387	905.51
1033.675	897.38
1033.963	868.23
1034.251	890.82
1034.54	893.54
1034.828	887.21
1035.116	852.86
1035.403	861.45
1035.691	858.06
1035.979	854.89
1036.267	850.15
1036.554	845.4
1036.842	816.93
1037.129	830.71
1037.417	825.06
1037.704	821.22
1037.992	796.14
1038.279	817.15
1038.566	785.74
1038.853	785.74
1039.14	785.74
