Data from hue_24_FLMS001491_00049.txt Node
Date: Tue Feb 07 17:12:20 GMT 2017
User: dcchb
Spectrometer: FLMS00149
Trigger mode: 0
Integration Time (sec): 2.000000E-2
Scans to average: 10
Electric dark correction enabled: true
Nonlinearity correction enabled: false
Boxcar width: 0
XAxis mode: Wavelengths
Number of Pixels in Spectrum: 2048
>>>>>Begin Spectral Data<<<<<
341.393	-4.79
341.776	-4.79
342.16	-4.79
342.543	-69.65
342.927	-55.86
343.31	-71.23
343.693	-61.96
344.077	-75.75
344.46	-61.06
344.843	-47.95
345.226	-47.72
345.61	-40.72
345.993	-19.48
346.376	12.84
346.759	-0.95
347.142	20.52
347.525	36.57
347.908	73.18
348.291	72.95
348.674	103.46
349.057	107.3
349.44	101.88
349.823	135.55
350.206	152.95
350.588	181.42
350.971	232.27
351.354	218.48
351.737	241.53
352.119	230.69
352.502	265.49
352.884	263.91
353.267	285.83
353.65	292.15
354.032	289.44
354.414	296.67
354.797	309.78
355.179	339.61
355.562	323.56
355.944	338.93
356.326	322.44
356.709	342.32
357.091	334.19
357.473	347.52
357.855	341.87
358.238	354.52
358.62	337.8
359.002	354.07
359.384	332.83
359.766	354.07
360.148	334.19
360.53	355.65
360.912	315.66
361.294	338.48
361.676	325.15
362.057	327.41
362.439	317.69
362.821	317.01
363.203	328.31
363.584	312.49
363.966	323.11
364.348	312.72
364.729	329.21
365.111	305.49
365.493	313.62
365.874	324.02
366.256	337.35
366.637	322.44
367.019	314.98
367.4	322.89
367.781	314.3
368.163	323.34
368.544	324.69
368.925	309.55
369.306	320.18
369.688	332.15
370.069	333.96
370.45	303
370.831	321.98
371.212	304.36
371.593	306.62
371.974	316.33
372.355	318.59
372.736	320.85
373.117	319.72
373.498	303.9
373.879	319.27
374.26	300.97
374.641	337.58
375.021	305.49
375.402	310.68
375.783	336.9
376.163	320.63
376.544	325.37
376.925	356.78
377.305	324.02
377.686	310.23
378.066	328.99
378.447	297.12
378.827	327.41
379.208	308.2
379.588	331.25
379.968	344.58
380.349	337.12
380.729	340.29
381.109	336.22
381.489	337.12
381.87	353.39
382.25	351.13
382.63	343.9
383.01	334.86
383.39	360.17
383.77	341.19
384.15	325.82
384.53	343.45
384.91	335.32
385.29	340.51
385.67	333.06
386.049	359.72
386.429	368.76
386.809	363.79
387.189	368.54
387.568	365.82
387.948	370.57
388.328	344.13
388.707	369.44
389.087	358.14
389.466	367.41
389.846	368.54
390.225	383
390.605	367.18
390.984	350.46
391.363	355.43
391.743	366.73
392.122	350.91
392.501	379.38
392.881	387.97
393.26	365.82
393.639	388.2
394.018	382.09
394.397	391.13
394.776	394.52
395.155	381.64
395.534	380.06
395.913	394.98
396.292	401.53
396.671	397.91
397.05	425.48
397.429	390
397.808	404.47
398.186	393.39
398.565	395.2
398.944	409.44
399.323	397.91
399.701	391.13
400.08	414.64
400.458	423.22
400.837	414.18
401.215	395.65
401.594	399.27
401.972	420.74
402.351	384.35
402.729	405.14
403.107	433.17
403.486	411.02
403.864	415.31
404.242	426.39
404.62	435.43
404.999	437.91
405.377	421.19
405.755	425.26
406.133	415.77
406.511	415.99
406.889	420.29
407.267	449.89
407.645	426.39
408.023	425.03
408.401	449.21
408.779	467.06
409.156	442.21
409.534	446.27
409.912	453.05
410.29	470.91
410.667	482.88
411.045	450.79
411.422	446.05
411.8	456.67
412.178	460.96
412.555	488.31
412.933	463.9
413.31	478.36
413.687	490.79
414.065	484.92
414.442	480.17
414.819	488.53
415.197	513.62
415.574	498.93
415.951	505.48
416.328	518.81
416.705	496.67
417.082	508.19
417.46	519.49
417.837	531.02
418.214	500.96
418.591	525.14
418.967	500.51
419.344	512.71
419.721	531.24
420.098	528.98
420.475	535.99
420.852	554.07
421.228	543.9
421.605	553.62
421.982	529.66
422.358	555.42
422.735	555.2
423.111	557.91
423.488	556.78
423.864	553.16
424.241	582.09
424.617	573.05
424.994	561.52
425.37	567.4
425.746	560.85
426.123	569.21
426.499	602.65
426.875	558.14
427.251	610.11
427.627	583.67
428.003	592.94
428.379	622.99
428.756	602.43
429.132	623.22
429.507	630.22
429.883	613.05
430.259	618.47
430.635	637.68
431.011	633.16
431.387	636.78
431.763	644.23
432.138	658.47
432.514	664.8
432.89	670.45
433.265	671.13
433.641	695.98
434.016	674.06
434.392	706.61
434.767	677.23
435.143	692.59
435.518	698.24
435.894	692.14
436.269	722.42
436.644	695.08
437.02	735.76
437.395	749.99
437.77	735.08
438.145	719.49
438.52	746.6
438.895	755.64
439.271	767.85
439.646	741.18
440.021	765.59
440.395	770.33
440.77	791.58
441.145	797.45
441.52	799.26
441.895	799.26
442.27	803.33
442.645	794.51
443.019	793.61
443.394	792.48
443.769	832.03
444.143	789.77
444.518	801.97
444.892	825.02
445.267	809.88
445.641	824.57
446.016	839.26
446.39	850.33
446.764	860.5
447.139	869.54
447.513	855.3
447.887	869.77
448.262	873.38
448.636	872.7
449.01	889.88
449.384	872.7
449.758	880.61
450.132	918.13
450.506	910.44
450.88	889.43
451.254	885.36
451.628	898.24
452.002	919.03
452.376	931.01
452.75	933.04
453.123	936.88
453.497	953.15
453.871	973.72
454.244	997.45
454.618	1006.48
454.992	998.8
455.365	991.34
455.739	1019.82
456.112	1020.5
456.486	1044.9
456.859	1034.51
457.232	1081.06
457.606	1071.12
457.979	1061.62
458.352	1077.9
458.725	1089.65
459.099	1100.95
459.472	1085.58
459.845	1116.99
460.218	1140.72
460.591	1141.4
460.964	1145.01
461.337	1184.11
461.71	1172.13
462.083	1211.9
462.456	1199.7
462.829	1191.11
463.201	1218
463.574	1244.22
463.947	1251.45
464.32	1267.04
464.692	1286.7
465.065	1292.58
465.438	1297.78
465.81	1319.02
466.183	1338
466.555	1361.5
466.928	1366.93
467.3	1382.75
467.672	1396.31
468.045	1441.73
468.417	1434.27
468.789	1418.23
469.161	1486.7
469.534	1483.53
469.906	1496.64
470.278	1504.32
470.65	1513.14
471.022	1566.7
471.394	1591.33
471.766	1580.03
472.138	1629.29
472.51	1668.16
472.882	1698.22
473.253	1676.98
473.625	1748.84
473.997	1755.39
474.369	1789.74
474.74	1794.94
475.112	1837.42
475.484	1898.44
475.855	1929.62
476.227	1912.68
476.598	1984.76
476.97	2003.07
477.341	2051.43
477.713	2095.95
478.084	2096.63
478.455	2164.65
478.827	2176.17
479.198	2236.06
479.569	2248.49
479.94	2298.43
480.311	2370.52
480.682	2372.55
481.053	2453.23
481.424	2501.13
481.795	2525.09
482.166	2567.57
482.537	2616.84
482.908	2683.95
483.279	2683.73
483.65	2732.54
484.021	2812.31
484.391	2856.38
484.762	2865.19
485.133	2907.45
485.503	2954.68
485.874	3053.66
486.244	3089.37
486.615	3164.62
486.985	3200.78
487.356	3255.47
487.726	3302.47
488.097	3374.78
488.467	3361.23
488.837	3488.23
489.207	3485.52
489.578	3560.77
489.948	3622.46
490.318	3631.73
490.688	3682.35
491.058	3739.97
491.428	3771.38
491.798	3865.39
492.168	3939.06
492.538	3935.45
492.908	3984.49
493.278	4052.73
493.648	4096.12
494.017	4087.31
494.387	4161.66
494.757	4221.32
495.126	4294.08
495.496	4312.61
495.866	4345.83
496.235	4357.58
496.605	4431.71
496.974	4450.69
497.344	4484.13
497.713	4552.61
498.082	4559.61
498.452	4622.21
498.821	4649.55
499.19	4637.8
499.559	4727.29
499.928	4744.92
500.298	4767.74
500.667	4803.22
501.036	4821.98
501.405	4840.51
501.774	4859.04
502.143	4930.45
502.512	4962.31
502.88	4991.24
503.249	5012.26
503.618	5014.29
503.987	5030.33
504.356	5109.43
504.724	5092.71
505.093	5143.1
505.462	5165.25
505.83	5163.66
506.199	5257.9
506.567	5321.85
506.936	5311.91
507.304	5374.96
507.672	5371.57
508.041	5418.35
508.409	5467.84
508.777	5492.47
509.145	5508.97
509.514	5483.43
509.882	5517.55
510.25	5589.19
510.618	5595.29
510.986	5635.97
511.354	5619.02
511.722	5739.24
512.09	5738.56
512.458	5694.05
512.826	5760.71
513.193	5729.07
513.561	5821.73
513.929	5860.37
514.297	5865.79
514.664	5965
515.032	5971.1
515.4	5972.91
515.767	5969.29
516.135	6029.63
516.502	5993.92
516.869	6062.62
517.237	6083.87
517.604	6054.04
517.972	6119.12
518.339	6186.01
518.706	6182.39
519.073	6172.68
519.44	6224.65
519.808	6273.69
520.175	6279.79
520.542	6305.55
520.909	6366.34
521.276	6348.94
521.643	6446.79
522.009	6435.95
522.376	6454.93
522.743	6490.41
523.11	6548.26
523.477	6571.76
523.843	6611.76
524.21	6658.77
524.577	6744.64
524.943	6741.48
525.31	6706.9
525.676	6798.2
526.043	6884.07
526.409	6871.42
526.776	6957.74
527.142	7015.37
527.508	6955.71
527.874	7054.91
528.241	7067.12
528.607	7057.17
528.973	7137.62
529.339	7099.21
529.705	7187.57
530.071	7313.44
530.437	7255.36
530.803	7384.17
531.169	7478.63
531.535	7373.32
531.901	7403.15
532.267	7413.1
532.632	7469.14
532.998	7510.95
533.364	7574.45
533.73	7545.07
534.095	7669.36
534.461	7712.52
534.826	7737.38
535.192	7785.97
535.557	7887.21
535.923	7848.11
536.288	7848.34
536.653	7919.75
537.019	7921.78
537.384	7949.81
537.749	7961.33
538.114	7939.41
538.479	7981.22
538.845	8054.21
539.21	8055.79
539.575	8053.76
539.94	8095.34
540.305	8149.12
540.67	8170.36
541.034	8190.93
541.399	8319.06
541.764	8244.94
542.129	8340.98
542.494	8304.37
542.858	8402.9
543.223	8300.98
543.587	8481.99
543.952	8474.99
544.316	8473.18
544.681	8453.75
545.045	8560.41
545.41	8561.54
545.774	8624.14
546.138	8669.79
546.503	8615.78
546.867	8712.04
547.231	8780.74
547.595	8774.87
547.959	8787.3
548.324	8785.72
548.688	8864.13
549.052	8892.38
549.416	8940.06
549.779	8987.52
550.143	8921.53
550.507	9046.05
550.871	9040.17
551.235	9038.36
551.599	9105.48
551.962	9138.7
552.326	9148.87
552.689	9153.62
553.053	9201.75
553.417	9183.9
553.78	9306.15
554.143	9304.8
554.507	9317.45
554.87	9389.09
555.234	9395.87
555.597	9331.01
555.96	9409.43
556.323	9505.47
556.686	9489.88
557.05	9553.6
557.413	9611.91
557.776	9622.08
558.139	9702.3
558.502	9732.58
558.865	9723.09
559.228	9824.78
559.59	9728.97
559.953	9792.02
560.316	9904.78
560.679	9920.6
561.041	9945.01
561.404	10002.41
561.767	10034.5
562.129	10009.86
562.492	10130.31
562.854	10087.83
563.217	10123.99
563.579	10201.05
563.941	10268.84
564.304	10223.87
564.666	10280.37
565.028	10315.84
565.39	10388.39
565.753	10373.92
566.115	10371.89
566.477	10486.69
566.839	10557.87
567.201	10559
567.563	10533.69
567.925	10654.14
568.287	10679.68
568.648	10617.31
569.01	10772.1
569.372	10800.35
569.734	10753.8
570.095	10916.73
570.457	10932.78
570.819	10998.76
571.18	10968.26
571.542	11016.17
571.903	11064.07
572.265	11188.14
572.626	11229.94
572.987	11290.28
573.349	11223.39
573.71	11354.01
574.071	11349.04
574.432	11429.71
574.794	11594.91
575.155	11500.9
575.516	11610.73
575.877	11658.18
576.238	11716.03
576.599	11853.43
576.96	11912.64
577.32	11902.7
577.681	12045.06
578.042	12104.72
578.403	12154.89
578.763	12321.67
579.124	12384.04
579.485	12538.84
579.845	12667.2
580.206	12791.94
580.566	12812.5
580.927	13029.67
581.287	13176.79
581.648	13179.27
582.008	13509.43
582.368	13538.13
582.728	13676.21
583.089	13886.82
583.449	13980.61
583.809	14106.48
584.169	14396.64
584.529	14485.23
584.889	14746.46
585.249	14880.24
585.609	14932.22
585.969	15378.31
586.329	15447.46
586.688	15668.47
587.048	15904.85
587.408	16096.26
587.768	16262.13
588.127	16512.07
588.487	16705.06
588.846	17160.86
589.206	17210.35
589.565	17519.05
589.925	17881.07
590.284	18079.48
590.643	18220.04
591.003	18657.32
591.362	18957.43
591.721	19225.44
592.08	19474.02
592.44	19796.05
592.799	20074.23
593.158	20365.3
593.517	20639.64
593.876	21048.67
594.235	21149.91
594.593	21617.69
594.952	21963.45
595.311	22007.06
595.67	22484.34
596.029	22794.39
596.387	23086.58
596.746	23348.04
597.104	23678.66
597.463	23920.91
597.822	24363.61
598.18	24470.5
598.538	24812.64
598.897	25295.56
599.255	25355.68
599.613	26102.32
599.972	26130.57
600.33	26448.98
600.688	26677
601.046	27085.12
601.404	27415.28
601.762	27713.81
602.12	28086.68
602.478	28405.31
602.836	28547.68
603.194	28676.72
603.552	29060.44
603.91	29164.84
604.268	29693.64
604.625	29791.94
604.983	30254.08
605.341	30311.7
605.698	30755.53
606.056	31114.39
606.413	31218.8
606.771	31665.79
607.128	31912.79
607.485	31951.66
607.843	32148.72
608.2	32633
608.557	32939.66
608.914	32955.25
609.272	33414.9
609.629	33658.96
609.986	34006.52
610.343	34183.47
610.7	34401.09
611.057	34611.93
611.414	34726.73
611.771	34937.34
612.127	35264.79
612.484	35372.59
612.841	35614.16
613.198	35666.36
613.554	36034.49
613.911	36381.83
614.267	36462.95
614.624	36574.59
614.98	36767.8
615.337	37038.08
615.693	37112.65
616.05	37293.89
616.406	37715.35
616.762	37653.2
617.118	37744.73
617.475	37977.26
617.831	38283.02
618.187	38301.78
618.543	38490.02
618.899	38861.31
619.255	38924.81
619.611	38930.91
619.967	39205.71
620.323	39445.02
620.678	39396.89
621.034	39344.91
621.39	39508.98
621.746	39570.89
622.101	40163.42
622.457	39845.01
622.812	40011.79
623.168	40392.12
623.523	40471.21
623.879	40634.6
624.234	40393.92
624.589	40664.88
624.945	40766.8
625.3	40840.92
625.655	40800.69
626.01	41043.4
626.365	40986.45
626.72	41028.94
627.075	41124.3
627.43	41046.11
627.785	41170.17
628.14	41389.83
628.495	41437.29
628.85	41378.08
629.205	41329.04
629.559	41647.9
629.914	41343.28
630.269	41519.32
630.623	41526.1
630.978	41571.97
631.332	41751.18
631.687	41802.93
632.041	41857.16
632.396	41866.88
632.75	41678.41
633.104	41903.26
633.459	41751.63
633.813	41759.54
634.167	41905.52
634.521	41888.35
634.875	41906.43
635.229	41992.3
635.583	41777.84
635.937	41907.1
636.291	41851.96
636.645	41990.04
636.999	41830.72
637.352	41989.59
637.706	41869.37
638.06	42071.39
638.413	41988.01
638.767	41827.33
639.121	41888.8
639.474	41692.42
639.828	41818.29
640.181	41857.61
640.534	41820.78
640.888	41682.7
641.241	41651.07
641.594	41614.68
641.947	41778.07
642.301	41786.88
642.654	41796.6
643.007	41826.43
643.36	41931.96
643.713	41856.03
644.066	42051.28
644.419	41558.64
644.771	41497.85
645.124	41165.88
645.477	41111.42
645.83	40910.97
646.182	40751.43
646.535	40569.96
646.888	40656.74
647.24	40578.55
647.593	40805.89
647.945	40688.38
648.298	40492.68
648.65	40518.89
649.002	40390.53
649.355	40525.22
649.707	40549.63
650.059	40776.29
650.411	41141.02
650.763	41246.56
651.115	41506.44
651.467	41408.59
651.819	41472.31
652.171	41271.87
652.523	41457.85
652.875	41331.98
653.227	41174.92
653.578	41434.35
653.93	41358.19
654.282	41338.76
654.633	41158.2
654.985	41133.34
655.337	41278.65
655.688	41220.34
656.039	41562.03
656.391	41011.53
656.742	41205.88
657.094	41237.52
657.445	41394.8
657.796	41284.75
658.147	41138.76
658.498	41142.6
658.849	41258.53
659.2	41250.17
659.551	41169.95
659.902	41296.27
660.253	41203.17
660.604	41121.14
660.955	41036.62
661.306	41179.21
661.656	41064.41
662.007	41178.54
662.358	41041.82
662.708	41129.72
663.059	41042.72
663.409	40878.43
663.76	41267.12
664.11	41225.77
664.461	41293.11
664.811	41177.41
665.161	41120.46
665.511	40903.74
665.862	41076.39
666.212	41078.88
666.562	41059.44
666.912	40965.21
667.262	41026.68
667.612	41037.52
667.962	41174.24
668.312	40898.54
668.662	41127.46
669.011	40984.87
669.361	41042.49
669.711	40921.59
670.06	40944.64
670.41	40747.36
670.76	40827.36
671.109	40750.52
671.459	40830.3
671.808	40663.07
672.157	40857.64
672.507	40583.3
672.856	40768.38
673.205	40839.56
673.554	40997.75
673.904	40825.32
674.253	40897.87
674.602	40777.87
674.951	40350.99
675.3	40092.91
675.649	40709.85
675.998	40735.16
676.346	40619.68
676.695	40710.98
677.044	40457.2
677.393	40515.5
677.741	40612.9
678.09	40440.7
678.438	40374.94
678.787	40513.24
679.135	40589.62
679.484	40197.32
679.832	40417.65
680.181	40182.86
680.529	40341.27
680.877	40140.6
681.225	40133.82
681.573	40348.5
681.922	40005.01
682.27	39914.39
682.618	39991.22
682.966	39848.18
683.314	39913.48
683.661	39882.98
684.009	39584.91
684.357	39668.07
684.705	39548.07
685.053	39632.36
685.4	39583.78
685.748	39383.78
686.095	39440.95
686.443	39416.77
686.79	39208.42
687.138	39351.92
687.485	39305.59
687.832	39177.91
688.18	39186.27
688.527	38902.66
688.874	39076.44
689.221	38807.75
689.568	38807.75
689.915	38648.43
690.262	38838.26
690.609	38649.11
690.956	38530.24
691.303	38525.95
691.65	38259.74
691.997	38233.75
692.344	38074.66
692.69	38076.02
693.037	38044.16
693.383	37677.16
693.73	37829.92
694.077	37666.76
694.423	37591.06
694.769	37630.38
695.116	37519.2
695.462	37503.15
695.808	37312.87
696.155	37383.38
696.501	37067.46
696.847	37085.54
697.193	36891.87
697.539	37062.26
697.885	36647.58
698.231	36664.08
698.577	36667.02
698.923	36580.46
699.269	36497.98
699.614	36324.2
699.96	36262.51
700.306	36205.56
700.651	36106.13
700.997	35896.87
701.342	35849.86
701.688	35949.97
702.033	35785.68
702.379	35627.04
702.724	35571.45
703.069	35775.74
703.415	35310.22
703.76	35326.49
704.105	35286.49
704.45	35348.41
704.795	35067.51
705.14	35011.01
705.485	34904.58
705.83	34858.02
706.175	34767.41
706.52	34787.29
706.865	34608.31
707.209	34620.52
707.554	34601.08
707.899	34598.6
708.243	34405.38
708.588	34348.21
708.932	34114.99
709.277	34035.67
709.621	34167.42
709.966	33845.17
710.31	33913.64
710.654	33541.9
710.998	33666.19
711.342	33676.59
711.687	33642.46
712.031	33453.99
712.375	33423.03
712.719	33478.85
713.063	33385.97
713.407	33451.73
713.75	33244.06
714.094	33273.21
714.438	33064.4
714.782	33150.95
715.125	33043.38
715.469	32954.57
715.812	32881.13
716.156	32612.89
716.499	32709.83
716.843	32783.95
717.186	32564.3
717.53	32703.96
717.873	32669.16
718.216	32594.58
718.559	32489.72
718.902	32150.07
719.246	32339.45
719.589	32242.27
719.932	32133.58
720.275	32095.61
720.617	32073.69
720.96	32003.18
721.303	32004.54
721.646	32105.78
721.989	31805.45
722.331	31948.72
722.674	31755.51
723.016	31759.35
723.359	31651.78
723.701	31661.95
724.044	31465.8
724.386	31311
724.729	31590.54
725.071	31494.5
725.413	31358
725.755	31244.56
726.097	31238.23
726.439	31059.48
726.782	31078.91
727.124	31186.03
727.465	31040.05
727.807	31054.96
728.149	30987.84
728.491	30875.53
728.833	30894.96
729.175	30813.84
729.516	30767.96
729.858	30629.66
730.199	30710.79
730.541	30600.06
730.882	30509.21
731.224	30659.72
731.565	30510.79
731.906	30504.24
732.248	30429.21
732.589	30401.42
732.93	30247.52
733.271	30304.7
733.612	30160.29
733.953	30308.77
734.294	30226.06
734.635	30071.48
734.976	30190.58
735.317	30030.13
735.658	29968.89
735.999	29933.86
736.339	29993.52
736.68	29960.98
737.021	30029.22
737.361	29800.98
737.702	29954.65
738.042	29802.56
738.383	29714.43
738.723	29756.69
739.063	29644.38
739.404	29702.91
739.744	29664.49
740.084	29535.23
740.424	29504.94
740.764	29370.48
741.104	29541.78
741.444	29396.7
741.784	29260.88
742.124	29380.88
742.464	29379.98
742.804	29117.84
743.143	29059.31
743.483	29135.24
743.823	29100.89
744.162	29021.57
744.502	29097.72
744.841	29014.56
745.181	29011.4
745.52	28909.48
745.86	28924.39
746.199	28900.21
746.538	28838.3
746.877	28892.31
747.216	29008.23
747.556	28791.52
747.895	28828.8
748.234	28695.7
748.573	28658.19
748.911	28543.39
749.25	28669.49
749.589	28403.5
749.928	28514.24
750.267	28600.34
750.605	28495.03
750.944	28407.8
751.283	28323.73
751.621	28445.76
751.96	28194.24
752.298	28186.11
752.636	28173.68
752.975	28029.5
753.313	28036.28
753.651	28142.27
753.989	27832.45
754.327	27805.1
754.666	27758.55
755.004	27846.01
755.342	27891.65
755.679	27744.76
756.017	27519.91
756.355	27646.24
756.693	27532.57
757.031	27544.09
757.368	27374.15
757.706	27329.63
758.044	27196.53
758.381	27386.81
758.719	27330.54
759.056	27161.05
759.394	27088.96
759.731	27008.06
760.068	26963.99
760.405	26789.31
760.743	26842.64
761.08	26815.07
761.417	26691.91
761.754	26605.81
762.091	26611.91
762.428	26408.08
762.765	26306.61
763.102	26439.94
763.438	26341.41
763.775	26134.19
764.112	26257.8
764.449	26280.4
764.785	26049.22
765.122	25831.37
765.458	25797.92
765.795	25708.89
766.131	25659.62
766.467	25698.72
766.804	25472.51
767.14	25487.65
767.476	25452.17
767.812	25216.24
768.148	25247.88
768.485	25091.28
768.821	25015.8
769.157	24973.54
769.492	25035.68
769.828	24867.78
770.164	24760.66
770.5	24573.32
770.836	24593.21
771.171	24429.15
771.507	24508.47
771.842	24282.93
772.178	24212.43
772.513	24270.51
772.849	24141.7
773.184	23990.51
773.519	24009.04
773.855	23861.93
774.19	23813.34
774.525	23710.97
774.86	23570.86
775.195	23677.3
775.53	23524.76
775.865	23277.54
776.2	23246.35
776.535	23045.91
776.87	23150.31
777.205	23012.69
777.539	22894.04
777.874	22965.91
778.209	22809.75
778.543	22714.84
778.878	22620.83
779.212	22610.44
779.547	22387.62
779.881	22453.15
780.215	22360.05
780.55	22399.59
780.884	22232.14
781.218	22110.79
781.552	22138.36
781.886	22045.93
782.22	21835.09
782.554	21806.62
782.888	21655.66
783.222	21599.16
783.556	21544.25
783.889	21424.93
784.223	21260.42
784.557	21198.27
784.89	21304.93
785.224	21081.66
785.557	20950.59
785.891	20978.84
786.224	20925.06
786.558	20881.89
786.891	20759.41
787.224	20620.21
787.557	20538.4
787.891	20503.83
788.224	20593.54
788.557	20550.38
788.89	20483.71
789.223	20286.66
789.556	20164.63
789.888	20117.62
790.221	20075.36
790.554	19835.14
790.887	19845.31
791.219	19835.37
791.552	19825.43
791.884	19718.76
792.217	19702.04
792.549	19612.1
792.882	19483.06
793.214	19383.4
793.546	19391.54
793.879	19304.53
794.211	19148.38
794.543	19250.98
794.875	19098.44
795.207	19193.58
795.539	19007.59
795.871	19043.07
796.203	18970.31
796.535	18734.61
796.867	18780.03
797.198	18784.77
797.53	18770.54
797.862	18590.88
798.193	18643.99
798.525	18453.48
798.856	18458.23
799.188	18349.98
799.519	18169.2
799.85	18139.37
800.182	18109.76
800.513	18121.29
800.844	17945.93
801.175	18070.22
801.506	17998.35
801.837	17935.53
802.168	17868.64
802.499	17779.15
802.83	17808.75
803.161	17599.04
803.491	17701.87
803.822	17682.88
804.153	17574.86
804.483	17484.24
804.814	17389.33
805.145	17359.95
805.475	17410.57
805.805	17191.37
806.136	17300.29
806.466	17240.63
806.796	17178.04
807.126	17066.18
807.457	17014.65
807.787	17079.96
808.117	17023.46
808.447	16829.8
808.777	16891.04
809.107	16759.97
809.436	16654.66
809.766	16823.24
810.096	16715.45
810.426	16524.72
810.755	16643.36
811.085	16541.9
811.414	16559.97
811.744	16362.47
812.073	16315.01
812.403	16298.29
812.732	16203.6
813.061	16194.56
813.39	16179.65
813.719	16025.98
814.049	16111.17
814.378	16168.8
814.707	15995.7
815.036	16059.87
815.365	15990.95
815.693	15731.3
816.022	15806.32
816.351	15715.93
816.68	15623.5
817.008	15823.5
817.337	15554.35
817.665	15597.29
817.994	15584.41
818.322	15603.39
818.651	15533.79
818.979	15546.22
819.307	15528.36
819.636	15385.09
819.964	15276.84
820.292	15568.36
820.62	15431.42
820.948	15339.89
821.276	15371.76
821.604	15401.36
821.932	15317.75
822.259	15358.65
822.587	15314.81
822.915	15263.51
823.243	15310.97
823.57	15276.39
823.898	15192.33
824.225	15249.05
824.553	15231.65
824.88	15227.35
825.207	15293.79
825.535	15218.99
825.862	15246.56
826.189	15187.35
826.516	15304.64
826.843	15332.66
827.17	15328.14
827.497	15319.33
827.824	15235.72
828.151	15280.91
828.478	15216.51
828.805	15265.54
829.131	15157.3
829.458	15166.79
829.785	15083.85
830.111	15135.6
830.438	15259.22
830.764	15235.04
831.09	15301.25
831.417	15099
831.743	15097.19
832.069	15200.01
832.395	15116.17
832.722	15157.75
833.048	15100.58
833.374	15082.05
833.7	15003.86
834.026	15053.57
834.351	15041.82
834.677	15082.5
835.003	15007.92
835.329	14993.46
835.654	14964.99
835.98	14960.69
836.306	14978.55
836.631	14911.43
836.956	14961.6
837.282	14980.13
837.607	14884.09
837.932	14858.78
838.258	14815.39
838.583	14862.39
838.908	14689.51
839.233	14748.72
839.558	14716.18
839.883	14688.61
840.208	14576.52
840.533	14670.76
840.858	14558.22
841.182	14538.11
841.507	14510.99
841.832	14430.99
842.156	14437.77
842.481	14426.47
842.805	14438.22
843.13	14400.03
843.454	14369.07
843.778	14303.31
844.103	14283.65
844.427	14137.44
844.751	14235.52
845.075	14240.94
845.399	14128.4
845.723	14026.48
846.047	14102.19
846.371	13978.35
846.695	13950.33
847.019	13811.8
847.343	13789.2
847.666	13713.04
847.99	13687.28
848.313	13681.18
848.637	13548.53
848.96	13534.97
849.284	13597.57
849.607	13398.25
849.931	13391.02
850.254	13293.62
850.577	13258.59
850.9	13220.85
851.223	13239.84
851.546	13045.04
851.869	12986.51
852.192	13097.01
852.515	12898.38
852.838	12857.02
853.161	12914.19
853.483	12790.36
853.806	12726.4
854.129	12720.08
854.451	12697.93
854.774	12643.02
855.096	12588.55
855.419	12527.31
855.741	12496.13
856.063	12452.74
856.385	12428.33
856.708	12381.1
857.03	12374.77
857.352	12377.03
857.674	12292.29
857.996	12277.15
858.318	12231.27
858.64	12203.48
858.961	12178.17
859.283	12169.81
859.605	12058.85
859.926	12141.56
860.248	11997.38
860.57	11945.18
860.891	12050.49
861.212	11882.58
861.534	11867.67
861.855	11861.34
862.176	11802.36
862.498	11897.05
862.819	11810.04
863.14	11724.4
863.461	11736.37
863.782	11658.86
864.103	11790.38
864.424	11649.37
864.745	11724.85
865.065	11610.27
865.386	11583.38
865.707	11635.36
866.027	11551.07
866.348	11517.62
866.668	11510.39
866.989	11437.17
867.309	11394.01
867.63	11480.79
867.95	11497.06
868.27	11341.81
868.59	11351.07
868.91	11335.25
869.23	11297.74
869.55	11279.89
869.87	11351.07
870.19	11274.24
870.51	11271.07
870.83	11313.56
871.15	11234.69
871.469	11212.32
871.789	11292.54
872.109	11227.23
872.428	11082.38
872.748	11176.84
873.067	11088.25
873.386	11145.88
873.706	11110.17
874.025	10988.37
874.344	11027.46
874.663	11008.93
874.982	10984.08
875.301	10978.65
875.62	10923.74
875.939	10982.49
876.258	10938.43
876.577	10858.43
876.896	10868.6
877.214	10855.49
877.533	10902.72
877.852	10844.64
878.17	10822.27
878.489	10839.22
878.807	10834.48
879.125	10793.8
879.444	10766.23
879.762	10735.27
880.08	10773.01
880.398	10671.32
880.716	10774.82
881.034	10639.9
881.352	10575.72
881.67	10596.52
881.988	10585.44
882.306	10542.73
882.624	10566.46
882.941	10507.7
883.259	10452.79
883.577	10466.58
883.894	10492.11
884.212	10395.16
884.529	10367.82
884.846	10387.71
885.164	10320.59
885.481	10332.79
885.798	10346.8
886.115	10279.24
886.432	10235.17
886.75	10208.95
887.067	10227.26
887.383	10151.33
887.7	10246.02
888.017	10164.66
888.334	10129.86
888.651	10070.2
888.967	10040.37
889.284	10035.17
889.6	10029.07
889.917	9963.31
890.233	9914.95
890.55	9911.79
890.866	9911.56
891.182	9849.19
891.498	9840.15
891.815	9779.81
892.131	9848.96
892.447	9731.23
892.763	9723.54
893.079	9677.9
893.395	9721.51
893.71	9625.24
894.026	9685.8
894.342	9570.78
894.657	9540.72
894.973	9479.03
895.289	9500.27
895.604	9532.59
895.92	9430.9
896.235	9382.31
896.55	9367.62
896.865	9338.92
897.181	9278.58
897.496	9413.5
897.811	9261.64
898.126	9185.25
898.441	9213.73
898.756	9139.6
899.071	9128.31
899.386	9081.07
899.7	8990
900.015	8978.7
900.33	8942.1
900.644	8913.62
900.959	8914.53
901.273	8889.67
901.588	8882.21
901.902	8879.72
902.216	8762.44
902.531	8775.09
902.845	8757.69
903.159	8675.21
903.473	8691.03
903.787	8606.74
904.101	8626.62
904.415	8635.21
904.729	8553.63
905.042	8461.66
905.356	8515.21
905.67	8452.84
905.984	8531.94
906.297	8438.15
906.611	8355.22
906.924	8319.06
907.237	8262.79
907.551	8266.18
907.864	8295.11
908.177	8274.77
908.491	8225.28
908.804	8153.19
909.117	8082.46
909.43	8086.75
909.743	8044.27
910.056	7990.93
910.368	7950.71
910.681	7946.64
910.994	7939.18
911.307	7920.2
911.619	7798.17
911.932	7877.49
912.244	7741.67
912.557	7739.64
912.869	7717.72
913.181	7681.11
913.494	7713.43
913.806	7632.07
914.118	7628.91
914.43	7482.92
914.742	7521.34
915.054	7486.31
915.366	7471.4
915.678	7386.2
915.99	7423.04
916.302	7313.21
916.613	7313.89
916.925	7296.49
917.236	7320.22
917.548	7221.24
917.859	7265.76
918.171	7151.41
918.482	7154.57
918.794	7098.53
919.105	7118.64
919.416	7072.31
919.727	7031.19
920.038	6967.23
920.349	6939.21
920.66	6934.01
920.971	6946.67
921.282	6906.67
921.593	6840.68
921.903	6859.44
922.214	6821.47
922.525	6730.4
922.835	6703.28
923.146	6701.93
923.456	6669.84
923.767	6694.24
924.077	6629.84
924.387	6559.56
924.697	6545.1
925.008	6562.04
925.318	6557.07
925.628	6526.11
925.938	6530.86
926.248	6440.69
926.558	6403.63
926.867	6354.82
927.177	6382.61
927.487	6287.93
927.796	6295.84
928.106	6280.24
928.416	6217.2
928.725	6255.39
929.034	6250.19
929.344	6156.41
929.653	6177.87
929.962	6110.08
930.271	6070.98
930.581	6098.55
930.89	6015.17
931.199	6009.52
931.508	5995.51
931.817	6042.06
932.125	5972.68
932.434	5897.43
932.743	5905.11
933.051	5840.26
933.36	5776.75
933.669	5801.39
933.977	5749.41
934.286	5785.34
934.594	5688.4
934.902	5722.29
935.21	5658.11
935.519	5668.51
935.827	5677.55
936.135	5608.85
936.443	5588.51
936.751	5507.38
937.059	5541.28
937.367	5493.15
937.674	5478.91
937.982	5490.66
938.29	5474.39
938.597	5444.33
938.905	5390.55
939.213	5363.66
939.52	5339.7
939.827	5319.82
940.135	5331.57
940.442	5311
940.749	5280.5
941.056	5259.71
941.363	5190.1
941.67	5195.53
941.977	5157.79
942.284	5099.71
942.591	5117.79
942.898	5094.29
943.205	5090.67
943.511	5103.1
943.818	5046.15
944.125	5035.08
944.431	5002.99
944.738	4919.83
945.044	4928.64
945.35	4928.64
945.657	4898.36
945.963	4862.43
946.269	4873.95
946.575	4870.79
946.881	4826.27
947.187	4806.61
947.493	4783.79
947.799	4756.67
948.105	4734.3
948.41	4692.94
948.716	4703.56
949.022	4647.75
949.327	4677.12
949.633	4633.96
949.938	4655.88
950.244	4624.47
950.549	4591.02
950.854	4529.78
951.16	4590.12
951.465	4557.13
951.77	4498.82
952.075	4420.63
952.38	4460.41
952.685	4431.03
952.99	4428.54
953.294	4387.41
953.599	4371.14
953.904	4317.36
954.209	4336.11
954.513	4339.5
954.818	4327.75
955.122	4319.17
955.426	4274.2
955.731	4293.63
956.035	4238.72
956.339	4204.37
956.643	4182.22
956.948	4182.45
957.252	4184.48
957.556	4178.6
957.86	4103.13
958.163	4127.08
958.467	4064.48
958.771	4086.4
959.075	4052.05
959.378	4064.71
959.682	4018.84
959.985	3975.9
960.289	3970.47
960.592	3953.07
960.896	3946.97
961.199	3963.47
961.502	3851.83
961.805	3896.8
962.108	3849.35
962.411	3847.09
962.714	3846.41
963.017	3869.23
963.32	3834.43
963.623	3784.26
963.926	3779.97
964.228	3757.82
964.531	3748.11
964.833	3747.88
965.136	3729.13
965.438	3716.24
965.741	3662.91
966.043	3651.39
966.345	3667.21
966.648	3667.21
966.95	3626.53
967.252	3621.11
967.554	3554.89
967.856	3557.83
968.158	3557.6
968.46	3559.41
968.761	3552.86
969.063	3532.07
969.365	3514.44
969.666	3497.94
969.968	3486.19
970.269	3445.29
970.571	3412.75
970.872	3391.05
971.174	3367.33
971.475	3404.39
971.776	3392.41
972.077	3362.13
972.378	3351.06
972.679	3338.85
972.98	3333.2
973.281	3293.88
973.582	3286.42
973.883	3291.4
974.183	3280.32
974.484	3255.69
974.785	3267.22
975.085	3253.88
975.386	3213.66
975.686	3184.51
975.986	3170.04
976.287	3178.18
976.587	3111.29
976.887	3168.01
977.187	3163.26
977.487	3125.3
977.787	3081.01
978.087	3080.1
978.387	3096.15
978.687	3071.52
978.987	3014.79
979.286	3034.91
979.586	3011.63
979.885	3031.29
980.185	2975.47
980.484	2964.4
980.784	2952.87
981.083	2946.55
981.382	2913.33
981.682	2949.48
981.981	2923.95
982.28	2888.7
982.579	2847.34
982.878	2855.02
983.177	2862.93
983.475	2844.18
983.774	2836.27
984.073	2800.11
984.372	2790.39
984.67	2804.63
984.969	2752.43
985.267	2766.21
985.566	2770.51
985.864	2717.17
986.162	2751.52
986.461	2723.05
986.759	2721.24
987.057	2680.11
987.355	2660.68
987.653	2663.62
987.951	2623.84
988.249	2650.28
988.547	2657.74
988.844	2650.28
989.142	2611.64
989.44	2577.52
989.737	2568.25
990.035	2545.2
990.332	2581.13
990.63	2566.44
990.927	2529.38
991.224	2522.6
991.521	2530.51
991.819	2545.43
992.116	2478.54
992.413	2516.28
992.71	2423.4
993.006	2466.56
993.303	2448.03
993.6	2457.52
993.897	2438.99
994.193	2422.49
994.49	2404.41
994.787	2386.11
995.083	2378.43
995.379	2386.34
995.676	2343.4
995.972	2346.56
996.268	2329.84
996.565	2374.81
996.861	2297.07
997.157	2307.02
997.453	2303.4
997.749	2289.16
998.044	2256.17
998.34	2259.79
998.636	2220.01
998.932	2220.46
999.227	2219.33
999.523	2198.77
999.818	2226.11
1000.114	2193.8
1000.409	2162.84
1000.704	2213.23
1001	2162.16
1001.295	2140.24
1001.59	2132.33
1001.885	2129.39
1002.18	2092.56
1002.475	2099.79
1002.77	2060.69
1003.065	2070.41
1003.359	2074.03
1003.654	2051.43
1003.949	2062.05
1004.243	2036.51
1004.538	2012.11
1004.832	2014.82
1005.127	2001.94
1005.421	2004.65
1005.715	1932.11
1006.009	1968.04
1006.304	1958.78
1006.598	1928.04
1006.892	1919.46
1007.186	1917.2
1007.48	1891.66
1007.773	1908.83
1008.067	1878.55
1008.361	1873.35
1008.655	1873.35
1008.948	1830.64
1009.242	1852.34
1009.535	1832
1009.829	1853.69
1010.122	1807.37
1010.415	1802.85
1010.708	1764.21
1011.001	1770.98
1011.295	1745.9
1011.588	1761.72
1011.881	1756.75
1012.173	1719.91
1012.466	1766.01
1012.759	1745
1013.052	1728.95
1013.344	1682.63
1013.637	1702.74
1013.93	1682.63
1014.222	1653.25
1014.514	1672.23
1014.807	1664.55
1015.099	1664.09
1015.391	1631.33
1015.683	1638.33
1015.976	1634.26
1016.268	1601.05
1016.56	1609.41
1016.851	1568.28
1017.143	1562.18
1017.435	1535.74
1017.727	1551.78
1018.018	1556.53
1018.31	1531.67
1018.602	1531.67
1018.893	1513.14
1019.185	1518.79
1019.476	1503.42
1019.767	1473.37
1020.058	1489.18
1020.35	1435.85
1020.641	1470.88
1020.932	1445.8
1021.223	1449.19
1021.514	1424.78
1021.804	1420.94
1022.095	1398.11
1022.386	1408.06
1022.677	1366.02
1022.967	1380.94
1023.258	1356.53
1023.548	1359.7
1023.839	1388.17
1024.129	1327.38
1024.419	1356.76
1024.709	1340.71
1025	1334.61
1025.29	1325.35
1025.58	1306.14
1025.87	1290.32
1026.16	1298.68
1026.449	1275.86
1026.739	1262.3
1027.029	1238.8
1027.319	1254.39
1027.608	1247.83
1027.898	1245.35
1028.187	1249.42
1028.477	1220.04
1028.766	1228.17
1029.055	1194.95
1029.344	1190.66
1029.634	1196.08
1029.923	1173.94
1030.212	1189.3
1030.501	1169.64
1030.79	1167.84
1031.078	1135.07
1031.367	1151.79
1031.656	1151.11
1031.945	1119.93
1032.233	1129.19
1032.522	1123.77
1032.81	1114.73
1033.099	1102.53
1033.387	1065.24
1033.675	1066.14
1033.963	1064.11
1034.251	1070.21
1034.54	1078.57
1034.828	1048.07
1035.116	1064.11
1035.403	1049.87
1035.691	1039.25
1035.979	1036.54
1036.267	1032.25
1036.554	999.93
1036.842	1007.84
1037.129	985.69
1037.417	990.89
1037.704	1009.65
1037.992	991.34
1038.279	966.26
1038.566	961.06
1038.853	961.06
1039.14	961.06
