Data from hue_250_FLMS001491_00048.txt Node
Date: Tue Feb 07 16:01:02 GMT 2017
User: dcchb
Spectrometer: FLMS00149
Trigger mode: 0
Integration Time (sec): 2.000000E-2
Scans to average: 10
Electric dark correction enabled: true
Nonlinearity correction enabled: false
Boxcar width: 0
XAxis mode: Wavelengths
Number of Pixels in Spectrum: 2048
>>>>>Begin Spectral Data<<<<<
341.393	4
341.776	4
342.16	4
342.543	-61.54
342.927	-76.45
343.31	-79.84
343.693	-71.71
344.077	-66.06
344.46	-72.16
344.843	-44.82
345.226	-42.33
345.61	-38.04
345.993	-21.09
346.376	-3.69
346.759	16.88
347.142	22.08
347.525	47.84
347.908	52.36
348.291	75.86
348.674	101.17
349.057	123.54
349.44	93.71
349.823	121.28
350.206	158.34
350.588	182.3
350.971	198.79
351.354	215.52
351.737	213.48
352.119	227.04
352.502	243.09
352.884	253.93
353.267	287.61
353.65	265.91
354.032	308.4
354.414	302.52
354.797	301.16
355.179	310.66
355.562	316.08
355.944	310.88
356.326	320.6
356.709	321.73
357.091	301.39
357.473	323.76
357.855	320.6
358.238	345.91
358.62	308.62
359.002	331.22
359.384	328.73
359.766	317.89
360.148	321.28
360.53	330.99
360.912	332.12
361.294	324.21
361.676	326.7
362.057	326.02
362.439	337.32
362.821	324.89
363.203	324.44
363.584	294.61
363.966	308.62
364.348	312.46
364.729	296.87
365.111	309.75
365.493	309.98
365.874	313.59
366.256	301.16
366.637	305.68
367.019	307.04
367.4	296.19
367.781	293.26
368.163	292.58
368.544	289.64
368.925	314.05
369.306	301.62
369.688	314.72
370.069	299.36
370.45	314.72
370.831	283.76
371.212	308.62
371.593	282.63
371.974	307.04
372.355	295.51
372.736	296.64
373.117	301.39
373.498	303.88
373.879	311.11
374.26	312.69
374.641	325.34
375.021	300.71
375.402	299.81
375.783	305.91
376.163	314.72
376.544	314.95
376.925	315.18
377.305	305.91
377.686	297.32
378.066	318.34
378.447	311.11
378.827	347.94
379.208	337.77
379.588	307.94
379.968	324.44
380.349	320.6
380.729	326.25
381.109	335.74
381.489	321.05
381.87	312.01
382.25	336.64
382.63	319.02
383.01	321.5
383.39	334.84
383.77	330.54
384.15	352.91
384.53	322.18
384.91	342.29
385.29	321.95
385.67	334.61
386.049	345.23
386.429	348.39
386.809	352.69
387.189	347.04
387.568	349.75
387.948	329.41
388.328	339.81
388.707	365.57
389.087	349.98
389.466	342.97
389.846	359.69
390.225	335.97
390.605	362.86
390.984	344.55
391.363	355.63
391.743	355.63
392.122	362.18
392.501	371.22
392.881	358.79
393.26	392.69
393.639	370.32
394.018	375.74
394.397	362.63
394.776	380.26
395.155	390.88
395.534	381.84
395.913	376.42
396.292	380.71
396.671	382.29
397.05	362.86
397.429	381.61
397.808	383.2
398.186	397.66
398.565	396.76
398.944	380.94
399.323	394.27
399.701	377.55
400.08	411.67
400.458	407.15
400.837	426.36
401.215	403.99
401.594	426.81
401.972	401.27
402.351	420.94
402.729	398.79
403.107	409.86
403.486	407.83
403.864	419.13
404.242	425.91
404.62	441.27
404.999	443.76
405.377	421.61
405.755	438.34
406.133	441.95
406.511	455.51
406.889	465.23
407.267	473.59
407.645	479.24
408.023	462.97
408.401	459.13
408.779	477.43
409.156	481.72
409.534	491.22
409.912	472.01
410.29	494.61
410.667	502.74
411.045	506.13
411.422	513.36
411.8	503.87
412.178	525.57
412.555	524.89
412.933	532.8
413.31	551.1
413.687	539.8
414.065	569.63
414.442	567.15
414.819	572.57
415.197	564.21
415.574	592
415.951	589.07
416.328	611.44
416.705	620.48
417.082	622.29
417.46	595.39
417.837	634.04
418.214	639.91
418.591	614.38
418.967	634.26
419.344	632.46
419.721	664.09
420.098	655.96
420.475	676.07
420.852	676.75
421.228	672.45
421.605	683.08
421.982	684.21
422.358	721.49
422.735	720.59
423.111	721.04
423.488	742.96
423.864	733.02
424.241	752.23
424.617	742.73
424.994	770.53
425.37	793.81
425.746	773.47
426.123	787.25
426.499	800.81
426.875	808.5
427.251	830.42
427.627	855.73
428.003	836.52
428.379	842.85
428.756	867.03
429.132	878.55
429.507	895.05
429.883	891.88
430.259	904.09
430.635	922.62
431.011	945.44
431.387	951.09
431.763	952.9
432.138	963.29
432.514	971.2
432.89	987.25
433.265	1033.12
433.641	1006.46
434.016	1029.96
434.392	1039
434.767	1077.19
435.143	1086.23
435.518	1061.37
435.894	1074.48
436.269	1095.49
436.644	1139.56
437.02	1142.05
437.395	1151.99
437.77	1170.75
438.145	1200.35
438.52	1216.85
438.895	1206.68
439.271	1241.25
439.646	1250.97
440.021	1289.39
440.395	1260.24
440.77	1259.78
441.145	1300.69
441.52	1292.32
441.895	1305.21
442.27	1343.4
442.645	1328.26
443.019	1353.79
443.394	1380.91
443.769	1358.76
444.143	1380.68
444.518	1421.13
444.892	1416.84
445.267	1413.45
445.641	1406.45
446.016	1420.91
446.39	1463.85
446.764	1470.85
447.139	1473.11
447.513	1466.78
447.887	1494.81
448.262	1483.73
448.636	1495.03
449.01	1534.13
449.384	1539.32
449.758	1547.91
450.132	1531.41
450.506	1545.43
450.88	1567.12
451.254	1561.24
451.628	1595.82
452.002	1585.2
452.376	1615.48
452.75	1642.82
453.123	1657.96
453.497	1650.28
453.871	1691.86
454.244	1681.24
454.618	1720.34
454.992	1747.91
455.365	1764.18
455.739	1776.83
456.112	1812.31
456.486	1787.23
456.859	1842.37
457.232	1870.16
457.606	1837.62
457.979	1871.52
458.352	1903.16
458.725	1951.74
459.099	1963.49
459.472	1986.77
459.845	2015.92
460.218	1999.88
460.591	1983.15
460.964	2037.39
461.337	2063.15
461.71	2068.12
462.083	2129.82
462.456	2139.31
462.829	2132.3
463.201	2171.17
463.574	2198.97
463.947	2194.67
464.32	2250.04
464.692	2241.68
465.065	2259.31
465.438	2309.93
465.81	2326.42
466.183	2344.95
466.555	2375.91
466.928	2409.58
467.3	2400.09
467.672	2473.54
468.045	2470.82
468.417	2481.45
468.789	2548.11
469.161	2556.02
469.534	2596.02
469.906	2643.02
470.278	2637.37
470.65	2664.94
471.022	2780.87
471.394	2769.8
471.766	2777.26
472.138	2819.74
472.51	2882.34
472.882	2924.82
473.253	2939.97
473.625	2947.87
473.997	3034.65
474.369	3043.69
474.74	3057.48
475.112	3123.92
475.484	3157.36
475.855	3213.86
476.227	3221.31
476.598	3315.55
476.97	3310.58
477.341	3396.22
477.713	3402.1
478.084	3466.5
478.455	3535.66
478.827	3550.34
479.198	3652.26
479.569	3624.69
479.94	3727.06
480.311	3772.94
480.682	3849.32
481.053	3909.21
481.424	3985.36
481.795	3987.62
482.166	4026.94
482.537	4104.45
482.908	4181.29
483.279	4253.15
483.65	4235.07
484.021	4335.63
484.391	4342.19
484.762	4375.41
485.133	4397.55
485.503	4459.93
485.874	4540.6
486.244	4636.64
486.615	4709.64
486.985	4695.85
487.356	4802.06
487.726	4779.92
488.097	4914.6
488.467	4931.78
488.837	4995.5
489.207	5050.19
489.578	5095.39
489.948	5138.78
490.318	5177.42
490.688	5199.11
491.058	5264.2
491.428	5349.62
491.798	5362.05
492.168	5462.61
492.538	5495.38
492.908	5523.17
493.278	5604.3
493.648	5633.45
494.017	5665.09
494.387	5696.05
494.757	5729.27
495.126	5822.38
495.496	5855.14
495.866	5838.65
496.235	5929.27
496.605	5949.15
496.974	5980.79
497.344	6051.75
497.713	6031.86
498.082	6062.14
498.452	6131.52
498.821	6144.17
499.19	6159.99
499.559	6200.44
499.928	6201.57
500.298	6274.57
500.667	6259.88
501.036	6287.9
501.405	6372.87
501.774	6330.84
502.143	6374
502.512	6404.73
502.88	6490.61
503.249	6407.9
503.618	6545.29
503.987	6505.07
504.356	6539.64
504.724	6590.04
505.093	6601.56
505.462	6599.53
505.83	6605.41
506.199	6687.66
506.567	6708.68
506.936	6688.34
507.304	6780.99
507.672	6731.73
508.041	6832.29
508.409	6831.61
508.777	6908.9
509.145	6905.96
509.514	6863.7
509.882	6933.98
510.25	6983.93
510.618	7009.69
510.986	7021.89
511.354	7018.05
511.722	7047.43
512.09	7099.86
512.458	7057.14
512.826	7063.25
513.193	7131.72
513.561	7159.29
513.929	7196.12
514.297	7221.21
514.664	7260.08
515.032	7323.35
515.4	7318.83
515.767	7369.23
516.135	7345.95
516.502	7322.22
516.869	7391.37
517.237	7363.8
517.604	7390.92
517.972	7394.76
518.339	7450.35
518.706	7510.24
519.073	7433.18
519.44	7456.68
519.808	7500.52
520.175	7504.14
520.542	7588.2
520.909	7592.05
521.276	7581.42
521.643	7645.38
522.009	7663.91
522.376	7630.01
522.743	7696.45
523.11	7734.64
523.477	7816.22
523.843	7733.74
524.21	7832.49
524.577	7850.8
524.943	7865.94
525.31	7890.12
525.676	7983.9
526.043	7947.97
526.409	8037.46
526.776	8003.33
527.142	8000.17
527.508	7997.91
527.874	8050.57
528.241	8056.67
528.607	8101.86
528.973	8202.88
529.339	8112.71
529.705	8151.35
530.071	8191.35
530.437	8173.05
530.803	8231.58
531.169	8218.7
531.535	8224.8
531.901	8255.31
532.267	8232.71
532.632	8240.84
532.998	8251.69
533.364	8243.55
533.73	8224.57
534.095	8327.17
534.461	8245.59
534.826	8329.65
535.192	8323.55
535.557	8353.83
535.923	8313.61
536.288	8292.59
536.653	8358.13
537.019	8279.49
537.384	8332.82
537.749	8273.84
538.114	8298.69
538.479	8256.21
538.845	8330.33
539.21	8319.48
539.575	8277.45
539.94	8359.71
540.305	8346.83
540.67	8312.71
541.034	8323.78
541.399	8307.51
541.764	8317.45
542.129	8367.17
542.494	8310.45
542.858	8321.74
543.223	8316.55
543.587	8356.55
543.952	8292.82
544.316	8305.02
544.681	8242.65
545.045	8371.91
545.41	8363.1
545.774	8366.04
546.138	8320.39
546.503	8340.73
546.867	8288.98
547.231	8352.25
547.595	8291.69
547.959	8311.58
548.324	8324.91
548.688	8360.84
549.052	8330.78
549.416	8312.93
549.779	8277.9
550.143	8291.69
550.507	8287.85
550.871	8335.3
551.235	8278.58
551.599	8424.57
551.962	8328.75
552.326	8383.21
552.689	8379.37
553.053	8272.25
553.417	8297.79
553.78	8424.11
554.143	8374.85
554.507	8377.34
554.87	8407.62
555.234	8460.05
555.597	8399.93
555.96	8424.57
556.323	8426.15
556.686	8469.31
557.05	8483.1
557.413	8416.66
557.776	8456.43
558.139	8498.01
558.502	8487.62
558.865	8420.95
559.228	8541.63
559.59	8515.64
559.953	8546.37
560.316	8663.43
560.679	8626.14
561.041	8642.87
561.404	8615.3
561.767	8701.17
562.129	8618.46
562.492	8747.72
562.854	8671.57
563.217	8650.78
563.579	8675.86
563.941	8733.03
564.304	8795.18
564.666	8895.74
565.028	8898.9
565.39	8879.24
565.753	8954.5
566.115	8943.88
566.477	8966.47
566.839	8935.51
567.201	9005.57
567.563	8973.7
567.925	9003.31
568.287	9030.88
568.648	9047.6
569.01	9143.87
569.372	9121.72
569.734	9105.23
570.095	9191.55
570.457	9208.27
570.819	9169.18
571.18	9238.33
571.542	9218.67
571.903	9217.77
572.265	9326.46
572.626	9296.18
572.987	9334.37
573.349	9368.27
573.71	9353.81
574.071	9381.15
574.432	9427.48
574.794	9548.6
575.155	9466.12
575.516	9446.91
575.877	9455.05
576.238	9493.92
576.599	9555.61
576.96	9550.41
577.32	9570.75
577.681	9638.77
578.042	9681.71
578.403	9613.01
578.763	9660.47
579.124	9656.85
579.485	9697.75
579.845	9755.83
580.206	9729.39
580.566	9725.55
580.927	9764.64
581.287	9762.61
581.648	9750.86
582.008	9832.21
582.368	9825.21
582.728	9824.76
583.089	9888.93
583.449	9832.44
583.809	9903.4
584.169	9847.13
584.529	9922.15
584.889	10015.49
585.249	9996.95
585.609	9910.18
585.969	9956.5
586.329	9943.85
586.688	10038.08
587.048	10044.86
587.408	10007.12
587.768	10025.88
588.127	10042.83
588.487	9980.46
588.846	10060.91
589.206	9986.79
589.565	10048.03
589.925	10104.3
590.284	10005.77
590.643	10090.29
591.003	10114.24
591.362	10126.67
591.721	10168.7
592.08	10094.81
592.44	10137.74
592.799	10152.43
593.158	10194.69
593.517	10151.75
593.876	10190.17
594.235	10202.82
594.593	10180.9
594.952	10229.94
595.311	10180.45
595.67	10212.09
596.029	10220.9
596.387	10315.59
596.746	10346.55
597.104	10284.86
597.463	10267
597.822	10271.3
598.18	10235.59
598.538	10257.51
598.897	10311.97
599.255	10204.63
599.613	10337.51
599.972	10357.62
600.33	10311.75
600.688	10260.45
601.046	10300.22
601.404	10337.28
601.762	10388.13
602.12	10396.94
602.478	10361.46
602.836	10416.38
603.194	10309.04
603.552	10376.15
603.91	10324.63
604.268	10370.73
604.625	10342.93
604.983	10347.45
605.341	10317.62
605.698	10386.32
606.056	10457.96
606.413	10372.99
606.771	10465.64
607.128	10513.78
607.485	10403.72
607.843	10411.86
608.2	10413.67
608.557	10517.39
608.914	10428.13
609.272	10524.62
609.629	10513.33
609.986	10600.78
610.343	10467.22
610.7	10632.64
611.057	10620.89
611.414	10568.47
611.771	10603.04
612.127	10638.52
612.484	10540.44
612.841	10637.16
613.198	10625.41
613.554	10563.27
613.911	10654.34
614.267	10684.62
614.624	10638.52
614.98	10685.07
615.337	10720.1
615.693	10693.89
616.05	10680.1
616.406	10714.9
616.762	10695.24
617.118	10698.18
617.475	10703.83
617.831	10739.99
618.187	10759.42
618.543	10806.42
618.899	10783.6
619.255	10786.09
619.611	10730.27
619.967	10771.62
620.323	10820.89
620.678	10814.79
621.034	10773.88
621.39	10753.32
621.746	10726.43
622.101	10860.66
622.457	10832.41
622.812	10855.24
623.168	10828.8
623.523	10876.71
623.879	10826.31
624.234	10755.13
624.589	10730.04
624.945	10806.42
625.3	10726.2
625.655	10777.5
626.01	10810.27
626.365	10805.07
626.72	10854.11
627.075	10780.66
627.43	10755.58
627.785	10696.37
628.14	10741.79
628.495	10785.63
628.85	10799.19
629.205	10686.88
629.559	10777.27
629.914	10737.73
630.269	10750.38
630.623	10705.18
630.978	10745.18
631.332	10695.24
631.687	10713.77
632.041	10627.45
632.396	10723.04
632.75	10643.27
633.104	10632.87
633.459	10628.35
633.813	10619.99
634.167	10617.73
634.521	10555.81
634.875	10653.89
635.229	10660.67
635.583	10554.23
635.937	10589.48
636.291	10496.15
636.645	10566.21
636.999	10418.86
637.352	10561.23
637.706	10467.45
638.06	10534.12
638.413	10452.31
638.767	10455.47
639.121	10470.61
639.474	10404.18
639.828	10311.3
640.181	10394.01
640.534	10407.34
640.888	10375.25
641.241	10330.73
641.594	10346.1
641.947	10424.29
642.301	10381.8
642.654	10307
643.007	10292.54
643.36	10303.61
643.713	10334.8
644.066	10317.85
644.419	10275.14
644.771	10292.77
645.124	10134.35
645.477	10102.04
645.83	10072.43
646.182	10030.4
646.535	9958.31
646.888	9943.85
647.24	9888.26
647.593	10005.09
647.945	9942.04
648.298	9885.77
648.65	9851.2
649.002	9875.38
649.355	9927.13
649.707	9881.48
650.059	9999.21
650.411	10077.63
650.763	10081.25
651.115	10131.19
651.467	10139.1
651.819	10096.39
652.171	10154.69
652.523	10130.74
652.875	10150.17
653.227	10091.87
653.578	10132.77
653.93	10044.41
654.282	10048.93
654.633	10030.63
654.985	10063.17
655.337	10096.61
655.688	10127.57
656.039	10102.04
656.391	10003.06
656.742	10062.26
657.094	10111.98
657.445	10104.52
657.796	10071.98
658.147	10084.18
658.498	10034.02
658.849	10052.09
659.2	10008.71
659.551	10014.36
659.902	10076.95
660.253	10044.19
660.604	10120.34
660.955	10043.51
661.306	10103.39
661.656	10012.77
662.007	10039.44
662.358	10099.55
662.708	10090.29
663.059	10051.87
663.409	10066.78
663.76	10139.78
664.11	10079.66
664.461	10098.42
664.811	10050.74
665.161	10057.74
665.511	10029.27
665.862	10069.95
666.212	10112.66
666.562	10085.09
666.912	10065.2
667.262	10041.47
667.612	10066.56
667.962	10031.98
668.312	10025.65
668.662	10108.59
669.011	10024.98
669.361	9978.42
669.711	10003.73
670.06	9985.43
670.41	10015.26
670.76	9972.77
671.109	9966.9
671.459	9957.41
671.808	10022.49
672.157	9977.97
672.507	9926
672.856	9946.56
673.205	9997.86
673.554	9930.29
673.904	9967.35
674.253	10018.87
674.602	9898.2
674.951	9819.56
675.3	9755.15
675.649	9885.09
675.998	9814.36
676.346	9895.26
676.695	9966.9
677.044	9840.35
677.393	9883.96
677.741	9886
678.09	9822.72
678.438	9813.68
678.787	9846.9
679.135	9850.52
679.484	9751.09
679.832	9816.39
680.181	9749.5
680.529	9836.05
680.877	9692.78
681.225	9749.96
681.573	9818.43
681.922	9697.08
682.27	9617.3
682.618	9600.58
682.966	9611.65
683.314	9707.7
683.661	9624.31
684.009	9549.51
684.357	9494.82
684.705	9507.7
685.053	9584.31
685.4	9532.79
685.748	9495.27
686.095	9518.55
686.443	9449.4
686.79	9373.47
687.138	9419.57
687.485	9432.68
687.832	9386.12
688.18	9413.02
688.527	9263.64
688.874	9337.09
689.221	9249.4
689.568	9249.18
689.915	9239.23
690.262	9213.25
690.609	9270.19
690.956	9151.78
691.303	9166.02
691.65	9105.9
691.997	9066.36
692.344	9045.12
692.69	9038.34
693.037	9003.99
693.383	9022.29
693.73	8940.49
694.077	8921.95
694.423	8859.13
694.769	8913.14
695.116	8916.31
695.462	8821.39
695.808	8777.78
696.155	8879.24
696.501	8736.65
696.847	8646.03
697.193	8594.51
697.539	8673.83
697.885	8651.45
698.231	8619.59
698.577	8540.04
698.923	8575.3
699.269	8565.81
699.614	8476.09
699.96	8416.21
700.306	8444.23
700.651	8434.51
700.997	8441.06
701.342	8362.42
701.688	8327.17
702.033	8291.69
702.379	8299.6
702.724	8342.99
703.069	8246.27
703.415	8171.24
703.76	8147.96
704.105	8150.9
704.45	8187.96
704.795	8075.2
705.14	8115.42
705.485	8056.67
705.83	8027.51
706.175	8034.52
706.52	7950.23
706.865	7956.78
707.209	7971.92
707.554	7927.4
707.899	7935.09
708.243	7871.36
708.588	7845.6
708.932	7781.42
709.277	7798.82
709.621	7844.02
709.966	7750.69
710.31	7759.27
710.654	7740.06
710.998	7708.65
711.342	7730.57
711.687	7677.92
712.031	7692.38
712.375	7603.35
712.719	7637.92
713.063	7559.73
713.407	7524.03
713.75	7541.43
714.094	7557.47
714.438	7520.86
714.782	7534.42
715.125	7484.7
715.469	7517.47
715.812	7382.11
716.156	7443.35
716.499	7483.12
716.843	7450.81
717.186	7383.92
717.53	7430.24
717.873	7431.37
718.216	7458.26
718.559	7366.52
718.902	7346.85
719.246	7329.23
719.589	7328.55
719.932	7303.47
720.275	7304.37
720.617	7229.34
720.96	7291.72
721.303	7309.34
721.646	7272.96
721.989	7280.64
722.331	7279.06
722.674	7278.38
723.016	7281.77
723.359	7253.07
723.701	7313.41
724.044	7148.67
724.386	7201.1
724.729	7205.84
725.071	7145.05
725.413	7210.14
725.755	7185.96
726.097	7092.62
726.439	7107.09
726.782	7153.41
727.124	7196.58
727.465	7080.87
727.807	7167.2
728.149	7082
728.491	7046.07
728.833	7126.52
729.175	7042.68
729.516	7090.14
729.858	7098.05
730.199	7107.99
730.541	7055.34
730.882	7109.57
731.224	7055.79
731.565	7002.46
731.906	7049.24
732.248	7080.42
732.589	7055.56
732.93	6976.47
733.271	7044.72
733.612	7029.8
733.953	7085.84
734.294	7016.24
734.635	7068.22
734.976	7027.09
735.317	6996.58
735.658	6983.02
735.999	7012.63
736.339	6989.12
736.68	6999.52
737.021	7022.8
737.361	6980.99
737.702	7036.35
738.042	7012.63
738.383	7003.81
738.723	7061.66
739.063	6987.77
739.404	7003.81
739.744	7003.36
740.084	6962.23
740.424	7060.53
740.764	7022.12
741.104	7022.57
741.444	7019.41
741.784	7009.46
742.124	7060.99
742.464	7043.36
742.804	7100.99
743.143	7093.3
743.483	7069.57
743.823	7092.4
744.162	7082.91
744.502	7138.05
744.841	7121.55
745.181	7141.21
745.52	7115
745.86	7177.82
746.199	7264.37
746.538	7257.14
746.877	7316.8
747.216	7218.27
747.556	7277.7
747.895	7330.58
748.234	7312.05
748.573	7343.24
748.911	7366.97
749.25	7446.97
749.589	7453.29
749.928	7504.82
750.267	7548.43
750.605	7590.46
750.944	7658.03
751.283	7680.18
751.621	7719.5
751.96	7807.86
752.298	7833.17
752.636	7945.03
752.975	7896.22
753.313	7949.32
753.651	8037.46
753.989	8121.07
754.327	8153.16
754.666	8268.19
755.004	8295.08
755.342	8385.02
755.679	8458.24
756.017	8463.44
756.355	8675.18
756.693	8702.75
757.031	8774.61
757.368	8843.09
757.706	8968.51
758.044	9008.28
758.381	9135.06
758.719	9177.77
759.056	9281.27
759.394	9424.54
759.731	9435.39
760.068	9588.38
760.405	9664.53
760.743	9690.97
761.08	9841.7
761.417	9923.51
761.754	10055.26
762.091	10179.77
762.428	10202.6
762.765	10269.04
763.102	10465.42
763.438	10465.87
763.775	10621.57
764.112	10678.52
764.449	10837.38
764.785	10850.94
765.122	10993.09
765.458	10973.65
765.795	11075.8
766.131	11236.7
766.467	11315.79
766.804	11316.47
767.14	11422
767.476	11527.99
767.812	11543.58
768.148	11678.04
768.485	11667.19
768.821	11769.56
769.157	11836
769.492	11920.97
769.828	12015.66
770.164	11995.55
770.5	12037.13
770.836	12198.7
771.171	12214.75
771.507	12182.43
771.842	12275.31
772.178	12367.74
772.513	12398.7
772.849	12402.99
773.184	12404.35
773.519	12492.71
773.855	12463.33
774.19	12556.66
774.525	12540.16
774.86	12575.19
775.195	12636.66
775.53	12688.18
775.865	12590.33
776.2	12589.43
776.535	12588.75
776.87	12533.61
777.205	12695.41
777.539	12663.1
777.874	12682.08
778.209	12651.35
778.543	12731.35
778.878	12642.99
779.212	12667.39
779.547	12627.62
779.881	12758.69
780.215	12710.33
780.55	12715.53
780.884	12683.89
781.218	12612.25
781.552	12655.87
781.886	12645.47
782.22	12667.84
782.554	12621.07
782.888	12552.59
783.222	12620.39
783.556	12504.69
783.889	12543.33
784.223	12504.23
784.557	12543.1
784.89	12557.11
785.224	12508.75
785.557	12496.1
785.891	12425.82
786.224	12443.22
786.558	12485.7
786.891	12388.53
787.224	12290.68
787.557	12318.25
787.891	12318.48
788.224	12343.79
788.557	12362.99
788.89	12302.88
789.223	12345.82
789.556	12251.36
789.888	12284.35
790.221	12181.08
790.554	12165.94
790.887	12176.56
791.219	12186.95
791.552	12067.86
791.884	12000.52
792.217	12061.76
792.549	12062.89
792.882	11923.68
793.214	11972.72
793.546	12000.97
793.879	11933.63
794.211	11792.39
794.543	11862.44
794.875	11803.69
795.207	11957.58
795.539	11833.52
795.871	11774.54
796.203	11767.98
796.535	11689.79
796.867	11689.11
797.198	11676.46
797.53	11713.29
797.862	11610.02
798.193	11621.09
798.525	11550.36
798.856	11553.52
799.188	11423.13
799.519	11431.04
799.85	11315.79
800.182	11388.56
800.513	11428.78
800.844	11309.01
801.175	11370.48
801.506	11285.96
801.837	11295.23
802.168	11279.41
802.499	11248.67
802.83	11178.84
803.161	11216.58
803.491	11211.16
803.822	11149.47
804.153	11038.74
804.483	11063.82
804.814	11039.19
805.145	11005.74
805.475	10953.09
805.805	10961.68
806.136	10951.51
806.466	10924.39
806.796	10911.28
807.126	10813.2
807.457	10840.1
807.787	10794.67
808.117	10777.5
808.447	10789.7
808.777	10716.94
809.107	10757.39
809.436	10657.05
809.766	10685.52
810.096	10592.42
810.426	10686.2
810.755	10593.55
811.085	10606.2
811.414	10618.18
811.744	10513.55
812.073	10537.51
812.403	10494.57
812.732	10453.44
813.061	10408.02
813.39	10400.56
813.719	10300.45
814.049	10477.17
814.378	10374.8
814.707	10308.58
815.036	10354.91
815.365	10279.89
815.693	10154.01
816.022	10284.86
816.351	10196.95
816.68	10123.73
817.008	10210.51
817.337	10051.64
817.665	10106.56
817.994	10109.72
818.322	10100.23
818.651	10012.55
818.979	10001.93
819.307	10119.44
819.636	10048.7
819.964	9964.41
820.292	10049.61
820.62	9992.89
820.948	9942.04
821.276	10017.29
821.604	9975.26
821.932	9947.24
822.259	9991.31
822.587	9974.36
822.915	9978.88
823.243	10001.02
823.57	9848.48
823.898	9989.27
824.225	9928.93
824.553	9880.12
824.88	9997.86
825.207	9927.8
825.535	9956.5
825.862	9963.96
826.189	9941.14
826.516	9951.08
826.843	9970.74
827.17	10007.35
827.497	10006.22
827.824	9957.86
828.151	9993.56
828.478	10034.69
828.805	10012.32
829.131	9987.24
829.458	9953.79
829.785	9940.01
830.111	9961.25
830.438	9961.48
830.764	9942.94
831.09	9978.42
831.417	9902.27
831.743	9946.79
832.069	9960.8
832.395	9949.27
832.722	9900.69
833.048	9898.43
833.374	9902.27
833.7	9868.6
834.026	9873.57
834.351	9930.29
834.677	9827.47
835.003	9878.31
835.329	9875.6
835.654	9763.29
835.98	9847.13
836.306	9807.13
836.631	9842.83
836.956	9831.08
837.282	9821.82
837.607	9844.64
837.932	9749.96
838.258	9756.06
838.583	9750.18
838.908	9625.21
839.233	9685.55
839.558	9690.07
839.883	9653.01
840.208	9664.76
840.533	9601.48
840.858	9580.69
841.182	9636.74
841.507	9606.46
841.832	9562.62
842.156	9516.29
842.481	9510.64
842.805	9576.63
843.13	9467.7
843.454	9443.97
843.778	9453.24
844.103	9414.15
844.427	9405.56
844.751	9357.42
845.075	9391.55
845.399	9352.68
845.723	9241.27
846.047	9297.31
846.371	9206.92
846.695	9215.51
847.019	9157.43
847.343	9157.65
847.666	9097.54
847.99	9032.91
848.313	9024.78
848.637	8938
848.96	8921.28
849.284	8959.02
849.607	8868.85
849.931	8934.38
850.254	8815.29
850.577	8805.8
850.9	8753.15
851.223	8695.52
851.546	8627.95
851.869	8669.98
852.192	8634.28
852.515	8582.3
852.838	8550.21
853.161	8539.59
853.483	8488.52
853.806	8509.54
854.129	8469.99
854.451	8419.14
854.774	8406.94
855.096	8386.83
855.419	8325.13
855.741	8368.97
856.063	8225.7
856.385	8299.15
856.708	8260.05
857.03	8176.89
857.352	8166.95
857.674	8218.7
857.996	8113.16
858.318	8138.47
858.64	8121.07
858.961	8063.45
859.283	8017.12
859.605	7997.46
859.926	8062.09
860.248	7961.53
860.57	7932.6
860.891	7983
861.212	7866.39
861.534	7887.86
861.855	7898.48
862.176	7878.59
862.498	7897.12
862.819	7824.81
863.14	7884.69
863.461	7883.79
863.782	7800.85
864.103	7822.1
864.424	7838.14
864.745	7791.14
865.065	7767.41
865.386	7761.53
865.707	7717.24
866.027	7736.22
866.348	7775.32
866.668	7714.3
866.989	7757.92
867.309	7666.62
867.63	7674.53
867.95	7690.12
868.27	7652.38
868.59	7662.55
868.91	7622.33
869.23	7591.59
869.55	7561.09
869.87	7640.86
870.19	7618.03
870.51	7532.16
870.83	7575.78
871.15	7571.03
871.469	7566.28
871.789	7528.54
872.109	7514.31
872.428	7489.68
872.748	7498.26
873.067	7465.95
873.386	7463.01
873.706	7482.44
874.025	7434.76
874.344	7373.52
874.663	7404.48
874.982	7409.9
875.301	7383.46
875.62	7362.22
875.939	7394.54
876.258	7383.46
876.577	7315.67
876.896	7317.7
877.214	7316.57
877.533	7316.8
877.852	7294.65
878.17	7262.56
878.489	7253.3
878.807	7261.43
879.125	7237.03
879.444	7191.83
879.762	7183.02
880.08	7183.02
880.398	7177.59
880.716	7211.04
881.034	7175.33
881.352	7135.56
881.67	7136.24
881.988	7077.71
882.306	7080.42
882.624	7139.4
882.941	7084.04
883.259	7026.64
883.577	7045.62
883.894	6998.62
884.212	6980.99
884.529	7015.56
884.846	6992.74
885.164	6951.84
885.481	6954.1
885.798	6957.71
886.115	6919.3
886.432	6918.17
886.75	6873.65
887.067	6909.8
887.383	6805.4
887.7	6850.82
888.017	6809.69
888.334	6865.29
888.651	6782.35
888.967	6788.9
889.284	6691.28
889.6	6766.76
889.917	6694.89
890.233	6707.55
890.55	6665.74
890.866	6616.7
891.182	6646.08
891.498	6670.71
891.815	6583.71
892.131	6594.78
892.447	6579.19
892.763	6500.32
893.079	6516.37
893.395	6498.97
893.71	6535.35
894.026	6513.66
894.342	6473.21
894.657	6413.09
894.973	6383.72
895.289	6424.85
895.604	6437.05
895.92	6336.49
896.235	6322.02
896.55	6283.38
896.865	6230.73
897.181	6275.47
897.496	6302.81
897.811	6201.35
898.126	6203.16
898.441	6148.47
898.756	6148.92
899.071	6188.47
899.386	6164.51
899.7	6074.12
900.015	6061.01
900.33	6019.88
900.644	6004.97
900.959	6098.3
901.273	5937.85
901.588	5973.78
901.902	5930.39
902.216	5938.76
902.531	5913.9
902.845	5876.61
903.159	5827.8
903.473	5811.75
903.787	5842.94
904.101	5763.39
904.415	5809.49
904.729	5778.76
905.042	5741.25
905.356	5691.76
905.67	5725.88
905.984	5698.54
906.297	5677.29
906.611	5605.88
906.924	5643.62
907.237	5591.65
907.551	5576.28
907.864	5510.97
908.177	5510.07
908.491	5557.75
908.804	5516.85
909.117	5494.47
909.43	5426.91
909.743	5436.17
910.056	5428.26
910.368	5374.7
910.681	5341.94
910.994	5377.19
911.307	5337.19
911.619	5280.69
911.932	5304.2
912.244	5224.42
912.557	5275.72
912.869	5214.48
913.181	5205.22
913.494	5211.32
913.806	5173.35
914.118	5154.37
914.43	5135.84
914.742	5086.58
915.054	5053.13
915.366	5033.47
915.678	4996.86
915.99	5031.89
916.302	4968.16
916.613	4955.96
916.925	4909.86
917.236	4889.07
917.548	4910.31
917.859	4891.1
918.171	4837.32
918.482	4853.81
918.794	4855.17
919.105	4814.04
919.416	4758.22
919.727	4812.23
920.038	4751.22
920.349	4744.89
920.66	4743.76
920.971	4691.11
921.282	4714.38
921.593	4680.03
921.903	4667.83
922.214	4665.8
922.525	4618.79
922.835	4610.88
923.146	4568.17
923.456	4561.39
923.767	4516.87
924.077	4532.24
924.387	4533.6
924.697	4465.57
925.008	4467.83
925.318	4433.71
925.628	4423.09
925.938	4463.31
926.248	4376.99
926.558	4391.23
926.867	4371.79
927.177	4324.11
927.487	4301.51
927.796	4275.98
928.106	4279.82
928.416	4276.43
928.725	4252.7
929.034	4180.84
929.344	4231.91
929.653	4214.51
929.962	4193.27
930.271	4158.92
930.581	4148.97
930.89	4117.56
931.199	4083.21
931.508	4121.18
931.817	4103.55
932.125	4115.08
932.434	4089.77
932.743	3974.51
933.051	4038.47
933.36	3982.88
933.669	3986.49
933.977	3975.42
934.286	3958.47
934.594	3942.88
934.902	3927.51
935.21	3895.19
935.519	3923.22
935.827	3922.54
936.135	3877.12
936.443	3831.47
936.751	3851.35
937.059	3871.24
937.367	3825.37
937.674	3790.79
937.982	3781.75
938.29	3775.42
938.597	3760.28
938.905	3697.69
939.213	3694.52
939.52	3681.87
939.827	3715.76
940.135	3650.23
940.442	3671.47
940.749	3657.91
941.056	3621.08
941.363	3583.34
941.67	3573.17
941.977	3552.38
942.284	3530.91
942.591	3555.99
942.898	3544.69
943.205	3506.73
943.511	3548.08
943.818	3481.42
944.125	3441.87
944.431	3414.53
944.738	3434.87
945.044	3441.42
945.35	3406.17
945.657	3364.81
945.963	3345.83
946.269	3358.71
946.575	3384.7
946.881	3319.16
947.187	3328.66
947.493	3311.48
947.799	3330.69
948.105	3312.84
948.41	3259.73
948.716	3256.79
949.022	3211.14
949.327	3249.11
949.633	3202.11
949.938	3197.36
950.244	3222.67
950.549	3165.95
950.854	3158.04
951.16	3202.33
951.465	3160.98
951.77	3142.9
952.075	3104.71
952.38	3126.17
952.685	3096.57
952.99	3103.12
953.294	3087.76
953.599	3062
953.904	3042.34
954.209	3022.22
954.513	3007.99
954.818	3031.71
955.122	2988.1
955.426	2954.65
955.731	2933.64
956.035	2984.48
956.339	2963.47
956.643	2944.71
956.948	2894.99
957.252	2912.85
957.556	2881.21
957.86	2887.99
958.163	2848.22
958.467	2880.98
958.771	2864.94
959.075	2881.66
959.378	2847.09
959.682	2858.84
959.985	2808.44
960.289	2790.59
960.592	2784.71
960.896	2791.27
961.199	2771.16
961.502	2771.61
961.805	2726.86
962.108	2712.63
962.411	2714.43
962.714	2670.59
963.017	2697.03
963.32	2639.63
963.623	2677.37
963.926	2647.54
964.228	2626.08
964.531	2662.68
964.833	2629.46
965.136	2573.2
965.438	2557.15
965.741	2590.14
966.043	2563.48
966.345	2564.16
966.648	2565.29
966.95	2516.47
967.252	2515.57
967.554	2531.39
967.856	2547.66
968.158	2479.41
968.46	2505.85
968.761	2501.78
969.063	2476.02
969.365	2474.67
969.666	2476.47
969.968	2416.81
970.269	2398.51
970.571	2433.09
970.872	2415.23
971.174	2431.28
971.475	2425.18
971.776	2377.27
972.077	2406.87
972.378	2328.91
972.679	2378.4
972.98	2322.81
973.281	2306.76
973.582	2308.57
973.883	2329.59
974.183	2267.89
974.484	2304.05
974.785	2289.59
975.085	2255.01
975.386	2316.48
975.686	2263.6
975.986	2251.17
976.287	2256.14
976.587	2229.48
976.887	2220.21
977.187	2203.71
977.487	2200.78
977.787	2159.65
978.087	2200.32
978.387	2171.17
978.687	2177.05
978.987	2157.61
979.286	2128.91
979.586	2148.57
979.885	2120.55
980.185	2093.21
980.484	2133.21
980.784	2085.75
981.083	2087.56
981.382	2104.05
981.682	2100.89
981.981	2090.04
982.28	2062.93
982.579	2044.4
982.878	2063.38
983.177	2047.11
983.475	2045.3
983.774	2008.46
984.073	1993.32
984.372	2015.7
984.67	1985.19
984.969	1987.9
985.267	1983.38
985.566	1968.92
985.864	1964.85
986.162	1959.65
986.461	1915.81
986.759	1972.31
987.057	1893.21
987.355	1892.76
987.653	1904.74
987.951	1904.29
988.249	1902.48
988.547	1890.28
988.844	1909.48
989.142	1904.96
989.44	1878.75
989.737	1849.82
990.035	1852.99
990.332	1858.19
990.63	1829.94
990.927	1819.32
991.224	1810.28
991.521	1782.48
991.819	1780.9
992.116	1815.93
992.413	1803.72
992.71	1733.9
993.006	1768.7
993.303	1752.88
993.6	1732.77
993.897	1731.41
994.193	1731.64
994.49	1729.38
994.787	1708.59
995.083	1694.35
995.379	1724.86
995.676	1704.97
995.972	1676.95
996.268	1667.23
996.565	1669.94
996.861	1681.47
997.157	1658.64
997.453	1624.52
997.749	1628.36
998.044	1614.35
998.34	1631.07
998.636	1568.93
998.932	1591.75
999.227	1594.01
999.523	1580.68
999.818	1571.19
1000.114	1577.97
1000.409	1564.86
1000.704	1561.92
1001	1552.2
1001.295	1557.63
1001.59	1550.85
1001.885	1504.52
1002.18	1509.49
1002.475	1511.53
1002.77	1505.2
1003.065	1508.82
1003.359	1506.33
1003.654	1497.74
1003.949	1478.08
1004.243	1477.63
1004.538	1457.52
1004.832	1446.45
1005.127	1483.96
1005.421	1428.14
1005.715	1415.94
1006.009	1409.61
1006.304	1417.52
1006.598	1410.74
1006.892	1398.76
1007.186	1379.1
1007.48	1391.53
1007.773	1402.38
1008.067	1374.13
1008.361	1358.31
1008.655	1357.86
1008.948	1369.84
1009.242	1347.92
1009.535	1314.47
1009.829	1333.45
1010.122	1319.44
1010.415	1310.63
1010.708	1281.93
1011.001	1315.6
1011.295	1310.63
1011.588	1279.9
1011.881	1267.24
1012.173	1300.91
1012.466	1264.3
1012.759	1252.55
1013.052	1294.58
1013.344	1250.07
1013.637	1244.19
1013.93	1215.94
1014.222	1215.72
1014.514	1210.29
1014.807	1237.18
1015.099	1235.38
1015.391	1169.39
1015.683	1195.38
1015.976	1205.32
1016.268	1196.51
1016.56	1198.99
1016.851	1150.86
1017.143	1153.35
1017.435	1168.94
1017.727	1161.03
1018.018	1167.13
1018.31	1134.36
1018.602	1135.94
1018.893	1142.27
1019.185	1118.77
1019.476	1092.33
1019.767	1112.44
1020.058	1095.27
1020.35	1078.32
1020.641	1091.88
1020.932	1071.09
1021.223	1077.87
1021.514	1071.77
1021.804	1063.18
1022.095	1046.91
1022.386	1060.92
1022.677	1024.08
1022.967	1045.33
1023.258	1019.79
1023.548	1027.92
1023.839	1004.42
1024.129	1013.46
1024.419	1023.86
1024.709	989.06
1025	1008.94
1025.29	1006.91
1025.58	973.24
1025.87	967.36
1026.16	969.85
1026.449	984.31
1026.739	953.58
1027.029	949.28
1027.319	930.75
1027.608	938.21
1027.898	917.65
1028.187	937.08
1028.477	933.01
1028.766	919.68
1029.055	911.32
1029.344	896.85
1029.634	916.97
1029.923	900.47
1030.212	891.43
1030.501	871.77
1030.79	891.66
1031.078	875.84
1031.367	873.13
1031.656	877.42
1031.945	851.43
1032.233	848.27
1032.522	860.47
1032.81	827.7
1033.099	818.66
1033.387	830.42
1033.675	837.2
1033.963	822.96
1034.251	832.9
1034.54	811.66
1034.828	807.82
1035.116	788.38
1035.403	802.17
1035.691	814.82
1035.979	800.81
1036.267	793.13
1036.554	795.84
1036.842	774.15
1037.129	805.11
1037.417	768.95
1037.704	779.57
1037.992	771.21
1038.279	770.08
1038.566	777.76
1038.853	777.76
1039.14	777.76
