Data from hue_130_FLMS001491_00071.txt Node
Date: Tue Feb 07 16:58:03 GMT 2017
User: dcchb
Spectrometer: FLMS00149
Trigger mode: 0
Integration Time (sec): 2.000000E-2
Scans to average: 10
Electric dark correction enabled: true
Nonlinearity correction enabled: false
Boxcar width: 0
XAxis mode: Wavelengths
Number of Pixels in Spectrum: 2048
>>>>>Begin Spectral Data<<<<<
341.393	-13.12
341.776	-13.12
342.16	-13.12
342.543	-61.93
342.927	-74.81
343.31	-60.13
343.693	-63.97
344.077	-60.13
344.46	-54.93
344.843	-66.45
345.226	-31.2
345.61	-49.5
345.993	-35.72
346.376	-7.25
346.759	24.84
347.142	17.61
347.525	39.53
347.908	52.41
348.291	100.77
348.674	92.41
349.057	101.68
349.44	135.12
349.823	140.55
350.206	180.77
350.588	180.32
350.971	198.62
351.354	230.04
351.737	239.3
352.119	249.47
352.502	259.41
352.884	292.86
353.267	279.75
353.65	288.57
354.032	304.38
354.414	317.94
354.797	328.79
355.179	337.15
355.562	299.86
355.944	325.4
356.326	332.86
356.709	328.79
357.091	341.45
357.473	343.25
357.855	328.34
358.238	343.93
358.62	337.83
359.002	337.38
359.384	330.37
359.766	342.8
360.148	339.41
360.53	319.98
360.912	323.37
361.294	329.92
361.676	351.84
362.057	323.59
362.439	333.08
362.821	332.18
363.203	307.55
363.584	322.24
363.966	331.05
364.348	319.53
364.729	328.11
365.111	337.83
365.493	324.95
365.874	323.82
366.256	322.92
366.637	322.69
367.019	305.74
367.4	312.52
367.781	316.14
368.163	313.42
368.544	297.38
368.925	298.96
369.306	295.35
369.688	303.48
370.069	309.13
370.45	315.46
370.831	328.79
371.212	320.43
371.593	308.68
371.974	320.66
372.355	322.69
372.736	326.3
373.117	317.49
373.498	327.43
373.879	318.4
374.26	291.5
374.641	308.9
375.021	326.08
375.402	348.23
375.783	321.56
376.163	314.55
376.544	319.3
376.925	334.44
377.305	348.23
377.686	317.94
378.066	323.59
378.447	323.14
378.827	324.95
379.208	335.12
379.588	314.78
379.968	317.49
380.349	329.24
380.729	327.89
381.109	343.71
381.489	347.32
381.87	319.98
382.25	331.73
382.63	337.15
383.01	348.23
383.39	333.76
383.77	343.93
384.15	343.25
384.53	344.38
384.91	334.67
385.29	335.34
385.67	345.74
386.049	343.25
386.429	356.36
386.809	378.73
387.189	341.22
387.568	365.17
387.948	363.82
388.328	346.64
388.707	345.51
389.087	351.84
389.466	343.71
389.846	372.63
390.225	363.37
390.605	375.57
390.984	355.68
391.363	353.42
391.743	376.93
392.122	364.95
392.501	356.81
392.881	364.27
393.26	352.52
393.639	384.61
394.018	375.34
394.397	381.22
394.776	363.82
395.155	385.29
395.534	371.95
395.913	361.56
396.292	378.51
396.671	375.34
397.05	379.64
397.429	404.04
397.808	391.39
398.186	389.81
398.565	417.15
398.944	391.39
399.323	398.17
399.701	386.64
400.08	418.73
400.458	418.96
400.837	394.1
401.215	392.97
401.594	415.34
401.972	395.91
402.351	390.94
402.729	399.07
403.107	389.35
403.486	396.13
403.864	404.04
404.242	405.62
404.62	430.93
404.999	437.04
405.377	425.96
405.755	440.65
406.133	437.94
406.511	429.81
406.889	442.23
407.267	431.39
407.645	431.16
408.023	435.23
408.401	409.01
408.779	420.99
409.156	435.68
409.534	420.09
409.912	429.13
410.29	459.86
410.667	442.46
411.045	444.95
411.422	446.08
411.8	437.04
412.178	462.57
412.555	457.6
412.933	446.75
413.31	481.56
413.687	464.38
414.065	493.08
414.442	483.36
414.819	466.41
415.197	467.32
415.574	486.3
415.951	496.92
416.328	467.32
416.705	496.24
417.082	481.78
417.46	496.02
417.837	502.12
418.214	498.28
418.591	470.03
418.967	486.75
419.344	505.51
419.721	524.72
420.098	500.99
420.475	503.7
420.852	531.5
421.228	522.46
421.605	539.41
421.982	534.89
422.358	523.81
422.735	531.72
423.111	517.94
423.488	558.39
423.864	533.31
424.241	539.18
424.617	540.31
424.994	564.72
425.37	558.16
425.746	573.08
426.123	557.03
426.499	568.56
426.875	578.05
427.251	574.21
427.627	583.7
428.003	573.3
428.379	589.8
428.756	591.38
429.132	581.44
429.507	616.92
429.883	595.45
430.259	606.52
430.635	618.95
431.011	623.02
431.387	645.39
431.763	649.46
432.138	639.07
432.514	647.43
432.89	648.33
433.265	650.36
433.641	644.26
434.016	672.51
434.392	667.31
434.767	665.05
435.143	681.32
435.518	717.93
435.894	701.44
436.269	695.11
436.644	701.44
437.02	705.73
437.395	698.05
437.77	701.66
438.145	734.66
438.52	748.89
438.895	726.75
439.271	738.72
439.646	754.54
440.021	752.51
440.395	755.22
440.77	743.02
441.145	780.53
441.52	757.71
441.895	753.19
442.27	782.79
442.645	775.56
443.019	795.67
443.394	791.83
443.769	775.33
444.143	780.08
444.518	805.84
444.892	809.46
445.267	803.58
445.641	815.33
446.016	811.26
446.39	839.06
446.764	831.15
447.139	795.45
447.513	836.8
447.887	839.74
448.262	844.48
448.636	860.98
449.01	850.58
449.384	878.38
449.758	879.06
450.132	878.61
450.506	867.53
450.88	891.71
451.254	901.88
451.628	923.13
452.002	907.98
452.376	908.89
452.75	941.66
453.123	940.53
453.497	939.85
453.871	978.72
454.244	975.1
454.618	964.48
454.992	960.19
455.365	975.55
455.739	990.47
456.112	1005.38
456.486	1010.13
456.859	1040.86
457.232	1064.59
457.606	1061.43
457.979	1061.43
458.352	1066.4
458.725	1077.25
459.099	1103.01
459.472	1116.79
459.845	1153.63
460.218	1158.15
460.591	1147.07
460.964	1163.12
461.337	1193.4
461.71	1205.38
462.083	1248.54
462.456	1246.96
462.829	1230.24
463.201	1255.32
463.574	1267.52
463.947	1295.77
464.32	1289.22
464.692	1300.29
465.065	1326.96
465.438	1365.6
465.81	1364.47
466.183	1369.44
466.555	1427.52
466.928	1429.33
467.3	1424.81
467.672	1471.59
468.045	1473.62
468.417	1521.98
468.789	1516.1
469.161	1568.53
469.534	1559.49
469.906	1585.25
470.278	1620.51
470.65	1668.19
471.022	1728.98
471.394	1770.11
471.766	1750.45
472.138	1827.96
472.51	1851.46
472.882	1885.59
473.253	1901.18
473.625	1958.13
473.997	1999.71
474.369	2019.59
474.74	2045.81
475.112	2093.94
475.484	2152.25
475.855	2209.65
476.227	2264.11
476.598	2327.38
476.97	2362.41
477.341	2438.57
477.713	2486.93
478.084	2539.35
478.455	2614.83
478.827	2690.99
479.198	2753.13
479.569	2816.86
479.94	2923.52
480.311	2974.14
480.682	3051.43
481.053	3173.01
481.424	3255.27
481.795	3339.33
482.166	3415.04
482.537	3512.89
482.908	3616.39
483.279	3682.15
483.65	3770.73
484.021	3881.92
484.391	4027.45
484.762	4087.56
485.133	4145.64
485.503	4258.18
485.874	4422.69
486.244	4497.95
486.615	4616.14
486.985	4768.67
487.356	4866.07
487.726	4954.21
488.097	5127.53
488.467	5192.84
488.837	5397.13
489.207	5522.78
489.578	5644.36
489.948	5760.96
490.318	5926.16
490.688	5922.32
491.058	6127.51
491.428	6269.88
491.798	6349.65
492.168	6572.47
492.538	6700.15
492.908	6767.94
493.278	6969.75
493.648	7003.64
494.017	7174.49
494.387	7289.29
494.757	7408.83
495.126	7560.01
495.496	7684.3
495.866	7809.72
496.235	7898.76
496.605	8035.25
496.974	8142.82
497.344	8251.07
497.713	8343.95
498.082	8446.09
498.452	8592.75
498.821	8665.75
499.19	8745.29
499.559	8863.03
499.928	9051.05
500.298	9050.14
500.667	9200.42
501.036	9251.27
501.405	9417.82
501.774	9383.24
502.143	9535.1
502.512	9600.86
502.88	9743.01
503.249	9800.18
503.618	9895.54
503.987	9961.08
504.356	9996.11
504.724	10110.45
505.093	10222.32
505.462	10241.98
505.83	10267.06
506.199	10386.83
506.567	10588.41
506.936	10555.41
507.304	10604.23
507.672	10709.53
508.041	10764.45
508.409	10819.14
508.777	10884.22
509.145	11021.39
509.514	11009.41
509.882	11167.6
510.25	11218.9
510.618	11181.84
510.986	11267.71
511.354	11322.63
511.722	11439.91
512.09	11515.16
512.458	11419.8
512.826	11605.56
513.193	11569.63
513.561	11625.67
513.929	11665.67
514.297	11825.89
514.664	11785.89
515.032	11864.31
515.4	11928.03
515.767	11898.2
516.135	11953.12
516.502	11904.31
516.869	12061.14
517.237	12043.96
517.604	12050.52
517.972	12179.78
518.339	12276.95
518.706	12264.52
519.073	12191.3
519.44	12261.81
519.808	12391.3
520.175	12345.88
520.542	12496.15
520.909	12469.71
521.276	12506.78
521.643	12519.43
522.009	12546.32
522.376	12544.51
522.743	12659.09
523.11	12683.95
523.477	12757.39
523.843	12776.15
524.21	12823.15
524.577	12908.12
524.943	12853.43
525.31	12837.39
525.676	12939.76
526.043	12973.66
526.409	12990.38
526.776	13042.81
527.142	13022.92
527.508	13067.21
527.874	13106.08
528.241	13064.73
528.607	13060.89
528.973	13196.48
529.339	13097.72
529.705	13229.92
530.071	13210.94
530.437	13199.64
530.803	13198.96
531.169	13172.52
531.535	13123.03
531.901	13184.5
532.267	13134.78
532.632	13233.08
532.998	13275.34
533.364	13103.37
533.73	13174.1
534.095	13240.09
534.461	13232.63
534.826	13166.42
535.192	13166.87
535.557	13192.18
535.923	13071.05
536.288	13149.47
536.653	13061.11
537.019	13030.38
537.384	13045.29
537.749	13065.18
538.114	13009.14
538.479	12992.19
538.845	12975.46
539.21	12903.38
539.575	12850.72
539.94	12896.14
540.305	12953.32
540.67	12876.94
541.034	12819.76
541.399	12788.8
541.764	12721.46
542.129	12709.03
542.494	12737.5
542.858	12674.23
543.223	12694.12
543.587	12744.06
543.952	12548.58
544.316	12645.53
544.681	12536.38
545.045	12467.23
545.41	12505.42
545.774	12466.32
546.138	12487.12
546.503	12421.35
546.867	12330.06
547.231	12402.6
547.595	12355.14
547.959	12334.12
548.324	12312.88
548.688	12213.68
549.052	12231.75
549.416	12187.91
549.779	12165.32
550.143	12095.71
550.507	12147.92
550.871	12037.64
551.235	12049.61
551.599	12064.75
551.962	12009.39
552.326	12057.97
552.689	12073.34
553.053	11994.92
553.417	11875.15
553.78	12028.82
554.143	11896.85
554.507	11889.16
554.87	11851.43
555.234	11844.87
555.597	11770.07
555.96	11703.86
556.323	11773.69
556.686	11740.92
557.05	11827.02
557.413	11693.24
557.776	11728.27
558.139	11820.47
558.502	11756.51
558.865	11721.71
559.228	11761.26
559.59	11674.48
559.953	11777.76
560.316	11761.48
560.679	11688.49
561.041	11745.44
561.404	11813.46
561.767	11751.54
562.129	11782.95
562.492	11840.35
562.854	11723.52
563.217	11764.87
563.579	11826.57
563.941	11805.33
564.304	11816.62
564.666	11770.07
565.028	11744.31
565.39	11760.35
565.753	11817.3
566.115	11797.64
566.477	11843.97
566.839	11887.13
567.201	11909.5
567.563	11908.83
567.925	11852.56
568.287	11919.22
568.648	11908.15
569.01	11907.47
569.372	11982.27
569.734	11946.34
570.095	12005.77
570.457	11974.81
570.819	12027.01
571.18	11926.68
571.542	12034.02
571.903	12031.08
572.265	12057.07
572.626	11991.76
572.987	11985.89
573.349	12068.37
573.71	12056.62
574.071	12069.5
574.432	12108.37
574.794	12079.22
575.155	12123.51
575.516	12045.32
575.877	12083.74
576.238	12074.24
576.599	12118.54
576.96	12081.93
577.32	12166.45
577.681	12116.73
578.042	12135.26
578.403	12150.63
578.763	12147.01
579.124	12144.53
579.485	12154.02
579.845	12194.69
580.206	12142.49
580.566	12124.41
580.927	12195.15
581.287	12135.49
581.648	12163.73
582.008	12192.89
582.368	12163.73
582.728	12130.06
583.089	12162.38
583.449	12138.88
583.809	12097.07
584.169	12162.6
584.529	12075.37
584.889	12196.05
585.249	12058.65
585.609	11903.18
585.969	12076.28
586.329	12017.97
586.688	12049.16
587.048	12015.04
587.408	11992.89
587.768	12035.38
588.127	11910.18
588.487	11964.42
588.846	11995.83
589.206	11907.02
589.565	11963.29
589.925	11916.28
590.284	11888.94
590.643	11980.69
591.003	11972.55
591.362	11953.34
591.721	11925.77
592.08	12011.42
592.44	11954.47
592.799	11934.81
593.158	11962.38
593.517	11898.66
593.876	11859.79
594.235	11883.74
594.593	11843.97
594.952	11953.57
595.311	11853.23
595.67	11894.36
596.029	11980.91
596.387	11901.37
596.746	11914.7
597.104	11914.47
597.463	11855.95
597.822	12009.39
598.18	11839.9
598.538	11873.12
598.897	11860.46
599.255	11785.44
599.613	11910.63
599.972	11825.44
600.33	11897.53
600.688	11815.04
601.046	11887.13
601.404	11833.8
601.762	11836.74
602.12	11939.78
602.478	11802.84
602.836	11887.13
603.194	11830.18
603.552	11816.62
603.91	11771.43
604.268	11835.61
604.625	11793.35
604.983	11823.18
605.341	11834.25
605.698	11858.21
606.056	11909.05
606.413	11812.78
606.771	11949.05
607.128	11860.92
607.485	11854.82
607.843	11834.25
608.2	11859.79
608.557	11887.13
608.914	11838.32
609.272	12004.87
609.629	11875.15
609.986	12001.48
610.343	11965.32
610.7	11967.13
611.057	11953.12
611.414	11957.19
611.771	11937.07
612.127	12018.43
612.484	11876.28
612.841	12045.32
613.198	12021.59
613.554	12020.91
613.911	12062.72
614.267	12024.08
614.624	11987.69
614.98	12008.71
615.337	12068.14
615.693	12037.86
616.05	11957.64
616.406	12087.35
616.762	12099.33
617.118	12003.51
617.475	12057.97
617.831	12069.5
618.187	12136.16
618.543	12137.97
618.899	12116.05
619.255	12194.24
619.611	12125.32
619.967	12184.07
620.323	12211.42
620.678	12167.35
621.034	12105.2
621.39	12170.29
621.746	12217.52
622.101	12258.65
622.457	12142.04
622.812	12206.67
623.168	12153.34
623.523	12270.62
623.879	12247.57
624.234	12142.94
624.589	12200.12
624.945	12128.03
625.3	12195.15
625.655	12165.32
626.01	12239.66
626.365	12150.85
626.72	12106.11
627.075	12169.16
627.43	12087.58
627.785	12057.97
628.14	12142.72
628.495	12133.23
628.85	12122.15
629.205	12103.85
629.559	12124.64
629.914	12067.47
630.269	12042.16
630.623	12037.41
630.978	11991.31
631.332	12068.82
631.687	12041.25
632.041	12064.53
632.396	11996.28
632.75	11925.1
633.104	12048.93
633.459	11919.9
633.813	12032.89
634.167	12008.94
634.521	11899.56
634.875	11944.76
635.229	11911.31
635.583	11886.23
635.937	11847.36
636.291	11848.94
636.645	11962.84
636.999	11800.13
637.352	11904.98
637.706	11696.63
638.06	11907.02
638.413	11801.94
638.767	11776.4
639.121	11781.6
639.474	11705.44
639.828	11699.79
640.181	11721.71
640.534	11797.42
640.888	11739.79
641.241	11637.42
641.594	11739.79
641.947	11677.87
642.301	11624.76
642.654	11724.2
643.007	11708.38
643.36	11749.28
643.713	11676.06
644.066	11677.19
644.419	11628.15
644.771	11552.22
645.124	11395.17
645.477	11443.53
645.83	11359.69
646.182	11291.21
646.535	11328.5
646.888	11283.76
647.24	11267.49
647.593	11344.77
647.945	11240.37
648.298	11282.85
648.65	11224.1
649.002	11177.09
649.355	11275.17
649.707	11242.85
650.059	11309.29
650.411	11375.96
650.763	11501.15
651.115	11502.96
651.467	11554.48
651.819	11537.08
652.171	11525.78
652.523	11517.2
652.875	11520.81
653.227	11422.51
653.578	11521.72
653.93	11446.24
654.282	11486.24
654.633	11439.01
654.985	11420.25
655.337	11500.93
655.688	11415.96
656.039	11514.94
656.391	11436.75
656.742	11442.62
657.094	11466.58
657.445	11521.94
657.796	11524.65
658.147	11514.94
658.498	11532.34
658.849	11458.67
659.2	11454.37
659.551	11472.68
659.902	11505.67
660.253	11512.9
660.604	11573.24
660.955	11496.18
661.306	11582.73
661.656	11462.51
662.007	11578.66
662.358	11534.37
662.708	11515.16
663.059	11559
663.409	11526.24
663.76	11554.03
664.11	11606.69
664.461	11600.81
664.811	11575.95
665.161	11538.21
665.511	11589.29
665.862	11558.33
666.212	11601.26
666.562	11565.56
666.912	11529.85
667.262	11582.28
667.612	11564.65
667.962	11559.46
668.312	11575.73
668.662	11573.69
669.011	11556.29
669.361	11532.11
669.711	11483.98
670.06	11478.33
670.41	11494.82
670.76	11582.51
671.109	11616.63
671.459	11632
671.808	11533.69
672.157	11553.81
672.507	11537.76
672.856	11554.48
673.205	11471.32
673.554	11553.81
673.904	11453.7
674.253	11549.06
674.602	11464.77
674.951	11315.17
675.3	11242.4
675.649	11399.01
675.998	11425.22
676.346	11453.47
676.695	11462.51
677.044	11289.18
677.393	11314.94
677.741	11356.07
678.09	11292.34
678.438	11345.9
678.787	11327.82
679.135	11281.95
679.484	11216.64
679.832	11292.12
680.181	11204.21
680.529	11296.19
680.877	11218.67
681.225	11205.57
681.573	11253.25
681.922	11186.36
682.27	11152.46
682.618	11126.47
682.966	11018.91
683.314	11099.81
683.661	11079.47
684.009	11026.81
684.357	11014.39
684.705	11039.92
685.053	10940.26
685.4	10946.59
685.748	10886.25
686.095	10904.11
686.443	10887.84
686.79	10831.11
687.138	10797.22
687.485	10859.59
687.832	10858.23
688.18	10848.74
688.527	10780.27
688.874	10719.93
689.221	10679.71
689.568	10716.99
689.915	10630.67
690.262	10601.29
690.609	10597.22
690.956	10559.26
691.303	10565.36
691.65	10486.49
691.997	10468.19
692.344	10365.36
692.69	10326.04
693.037	10365.59
693.383	10276.55
693.73	10242.65
694.077	10232.26
694.423	10211.92
694.769	10197.68
695.116	10121.75
695.462	10129.21
695.808	10053.28
696.155	10059.83
696.501	10019.38
696.847	9998.14
697.193	9918.14
697.539	9994.75
697.885	9881.76
698.231	9786.17
698.577	9807.41
698.923	9746.62
699.269	9698.94
699.614	9688.32
699.96	9637.7
700.306	9597.25
700.651	9599.06
700.997	9522.45
701.342	9608.32
701.688	9558.38
702.033	9468.44
702.379	9431.6
702.724	9414.43
703.069	9440.87
703.415	9327.65
703.76	9287.65
704.105	9342.34
704.45	9248.33
704.795	9233.19
705.14	9154.1
705.485	9206.98
705.83	9125.4
706.175	9169.01
706.52	9110.93
706.865	9024.61
707.209	9102.57
707.554	9031.84
707.899	9059.86
708.243	8976.92
708.588	8969.02
708.932	8901.9
709.277	8934.67
709.621	8895.12
709.966	8832.52
710.31	8870.71
710.654	8697.84
710.998	8806.31
711.342	8758.17
711.687	8691.51
712.031	8740.55
712.375	8679.53
712.719	8707.1
713.063	8632.98
713.407	8731.96
713.75	8617.84
714.094	8598.18
714.438	8602.92
714.782	8556.37
715.125	8555.47
715.469	8548.69
715.812	8549.14
716.156	8461.01
716.499	8496.94
716.843	8440.44
717.186	8457.16
717.53	8489.71
717.873	8475.24
718.216	8463.49
718.559	8396.38
718.902	8346.21
719.246	8268.92
719.589	8371.74
719.932	8330.39
720.275	8317.51
720.617	8351.63
720.96	8336.26
721.303	8321.57
721.646	8324.96
721.989	8272.31
722.331	8230.5
722.674	8328.81
723.016	8306.43
723.359	8296.94
723.701	8251.29
724.044	8242.03
724.386	8192.31
724.729	8263.72
725.071	8231.41
725.413	8173.56
725.755	8129.26
726.097	8195.02
726.439	8129.49
726.782	8121.81
727.124	8177.4
727.465	8133.78
727.807	8082.49
728.149	8112.77
728.491	8184.4
728.833	8169.94
729.175	8123.84
729.516	8077.97
729.858	8120.9
730.199	8125.42
730.541	8140.79
730.882	8090.39
731.224	8131.75
731.565	8062.15
731.906	8060.34
732.248	8118.19
732.589	8038.19
732.93	7995.26
733.271	8052.2
733.612	8095.14
733.953	8130.39
734.294	8061.24
734.635	8047.01
734.976	8049.94
735.317	8040.23
735.658	8008.14
735.999	8063.28
736.339	8102.37
736.68	8096.5
737.021	8069.83
737.361	8035.48
737.702	8137.17
738.042	8031.64
738.383	8083.84
738.723	8120.22
739.063	8105.76
739.404	8082.49
739.744	8065.54
740.084	8144.63
740.424	8115.7
740.764	8167.23
741.104	8152.77
741.444	8129.26
741.784	8177.62
742.124	8198.64
742.464	8221.01
742.804	8315.25
743.143	8288.81
743.483	8285.87
743.823	8279.54
744.162	8303.04
744.502	8319.32
744.841	8311.86
745.181	8476.37
745.52	8379.88
745.86	8478.63
746.199	8454.45
746.538	8541
746.877	8601.57
747.216	8686.09
747.556	8693.77
747.895	8741.9
748.234	8827.55
748.573	8793.65
748.911	8815.35
749.25	8908
749.589	8927.21
749.928	9080.2
750.267	9157.26
750.605	9145.51
750.944	9231.38
751.283	9316.58
751.621	9414.43
751.96	9464.82
752.298	9474.54
752.636	9667.98
752.975	9747.75
753.313	9787.98
753.651	9939.16
753.989	9921.53
754.327	10023
754.666	10165.59
755.004	10337.57
755.342	10397.9
755.679	10540.95
756.017	10654.39
756.355	10792.47
756.693	10884.9
757.031	11071.33
757.368	11181.84
757.706	11270.2
758.044	11475.62
758.381	11669.28
758.719	11673.8
759.056	11831.77
759.394	12014.13
759.731	12133.45
760.068	12342.03
760.405	12386.78
760.743	12561.01
761.08	12748.8
761.417	12906.77
761.754	13094.1
762.091	13202.58
762.428	13398.5
762.765	13458.62
763.102	13676.01
763.438	13777.93
763.775	13906.29
764.112	14059.96
764.449	14188.99
764.785	14388.31
765.122	14452.04
765.458	14610.68
765.795	14789.65
766.131	14902.42
766.467	15046.14
766.804	15152.36
767.14	15280.71
767.476	15491.78
767.812	15509.18
768.148	15750.31
768.485	15784.66
768.821	15820.59
769.157	15945.78
769.492	16158.43
769.828	16219.9
770.164	16241.82
770.5	16354.36
770.836	16459.21
771.171	16473.23
771.507	16648.59
771.842	16663.05
772.178	16763.39
772.513	16897.17
772.849	16853.1
773.184	16944.85
773.519	17033.21
773.855	17055.36
774.19	17186.88
774.525	17295.12
774.86	17288.34
775.195	17427.32
775.53	17397.27
775.865	17412.64
776.2	17439.3
776.535	17383.48
776.87	17498.51
777.205	17509.58
777.539	17461.45
777.874	17538.51
778.209	17551.16
778.543	17626.42
778.878	17587.55
779.212	17667.54
779.547	17607.43
779.881	17692.4
780.215	17644.72
780.55	17707.09
780.884	17638.17
781.218	17698.05
781.552	17679.97
781.886	17731.5
782.22	17618.96
782.554	17724.49
782.888	17511.16
783.222	17594.33
783.556	17582.35
783.889	17521.79
784.223	17495.35
784.557	17415.12
784.89	17545.74
785.224	17471.62
785.557	17481.79
785.891	17508
786.224	17457.15
786.558	17486.53
786.891	17329.02
787.224	17338.51
787.557	17404.73
787.891	17309.81
788.224	17326.31
788.557	17352.07
788.89	17243.15
789.223	17261.45
789.556	17261.23
789.888	17151.63
790.221	17197.27
790.554	17102.81
790.887	17063.49
791.219	17080.67
791.552	17067.33
791.884	16899.65
792.217	16957.05
792.549	16927
792.882	16806.78
793.214	16802.26
793.546	16845.42
793.879	16723.61
794.211	16708.02
794.543	16818.53
794.875	16657.85
795.207	16748.47
795.539	16712.09
795.871	16710.51
796.203	16489.04
796.535	16447.01
796.867	16548.48
797.198	16464.64
797.53	16418.31
797.862	16372.44
798.193	16317.97
798.525	16264.19
798.856	16290.18
799.188	16190.75
799.519	16072.33
799.85	16092.67
800.182	16054.25
800.513	16072.78
800.844	15915.95
801.175	16015.16
801.506	15956.18
801.837	15893.35
802.168	15892
802.499	15845.44
802.83	15819.23
803.161	15795.28
803.491	15654.94
803.822	15778.55
804.153	15636.64
804.483	15507.15
804.814	15500.14
805.145	15457.66
805.475	15534.49
805.805	15387.38
806.136	15483.65
806.466	15426.02
806.796	15378.11
807.126	15254.95
807.457	15248.62
807.787	15251.79
808.117	15157.78
808.447	15139.47
808.777	15118.01
809.107	15142.41
809.436	15060.38
809.766	15044.34
810.096	15027.61
810.426	14948.07
810.755	14990.78
811.085	14989.65
811.414	14923.66
811.744	14791.69
812.073	14762.76
812.403	14641.18
812.732	14705.59
813.061	14701.07
813.39	14654.52
813.719	14632.6
814.049	14760.73
814.378	14784.91
814.707	14555.99
815.036	14624.69
815.365	14398.93
815.693	14333.17
816.022	14366.84
816.351	14416.56
816.68	14276.45
817.008	14372.26
817.337	14251.59
817.665	14221.53
817.994	14265.37
818.322	14190.57
818.651	14193.74
818.979	14105.83
819.307	14203.23
819.636	14115.09
819.964	14058.83
820.292	14208.88
820.62	14076
820.948	13997.81
821.276	14099.28
821.604	14086.4
821.932	14093.63
822.259	14052.72
822.587	13966.85
822.915	14046.85
823.243	14059.73
823.57	13990.8
823.898	13954.42
824.225	14008.43
824.553	13901.77
824.88	13949
825.207	14065.15
825.535	14023.35
825.862	14053.85
826.189	13975.89
826.516	14025.15
826.843	14148.99
827.17	14026.96
827.497	14024.48
827.824	14108.54
828.151	14083.01
828.478	14074.64
828.805	14101.54
829.131	13997.13
829.458	14012.95
829.785	13981.99
830.111	14019.05
830.438	13982.44
830.764	14005.27
831.09	14052.05
831.417	13945.38
831.743	14008.88
832.069	14066.73
832.395	14005.49
832.722	13976.79
833.048	13951.48
833.374	14000.97
833.7	13871.49
834.026	13944.48
834.351	13919.39
834.677	13912.84
835.003	13878.04
835.329	13915.33
835.654	13891.82
835.98	13800.3
836.306	13849.34
836.631	13854.99
836.956	13804.37
837.282	13865.84
837.607	13825.61
837.932	13690.93
838.258	13727.76
838.583	13747.2
838.908	13613.87
839.233	13678.27
839.558	13692.51
839.883	13554.21
840.208	13542
840.533	13517.14
840.858	13565.96
841.182	13638.05
841.507	13517.37
841.832	13486.64
842.156	13426.75
842.481	13523.02
842.805	13455.9
843.13	13400.99
843.454	13358.96
843.778	13257.94
844.103	13297.04
844.427	13188.79
844.751	13264.04
845.075	13207.1
845.399	13162.13
845.723	13090.72
846.047	13149.92
846.371	13004.39
846.695	13044.39
847.019	12955.8
847.343	12842.59
847.666	12780.44
847.99	12766.43
848.313	12715.13
848.637	12601.69
848.96	12523.95
849.284	12530.73
849.607	12474.23
849.931	12409.83
850.254	12391.3
850.577	12389.04
850.9	12230.85
851.223	12273.34
851.546	12160.12
851.869	12066.56
852.192	12159.44
852.515	11975.49
852.838	12026.34
853.161	11985.66
853.483	11969.16
853.806	11867.7
854.129	11878.54
854.451	11818.21
854.774	11716.97
855.096	11709.28
855.419	11702.95
855.741	11679.68
856.063	11638.55
856.385	11600.36
856.708	11527.14
857.03	11499.8
857.352	11446.92
857.674	11499.8
857.996	11475.62
858.318	11333.25
858.64	11296.41
858.961	11348.39
859.283	11294.83
859.605	11285.56
859.926	11395.62
860.248	11187.94
860.57	11195.4
860.891	11189.97
861.212	11155.17
861.534	11089.19
861.855	11084.44
862.176	11123.31
862.498	11058
862.819	10996.31
863.14	11020.26
863.461	10931
863.782	10904.11
864.103	10943.65
864.424	10936.2
864.745	10940.72
865.065	10786.14
865.386	10837.22
865.707	10827.05
866.027	10861.62
866.348	10752.47
866.668	10769.65
866.989	10683.09
867.309	10641.06
867.63	10711.12
867.95	10737.1
868.27	10570.56
868.59	10677.9
868.91	10638.8
869.23	10632.47
869.55	10607.84
869.87	10595.64
870.19	10570.33
870.51	10583.89
870.83	10469.09
871.15	10418.24
871.469	10532.14
871.789	10491.69
872.109	10493.72
872.428	10424.34
872.748	10445.36
873.067	10438.81
873.386	10422.31
873.706	10401.29
874.025	10274.29
874.344	10319.71
874.663	10369.88
874.982	10290.34
875.301	10273.39
875.62	10278.13
875.939	10229.32
876.258	10234.07
876.577	10234.52
876.896	10209.43
877.214	10168.76
877.533	10146.39
877.852	10141.41
878.17	10152.04
878.489	10178.25
878.807	10136.89
879.125	10118.82
879.444	10040.85
879.762	10080.17
880.08	10099.61
880.398	9999.72
880.716	10058.48
881.034	9983.68
881.352	9954.75
881.67	9946.84
881.988	9890.8
882.306	9873.62
882.624	9886.96
882.941	9853.06
883.259	9830.01
883.577	9806.73
883.894	9850.35
884.212	9747.98
884.529	9788.88
884.846	9747.98
885.164	9732.84
885.481	9662.56
885.798	9710.69
886.115	9554.99
886.432	9615.78
886.75	9607.87
887.067	9606.51
887.383	9539.85
887.7	9549.34
888.017	9513.86
888.334	9537.81
888.651	9450.36
888.967	9530.13
889.284	9426.63
889.6	9430.7
889.917	9312.74
890.233	9349.8
890.55	9274.77
890.866	9291.72
891.182	9251.72
891.498	9212.4
891.815	9216.47
892.131	9138.28
892.447	9119.75
892.763	9046.08
893.079	9040.2
893.395	9016.25
893.71	9020.77
894.026	9077.04
894.342	8968.11
894.657	8882.92
894.973	8902.58
895.289	8917.27
895.604	8849.24
895.92	8845.18
896.235	8778.74
896.55	8703.49
896.865	8715.91
897.181	8717.27
897.496	8692.41
897.811	8621.23
898.126	8570.83
898.441	8607.9
898.756	8502.81
899.071	8485.41
899.386	8513.43
899.7	8396.38
900.015	8382.82
900.33	8331.74
900.644	8290.16
900.959	8378.52
901.273	8334.23
901.588	8268.92
901.902	8191.63
902.216	8180.56
902.531	8142.6
902.845	8104.41
903.159	8129.04
903.473	8064.41
903.787	8031.19
904.101	7971.98
904.415	8038.19
904.729	7868.71
905.042	7918.65
905.356	7919.55
905.67	7881.59
905.984	7863.51
906.297	7832.32
906.611	7829.38
906.924	7772.21
907.237	7778.09
907.551	7714.81
907.864	7669.39
908.177	7590.75
908.491	7667.35
908.804	7576.74
909.117	7556.62
909.43	7456.51
909.743	7412.9
910.056	7407.93
910.368	7336.06
910.681	7394.37
910.994	7362.96
911.307	7332.9
911.619	7286.12
911.932	7275.95
912.244	7206.58
912.557	7240.93
912.869	7178.33
913.181	7107.82
913.494	7140.14
913.806	7071.21
914.118	7028.73
914.43	6994.15
914.742	6973.81
915.054	6956.19
915.366	6946.92
915.678	6907.6
915.99	6929.97
916.302	6866.7
916.613	6802.52
916.925	6805
917.236	6777.21
917.548	6774.27
917.859	6735.63
918.171	6693.37
918.482	6700.83
918.794	6632.58
919.105	6590.55
919.416	6526.14
919.727	6578.12
920.038	6561.62
920.349	6438.01
920.66	6420.38
920.971	6451.12
921.282	6407.28
921.593	6444.56
921.903	6373.6
922.214	6327.96
922.525	6339.71
922.835	6273.95
923.146	6304
923.456	6250.22
923.767	6213.61
924.077	6224.68
924.387	6207.28
924.697	6135.87
925.008	6142.65
925.318	6059.49
925.628	6084.12
925.938	6079.37
926.248	5964.57
926.558	6018.81
926.867	6017.68
927.177	5963.44
927.487	5952.6
927.796	5882.77
928.106	5873.96
928.416	5814.97
928.725	5806.39
929.034	5814.52
929.344	5775.88
929.653	5699.72
929.962	5703.56
930.271	5712.15
930.581	5683.45
930.89	5638.26
931.199	5620.86
931.508	5608.65
931.817	5619.27
932.125	5591.93
932.434	5547.41
932.743	5511.93
933.051	5498.37
933.36	5469.67
933.669	5461.99
933.977	5418.6
934.286	5435.78
934.594	5387.41
934.902	5365.04
935.21	5321.43
935.519	5317.13
935.827	5321.88
936.135	5251.83
936.443	5240.75
936.751	5180.87
937.059	5232.16
937.367	5174.77
937.674	5188.55
937.982	5177.48
938.29	5184.48
938.597	5144.03
938.905	5044.6
939.213	5080.98
939.52	5016.8
939.827	5060.87
940.135	4971.38
940.442	4958.95
940.749	4998.27
941.056	4939.74
941.363	4897.71
941.67	4894.32
941.977	4899.52
942.284	4867.65
942.591	4842.34
942.898	4813.19
943.205	4803.25
943.511	4749.47
943.818	4768.22
944.125	4677.6
944.431	4753.53
944.738	4725.06
945.044	4693.65
945.35	4676.02
945.657	4612.52
945.963	4625.17
946.269	4604.61
946.575	4563.71
946.881	4565.74
947.187	4579.07
947.493	4472.18
947.799	4441.68
948.105	4485.74
948.41	4464.28
948.716	4457.5
949.022	4459.08
949.327	4378.85
949.633	4347.22
949.938	4346.09
950.244	4361.45
950.549	4331.62
950.854	4276.26
951.16	4254.11
951.465	4291.4
951.77	4223.15
952.075	4223.15
952.38	4204.4
952.685	4217.28
952.99	4144.74
953.294	4151.06
953.599	4149.03
953.904	4081.69
954.209	4073.1
954.513	4103.83
954.818	4066.32
955.122	4056.83
955.426	3993.33
955.731	3995.14
956.035	3988.81
956.339	4004.63
956.643	3989.71
956.948	3948.81
957.252	3949.71
957.556	3916.72
957.86	3908.13
958.163	3863.61
958.467	3872.43
958.771	3782.49
959.075	3858.42
959.378	3817.06
959.682	3775.25
959.985	3811.19
960.289	3749.72
960.592	3715.59
960.896	3726.44
961.199	3711.3
961.502	3707.68
961.805	3695.03
962.108	3656.39
962.411	3657.29
962.714	3600.34
963.017	3643.51
963.32	3620.91
963.623	3613.45
963.926	3556.5
964.228	3533.9
964.531	3547.69
964.833	3555.15
965.136	3516.05
965.438	3490.74
965.741	3529.38
966.043	3451.65
966.345	3428.37
966.648	3444.87
966.95	3430.18
967.252	3446.45
967.554	3396.51
967.856	3385.89
968.158	3345.89
968.46	3364.42
968.761	3333.68
969.063	3357.64
969.365	3304.76
969.666	3288.04
969.968	3281.26
970.269	3258.43
970.571	3258.21
970.872	3210.75
971.174	3194.48
971.475	3220.47
971.776	3215.27
972.077	3177.08
972.378	3179.79
972.679	3129.4
972.98	3116.51
973.281	3110.19
973.582	3118.55
973.883	3128.27
974.183	3054.59
974.484	3102.96
974.785	3095.5
975.085	3079
975.386	3040.81
975.686	3020.25
975.986	3031.54
976.287	3034.71
976.587	2967.37
976.887	2983.86
977.187	2978.21
977.487	2948.38
977.787	2953.13
978.087	2897.54
978.387	2935.28
978.687	2887.14
978.987	2875.16
979.286	2838.1
979.586	2856.63
979.885	2844.43
980.185	2841.72
980.484	2792.91
980.784	2785.22
981.083	2777.31
981.382	2783.19
981.682	2761.27
981.981	2792.23
982.28	2723.08
982.579	2737.32
982.878	2734.83
983.177	2697.54
983.475	2694.6
983.774	2676.75
984.073	2677.2
984.372	2651.44
984.67	2633.14
984.969	2635.17
985.267	2599.92
985.566	2612.35
985.864	2611.67
986.162	2584.78
986.461	2578.68
986.759	2559.69
987.057	2557.43
987.355	2516.3
987.653	2523.76
987.951	2517.89
988.249	2509.07
988.547	2487.83
988.844	2462.52
989.142	2452.12
989.44	2447.61
989.737	2457.32
990.035	2445.12
990.332	2425.68
990.63	2424.1
990.927	2401.28
991.224	2369.64
991.521	2371.22
991.819	2402.86
992.116	2372.58
992.413	2339.59
992.71	2340.72
993.006	2323.09
993.303	2343.2
993.6	2345.69
993.897	2264.11
994.193	2262.53
994.49	2258.01
994.787	2259.14
995.083	2253.49
995.379	2234.96
995.676	2214.84
995.972	2190.44
996.268	2224.11
996.565	2128.74
996.861	2181.62
997.157	2220.49
997.453	2167.84
997.749	2145.69
998.044	2123.55
998.34	2115.18
998.636	2135.07
998.932	2133.49
999.227	2082.19
999.523	2100.27
999.818	2082.87
1000.114	2078.8
1000.409	2065.02
1000.704	2062.3
1001	2008.29
1001.295	2022.31
1001.59	2033.6
1001.885	2019.14
1002.18	1974.85
1002.475	1985.92
1002.77	1976.66
1003.065	1964.23
1003.359	1935.75
1003.654	1940.95
1003.949	1919.03
1004.243	1892.37
1004.538	1906.83
1004.832	1890.56
1005.127	1883.33
1005.421	1884.91
1005.715	1873.61
1006.009	1854.17
1006.304	1843.78
1006.598	1811.01
1006.892	1837.9
1007.186	1782.99
1007.48	1824.34
1007.773	1778.47
1008.067	1792.03
1008.361	1754.29
1008.655	1757.45
1008.948	1765.82
1009.242	1750.22
1009.535	1721.52
1009.829	1726.27
1010.122	1736.21
1010.415	1709.55
1010.708	1709.55
1011.001	1676.33
1011.295	1667.51
1011.588	1691.47
1011.881	1656.44
1012.173	1643.78
1012.466	1616.67
1012.759	1636.78
1013.052	1625.25
1013.344	1646.72
1013.637	1594.07
1013.93	1585.93
1014.222	1568.31
1014.514	1606.05
1014.807	1561.3
1015.099	1577.35
1015.391	1575.31
1015.683	1527.4
1015.976	1524.92
1016.268	1514.97
1016.56	1498.48
1016.851	1497.8
1017.143	1505.71
1017.435	1502.32
1017.727	1465.48
1018.018	1478.14
1018.31	1473.62
1018.602	1469.33
1018.893	1455.77
1019.185	1432.26
1019.476	1454.64
1019.767	1408.31
1020.058	1431.36
1020.35	1372.38
1020.641	1366.28
1020.932	1398.82
1021.223	1387.52
1021.514	1368.76
1021.804	1346.62
1022.095	1339.39
1022.386	1342.55
1022.677	1326.5
1022.967	1322.66
1023.258	1313.17
1023.548	1303
1023.839	1287.64
1024.129	1284.47
1024.419	1272.95
1024.709	1253.29
1025	1246.96
1025.29	1246.96
1025.58	1257.81
1025.87	1254.64
1026.16	1230.01
1026.449	1213.74
1026.739	1205.6
1027.029	1202.44
1027.319	1181.2
1027.608	1171.03
1027.898	1171.03
1028.187	1195.43
1028.477	1144.36
1028.766	1146.4
1029.055	1153.4
1029.344	1139.62
1029.634	1153.18
1029.923	1115.66
1030.212	1127.19
1030.501	1123.12
1030.79	1109.56
1031.078	1110.69
1031.367	1091.26
1031.656	1088.32
1031.945	1065.49
1032.233	1088.09
1032.522	1060.3
1032.81	1063.01
1033.099	1046.74
1033.387	1046.06
1033.675	1053.29
1033.963	1015.55
1034.251	1024.14
1034.54	997.93
1034.828	1028.89
1035.116	1016
1035.403	992.28
1035.691	1006.06
1035.979	987.3
1036.267	987.98
1036.554	996.12
1036.842	974.88
1037.129	973.52
1037.417	944.14
1037.704	939.17
1037.992	973.75
1038.279	939.85
1038.566	939.4
1038.853	939.4
1039.14	939.4
