Data from hue_220_FLMS001491_00098.txt Node
Date: Tue Feb 07 16:40:12 GMT 2017
User: dcchb
Spectrometer: FLMS00149
Trigger mode: 0
Integration Time (sec): 2.000000E-2
Scans to average: 10
Electric dark correction enabled: true
Nonlinearity correction enabled: false
Boxcar width: 0
XAxis mode: Wavelengths
Number of Pixels in Spectrum: 2048
>>>>>Begin Spectral Data<<<<<
341.393	-24.02
341.776	-24.02
342.16	-24.02
342.543	-63.12
342.927	-89.33
343.31	-52.95
343.693	-72.61
344.077	-80.97
344.46	-70.58
344.843	-57.7
345.226	-21.76
345.61	-39.17
345.993	-30.8
346.376	-7.53
346.759	13.26
347.142	28.18
347.525	41.96
347.908	55.75
348.291	83.54
348.674	95.75
349.057	115.63
349.44	120.83
349.823	151.56
350.206	170.77
350.588	204.67
350.971	219.81
351.354	209.64
351.737	236.76
352.119	244.44
352.502	246.02
352.884	274.27
353.267	264.78
353.65	282.86
354.032	284.89
354.414	290.77
354.797	310.66
355.179	314.05
355.562	314.72
355.944	323.76
356.326	325.8
356.709	340.49
357.091	334.38
357.473	310.66
357.855	338.68
358.238	353.59
358.62	326.25
359.002	330.54
359.384	328.06
359.766	328.06
360.148	333.93
360.53	339.13
360.912	322.86
361.294	330.32
361.676	328.06
362.057	320.15
362.439	340.49
362.821	317.44
363.203	326.93
363.584	318.34
363.966	323.54
364.348	334.38
364.729	324.89
365.111	320.82
365.493	317.44
365.874	312.01
366.256	319.02
366.637	313.82
367.019	304.78
367.4	297.77
367.781	311.11
368.163	316.31
368.544	301.16
368.925	301.62
369.306	310.66
369.688	305.46
370.069	323.31
370.45	320.82
370.831	330.54
371.212	305.23
371.593	307.72
371.974	323.08
372.355	325.12
372.736	321.05
373.117	314.72
373.498	322.18
373.879	310.2
374.26	327.83
374.641	328.06
375.021	311.79
375.402	325.34
375.783	330.32
376.163	319.47
376.544	324.21
376.925	304.78
377.305	322.63
377.686	321.05
378.066	314.27
378.447	351.11
378.827	319.24
379.208	320.15
379.588	319.92
379.968	319.47
380.349	344.1
380.729	337.55
381.109	334.16
381.489	334.16
381.87	339.13
382.25	342.97
382.63	317.66
383.01	317.66
383.39	337.77
383.77	346.81
384.15	339.36
384.53	336.64
384.91	345.91
385.29	351.78
385.67	316.76
386.049	359.24
386.429	357.43
386.809	357.43
387.189	339.36
387.568	367.38
387.948	369.19
388.328	371.22
388.707	376.42
389.087	355.63
389.466	354.04
389.846	374.16
390.225	347.72
390.605	356.76
390.984	376.64
391.363	357.21
391.743	354.04
392.122	368.51
392.501	360.6
392.881	375.29
393.26	378.22
393.639	376.64
394.018	374.61
394.397	395.17
394.776	392.91
395.155	383.2
395.534	402.63
395.913	389.07
396.292	381.39
396.671	363.08
397.05	396.76
397.429	405.34
397.808	398.56
398.186	394.5
398.565	398.79
398.944	390.88
399.323	387.94
399.701	388.62
400.08	403.53
400.458	415.29
400.837	393.82
401.215	412.12
401.594	399.24
401.972	397.43
402.351	421.84
402.729	413.25
403.107	427.94
403.486	427.49
403.864	433.14
404.242	429.97
404.62	439.69
404.999	445.79
405.377	438.34
405.755	465.91
406.133	432.69
406.511	458.22
406.889	451.67
407.267	441.95
407.645	460.26
408.023	448.96
408.401	499.35
408.779	465.23
409.156	494.15
409.534	489.41
409.912	507.71
410.29	488.05
410.667	521.72
411.045	526.92
411.422	537.09
411.8	555.17
412.178	526.02
412.555	555.17
412.933	533.25
413.31	583.87
413.687	585.45
414.065	585.68
414.442	583.87
414.819	594.72
415.197	619.35
415.574	599.46
415.951	627.48
416.328	611.89
416.705	634.49
417.082	637.65
417.46	643.08
417.837	644.88
418.214	650.31
418.591	664.09
418.967	670.42
419.344	693.47
419.721	694.83
420.098	677.88
420.475	726.69
420.852	728.5
421.228	731.44
421.605	742.96
421.982	730.31
422.358	779.57
422.735	805.33
423.111	781.15
423.488	806.91
423.864	839.46
424.241	839.46
424.617	853.01
424.994	868.38
425.37	858.89
425.746	882.62
426.123	909.28
426.499	874.93
426.875	914.93
427.251	915.39
427.627	952.45
428.003	937.31
428.379	950.64
428.756	940.24
429.132	999
429.507	1004.42
429.883	1021.37
430.259	1016.85
430.635	1034.7
431.011	1043.07
431.387	1055.95
431.763	1091.65
432.138	1080.8
432.514	1082.84
432.89	1125.32
433.265	1116.28
433.641	1160.12
434.016	1160.8
434.392	1182.95
434.767	1228.15
435.143	1243.06
435.518	1267.92
435.894	1257.52
436.269	1288.71
436.644	1295.71
437.02	1329.61
437.395	1351.53
437.77	1385.2
438.145	1395.37
438.52	1380.91
438.895	1440.34
439.271	1438.54
439.646	1462.72
440.021	1519.89
440.395	1525.54
440.77	1507.46
441.145	1523.28
441.52	1534.13
441.895	1579.1
442.27	1585.2
442.645	1596.95
443.019	1643.5
443.394	1646.89
443.769	1668.59
444.143	1654.12
444.518	1688.92
444.892	1691.41
445.267	1701.81
445.641	1738.64
446.016	1763.95
446.39	1761.01
446.764	1758.98
447.139	1750.84
447.513	1801.24
447.887	1803.27
448.262	1788.36
448.636	1812.99
449.01	1814.57
449.384	1875.81
449.758	1858.41
450.132	1916.49
450.506	1901.8
450.88	1908.13
451.254	1899.77
451.628	1920.56
452.002	1947.22
452.376	1965.3
452.75	1994.91
453.123	1997.39
453.497	2020.89
453.871	2062.25
454.244	2086.43
454.618	2070.38
454.992	2089.37
455.365	2100.67
455.739	2204.62
456.112	2164.84
456.486	2205.52
456.859	2201.91
457.232	2252.98
457.606	2241
457.979	2289.81
458.352	2311.51
458.725	2333.2
459.099	2357.38
459.472	2412.07
459.845	2412.75
460.218	2457.94
460.591	2459.07
460.964	2428.57
461.337	2513.31
461.71	2550.37
462.083	2557.15
462.456	2550.82
462.829	2577.71
463.201	2610.48
463.574	2637.83
463.947	2671.05
464.32	2726.64
464.692	2769.12
465.065	2733.87
465.438	2821.55
465.81	2829.01
466.183	2863.36
466.555	2880.53
466.928	2933.64
467.3	2968.21
467.672	2950.59
468.045	3070.13
468.417	3054.54
468.789	3069.23
469.161	3062.9
469.534	3146.74
469.906	3212.05
470.278	3255.66
470.65	3259.05
471.022	3309.9
471.394	3333.18
471.766	3381.76
472.138	3426.05
472.51	3479.61
472.882	3489.78
473.253	3560.51
473.625	3616.56
473.997	3661.98
474.369	3705.82
474.74	3725.71
475.112	3755.54
475.484	3822.65
475.855	3889.09
476.227	3910.34
476.598	4002.99
476.97	4000.05
477.341	4091.12
477.713	4169.31
478.084	4170.67
478.455	4210.21
478.827	4291.12
479.198	4383.32
479.569	4388.74
479.94	4496.31
480.311	4490.66
480.682	4563.88
481.053	4719.81
481.424	4786.02
481.795	4777.66
482.166	4847.71
482.537	4903.08
482.908	5028.72
483.279	5001.83
483.65	5154.82
484.021	5178.32
484.391	5236.63
484.762	5247.7
485.133	5302.16
485.503	5428.94
485.874	5489.05
486.244	5508.26
486.615	5601.36
486.985	5622.15
487.356	5733.79
487.726	5779.66
488.097	5851.07
488.467	5857.63
488.837	6004.07
489.207	6062.82
489.578	6061.46
489.948	6100.11
490.318	6218.97
490.688	6235.25
491.058	6310.05
491.428	6376.26
491.798	6435.01
492.168	6505.07
492.538	6550.94
492.908	6643.6
493.278	6635.69
493.648	6655.8
494.017	6705.74
494.387	6745.97
494.757	6815.8
495.126	6856.02
495.496	6901.44
495.866	6944.15
496.235	6976.24
496.605	7049.24
496.974	7099.18
497.344	7129.46
497.713	7096.24
498.082	7252.39
498.452	7193.19
498.821	7250.59
499.19	7302.11
499.559	7301.43
499.928	7393.63
500.298	7398.83
500.667	7430.47
501.036	7418.72
501.405	7434.76
501.774	7456
502.143	7470.69
502.512	7515.66
502.88	7558.6
503.249	7568.32
503.618	7585.27
503.987	7659.84
504.356	7694.19
504.724	7636.34
505.093	7699.16
505.462	7681.08
505.83	7733.51
506.199	7739.39
506.567	7885.37
506.936	7830.91
507.304	7897.12
507.672	7867.97
508.041	7919.04
508.409	7920.17
508.777	7946.61
509.145	8049.66
509.514	7984.58
509.882	8021.64
510.25	7981.19
510.618	8075.65
510.986	8022.77
511.354	8084.69
511.722	8095.54
512.09	8160.17
512.458	8125.59
512.826	8092.37
513.193	8220.28
513.561	8148.42
513.929	8190.9
514.297	8280.84
514.664	8236.55
515.032	8298.24
515.4	8263.67
515.767	8272.48
516.135	8342.31
516.502	8248.3
516.869	8326.94
517.237	8333.72
517.604	8324.91
517.972	8327.85
518.339	8380.95
518.706	8280.62
519.073	8360.16
519.44	8328.3
519.808	8392.48
520.175	8391.57
520.542	8414.85
520.909	8439.48
521.276	8378.01
521.643	8397.67
522.009	8481.51
522.376	8486.94
522.743	8462.53
523.11	8516.09
523.477	8556.99
523.843	8598.8
524.21	8568.97
524.577	8624.79
524.943	8614.62
525.31	8645.58
525.676	8662.98
526.043	8710.66
526.409	8670.66
526.776	8707.05
527.142	8700.04
527.508	8672.47
527.874	8696.42
528.241	8780.04
528.607	8741.17
528.973	8712.92
529.339	8650.55
529.705	8793.82
530.071	8755.86
530.437	8730.1
530.803	8780.49
531.169	8714.05
531.535	8643.32
531.901	8700.04
532.267	8738.23
532.632	8722.86
532.998	8659.59
533.364	8716.76
533.73	8710.43
534.095	8767.83
534.461	8725.35
534.826	8690.55
535.192	8685.58
535.557	8671.79
535.923	8676.09
536.288	8649.19
536.653	8708.4
537.019	8578.01
537.384	8646.26
537.749	8600.16
538.114	8617.1
538.479	8572.81
538.845	8558.57
539.21	8519.71
539.575	8528.97
539.94	8547.5
540.305	8466.83
540.67	8526.71
541.034	8499.37
541.399	8460.05
541.764	8444.23
542.129	8459.14
542.494	8410.1
542.858	8461.18
543.223	8446.71
543.587	8429.76
543.952	8410.56
544.316	8398.58
544.681	8344.57
545.045	8344.12
545.41	8347.96
545.774	8290.11
546.138	8352.03
546.503	8283.78
546.867	8234.29
547.231	8228.64
547.595	8239.26
547.959	8248.07
548.324	8186.83
548.688	8218.02
549.052	8175.31
549.416	8130.79
549.779	8125.59
550.143	8099.15
550.507	8161.3
550.871	8102.09
551.235	8090.34
551.599	8116.55
551.962	8091.02
552.326	8073.16
552.689	8040.17
553.053	8001.07
553.417	7988.42
553.78	8065.48
554.143	8036.55
554.507	7917.91
554.87	8035.2
555.234	8063.45
555.597	7939.83
555.96	7909.55
556.323	7899.16
556.686	8000.62
557.05	7920.17
557.413	7937.35
557.776	7910.46
558.139	7943
558.502	7933.96
558.865	7952.71
559.228	7878.37
559.59	7927.4
559.953	7968.31
560.316	8005.14
560.679	7954.52
561.041	7967.63
561.404	7982.77
561.767	7998.36
562.129	7928.99
562.492	8020.96
562.854	7992.94
563.217	7921.75
563.579	8002.2
563.941	7997.01
564.304	8073.16
564.666	8079.49
565.028	8063.67
565.39	8057.8
565.753	8059.15
566.115	8063.22
566.477	8070
566.839	8122.88
567.201	8112.71
567.563	8107.51
567.925	8092.15
568.287	8149.09
568.648	8157.46
569.01	8174.4
569.372	8158.13
569.734	8159.26
570.095	8187.51
570.457	8239.49
570.819	8296.66
571.18	8300.73
571.542	8232.71
571.903	8219.83
572.265	8274.51
572.626	8291.69
572.987	8296.89
573.349	8365.36
573.71	8354.96
574.071	8307.06
574.432	8358.58
574.794	8466.6
575.155	8420.72
575.516	8415.08
575.877	8420.5
576.238	8509.31
576.599	8486.71
576.96	8481.06
577.32	8532.59
577.681	8528.52
578.042	8557.9
578.403	8536.2
578.763	8519.03
579.124	8551.79
579.485	8573.26
579.845	8564.68
580.206	8573.72
580.566	8626.37
580.927	8653.04
581.287	8710.66
581.648	8677.22
582.008	8695.97
582.368	8674.05
582.728	8735.07
583.089	8744.78
583.449	8680.83
583.809	8734.61
584.169	8778.46
584.529	8680.15
584.889	8784.33
585.249	8781.85
585.609	8832.01
585.969	8850.77
586.329	8822.3
586.688	8862.97
587.048	8791.79
587.408	8830.43
587.768	8853.03
588.127	8845.57
588.487	8796.31
588.846	8981.61
589.206	8827.72
589.565	8939.13
589.925	8923.08
590.284	8856.19
590.643	8989.98
591.003	8999.92
591.362	8942.52
591.721	9008.51
592.08	9011.9
592.44	9045.79
592.799	9085.34
593.158	8988.39
593.517	9057.77
593.876	9022.97
594.235	9043.08
594.593	9140.71
594.952	9110.42
595.311	9094.83
595.67	9092.57
596.029	9159.46
596.387	9154.72
596.746	9198.11
597.104	9073.82
597.463	9153.14
597.822	9182.74
598.18	9079.92
598.538	9109.52
598.897	9173.47
599.255	9122.4
599.613	9196.98
599.972	9142.06
600.33	9161.95
600.688	9164.43
601.046	9186.13
601.404	9287.14
601.762	9225.9
602.12	9215.51
602.478	9259.57
602.836	9259.12
603.194	9199.91
603.552	9195.85
603.91	9194.49
604.268	9203.53
604.625	9237.88
604.983	9216.18
605.341	9207.6
605.698	9295.05
606.056	9340.02
606.413	9289.85
606.771	9255.96
607.128	9310.87
607.485	9254.15
607.843	9252.34
608.2	9301.15
608.557	9352.45
608.914	9306.58
609.272	9394.48
609.629	9388.16
609.986	9400.81
610.343	9333.47
610.7	9363.52
611.057	9368.5
611.414	9357.42
611.771	9424.77
612.127	9383.64
612.484	9363.3
612.841	9455.95
613.198	9383.64
613.554	9424.99
613.911	9448.72
614.267	9493.47
614.624	9524.88
614.98	9476.52
615.337	9513.8
615.693	9495.72
616.05	9524.88
616.406	9565.55
616.762	9516.06
617.118	9490.98
617.475	9497.08
617.831	9557.87
618.187	9567.59
618.543	9554.25
618.899	9595.38
619.255	9563.97
619.611	9560.58
619.967	9596.29
620.323	9596.06
620.678	9573.91
621.034	9601.03
621.39	9583.18
621.746	9572.11
622.101	9680.13
622.457	9555.84
622.812	9559.23
623.168	9597.87
623.523	9610.75
623.879	9615.04
624.234	9611.65
624.589	9548.6
624.945	9599.23
625.3	9585.89
625.655	9560.13
626.01	9603.97
626.365	9580.47
626.72	9586.57
627.075	9561.71
627.43	9566.23
627.785	9555.84
628.14	9581.6
628.495	9549.73
628.85	9550.64
629.205	9529.4
629.559	9547.25
629.914	9522.39
630.269	9532.11
630.623	9462.96
630.978	9504.76
631.332	9518.55
631.687	9531.66
632.041	9482.84
632.396	9533.01
632.75	9476.74
633.104	9476.74
633.459	9438.55
633.813	9490.08
634.167	9406.69
634.521	9429.96
634.875	9514.03
635.229	9344.99
635.583	9353.81
635.937	9311.32
636.291	9382.96
636.645	9366.24
636.999	9329.18
637.352	9333.24
637.706	9242.4
638.06	9314.94
638.413	9294.37
638.767	9272.45
639.121	9384.54
639.474	9279.23
639.828	9197.65
640.181	9226.35
640.534	9229.74
640.888	9175.06
641.241	9179.35
641.594	9227.03
641.947	9243.98
642.301	9218.22
642.654	9145.45
643.007	9211.66
643.36	9184.09
643.713	9094.61
644.066	9173.47
644.419	9141.16
644.771	9053.02
645.124	8974.16
645.477	9015.29
645.83	8953.14
646.182	8940.26
646.535	8885.8
646.888	8880.6
647.24	8884.44
647.593	8905.68
647.945	8859.81
648.298	8838.79
648.65	8846.25
649.002	8829.98
649.355	8829.98
649.707	8856.87
650.059	8884.67
650.411	9010.09
650.763	9035.4
651.115	9099.13
651.467	9119.46
651.819	9072.91
652.171	9087.15
652.523	9050.99
652.875	9047.83
653.227	9015.06
653.578	9097.54
653.93	9077.2
654.282	8966.7
654.633	8996.08
654.985	8992.91
655.337	8981.39
655.688	9069.52
656.039	9055.51
656.391	9036.3
656.742	8991.33
657.094	8992.91
657.445	9035.85
657.796	9109.29
658.147	8978
658.498	9069.97
658.849	8997.43
659.2	9057.77
659.551	9043.31
659.902	8992.91
660.253	9044.89
660.604	9044.89
660.955	9086.02
661.306	9080.82
661.656	9110.65
662.007	9007.15
662.358	9095.06
662.708	9081.95
663.059	9040.37
663.409	9016.87
663.76	9076.07
664.11	9036.75
664.461	9111.55
664.811	9147.49
665.161	9083.53
665.511	9061.84
665.862	9088.05
666.212	9118.11
666.562	9076.53
666.912	9084.21
667.262	9061.84
667.612	9095.28
667.962	9055.74
668.312	9045.79
668.662	9102.06
669.011	9053.48
669.361	9120.82
669.711	9062.52
670.06	9095.06
670.41	9053.93
670.76	9020.94
671.109	9047.38
671.459	9051.89
671.808	9075.4
672.157	9048.05
672.507	8944.78
672.856	8986.13
673.205	8998.56
673.554	9015.06
673.904	8986.13
674.253	9051.67
674.602	8971.67
674.951	8844.67
675.3	8785.46
675.649	9029.3
675.998	8986.59
676.346	8958.79
676.695	8946.59
677.044	8857.55
677.393	8916.98
677.741	8958.34
678.09	8896.42
678.438	8905.46
678.787	8878.11
679.135	8899.81
679.484	8757.89
679.832	8864.1
680.181	8797.89
680.529	8808.96
680.877	8795.4
681.225	8759.7
681.573	8817.32
681.922	8771.45
682.27	8748.63
682.618	8724.67
682.966	8684.45
683.314	8748.4
683.661	8692.58
684.009	8712.69
684.357	8613.94
684.705	8594.73
685.053	8642.19
685.4	8623.88
685.748	8554.28
686.095	8531.46
686.443	8540.04
686.79	8511.12
687.138	8473.15
687.485	8481.97
687.832	8499.37
688.18	8448.07
688.527	8360.84
688.874	8417.56
689.221	8363.33
689.568	8313.38
689.915	8304.12
690.262	8315.19
690.609	8316.77
690.956	8248.07
691.303	8247.4
691.65	8213.72
691.997	8178.92
692.344	8117.91
692.69	8171.47
693.037	8093.28
693.383	8067.29
693.73	8056.67
694.077	7958.36
694.423	7996.78
694.769	7957.69
695.116	7922.66
695.462	7887.18
695.808	7847.18
696.155	7889.44
696.501	7870.91
696.847	7786.17
697.193	7765.15
697.539	7747.07
697.885	7729.67
698.231	7693.96
698.577	7710.46
698.923	7681.54
699.269	7578.94
699.614	7571.26
699.96	7528.54
700.306	7543.01
700.651	7456.23
700.997	7441.99
701.342	7438.38
701.688	7397.47
702.033	7355.22
702.379	7369.23
702.724	7325.84
703.069	7368.55
703.415	7256.91
703.76	7258.27
704.105	7289.23
704.45	7292.84
704.795	7183.92
705.14	7154.09
705.485	7158.61
705.83	7140.76
706.175	7168.55
706.52	7108.67
706.865	7112.28
707.209	7095.79
707.554	7008.78
707.899	7039.97
708.243	7013.3
708.588	7008.78
708.932	6927.43
709.277	6935.79
709.621	6991.38
709.966	6891.95
710.31	6925.62
710.654	6867.32
710.998	6859.64
711.342	6828.45
711.687	6834.33
712.031	6738.51
712.375	6740.32
712.719	6803.82
713.063	6737.38
713.407	6748.45
713.75	6722.92
714.094	6745.74
714.438	6719.75
714.782	6717.49
715.125	6706.19
715.469	6656.93
715.812	6636.37
716.156	6603.6
716.499	6613.99
716.843	6655.35
717.186	6585.29
717.53	6628.68
717.873	6590.26
718.216	6597.95
718.559	6597.5
718.902	6512.3
719.246	6535.35
719.589	6574.67
719.932	6495.58
720.275	6498.52
720.617	6461
720.96	6549.81
721.303	6515.46
721.646	6469.14
721.989	6507.55
722.331	6523.6
722.674	6460.1
723.016	6529.02
723.359	6449.7
723.701	6420.1
724.044	6409.7
724.386	6392.53
724.729	6465.52
725.071	6449.7
725.413	6400.21
725.755	6385.3
726.097	6420.55
726.439	6334.45
726.782	6371.97
727.124	6344.85
727.465	6383.04
727.807	6318.18
728.149	6383.26
728.491	6370.84
728.833	6399.99
729.175	6270.5
729.516	6295.13
729.858	6313.89
730.199	6323.83
730.541	6284.28
730.882	6310.05
731.224	6409.93
731.565	6323.38
731.906	6302.36
732.248	6314.11
732.589	6271.63
732.93	6319.76
733.271	6284.28
733.612	6336.26
733.953	6302.36
734.294	6356.15
734.635	6301.01
734.976	6322.7
735.317	6308.46
735.658	6349.59
735.999	6272.31
736.339	6302.14
736.68	6265.75
737.021	6343.04
737.361	6357.5
737.702	6360.44
738.042	6334.68
738.383	6305.53
738.723	6373.32
739.063	6382.81
739.404	6362.25
739.744	6378.52
740.084	6360.21
740.424	6418.97
740.764	6413.32
741.104	6380.33
741.444	6446.54
741.784	6406.54
742.124	6430.95
742.464	6471.17
742.804	6493.09
743.143	6473.66
743.483	6487.67
743.823	6509.59
744.162	6533.32
744.502	6563.15
744.841	6556.82
745.181	6555.46
745.52	6659.42
745.86	6704.39
746.199	6689.7
746.538	6739.87
746.877	6750.71
747.216	6837.04
747.556	6868
747.895	6895.34
748.234	6907.32
748.573	6937.83
748.911	7023.47
749.25	7063.7
749.589	7101.21
749.928	7156.58
750.267	7230.7
750.605	7305.73
750.944	7306.63
751.283	7398.38
751.621	7494.87
751.96	7528.77
752.298	7664.13
752.636	7696
752.975	7797.69
753.313	7873.85
753.651	7941.87
753.989	8064.35
754.327	8196.1
754.666	8241.97
755.004	8336.66
755.342	8502.3
755.679	8537.78
756.017	8688.29
756.355	8851.45
756.693	8970.99
757.031	9086.02
757.368	9269.97
757.706	9312
758.044	9444.88
758.381	9569.85
758.719	9821.14
759.056	9892.78
759.394	10059.1
759.731	10108.59
760.068	10252.77
760.405	10458.86
760.743	10612.08
761.08	10819.08
761.417	10897.72
761.754	11119.64
762.091	11321.21
762.428	11379.29
762.765	11573.18
763.102	11814.99
763.438	11864.02
763.775	12054.98
764.112	12200.06
764.449	12409.09
764.785	12556.44
765.122	12606.38
765.458	12813.6
765.795	12982.86
766.131	13132.47
766.467	13300.37
766.804	13363.87
767.14	13520.93
767.476	13710.53
767.812	13873.24
768.148	13940.35
768.485	14071.88
768.821	14216.96
769.157	14412.21
769.492	14437.06
769.828	14709.37
770.164	14636.61
770.5	14836.38
770.836	15019.42
771.171	14959.08
771.507	15101.91
771.842	15166.54
772.178	15347.1
772.513	15430.03
772.849	15524.49
773.184	15649.46
773.519	15692.62
773.855	15744.15
774.19	15842.22
774.525	15893.07
774.86	16092.84
775.195	16085.83
775.53	16142.78
775.865	16218.49
776.2	16199.5
776.535	16178.49
776.87	16353.4
777.205	16380.29
777.539	16406.05
777.874	16476.56
778.209	16439.27
778.543	16428.2
778.878	16629.77
779.212	16644.24
779.547	16555.2
779.881	16654.41
780.215	16661.19
780.55	16753.84
780.884	16685.14
781.218	16740.73
781.552	16768.53
781.886	16755.87
782.22	16767.17
782.554	16762.88
782.888	16674.07
783.222	16697.34
783.556	16673.62
783.889	16763.33
784.223	16671.36
784.557	16689.21
784.89	16699.38
785.224	16667.29
785.557	16668.19
785.891	16709.55
786.224	16761.52
786.558	16673.16
786.891	16588.87
787.224	16575.09
787.557	16573.73
787.891	16646.5
788.224	16644.92
788.557	16637.23
788.89	16605.37
789.223	16665.93
789.556	16590.45
789.888	16578.7
790.221	16472.26
790.554	16425.94
790.887	16421.87
791.219	16413.74
791.552	16385.26
791.884	16340.06
792.217	16326.51
792.549	16286.96
792.882	16293.06
793.214	16299.84
793.546	16328.77
793.879	16195.66
794.211	16060.52
794.543	16282.21
794.875	16153.18
795.207	16302.1
795.539	16148.88
795.871	16068.43
796.203	16088.55
796.535	16012.39
796.867	15954.99
797.198	15925.39
797.53	15893.52
797.862	15843.13
798.193	15877.48
798.525	15833.86
798.856	15856.69
799.188	15646.07
799.519	15631.61
799.85	15585.28
800.182	15619.86
800.513	15573.76
800.844	15490.82
801.175	15611.04
801.506	15589.8
801.837	15435
802.168	15360.43
802.499	15366.08
802.83	15381.67
803.161	15353.42
803.491	15407.21
803.822	15335.57
804.153	15222.13
804.483	15148.91
804.814	15223.94
805.145	15044.28
805.475	15154.33
805.805	14986.65
806.136	15127.67
806.466	15076.14
806.796	15019.87
807.126	14929.48
807.457	14844.28
807.787	14938.29
808.117	14887.67
808.447	14779.88
808.777	14769.03
809.107	14683.61
809.436	14734.68
809.766	14687
810.096	14658.53
810.426	14599.09
810.755	14598.42
811.085	14616.49
811.414	14614.01
811.744	14453.11
812.073	14475.93
812.403	14467.12
812.732	14362.04
813.061	14431.64
813.39	14329.72
813.719	14312.77
814.049	14407.91
814.378	14234.81
814.707	14384.64
815.036	14229.84
815.365	14252.89
815.693	14104.64
816.022	14189.16
816.351	14040.01
816.68	14079.11
817.008	14038.2
817.337	13932.9
817.665	14013.57
817.994	13959.34
818.322	13966.12
818.651	13858.55
818.979	13820.81
819.307	13970.64
819.636	13820.58
819.964	13818.55
820.292	13879.79
820.62	13881.6
820.948	13873.46
821.276	13913.91
821.604	13767.7
821.932	13795.72
822.259	13822.84
822.587	13876.63
822.915	13754.82
823.243	13774.03
823.57	13783.07
823.898	13825.33
824.225	13788.95
824.553	13688.16
824.88	13727.48
825.207	13867.36
825.535	13732.68
825.862	13797.08
826.189	13767.93
826.516	13837.76
826.843	13769.06
827.17	13877.98
827.497	13846.34
827.824	13843.18
828.151	13848.83
828.478	13832.11
828.805	13918.66
829.131	13807.93
829.458	13811.32
829.785	13763.64
830.111	13775.61
830.438	13833.24
830.764	13822.84
831.09	13787.14
831.417	13806.57
831.743	13810.64
832.069	13856.97
832.395	13735.84
832.722	13793.24
833.048	13732
833.374	13758.66
833.7	13647.71
834.026	13735.16
834.351	13717.31
834.677	13660.59
835.003	13712.56
835.329	13690.64
835.654	13686.12
835.98	13617.2
836.306	13640.02
836.631	13531.33
836.956	13571.1
837.282	13653.58
837.607	13566.35
837.932	13494.26
838.258	13593.47
838.583	13557.54
838.908	13465.79
839.233	13463.76
839.558	13510.76
839.883	13414.94
840.208	13400.93
840.533	13414.49
840.858	13439.12
841.182	13369.52
841.507	13310.09
841.832	13242.75
842.156	13310.31
842.481	13302.63
842.805	13249.98
843.13	13255.63
843.454	13172.46
843.778	13067.38
844.103	13104.22
844.427	13049.53
844.751	13050.66
845.075	13011.11
845.399	12963.2
845.723	12950.78
846.047	12904.45
846.371	12814.96
846.695	12815.64
847.019	12794.85
847.343	12755.75
847.666	12604.8
847.99	12576.55
848.313	12560.28
848.637	12522.54
848.96	12490.67
849.284	12440.28
849.607	12333.39
849.931	12333.62
850.254	12210.68
850.577	12239.16
850.9	12134.75
851.223	12078.26
851.546	12005.04
851.869	11840.07
852.192	12044.36
852.515	11929.11
852.838	11944.47
853.161	11888.88
853.483	11819.73
853.806	11637.14
854.129	11712.84
854.451	11658.83
854.774	11579.96
855.096	11586.52
855.419	11548.78
855.741	11559.85
856.063	11434.21
856.385	11452.96
856.708	11427.2
857.03	11382.45
857.352	11353.3
857.674	11322.34
857.996	11220.88
858.318	11205.96
858.64	11245.28
858.961	11130.94
859.283	11180.2
859.605	11152.18
859.926	11101.56
860.248	11133.65
860.57	11007.55
860.891	11002.58
861.212	10986.99
861.534	11007.1
861.855	10917.38
862.176	10909.7
862.498	10908.8
862.819	10876.71
863.14	10843.49
863.461	10814.11
863.782	10814.33
864.103	10840.55
864.424	10720.33
864.745	10749.03
865.065	10723.04
865.386	10627.9
865.707	10726.2
866.027	10702.47
866.348	10652.3
866.668	10653.66
866.989	10630.16
867.309	10527.11
867.63	10617.96
867.95	10571.4
868.27	10522.36
868.59	10546.09
868.91	10531.86
869.23	10455.25
869.55	10386.77
869.87	10500.44
870.19	10409.37
870.51	10483.5
870.83	10440.78
871.15	10351.52
871.469	10377.28
871.789	10351.07
872.109	10360.79
872.428	10285.99
872.748	10342.03
873.067	10356.04
873.386	10337.74
873.706	10279.21
874.025	10200.34
874.344	10152.43
874.663	10225.2
874.982	10185.42
875.301	10167.57
875.62	10104.07
875.939	10146.78
876.258	10166.67
876.577	10091.19
876.896	10067.24
877.214	10077.18
877.533	10058.87
877.852	9991.08
878.17	10082.83
878.489	9981.14
878.807	10074.92
879.125	10048.25
879.444	9974.36
879.762	9993.79
880.08	9941.14
880.398	9867.92
880.716	9884.87
881.034	9909.5
881.352	9860.91
881.67	9846.22
881.988	9864.53
882.306	9723.29
882.624	9759.67
882.941	9731.88
883.259	9700.01
883.577	9731.42
883.894	9680.13
884.212	9640.81
884.529	9661.37
884.846	9682.16
885.164	9597.64
885.481	9580.24
885.798	9587.25
886.115	9536.63
886.432	9567.59
886.75	9428.61
887.067	9485.78
887.383	9485.56
887.7	9487.59
888.017	9455.05
888.334	9401.04
888.651	9366.69
888.967	9330.53
889.284	9291.21
889.6	9293.47
889.917	9303.41
890.233	9222.06
890.55	9249.63
890.866	9195.39
891.182	9121.95
891.498	9077.2
891.815	9147.03
892.131	9040.37
892.447	9096.87
892.763	8982.29
893.079	8912.69
893.395	8891.45
893.71	8916.76
894.026	8918.79
894.342	8894.38
894.657	8815.74
894.973	8796.53
895.289	8787.95
895.604	8793.6
895.92	8637.22
896.235	8604.45
896.55	8643.32
896.865	8628.4
897.181	8576.88
897.496	8611.23
897.811	8497.33
898.126	8512.47
898.441	8483.55
898.756	8398.8
899.071	8404.45
899.386	8395.87
899.7	8392.7
900.015	8246.27
900.33	8263.44
900.644	8317
900.959	8274.29
901.273	8241.29
901.588	8171.69
901.902	8161.3
902.216	8115.2
902.531	8064.8
902.845	8059.6
903.159	8007.85
903.473	8067.74
903.787	7990
904.101	7944.58
904.415	7881.3
904.729	7840.18
905.042	7828.65
905.356	7767.63
905.67	7738.93
905.984	7750.23
906.297	7731.25
906.611	7710.69
906.924	7681.99
907.237	7625.04
907.551	7594.08
907.864	7611.48
908.177	7563.57
908.491	7572.84
908.804	7491.26
909.117	7455.55
909.43	7381.2
909.743	7353.86
910.056	7366.74
910.368	7333.3
910.681	7253.52
910.994	7259.85
911.307	7274.54
911.619	7193.19
911.932	7194.09
912.244	7141.66
912.557	7092.17
912.869	7096.92
913.181	7089.23
913.494	7068.9
913.806	6950.26
914.118	7017.15
914.43	6952.97
914.742	6942.12
915.054	6852.63
915.366	6856.25
915.678	6839.52
915.99	6783.93
916.302	6762.24
916.613	6765.85
916.925	6713.65
917.236	6742.8
917.548	6657.38
917.859	6688.79
918.171	6634.33
918.482	6581.68
918.794	6584.84
919.105	6581.9
919.416	6544.16
919.727	6478.4
920.038	6501
920.349	6423.94
920.66	6382.81
920.971	6433.88
921.282	6423.04
921.593	6272.31
921.903	6309.37
922.214	6267.34
922.525	6263.27
922.835	6239.77
923.146	6196.38
923.456	6196.83
923.767	6174
924.077	6182.82
924.387	6117.28
924.697	6014.23
925.008	6056.27
925.318	6052.88
925.628	6054.91
925.938	6036.38
926.248	5949.15
926.558	5936.72
926.867	5942.37
927.177	5870.51
927.487	5826.44
927.796	5807.46
928.106	5809.95
928.416	5838.19
928.725	5850.4
929.034	5759.55
929.344	5711.87
929.653	5707.8
929.962	5662.15
930.271	5679.33
930.581	5622.15
930.89	5601.14
931.199	5598.43
931.508	5544.42
931.817	5539.22
932.125	5507.36
932.434	5555.94
932.743	5434.36
933.051	5416.96
933.36	5409.28
933.669	5348.49
933.977	5344.87
934.286	5371.54
934.594	5336.96
934.902	5335.38
935.21	5236.85
935.519	5242.73
935.827	5236.63
936.135	5216.74
936.443	5181.49
936.751	5174.71
937.059	5169.51
937.367	5104.65
937.674	5174.93
937.982	5110.76
938.29	5059.23
938.597	5022.17
938.905	5035.5
939.213	5015.16
939.52	4939.91
939.827	4922.74
940.135	4953.25
940.442	4973.36
940.749	4898.56
941.056	4942.4
941.363	4852.46
941.67	4826.47
941.977	4840.03
942.284	4796.41
942.591	4839.8
942.898	4721.84
943.205	4691.11
943.511	4733.82
943.818	4687.49
944.125	4675.06
944.431	4659.92
944.738	4699.92
945.044	4645
945.35	4597.77
945.657	4619.69
945.963	4573.14
946.269	4547.61
946.575	4515.29
946.881	4516.87
947.187	4480.72
947.493	4454.28
947.799	4418.8
948.105	4413.15
948.41	4422.19
948.716	4375.63
949.022	4339.7
949.327	4375.18
949.633	4332.24
949.938	4362.3
950.244	4348.06
950.549	4265.58
950.854	4254.96
951.16	4218.35
951.465	4244.11
951.77	4223.32
952.075	4207.95
952.38	4155.07
952.685	4177.45
952.99	4148.52
953.294	4116.43
953.599	4108.52
953.904	4052.25
954.209	4085.7
954.513	4039.6
954.818	4041.63
955.122	4017.45
955.426	3999.15
955.731	3936.32
956.035	3965.93
956.339	3953.72
956.643	3937.45
956.948	3884.57
957.252	3923.22
957.556	3891.58
957.86	3868.75
958.163	3874.4
958.467	3856.55
958.771	3830.34
959.075	3846.16
959.378	3757.34
959.682	3805.25
959.985	3767.29
960.289	3711.7
960.592	3693.84
960.896	3732.71
961.199	3713.96
961.502	3673.73
961.805	3646.39
962.108	3657.01
962.411	3631.47
962.714	3587.18
963.017	3563
963.32	3610.46
963.623	3570.46
963.926	3554.86
964.228	3506.96
964.531	3536.56
964.833	3557.35
965.136	3480.29
965.438	3473.74
965.741	3450.01
966.043	3454.53
966.345	3429.67
966.648	3426.51
966.95	3422.66
967.252	3375.43
967.554	3381.31
967.856	3395.09
968.158	3369.56
968.46	3337.69
968.761	3313.29
969.063	3339.73
969.365	3287.98
969.666	3295.21
969.968	3245.27
970.269	3238.71
970.571	3240.97
970.872	3245.49
971.174	3203.01
971.475	3176.57
971.776	3127.08
972.077	3110.81
972.378	3096.12
972.679	3126.17
972.98	3116.91
973.281	3109
973.582	3115.55
973.883	3063.8
974.183	3022.22
974.484	3065.61
974.785	3045.73
975.085	2993.52
975.386	3008.66
975.686	2997.36
975.986	2989.23
976.287	2967.53
976.587	2963.92
976.887	2955.78
977.187	2948.1
977.487	2923.92
977.787	2880.76
978.087	2879.18
978.387	2900.64
978.687	2840.08
978.987	2892.06
979.286	2851.83
979.586	2797.37
979.885	2793.3
980.185	2803.7
980.484	2808.22
980.784	2746.52
981.083	2777.03
981.382	2760.99
981.682	2740.87
981.981	2727.09
982.28	2722.12
982.579	2683.93
982.878	2729.8
983.177	2681.89
983.475	2687.32
983.774	2656.13
984.073	2616.58
984.372	2631.72
984.67	2594.44
984.969	2585.4
985.267	2612.74
985.566	2593.99
985.864	2579.75
986.162	2603.93
986.461	2546.98
986.759	2565.06
987.057	2531.39
987.355	2475.57
987.653	2535.91
987.951	2537.49
988.249	2478.28
988.547	2448.45
988.844	2440.09
989.142	2432.41
989.44	2466.76
989.737	2447.32
990.035	2437.15
990.332	2368.68
990.63	2404.61
990.927	2369.58
991.224	2402.8
991.521	2346.99
991.819	2330.72
992.116	2356.93
992.413	2319.64
992.71	2311.51
993.006	2300.89
993.303	2307.44
993.6	2270.38
993.897	2286.87
994.193	2261.79
994.49	2252.75
994.787	2217.27
995.083	2222.92
995.379	2224.73
995.676	2199.42
995.972	2199.87
996.268	2166.2
996.565	2184.5
996.861	2162.13
997.157	2166.43
997.453	2138.4
997.749	2145.18
998.044	2111.74
998.34	2101.12
998.636	2130.27
998.932	2076.03
999.227	2077.39
999.523	2079.42
999.818	2063.6
1000.114	2046.43
1000.409	2045.98
1000.704	2038.29
1001	2020.22
1001.295	1990.39
1001.59	1963.27
1001.885	1998.52
1002.18	1981.57
1002.475	1952.87
1002.77	1968.01
1003.065	1938.41
1003.359	1929.14
1003.654	1921.91
1003.949	1908.13
1004.243	1912.87
1004.538	1914.91
1004.832	1881.24
1005.127	1874.68
1005.421	1874.68
1005.715	1840.11
1006.009	1855.93
1006.304	1837.85
1006.598	1841.01
1006.892	1818.64
1007.186	1815.93
1007.48	1796.04
1007.773	1772.09
1008.067	1797.85
1008.361	1770.73
1008.655	1752.43
1008.948	1756.27
1009.242	1718.53
1009.535	1728.47
1009.829	1692.77
1010.122	1700.68
1010.415	1692.54
1010.708	1652.77
1011.001	1687.79
1011.295	1692.31
1011.588	1654.8
1011.881	1652.77
1012.173	1665.42
1012.466	1626.78
1012.759	1631.3
1013.052	1589.04
1013.344	1621.36
1013.637	1577.06
1013.93	1560.34
1014.222	1561.92
1014.514	1584.07
1014.807	1529.83
1015.099	1558.53
1015.391	1545.2
1015.683	1512.88
1015.976	1531.19
1016.268	1479.89
1016.56	1493.45
1016.851	1510.62
1017.143	1464.07
1017.435	1483.96
1017.727	1439.67
1018.018	1443.28
1018.31	1449.16
1018.602	1436.95
1018.893	1426.78
1019.185	1402.15
1019.476	1418.2
1019.767	1419.55
1020.058	1391.53
1020.35	1360.12
1020.641	1367.35
1020.932	1374.58
1021.223	1352.44
1021.514	1337.07
1021.804	1316.5
1022.095	1325.77
1022.386	1323.06
1022.677	1332.55
1022.967	1292.55
1023.258	1295.49
1023.548	1278.54
1023.839	1268.6
1024.129	1279.44
1024.419	1280.8
1024.709	1242.38
1025	1243.74
1025.29	1270.18
1025.58	1241.03
1025.87	1233.57
1026.16	1229.73
1026.449	1215.04
1026.739	1202.84
1027.029	1196.51
1027.319	1188.82
1027.608	1188.6
1027.898	1170.97
1028.187	1143.63
1028.477	1160.12
1028.766	1132.1
1029.055	1148.15
1029.344	1148.15
1029.634	1148.83
1029.923	1115.61
1030.212	1103.18
1030.501	1123.74
1030.79	1090.07
1031.078	1097.75
1031.367	1068.38
1031.656	1087.13
1031.945	1051.2
1032.233	1087.13
1032.522	1050.98
1032.81	1079
1033.099	1027.25
1033.387	1040.13
1033.675	1021.37
1033.963	1025.21
1034.251	1024.31
1034.54	1020.02
1034.828	993.35
1035.116	991.54
1035.403	1004.2
1035.691	999.9
1035.979	984.76
1036.267	966.23
1036.554	969.17
1036.842	961.03
1037.129	941.6
1037.417	922.84
1037.704	938.89
1037.992	951.09
1038.279	933.24
1038.566	918.1
1038.853	918.1
1039.14	918.1
