Data from hue_320_FLMS001491_54.txt Node
Date: Mon Feb 06 15:47:23 GMT 2017
User: dcchb
Spectrometer: FLMS00149
Trigger mode: 0
Integration Time (sec): 2.000000E-2
Scans to average: 10
Electric dark correction enabled: true
Nonlinearity correction enabled: false
Boxcar width: 0
XAxis mode: Wavelengths
Number of Pixels in Spectrum: 2048
>>>>>Begin Spectral Data<<<<<
341.393	-20.65
341.776	-20.65
342.16	-20.65
342.543	-64.04
342.927	-49.12
343.31	-82.12
343.693	-59.07
344.077	-66.3
344.46	-61.1
344.843	-50.93
345.226	-35.79
345.61	-35.34
345.993	-28.56
346.376	-16.58
346.759	17.54
347.142	37.65
347.525	31.1
347.908	60.48
348.291	71.33
348.674	96.18
349.057	121.49
349.44	122.85
349.823	141.61
350.206	178.44
350.588	187.71
350.971	200.14
351.354	240.59
351.737	227.03
352.119	224.99
352.502	257.54
352.884	282.17
353.267	268.83
353.65	288.04
354.032	313.13
354.414	302.96
354.797	303.86
355.179	332.11
355.562	328.27
355.944	321.49
356.326	341.15
356.709	332.79
357.091	337.99
357.473	325.78
357.855	342.05
358.238	338.21
358.62	342.96
359.002	331.43
359.384	327.36
359.766	343.64
360.148	339.79
360.53	317.2
360.912	322.84
361.294	335.73
361.676	341.15
362.057	326.91
362.439	315.16
362.821	309.74
363.203	338.89
363.584	328.04
363.966	323.52
364.348	309.51
364.729	306.35
365.111	329.4
365.493	312
365.874	312.22
366.256	328.27
366.637	324.65
367.019	298.66
367.4	329.62
367.781	313.13
368.163	299.34
368.544	312.45
368.925	300.7
369.306	325.33
369.688	301.83
370.069	300.02
370.45	319.91
370.831	315.61
371.212	301.6
371.593	272.68
371.974	302.51
372.355	306.12
372.736	308.16
373.117	314.48
373.498	328.95
373.879	334.14
374.26	314.48
374.641	317.87
375.021	288.72
375.402	323.07
375.783	303.18
376.163	327.36
376.544	321.94
376.925	336.63
377.305	302.96
377.686	311.09
378.066	311.55
378.447	331.88
378.827	309.06
379.208	316.97
379.588	339.12
379.968	331.88
380.349	327.59
380.729	333.01
381.109	313.35
381.489	329.17
381.87	325.56
382.25	329.62
382.63	329.4
383.01	339.12
383.39	338.21
383.77	333.01
384.15	353.13
384.53	330.98
384.91	352.22
385.29	345.22
385.67	354.71
386.049	370.53
386.429	350.41
386.809	356.97
387.189	352.67
387.568	328.95
387.948	333.92
388.328	363.97
388.707	350.41
389.087	350.41
389.466	357.42
389.846	348.61
390.225	367.59
390.605	355.61
390.984	365.33
391.363	346.57
391.743	373.69
392.122	376.4
392.501	363.3
392.881	347.48
393.26	369.4
393.639	361.71
394.018	386.57
394.397	376.18
394.776	390.19
395.155	367.36
395.534	391.09
395.913	378.44
396.292	398.55
396.671	380.92
397.05	374.82
397.429	393.35
397.808	385.67
398.186	391.32
398.565	392.67
398.944	399
399.323	392.67
399.701	367.14
400.08	399
400.458	395.16
400.837	395.39
401.215	391.32
401.594	406.46
401.972	425.44
402.351	416.4
402.729	417.08
403.107	411.66
403.486	410.07
403.864	418.89
404.242	432.45
404.62	426.57
404.999	417.76
405.377	420.24
405.755	442.62
406.133	430.41
406.511	438.1
406.889	433.12
407.267	424.54
407.645	469.51
408.023	460.69
408.401	475.83
408.779	470.64
409.156	456.63
409.534	471.77
409.912	471.77
410.29	468.38
410.667	471.54
411.045	476.51
411.422	495.5
411.8	509.73
412.178	494.82
412.555	507.02
412.933	529.39
413.31	521.26
413.687	545.89
414.065	503.63
414.442	536.85
414.819	560.13
415.197	557.64
415.574	546.79
415.951	578.21
416.328	559.45
416.705	589.5
417.082	572.78
417.46	588.83
417.837	599.22
418.214	593.12
418.591	595.61
418.967	607.58
419.344	600.8
419.721	611.42
420.098	604.87
420.475	637.86
420.852	632.89
421.228	634.25
421.605	636.96
421.982	666.56
422.358	656.62
422.735	673.57
423.111	651.88
423.488	665.43
423.864	651.65
424.241	693.23
424.617	712.21
424.994	672.21
425.37	732.55
425.746	690.97
426.123	717.41
426.499	735.72
426.875	733
427.251	760.8
427.627	777.3
428.003	749.73
428.379	766.9
428.756	770.97
429.132	776.17
429.507	788.14
429.883	790.4
430.259	806.9
430.635	834.92
431.011	826.56
431.387	832.66
431.763	864.3
432.138	868.82
432.514	863.4
432.89	880.57
433.265	880.12
433.641	878.54
434.016	876.28
434.392	902.49
434.767	920.57
435.143	903.39
435.518	947.23
435.894	944.07
436.269	943.17
436.644	949.27
437.02	981.58
437.395	977.74
437.77	956.73
438.145	993.79
438.52	1002.37
438.895	997.18
439.271	1021.81
439.646	1018.19
440.021	1036.72
440.395	1028.81
440.77	1037.63
441.145	1040.34
441.52	1072.88
441.895	1076.27
442.27	1088.93
442.645	1071.3
443.019	1077.4
443.394	1087.34
443.769	1079.21
444.143	1092.77
444.518	1096.38
444.892	1100.23
445.267	1105.42
445.641	1116.5
446.016	1103.39
446.39	1124.41
446.764	1144.97
447.139	1146.78
447.513	1142.03
447.887	1151.98
448.262	1137.29
448.636	1147.23
449.01	1202.14
449.384	1142.94
449.758	1177.51
450.132	1162.14
450.506	1180.68
450.88	1176.16
451.254	1195.59
451.628	1200.56
452.002	1201.47
452.376	1234.23
452.75	1231.97
453.123	1242.59
453.497	1267.68
453.871	1261.58
454.244	1260.9
454.618	1274.01
454.992	1230.17
455.365	1257.74
455.739	1298.86
456.112	1294.12
456.486	1317.39
456.859	1311.75
457.232	1320.56
457.606	1319.43
457.979	1372.08
458.352	1355.59
458.725	1358.75
459.099	1368.01
459.472	1369.82
459.845	1398.3
460.218	1415.47
460.591	1415.7
460.964	1415.7
461.337	1461.57
461.71	1458.86
462.083	1483.04
462.456	1504.28
462.829	1488.69
463.201	1495.24
463.574	1490.05
463.947	1530.72
464.32	1549.48
464.692	1542.02
465.065	1563.49
465.438	1542.25
465.81	1568.91
466.183	1575.69
466.555	1624.05
466.928	1619.76
467.3	1614.79
467.672	1623.15
468.045	1637.16
468.417	1684.84
468.789	1675.58
469.161	1694.11
469.534	1746.76
469.906	1740.21
470.278	1768.46
470.65	1769.13
471.022	1799.64
471.394	1816.82
471.766	1826.53
472.138	1838.51
472.51	1856.14
472.882	1864.27
473.253	1911.05
473.625	1933.88
473.997	1926.42
474.369	1936.59
474.74	1989.92
475.112	1983.82
475.484	2015
475.855	2037.38
476.227	2024.49
476.598	2116.02
476.97	2120.09
477.341	2164.38
477.713	2194.66
478.084	2190.14
478.455	2234.66
478.827	2251.38
479.198	2310.59
479.569	2290.48
479.94	2345.62
480.311	2358.72
480.682	2386.29
481.053	2435.78
481.424	2433.07
481.795	2458.16
482.166	2497.7
482.537	2542.9
482.908	2598.72
483.279	2620.41
483.65	2633.74
484.021	2681.43
484.391	2677.81
484.762	2704.7
485.133	2714.87
485.503	2754.42
485.874	2760.07
486.244	2817.47
486.615	2857.47
486.985	2869.67
487.356	2901.31
487.726	2930.69
488.097	2992.6
488.467	2996.22
488.837	3047.52
489.207	3072.15
489.578	3097.46
489.948	3098.14
490.318	3182.2
490.688	3158.25
491.058	3169.1
491.428	3229.43
491.798	3251.81
492.168	3332.26
492.538	3331.35
492.908	3376.1
493.278	3343.56
493.648	3380.84
494.017	3391.69
494.387	3453.84
494.757	3473.72
495.126	3485.7
495.496	3456.32
495.866	3522.08
496.235	3548.3
496.605	3564.57
496.974	3586.49
497.344	3635.53
497.713	3619.71
498.082	3672.14
498.452	3689.08
498.821	3677.78
499.19	3671.68
499.559	3718.91
499.928	3726.82
500.298	3725.47
500.667	3755.07
501.036	3782.87
501.405	3800.04
501.774	3797.56
502.143	3836.42
502.512	3860.15
502.88	3888.4
503.249	3885.91
503.618	3874.39
503.987	3903.54
504.356	3947.61
504.724	3964.78
505.093	3945.8
505.462	3976.31
505.83	4010.21
506.199	4005.91
506.567	3996.87
506.936	4028.51
507.304	4031
507.672	4100.15
508.041	4052.46
508.409	4091.56
508.777	4127.26
509.145	4110.54
509.514	4172.01
509.882	4166.59
510.25	4174.49
510.618	4190.54
510.986	4242.06
511.354	4249.52
511.722	4214.27
512.09	4236.41
512.458	4263.08
512.826	4262.4
513.193	4292.01
513.561	4313.25
513.929	4324.55
514.297	4332.46
514.664	4333.59
515.032	4383.75
515.4	4383.75
515.767	4381.95
516.135	4416.97
516.502	4373.13
516.869	4433.7
517.237	4437.99
517.604	4462.62
517.972	4471.21
518.339	4528.84
518.706	4479.35
519.073	4475.73
519.44	4509.63
519.808	4561.38
520.175	4554.15
520.542	4601.38
520.909	4582.62
521.276	4553.02
521.643	4558.89
522.009	4654.48
522.376	4665.33
522.743	4661.04
523.11	4652
523.477	4741.26
523.843	4742.84
524.21	4819
524.577	4781.03
524.943	4801.82
525.31	4866
525.676	4891.99
526.043	4920.01
526.409	4900.58
526.776	4933.12
527.142	4954.81
527.508	4973.12
527.874	4970.86
528.241	5030.07
528.607	5008.15
528.973	5108.48
529.339	5096.05
529.705	5083.17
530.071	5112.1
530.437	5177.86
530.803	5212.43
531.169	5219.89
531.535	5202.94
531.901	5183.51
532.267	5278.65
532.632	5320.45
532.998	5329.72
533.364	5322.26
533.73	5341.47
534.095	5416.5
534.461	5387.12
534.826	5411.75
535.192	5468.7
535.557	5522.26
535.923	5480.68
536.288	5563.38
536.653	5525.87
537.019	5521.35
537.384	5562.71
537.749	5592.54
538.114	5601.12
538.479	5655.36
538.845	5627.79
539.21	5681.35
539.575	5703.04
539.94	5757.96
540.305	5738.52
540.67	5720.44
541.034	5825.52
541.399	5796.15
541.764	5823.72
542.129	5865.52
542.494	5863.49
542.858	5914.56
543.223	5896.94
543.587	5995.69
543.952	5957.5
544.316	5939.87
544.681	6037.72
545.045	6076.14
545.41	6065.07
545.774	6070.04
546.138	6082.24
546.503	6160.21
546.867	6098.29
547.231	6193.42
547.595	6203.37
547.959	6209.92
548.324	6265.29
548.688	6236.36
549.052	6246.76
549.416	6313.2
549.779	6313.65
550.143	6362.46
550.507	6416.47
550.871	6371.27
551.235	6379.63
551.599	6401.33
551.962	6428.67
552.326	6415.11
552.689	6468.45
553.053	6439.29
553.417	6517.26
553.78	6552.29
554.143	6536.92
554.507	6618.27
554.87	6613.3
555.234	6708.44
555.597	6621.89
555.96	6695.33
556.323	6692.17
556.686	6662.79
557.05	6731.72
557.413	6754.54
557.776	6779.4
558.139	6806.52
558.502	6811.26
558.865	6839.28
559.228	6872.05
559.59	6868.21
559.953	6863.46
560.316	6967.19
560.679	6942.33
561.041	7014.65
561.404	7003.12
561.767	6985.27
562.129	7041.99
562.492	7123.57
562.854	7060.97
563.217	7054.42
563.579	7072.72
563.941	7170.12
564.304	7176.68
564.666	7254.19
565.028	7214.87
565.39	7222.78
565.753	7259.84
566.115	7278.14
566.477	7320.17
566.839	7359.95
567.201	7347.52
567.563	7432.49
567.925	7408.31
568.287	7384.81
568.648	7478.59
569.01	7520.4
569.372	7553.39
569.734	7558.59
570.095	7559.72
570.457	7698.47
570.819	7627.51
571.18	7725.59
571.542	7748.19
571.903	7809.2
572.265	7795.64
572.626	7826.38
572.987	7867.28
573.349	7872.7
573.71	7973.26
574.071	8040.83
574.432	8057.33
574.794	8190.66
575.155	8140.04
575.516	8191.11
575.877	8287.15
576.238	8310.43
576.599	8449.41
576.96	8457.09
577.32	8544.32
577.681	8543.42
578.042	8688.05
578.403	8769.4
578.763	8851.89
579.124	8877.87
579.485	8996.29
579.845	9203.29
580.206	9221.82
580.566	9345.66
580.927	9446.67
581.287	9588.59
581.648	9703.61
582.008	9794.46
582.368	9906.32
582.728	10140.67
583.089	10181.12
583.449	10445.29
583.809	10581.11
584.169	10768.45
584.529	10845.96
584.889	11142.67
585.249	11243.24
585.609	11403.46
585.969	11640.74
586.329	11835.99
586.688	12076.21
587.048	12360.72
587.408	12513.94
587.768	12661.96
588.127	12936.98
588.487	13162.06
588.846	13487.24
589.206	13566.79
589.565	13802.94
589.925	14171.07
590.284	14376.94
590.643	14620.1
591.003	14901.9
591.362	15284.71
591.721	15450.58
592.08	15781.42
592.44	16074.29
592.799	16379.37
593.158	16534.4
593.517	16971.9
593.876	17174.6
594.235	17450.08
594.593	17719.45
594.952	18127.35
595.311	18352.88
595.67	18609.14
596.029	19029.92
596.387	19317.37
596.746	19536.58
597.104	19854.99
597.463	20076.22
597.822	20515.99
598.18	20681.18
598.538	20966.6
598.897	21305.12
599.255	21569.74
599.613	22177.19
599.972	22292.66
600.33	22606.78
600.688	22713.89
601.046	23226.42
601.404	23473.65
601.762	23622.12
602.12	24119.06
602.478	24288.54
602.836	24519.5
603.194	24727.17
603.552	25081.06
603.91	25265.69
604.268	25667.04
604.625	25746.58
604.983	26117.87
605.341	26179.57
605.698	26703.85
606.056	26949.72
606.413	27152.2
606.771	27482.58
607.128	27669.7
607.485	27848.45
607.843	27992.4
608.2	28421.99
608.557	28772.27
608.914	28732.72
609.272	29159.37
609.629	29347.62
609.986	29674.62
610.343	29707.16
610.7	30116.86
611.057	30234.37
611.414	30470.3
611.771	30672.1
612.127	30998.65
612.484	31090.85
612.841	31420.78
613.198	31321.13
613.554	31657.84
613.911	31954.1
614.267	32047.89
614.624	32187.54
614.98	32385.96
615.337	32709.79
615.693	32821.65
616.05	32938.48
616.406	33293.96
616.762	33149.78
617.118	33347.06
617.475	33611.23
617.831	33740.5
618.187	33962.41
618.543	34072.69
618.899	34345.9
619.255	34390.65
619.611	34473.36
619.967	34760.13
620.323	34966.23
620.678	34804.65
621.034	34949.28
621.39	35177.52
621.746	35075.15
622.101	35634.68
622.457	35358.08
622.812	35564.86
623.168	35736.6
623.523	35892.3
623.879	36020.44
624.234	35898.86
624.589	36096.14
624.945	36242.13
625.3	36355.12
625.655	36221.79
626.01	36428.56
626.365	36439.18
626.72	36551.5
627.075	36575
627.43	36611.61
627.785	36594.43
628.14	36779.74
628.495	36880.75
628.85	36987.19
629.205	36866.52
629.559	37222.21
629.914	37019.73
630.269	37161.65
630.623	37087.08
630.978	37135.89
631.332	37211.14
631.687	37361.19
632.041	37216.11
632.396	37247.75
632.75	37189.22
633.104	37371.36
633.459	37207.98
633.813	37337.01
634.167	37304.7
634.521	37249.78
634.875	37470.12
635.229	37398.48
635.583	37305.6
635.937	37377.01
636.291	37326.17
636.645	37457.91
636.999	37270.35
637.352	37423.34
637.706	37320.52
638.06	37499.49
638.413	37346.28
638.767	37416.78
639.121	37531.81
639.474	37312.61
639.828	37231.25
640.181	37341.76
640.534	37451.81
640.888	37360.06
641.241	37197.13
641.594	37273.51
641.947	37428.31
642.301	37309.89
642.654	37393.96
643.007	37380.4
643.36	37248.88
643.713	37221.54
644.066	37499.04
644.419	37255.88
644.771	37133.4
645.124	36684.6
645.477	36672.4
645.83	36569.35
646.182	36369.81
646.535	36258.4
646.888	36267.21
647.24	36132.07
647.593	36330.49
647.945	36294.78
648.298	36265.63
648.65	35998.06
649.002	35958.29
649.355	36164.16
649.707	36043.71
650.059	36253.2
650.411	36668.1
650.763	36839.17
651.115	37102.22
651.467	36991.71
651.819	37001.65
652.171	36862.9
652.523	36854.09
652.875	36757.82
653.227	36764.6
653.578	37028.55
653.93	36854.31
654.282	36745.16
654.633	36703.81
654.985	36743.36
655.337	36703.81
655.688	36771.83
656.039	36975.89
656.391	36588.56
656.742	36515.34
657.094	36605.73
657.445	36673.3
657.796	36645.96
658.147	36615.9
658.498	36541.33
658.849	36763.92
659.2	36650.25
659.551	36584.04
659.902	36678.5
660.253	36691.61
660.604	36677.14
660.955	36480.09
661.306	36665.62
661.656	36596.69
662.007	36506.07
662.358	36634.21
662.708	36628.33
663.059	36682.57
663.409	36332.75
663.76	36706.52
664.11	36624.49
664.461	36654.54
664.811	36539.52
665.161	36708.33
665.511	36520.99
665.862	36513.98
666.212	36565.73
666.562	36589.24
666.912	36557.15
667.262	36429.01
667.612	36449.58
667.962	36366.19
668.312	36536.36
668.662	36523.7
669.011	36385.63
669.361	36356.47
669.711	36381.56
670.06	36384.27
670.41	36305.85
670.76	36262.69
671.109	36537.71
671.459	36415.68
671.808	36430.37
672.157	36385.4
672.507	36064.28
672.856	36269.92
673.205	36307.89
673.554	36490.93
673.904	36221.56
674.253	36323.93
674.602	36245.97
674.951	35766.88
675.3	35559.66
675.649	36124.39
675.998	36241.45
676.346	36147.21
676.695	36335.23
677.044	36032.87
677.393	36200.77
677.741	36167.55
678.09	36155.35
678.438	35914.9
678.787	36048.91
679.135	36097.5
679.484	35712.42
679.832	35934.34
680.181	35744.29
680.529	35845.75
680.877	35852.31
681.225	35782.03
681.573	35807.34
681.922	35678.3
682.27	35431.3
682.618	35456.16
682.966	35348.59
683.314	35557.85
683.661	35322.83
684.009	35309.72
684.357	35236.28
684.705	35231.31
685.053	35154.02
685.4	35090.97
685.748	34914.25
686.095	34902.27
686.443	34759.91
686.79	34820.24
687.138	34834.25
687.485	34899.11
687.832	34672.68
688.18	34809.4
688.527	34629.29
688.874	34603.07
689.221	34554.03
689.568	34333.93
689.915	34417.99
690.262	34301.39
690.609	34331.89
690.956	34092.13
691.303	34094.39
691.65	33988.17
691.997	34010.55
692.344	33736.2
692.69	33828.86
693.037	33821.62
693.383	33681.06
693.73	33770.78
694.077	33445.59
694.423	33468.87
694.769	33319.94
695.116	33201.3
695.462	33310
695.808	33187.74
696.155	33172.38
696.501	32829.79
696.847	32931.93
697.193	32670.02
697.539	32723.8
697.885	32671.6
698.231	32482.45
698.577	32362.45
698.923	32496.69
699.269	32214.44
699.614	32102.35
699.96	32016.02
700.306	32168.33
700.651	31935.35
700.997	32006.31
701.342	31773.32
701.688	31801.56
702.033	31671.62
702.379	31622.36
702.724	31544.62
703.069	31627.33
703.415	31324.97
703.76	31235.7
704.105	31352.99
704.45	31293.1
704.795	31016.73
705.14	30998.65
705.485	31009.27
705.83	30836.62
706.175	30807.01
706.52	30755.72
706.865	30652.22
707.209	30621.26
707.554	30530.86
707.899	30510.3
708.243	30454.03
708.588	30300.36
708.932	30193.47
709.277	30223.75
709.621	30196.41
709.966	29989.18
710.31	30161.16
710.654	29836.42
710.998	29911.9
711.342	29878.23
711.687	29793.48
712.031	29617.89
712.375	29642.3
712.719	29623.09
713.063	29506.48
713.407	29532.92
713.75	29500.16
714.094	29432.81
714.438	29265.13
714.782	29342.87
715.125	29130.22
715.469	29142.65
715.812	29087.06
716.156	28939.72
716.499	28820.4
716.843	28863.11
717.186	28664.47
717.53	28852.94
717.873	28835.99
718.216	28724.36
718.559	28574.08
718.902	28371.6
719.246	28495.89
719.589	28530.46
719.932	28351.71
720.275	28396
720.617	28323.92
720.96	28252.28
721.303	28277.14
721.646	28255.9
721.989	28022
722.331	28097.71
722.674	27998.05
723.016	28204.82
723.359	27986.98
723.701	28093.87
724.044	27814.33
724.386	27699.75
724.729	28029.01
725.071	27845.06
725.413	27876.24
725.755	27788.79
726.097	27629.92
726.439	27573.65
726.782	27486.88
727.124	27684.39
727.465	27387.22
727.807	27463.15
728.149	27340.67
728.491	27370.5
728.833	27322.59
729.175	27327.33
729.516	27254.11
729.858	27088.92
730.199	27169.6
730.541	27029.94
730.882	27030.16
731.224	27053.67
731.565	26862.03
731.906	26876.27
732.248	26925.53
732.589	26715.15
732.93	26824.29
733.271	26644.41
733.612	26639.67
733.953	26761.92
734.294	26684.86
734.635	26552.66
734.976	26701.36
735.317	26431.08
735.658	26498.88
735.999	26530.29
736.339	26391.99
736.68	26435.6
737.021	26288.26
737.361	26233.35
737.702	26377.98
738.042	26200.36
738.383	26227.02
738.723	26247.13
739.063	26191.54
739.404	26126.46
739.744	26102.51
740.084	25873.13
740.424	26080.59
740.764	25954.04
741.104	25985.67
741.444	25832.91
741.784	25792.46
742.124	25834.94
742.464	25648.51
742.804	25662.74
743.143	25672.46
743.483	25688.05
743.823	25482.41
744.162	25607.38
744.502	25563.76
744.841	25513.37
745.181	25531.67
745.52	25352.24
745.86	25471.34
746.199	25382.98
746.538	25289.87
746.877	25211.68
747.216	25378.68
747.556	25336.42
747.895	25228.4
748.234	25129.88
748.573	25207.84
748.911	25114.28
749.25	25058.92
749.589	24958.13
749.928	24983.21
750.267	25069.09
750.605	24855.53
750.944	24967.17
751.283	24652.37
751.621	24941.63
751.96	24704.8
752.298	24621.87
752.636	24693.73
752.975	24573.28
753.313	24444.92
753.651	24566.5
753.989	24412.38
754.327	24318.15
754.666	24200.18
755.004	24286.73
755.342	24189.11
755.679	24220.97
756.017	24079.06
756.355	24116.57
756.693	23970.81
757.031	24056.01
757.368	23885.39
757.706	23935.78
758.044	23785.5
758.381	23707.54
758.719	23642.23
759.056	23645.62
759.394	23530.37
759.731	23397.49
760.068	23356.82
760.405	23327.21
760.743	23302.13
761.08	23404.72
761.417	23256.25
761.754	23210.38
762.091	23128.57
762.428	23007.22
762.765	22945.53
763.102	22968.8
763.438	22782.82
763.775	22636.83
764.112	22697.4
764.449	22713.44
764.785	22550.06
765.122	22465.99
765.458	22348.03
765.795	22437.07
766.131	22310.06
766.467	22155.94
766.804	22186.45
767.14	21994.59
767.476	21955.5
767.812	21854.48
768.148	21925.21
768.485	21772.9
768.821	21646.35
769.157	21606.58
769.492	21600.25
769.828	21581.72
770.164	21310.99
770.5	21208.62
770.836	21229.41
771.171	21166.82
771.507	21143.09
771.842	20979.93
772.178	20924.56
772.513	20850.89
772.849	20810.89
773.184	20744.23
773.519	20750.56
773.855	20581.97
774.19	20536.1
774.525	20505.59
774.86	20501.3
775.195	20367.06
775.53	20193.96
775.865	20153.51
776.2	20028.54
776.535	19916.68
776.87	19923.01
777.205	19836.68
777.539	19819.96
777.874	19714.43
778.209	19575.22
778.543	19636.01
778.878	19551.94
779.212	19527.09
779.547	19335
779.881	19327.54
780.215	19221.56
780.55	19280.31
780.884	19135.23
781.218	19060.88
781.552	19093.88
781.886	18859.53
782.22	18859.31
782.554	18731.63
782.888	18683.49
783.222	18576.83
783.556	18523.27
783.889	18498.64
784.223	18395.36
784.557	18350.39
784.89	18372.31
785.224	18256.38
785.557	18171.87
785.891	18115.15
786.224	18009.61
786.558	17980.23
786.891	17781.14
787.224	17837.86
787.557	17747.7
787.891	17669.51
788.224	17750.63
788.557	17694.59
788.89	17572.11
789.223	17491.43
789.556	17410.53
789.888	17460.93
790.221	17290.53
790.554	17204.89
790.887	17176.86
791.219	17141.61
791.552	17097.54
791.884	17027.04
792.217	16964.67
792.549	16834.5
792.882	16797.67
793.214	16801.28
793.546	16693.26
793.879	16713.15
794.211	16458.69
794.543	16644.9
794.875	16546.6
795.207	16510.67
795.539	16455.98
795.871	16489.65
796.203	16315.19
796.535	16186.38
796.867	16114.07
797.198	16211.92
797.53	16187.29
797.862	15996.78
798.193	16009.66
798.525	15997.46
798.856	15973.05
799.188	15767.86
799.519	15674.76
799.85	15646.51
800.182	15654.87
800.513	15621.43
800.844	15509.34
801.175	15544.37
801.506	15521.77
801.837	15483.8
802.168	15364.26
802.499	15363.13
802.83	15213.53
803.161	15219.4
803.491	15166.75
803.822	15115.68
804.153	15056.69
804.483	15029.35
804.814	14943.25
805.145	14909.13
805.475	14975.57
805.805	14838.4
806.136	14801.11
806.466	14814.44
806.796	14733.54
807.126	14666.87
807.457	14627.78
807.787	14649.93
808.117	14549.36
808.447	14540.78
808.777	14530.38
809.107	14529.48
809.436	14427.78
809.766	14446.99
810.096	14414
810.426	14338.3
810.755	14264.62
811.085	14300.33
811.414	14236.38
811.744	14129.26
812.073	14041.35
812.403	14080.22
812.732	13995.48
813.061	14043.84
813.39	13862.6
813.719	13962.26
814.049	13938.98
814.378	13845.43
814.707	13841.81
815.036	13767.69
815.365	13735.15
815.693	13585.32
816.022	13709.61
816.351	13631.2
816.68	13556.17
817.008	13516.62
817.337	13454.25
817.665	13436.4
817.994	13471.43
818.322	13474.14
818.651	13335.84
818.979	13362.5
819.307	13333.8
819.636	13313.69
819.964	13268.72
820.292	13282.5
820.62	13210.19
820.948	13229.17
821.276	13228.95
821.604	13167.48
821.932	13184.88
822.259	13193.24
822.587	13190.53
822.915	13158.67
823.243	13221.04
823.57	13137.2
823.898	13174.48
824.225	13132.68
824.553	13189.4
824.88	13055.39
825.207	13196.86
825.535	13082.06
825.862	13120.25
826.189	13057.65
826.516	13145.11
826.843	13226.23
827.17	13275.27
827.497	13148.72
827.824	13090.19
828.151	13158.21
828.478	13072.34
828.805	13208.38
829.131	13096.07
829.458	13052.68
829.785	13037.31
830.111	13089.29
830.438	13078.67
830.764	13133.58
831.09	13054.04
831.417	13034.83
831.743	13092.23
832.069	13081.83
832.395	13085.67
832.722	13023.53
833.048	13023.08
833.374	12986.69
833.7	13005.9
834.026	12970.2
834.351	12938.56
834.677	12960.48
835.003	13030.99
835.329	12950.08
835.654	12828.05
835.98	12832.8
836.306	12852.68
836.631	12829.18
836.956	12910.99
837.282	12866.02
837.607	12759.58
837.932	12804.1
838.258	12788.28
838.583	12731.33
838.908	12629.87
839.233	12686.81
839.558	12648.85
839.883	12631
840.208	12576.31
840.533	12609.75
840.858	12591.22
841.182	12580.83
841.507	12586.93
841.832	12484.33
842.156	12442.75
842.481	12510.09
842.805	12403.2
843.13	12401.62
843.454	12407.5
843.778	12330.21
844.103	12325.92
844.427	12327.5
844.751	12259.48
845.075	12243.89
845.399	12150.56
845.723	12095.64
846.047	12108.3
846.371	12046.38
846.695	12048.64
847.019	11965.93
847.343	11825.37
847.666	11781.98
847.99	11774.52
848.313	11789.44
848.637	11668.99
848.96	11675.77
849.284	11645.48
849.607	11534.98
849.931	11541.98
850.254	11452.27
850.577	11391.25
850.9	11349.45
851.223	11286.62
851.546	11220.41
851.869	11119.4
852.192	11192.16
852.515	11137.02
852.838	11088.21
853.161	11108.78
853.483	11066.52
853.806	10949.23
854.129	10995.78
854.451	10853.87
854.774	10916.69
855.096	10818.84
855.419	10852.29
855.741	10730.03
856.063	10699.97
856.385	10661.56
856.708	10666.98
857.03	10603.48
857.352	10623.59
857.674	10617.49
857.996	10537.94
858.318	10542.24
858.64	10477.38
858.961	10447.1
859.283	10393.77
859.605	10345.63
859.926	10379.76
860.248	10340.21
860.57	10297.5
860.891	10404.84
861.212	10218.86
861.534	10208.69
861.855	10197.61
862.176	10285.52
862.498	10210.04
862.819	10217.05
863.14	10146.99
863.461	10125.3
863.782	10056.83
864.103	10045.53
864.424	10062.02
864.745	10128.69
865.065	9969.82
865.386	10100.89
865.707	9994.68
866.027	10023.15
866.348	9946.55
866.668	9963.72
866.989	9922.82
867.309	9944.74
867.63	9893.67
867.95	9865.64
868.27	9846.66
868.59	9857.06
868.91	9816.38
869.23	9838.98
869.55	9755.14
869.87	9788.58
870.19	9777.51
870.51	9778.42
870.83	9790.17
871.15	9730.96
871.469	9661.13
871.789	9743.39
872.109	9630.17
872.428	9623.62
872.748	9683.5
873.067	9578.42
873.386	9598.98
873.706	9616.61
874.025	9577.97
874.344	9535.03
874.663	9600.11
874.982	9549.27
875.301	9562.6
875.62	9501.59
875.939	9476.73
876.258	9495.26
876.577	9431.76
876.896	9448.93
877.214	9302.72
877.533	9329.61
877.852	9357.18
878.17	9381.36
878.489	9369.39
878.807	9328.71
879.125	9358.31
879.444	9286.9
879.762	9264.08
880.08	9320.57
880.398	9257.75
880.716	9269.73
881.034	9229.96
881.352	9223.4
881.67	9265.89
881.988	9254.59
882.306	9195.61
882.624	9046.01
882.941	9170.97
883.259	9039.23
883.577	9085.1
883.894	9062.5
884.212	9003.52
884.529	8939.34
884.846	8933.92
885.164	8941.15
885.481	8980.47
885.798	8927.14
886.115	8904.09
886.432	8850.53
886.75	8840.81
887.067	8807.14
887.383	8810.31
887.7	8772.34
888.017	8733.47
888.334	8749.06
888.651	8727.14
888.967	8699.57
889.284	8623.19
889.6	8622.74
889.917	8558.79
890.233	8627.49
890.55	8606.02
890.866	8518.11
891.182	8520.82
891.498	8521.05
891.815	8443.76
892.131	8386.14
892.447	8380.71
892.763	8331.45
893.079	8357.21
893.395	8378.23
893.71	8349.07
894.026	8320.37
894.342	8346.36
894.657	8219.59
894.973	8208.06
895.289	8211.45
895.604	8179.14
895.92	8044.45
896.235	8040.61
896.55	8111.34
896.865	7986.37
897.181	8019.37
897.496	8032.25
897.811	7959.03
898.126	7992.02
898.441	7912.48
898.756	7929.42
899.071	7841.97
899.386	7846.26
899.7	7844.91
900.015	7808.07
900.33	7745.47
900.644	7735.76
900.959	7702.54
901.273	7698.92
901.588	7633.39
901.902	7597.68
902.216	7545.71
902.531	7533.05
902.845	7576.67
903.159	7504.35
903.473	7489.89
903.787	7463.45
904.101	7416.22
904.415	7383.22
904.729	7469.78
905.042	7327.41
905.356	7369.66
905.67	7314.75
905.984	7296.9
906.297	7292.6
906.611	7212.38
906.924	7215.09
907.237	7168.99
907.551	7118.15
907.864	7116.34
908.177	7128.77
908.491	7067.53
908.804	7067.75
909.117	6974.65
909.43	6981.88
909.743	6940.98
910.056	6926.06
910.368	6840.64
910.681	6851.03
910.994	6817.82
911.307	6747.76
911.619	6720.19
911.932	6764.71
912.244	6689.46
912.557	6720.64
912.869	6635.45
913.181	6584.37
913.494	6625.05
913.806	6573.3
914.118	6572.17
914.43	6508.9
914.742	6520.65
915.054	6473.42
915.366	6432.74
915.678	6441.55
915.99	6375.34
916.302	6397.71
916.613	6289.24
916.925	6343.03
917.236	6259.86
917.548	6245.17
917.859	6269.35
918.171	6238.62
918.482	6122.01
918.794	6171.73
919.105	6162.92
919.416	6096.03
919.727	6090.6
920.038	6029.36
920.349	6004.5
920.66	5977.84
920.971	6008.34
921.282	5953.21
921.593	5943.94
921.903	5930.83
922.214	5885.64
922.525	5910.27
922.835	5863.72
923.146	5813.77
923.456	5812.19
923.767	5791.18
924.077	5789.59
924.387	5741.91
924.697	5714.12
925.008	5682.93
925.318	5658.75
925.628	5621.46
925.938	5580.56
926.248	5545.31
926.558	5521.8
926.867	5518.19
927.177	5496.04
927.487	5506.44
927.796	5444.52
928.106	5435.93
928.416	5472.77
928.725	5402.49
929.034	5364.52
929.344	5356.84
929.653	5410.62
929.962	5289.72
930.271	5282.04
930.581	5263.28
930.89	5273.22
931.199	5229.83
931.508	5195.03
931.817	5166.33
932.125	5145.09
932.434	5138.76
932.743	5101.48
933.051	5060.57
933.36	5074.36
933.669	4994.13
933.977	5009.05
934.286	5021.7
934.594	4975.15
934.902	4948.49
935.21	4948.71
935.519	4877.53
935.827	4859.9
936.135	4837.98
936.443	4856.74
936.751	4809.96
937.059	4793.24
937.367	4815.16
937.674	4775.61
937.982	4791.88
938.29	4714.37
938.597	4715.05
938.905	4674.37
939.213	4663.97
939.52	4642.73
939.827	4662.39
940.135	4595.73
940.442	4578.1
940.749	4565.22
941.056	4564.54
941.363	4564.77
941.67	4533.58
941.977	4483.19
942.284	4462.62
942.591	4473.02
942.898	4445.45
943.205	4405.68
943.511	4363.87
943.818	4366.35
944.125	4325.23
944.431	4330.2
944.738	4341.5
945.044	4314.38
945.35	4304.89
945.657	4250.2
945.963	4232.8
946.269	4228.96
946.575	4225.11
946.881	4196.87
947.187	4122.29
947.493	4137.21
947.799	4147.15
948.105	4143.76
948.41	4110.54
948.716	4092.91
949.022	4088.4
949.327	4067.6
949.633	4015.85
949.938	4013.82
950.244	4020.83
950.549	3999.36
950.854	3947.83
951.16	3915.97
951.465	3934.28
951.77	3909.87
952.075	3899.02
952.38	3879.14
952.685	3896.99
952.99	3840.27
953.294	3826.48
953.599	3827.84
953.904	3788.74
954.209	3780.38
954.513	3766.14
954.818	3763.21
955.122	3743.55
955.426	3724.56
955.731	3718.91
956.035	3677.11
956.339	3674.62
956.643	3684.34
956.948	3655.19
957.252	3642.08
957.556	3652.7
957.86	3613.38
958.163	3576.32
958.467	3595.3
958.771	3551.69
959.075	3517.56
959.378	3478.47
959.682	3533.83
959.985	3465.36
960.289	3496.32
960.592	3454.74
960.896	3446.6
961.199	3426.04
961.502	3449.09
961.805	3437.34
962.108	3343.56
962.411	3413.16
962.714	3319.15
963.017	3357.79
963.32	3351.47
963.623	3307.62
963.926	3284.35
964.228	3233.73
964.531	3287.29
964.833	3260.62
965.136	3240.96
965.438	3221.75
965.741	3180.85
966.043	3210.45
966.345	3171.13
966.648	3165.71
966.95	3152.15
967.252	3132.04
967.554	3108.76
967.856	3138.59
968.158	3101.08
968.46	3077.12
968.761	3102.88
969.063	3083.9
969.365	3077.12
969.666	2997.12
969.968	3004.81
970.269	3001.64
970.571	2955.09
970.872	2976.33
971.174	2952.15
971.475	2951.93
971.776	2944.02
972.077	2889.33
972.378	2900.4
972.679	2913.06
972.98	2932.72
973.281	2884.13
973.582	2869.9
973.883	2835.77
974.183	2853.17
974.484	2830.12
974.785	2816.79
975.085	2805.27
975.386	2790.8
975.686	2803.01
975.986	2750.13
976.287	2790.35
976.587	2743.35
976.887	2725.72
977.187	2735.66
977.487	2679.62
977.787	2724.14
978.087	2680.97
978.387	2685.72
978.687	2671.03
978.987	2640.3
979.286	2625.61
979.586	2600.98
979.885	2609.56
980.185	2600.75
980.484	2598.04
980.784	2590.36
981.083	2628.09
981.382	2567.53
981.682	2564.37
981.981	2538.15
982.28	2546.51
982.579	2534.99
982.878	2531.83
983.177	2500.64
983.475	2489.34
983.774	2463.58
984.073	2428.78
984.372	2474.65
984.67	2443.24
984.969	2462.9
985.267	2452.96
985.566	2434.2
985.864	2398.95
986.162	2357.37
986.461	2346.97
986.759	2374.54
987.057	2349.91
987.355	2341.77
987.653	2323.7
987.951	2341.32
988.249	2335.9
988.547	2315.33
988.844	2304.26
989.142	2298.61
989.44	2318.05
989.737	2274.88
990.035	2236.24
990.332	2252.06
990.63	2256.13
990.927	2209.8
991.224	2223.13
991.521	2178.16
991.819	2201.44
992.116	2179.74
992.413	2181.33
992.71	2201.21
993.006	2152.18
993.303	2139.97
993.6	2118.05
993.897	2117.15
994.193	2132.51
994.49	2138.16
994.787	2097.49
995.083	2080.54
995.379	2054.55
995.676	2049.35
995.972	2071.73
996.268	2046.87
996.565	2055
996.861	2045.51
997.157	2050.71
997.453	2005.96
997.749	2003.48
998.044	2002.35
998.34	1975.68
998.636	1972.29
998.932	1947.43
999.227	1914.22
999.523	1957.83
999.818	1943.59
1000.114	1889.58
1000.409	1919.19
1000.704	1945.4
1001	1901.11
1001.295	1871.28
1001.59	1847.55
1001.885	1877.83
1002.18	1836.48
1002.475	1847.78
1002.77	1856.59
1003.065	1826.53
1003.359	1812.3
1003.654	1819.75
1003.949	1793.09
1004.243	1823.6
1004.538	1774.78
1004.832	1762.13
1005.127	1759.87
1005.421	1747.89
1005.715	1752.64
1006.009	1711.06
1006.304	1738.85
1006.598	1690.04
1006.892	1716.71
1007.186	1721
1007.48	1681.9
1007.773	1650.04
1008.067	1695.01
1008.361	1605.97
1008.655	1632.87
1008.948	1647.56
1009.242	1607.56
1009.535	1583.15
1009.829	1604.62
1010.122	1589.25
1010.415	1584.05
1010.708	1558.74
1011.001	1572.98
1011.295	1558.07
1011.588	1582.7
1011.881	1525.98
1012.173	1536.15
1012.466	1559.65
1012.759	1506.77
1013.052	1503.83
1013.344	1521.01
1013.637	1479.42
1013.93	1511.29
1014.222	1478.97
1014.514	1467.22
1014.807	1447.56
1015.099	1471.06
1015.391	1458.41
1015.683	1463.61
1015.976	1470.61
1016.268	1422.7
1016.56	1427.45
1016.851	1387.9
1017.143	1397.62
1017.435	1401.91
1017.727	1397.62
1018.018	1391.07
1018.31	1394.68
1018.602	1372.31
1018.893	1354.46
1019.185	1332.08
1019.476	1309.49
1019.767	1311.75
1020.058	1316.72
1020.35	1325.76
1020.641	1291.18
1020.932	1277.62
1021.223	1262.25
1021.514	1313.55
1021.804	1248.47
1022.095	1256.15
1022.386	1269.49
1022.677	1233.33
1022.967	1235.14
1023.258	1238.75
1023.548	1212.76
1023.839	1213.22
1024.129	1205.53
1024.419	1206.44
1024.709	1210.28
1025	1187.68
1025.29	1178.19
1025.58	1171.64
1025.87	1160.56
1026.16	1157.17
1026.449	1149.72
1026.739	1142.03
1027.029	1150.85
1027.319	1125.54
1027.608	1128.25
1027.898	1109.26
1028.187	1104.74
1028.477	1104.29
1028.766	1084.86
1029.055	1076.27
1029.344	1071.75
1029.634	1084.63
1029.923	1066.33
1030.212	1050.96
1030.501	1057.74
1030.79	1025.88
1031.078	1026.1
1031.367	1021.13
1031.656	1033.33
1031.945	1033.79
1032.233	996.5
1032.522	1009.83
1032.81	1008.48
1033.099	986.1
1033.387	987.46
1033.675	993.56
1033.963	978.19
1034.251	991.53
1034.54	965.77
1034.828	973.9
1035.116	958.53
1035.403	968.03
1035.691	926.44
1035.979	949.72
1036.267	956.27
1036.554	926.44
1036.842	916.73
1037.129	911.76
1037.417	897.07
1037.704	927.8
1037.992	895.48
1038.279	907.91
1038.566	862.04
1038.853	862.04
1039.14	862.04
