Data from hue_330_FLMS001491_80.txt Node
Date: Mon Feb 06 15:45:53 GMT 2017
User: dcchb
Spectrometer: FLMS00149
Trigger mode: 0
Integration Time (sec): 2.000000E-2
Scans to average: 10
Electric dark correction enabled: true
Nonlinearity correction enabled: false
Boxcar width: 0
XAxis mode: Wavelengths
Number of Pixels in Spectrum: 2048
>>>>>Begin Spectral Data<<<<<
341.393	-12.95
341.776	-12.95
342.16	-12.95
342.543	-72.39
342.927	-52.95
343.31	-90.46
343.693	-54.76
344.077	-61.54
344.46	-64.25
344.843	-47.75
345.226	-24.7
345.61	-34.19
345.993	-21.54
346.376	0.61
346.759	6.93
347.142	34.5
347.525	33.37
347.908	55.3
348.291	63.2
348.674	86.03
349.057	119.25
349.44	135.07
349.823	165.8
350.206	184.11
350.588	198.57
350.971	200.15
351.354	241.5
351.737	259.13
352.119	243.31
352.502	265.91
352.884	271.79
353.267	257.55
353.65	295.06
354.032	314.95
354.414	291.67
354.797	315.18
355.179	302.07
355.562	332.8
355.944	326.7
356.326	336.42
356.709	331.67
357.091	350.65
357.473	340.26
357.855	344.55
358.238	338.45
358.62	349.75
359.002	350.65
359.384	341.84
359.766	318.34
360.148	367.6
360.53	340.26
360.912	324.21
361.294	338.23
361.676	322.18
362.057	310.88
362.439	335.74
362.821	323.99
363.203	328.06
363.584	318.11
363.966	330.99
364.348	301.84
364.729	317.44
365.111	330.32
365.493	308.85
365.874	309.98
366.256	308.17
366.637	312.46
367.019	313.37
367.4	329.86
367.781	316.31
368.163	324.44
368.544	325.34
368.925	330.77
369.306	337.32
369.688	302.07
370.069	304.33
370.45	319.92
370.831	319.02
371.212	324.67
371.593	322.41
371.974	309.75
372.355	302.75
372.736	324.21
373.117	317.21
373.498	297.77
373.879	328.96
374.26	331.22
374.641	316.53
375.021	320.15
375.402	321.73
375.783	310.66
376.163	324.89
376.544	334.84
376.925	320.15
377.305	345.01
377.686	335.29
378.066	325.34
378.447	317.21
378.827	335.29
379.208	329.41
379.588	348.62
379.968	331.22
380.349	352.46
380.729	323.08
381.109	322.41
381.489	333.03
381.87	332.8
382.25	347.49
382.63	358.56
383.01	315.85
383.39	342.97
383.77	345.01
384.15	344.1
384.53	338.9
384.91	361.73
385.29	358.11
385.67	340.71
386.049	342.29
386.429	347.49
386.809	352.46
387.189	349.52
387.568	353.59
387.948	365.57
388.328	348.17
388.707	362.63
389.087	353.37
389.466	384.55
389.846	344.1
390.225	372.8
390.605	380.03
390.984	365.57
391.363	355.17
391.743	368.06
392.122	370.77
392.501	358.34
392.881	392.91
393.26	377.09
393.639	394.72
394.018	392.01
394.397	386.13
394.776	372.35
395.155	385.68
395.534	382.97
395.913	395.4
396.292	404.21
396.671	389.3
397.05	372.57
397.429	387.49
397.808	382.74
398.186	394.72
398.565	386.59
398.944	388.85
399.323	396.76
399.701	418.68
400.08	402.63
400.458	392.24
400.837	414.61
401.215	406.92
401.594	404.66
401.972	403.08
402.351	405.12
402.729	413.25
403.107	426.58
403.486	401.95
403.864	420.48
404.242	430.88
404.62	431.33
404.999	443.99
405.377	432.91
405.755	450.76
406.133	440.14
406.511	444.89
406.889	451.67
407.267	430.2
407.645	455.96
408.023	446.7
408.401	450.99
408.779	437.21
409.156	468.39
409.534	483.98
409.912	483.08
410.29	471.78
410.667	477.88
411.045	484.66
411.422	463.87
411.8	487.37
412.178	525.34
412.555	494.83
412.933	525.34
413.31	520.82
413.687	539.12
414.065	522.18
414.442	512.91
414.819	575.73
415.197	516.75
415.574	533.02
415.951	577.09
416.328	580.93
416.705	549.75
417.082	573.93
417.46	572.8
417.837	585
418.214	602.85
418.591	596.52
418.967	587.94
419.344	605.11
419.721	614.6
420.098	611.21
420.475	625.68
420.852	645.79
421.228	666.8
421.605	625.22
421.982	655.96
422.358	646.47
422.735	667.48
423.111	680.82
423.488	692.11
423.864	672
424.241	694.37
424.617	691.66
424.994	680.82
425.37	699.35
425.746	699.8
426.123	726.46
426.499	705.22
426.875	748.84
427.251	752
427.627	742.28
428.003	757.65
428.379	770.08
428.756	781.38
429.132	761.72
429.507	777.99
429.883	773.92
430.259	793.13
430.635	813.24
431.011	839.23
431.387	838.1
431.763	845.33
432.138	824.54
432.514	853.92
432.89	850.75
433.265	884.88
433.641	877.87
434.016	862.05
434.392	917.65
434.767	899.11
435.143	910.64
435.518	933.24
435.894	923.52
436.269	938.21
436.644	963.75
437.02	955.84
437.395	962.39
437.77	948.61
438.145	984.31
438.52	1002.84
438.895	989.06
439.271	1022.73
439.646	1003.74
440.021	1009.85
440.395	1018.66
440.77	1038.32
441.145	1018.89
441.52	1052.56
441.895	1055.95
442.27	1056.85
442.645	1078.32
443.019	1071.31
443.394	1062.5
443.769	1081.03
444.143	1057.75
444.518	1074.48
444.892	1075.61
445.267	1085.55
445.641	1094.59
446.016	1107.7
446.39	1132.78
446.764	1117.19
447.139	1132.55
447.513	1143.18
447.887	1116.51
448.262	1149.05
448.636	1128.26
449.01	1155.15
449.384	1161.25
449.758	1177.53
450.132	1190.18
450.506	1165.32
450.88	1194.7
451.254	1192.44
451.628	1204.87
452.002	1211.87
452.376	1196.96
452.75	1203.97
453.123	1234.02
453.497	1213
453.871	1250.07
454.244	1252.55
454.618	1255.94
454.992	1273.34
455.365	1285.55
455.739	1288.71
456.112	1311.08
456.486	1302.49
456.859	1322.61
457.232	1337.75
457.606	1344.3
457.979	1351.98
458.352	1361.7
458.725	1380.91
459.099	1371.87
459.472	1408.93
459.845	1374.81
460.218	1443.28
460.591	1419.78
460.964	1445.99
461.337	1429.27
461.71	1476.95
462.083	1496.16
462.456	1454.58
462.829	1490.29
463.201	1508.14
463.574	1508.36
463.947	1553.79
464.32	1548.36
464.692	1524.41
465.065	1573
465.438	1591.07
465.81	1599.89
466.183	1610.51
466.555	1633.11
466.928	1655.25
467.3	1639.89
467.672	1666.78
468.045	1686.66
468.417	1700.9
468.789	1710.39
469.161	1763.5
469.534	1760.56
469.906	1797.85
470.278	1809.37
470.65	1805.76
471.022	1809.6
471.394	1875.13
471.766	1885.3
472.138	1923.49
472.51	1932.31
472.882	1946.09
473.253	1942.93
473.625	2002.14
473.997	2030.84
474.369	2011.85
474.74	2068.8
475.112	2075.36
475.484	2094.56
475.855	2156.71
476.227	2142.25
476.598	2214.33
476.97	2225.86
477.341	2228.8
477.713	2250.04
478.084	2280.55
478.455	2304.95
478.827	2365.74
479.198	2390.15
479.569	2365.97
479.94	2457.04
480.311	2469.69
480.682	2535.46
481.053	2556.7
481.424	2595.34
481.795	2616.36
482.166	2648
482.537	2666.07
482.908	2721.67
483.279	2706.3
483.65	2797.82
484.021	2810.25
484.391	2889.12
484.762	2873.3
485.133	2907.65
485.503	2959.4
485.874	2957.82
486.244	2970.02
486.615	3052.5
486.985	3082.56
487.356	3115.33
487.726	3183.35
488.097	3217.7
488.467	3217.7
488.837	3262.89
489.207	3261.31
489.578	3324.81
489.948	3375.43
490.318	3392.16
490.688	3445.26
491.058	3469.44
491.428	3503.79
491.798	3522.1
492.168	3599.16
492.538	3576.78
492.908	3620.85
493.278	3650.45
493.648	3697.46
494.017	3716.22
494.387	3722.09
494.757	3746.5
495.126	3817
495.496	3830.34
495.866	3852.48
496.235	3897.91
496.605	3899.94
496.974	3898.36
497.344	3956.89
497.713	3924.12
498.082	4006.38
498.452	4044.12
498.821	3999.37
499.19	4066.94
499.559	4075.53
499.928	4083.66
500.298	4090.44
500.667	4148.07
501.036	4098.35
501.405	4171.12
501.774	4162.31
502.143	4227.84
502.512	4235.75
502.88	4227.16
503.249	4274.39
503.618	4320.72
503.987	4301.29
504.356	4318.23
504.724	4332.7
505.093	4351
505.462	4361.4
505.83	4420.6
506.199	4403.2
506.567	4413.15
506.936	4453.6
507.304	4465.57
507.672	4472.13
508.041	4525.01
508.409	4506.7
508.777	4520.04
509.145	4546.25
509.514	4513.26
509.882	4572.92
510.25	4667.38
510.618	4648.17
510.986	4670.54
511.354	4667.6
511.722	4717.32
512.09	4720.94
512.458	4732.69
512.826	4744.21
513.193	4749.86
513.561	4769.97
513.929	4782.63
514.297	4803.87
514.664	4854.49
515.032	4808.16
515.4	4830.76
515.767	4870.31
516.135	4833.93
516.502	4864.66
516.869	4919.8
517.237	4931.1
517.604	4858.56
517.972	4935.62
518.339	4955.51
518.706	5000.02
519.073	4934.71
519.44	5021.27
519.808	5047.25
520.175	5024.43
520.542	5085.67
520.909	5041.15
521.276	5115.95
521.643	5048.84
522.009	5117.76
522.376	5147.36
522.743	5150.3
523.11	5194.82
523.477	5236.4
523.843	5298.55
524.21	5266.91
524.577	5354.14
524.943	5350.3
525.31	5366.34
525.676	5404.08
526.043	5432.78
526.409	5417.41
526.776	5535.83
527.142	5447.7
527.508	5530.63
527.874	5545.55
528.241	5594.36
528.607	5620.12
528.973	5659.89
529.339	5597.07
529.705	5651.76
530.071	5742.15
530.437	5670.29
530.803	5776.05
531.169	5788.25
531.535	5775.37
531.901	5795.71
532.267	5894.46
532.632	5862.83
532.998	5904.41
533.364	5898.76
533.73	5969.94
534.095	6030.96
534.461	5995.93
534.826	5973.11
535.192	6090.39
535.557	6114.57
535.923	6083.84
536.288	6140.78
536.653	6158.19
537.019	6154.12
537.384	6193.89
537.749	6275.24
538.114	6268.01
538.479	6287.45
538.845	6283.38
539.21	6270.72
539.575	6341.91
539.94	6368.58
540.305	6371.97
540.67	6396.6
541.034	6349.59
541.399	6479.31
541.764	6502.58
542.129	6476.37
542.494	6512.07
542.858	6569.47
543.223	6582.81
543.587	6608.12
543.952	6621.45
544.316	6695.8
544.681	6642.92
545.045	6724.27
545.41	6745.06
545.774	6769.69
546.138	6766.53
546.503	6830.26
546.867	6869.13
547.231	6896.25
547.595	6887.88
547.959	6919.07
548.324	6940.54
548.688	6983.02
549.052	6973.98
549.416	6986.86
549.779	6992.74
550.143	7051.04
550.507	7158.16
550.871	7036.35
551.235	7085.39
551.599	7197.93
551.962	7232.06
552.326	7152.06
552.689	7233.86
553.053	7197.48
553.417	7279.06
553.78	7329.45
554.143	7254.43
554.507	7349.79
554.87	7330.58
555.234	7392.05
555.597	7343.47
555.96	7423.91
556.323	7435.89
556.686	7444.71
557.05	7462.33
557.413	7509.34
557.776	7590.24
558.139	7544.14
558.502	7585.94
558.865	7609.22
559.228	7668.65
559.59	7639.73
559.953	7717.92
560.316	7702.33
560.679	7699.16
561.041	7815.77
561.404	7768.54
561.767	7827.07
562.129	7818.71
562.492	7838.37
562.854	7849.21
563.217	7907.52
563.579	7952.49
563.941	7961.75
564.304	7959.72
564.666	8043.33
565.028	8116.1
565.39	8086.95
565.753	8109.77
566.115	8102.09
566.477	8242.88
566.839	8159.04
567.201	8224.35
567.563	8209.21
567.925	8273.16
568.287	8343.21
568.648	8325.13
569.01	8358.13
569.372	8425.47
569.734	8429.31
570.095	8470.67
570.457	8480.61
570.819	8534.62
571.18	8552.47
571.542	8600.38
571.903	8670.21
572.265	8647.84
572.626	8790.88
572.987	8756.31
573.349	8830.88
573.71	8849.64
574.071	8914.72
574.432	8963.99
574.794	9071.1
575.155	9095.74
575.516	9192.91
575.877	9254.38
576.238	9227.48
576.599	9460.47
576.96	9382.51
577.32	9492.34
577.681	9592.45
578.042	9737.3
578.403	9796.06
578.763	9888.26
579.124	9953.34
579.485	10066.78
579.845	10110.17
580.206	10312.65
580.566	10395.14
580.927	10439.43
581.287	10610.5
581.648	10740.66
582.008	10943.82
582.368	11048.68
582.728	11250.03
583.089	11332.51
583.449	11541.32
583.809	11694.54
584.169	11953.06
584.529	12042.32
584.889	12395.08
585.249	12439.15
585.609	12664.68
585.969	12933.15
586.329	13091.79
586.688	13349.18
587.048	13541.95
587.408	13741.71
587.768	14032.33
588.127	14191.42
588.487	14283.85
588.846	14733.55
589.206	14905.98
589.565	15209.92
589.925	15460.09
590.284	15783.47
590.643	16003.35
591.003	16270.91
591.362	16514.98
591.721	16728.53
592.08	17118.8
592.44	17427.72
592.799	17599.24
593.158	17905
593.517	18162.39
593.876	18429.73
594.235	18787.91
594.593	18924.18
594.952	19348.35
595.311	19676.02
595.67	19917.15
596.029	20317.36
596.387	20631.7
596.746	20935.88
597.104	21153.5
597.463	21355.98
597.822	21743.54
598.18	21941.95
598.538	22244.77
598.897	22582.61
599.255	22724.76
599.613	23225.08
599.972	23423.27
600.33	23762.02
600.688	23934.22
601.046	24298.5
601.404	24629.34
601.762	24776.68
602.12	25203.79
602.478	25450.11
602.836	25662.98
603.194	25823.66
603.552	26068.62
603.91	26261.61
604.268	26593.58
604.625	26774.59
604.983	27138.42
605.341	27249.38
605.698	27540.67
606.056	27869.48
606.413	28039.42
606.771	28405.96
607.128	28549.46
607.485	28584.26
607.843	28957.59
608.2	29353.96
608.557	29534.75
608.914	29669.66
609.272	29941.06
609.629	30131.34
609.986	30470.77
610.343	30540.82
610.7	30971.09
611.057	31101.48
611.414	31195.04
611.771	31456.28
612.127	31790.28
612.484	31907.56
612.841	32172.42
613.198	32156.15
613.554	32352.75
613.911	32614.67
614.267	32689.01
614.624	32764.27
614.98	33049.91
615.337	33430.46
615.693	33408.77
616.05	33488.54
616.406	33858.25
616.762	33818.7
617.118	34044.01
617.475	34161.52
617.831	34324
618.187	34618.91
618.543	34592.24
618.899	34888.96
619.255	34942.74
619.611	34861.39
619.967	35183.41
620.323	35326.91
620.678	35343.63
621.034	35288.95
621.39	35361.49
621.746	35594.47
622.101	35954.46
622.457	35905.43
622.812	36032.65
623.168	36111.07
623.523	36218.86
623.879	36325.75
624.234	36163.95
624.589	36543.83
624.945	36644.16
625.3	36711.96
625.655	36725.07
626.01	36796.02
626.365	36923.03
626.72	37051.84
627.075	36869.47
627.43	36971.61
627.785	37104.04
628.14	37166.64
628.495	37366.4
628.85	37253.64
629.205	37278.05
629.559	37305.84
629.914	37277.14
630.269	37467.87
630.623	37342.68
630.978	37285.73
631.332	37564.14
631.687	37742.21
632.041	37478.49
632.396	37633.97
632.75	37523.91
633.104	37732.27
633.459	37442.33
633.813	37565.72
634.167	37660.63
634.521	37616.34
634.875	37738.15
635.229	37645.04
635.583	37624.7
635.937	37646.4
636.291	37548.32
636.645	37613.63
636.999	37546.06
637.352	37707.64
637.706	37540.41
638.06	37713.06
638.413	37641.88
638.767	37534.54
639.121	37707.64
639.474	37554.87
639.828	37544.7
640.181	37599.84
640.534	37518.72
640.888	37487.76
641.241	37483.92
641.594	37461.09
641.947	37655.89
642.301	37478.04
642.654	37590.81
643.007	37680.29
643.36	37569.11
643.713	37464.93
644.066	37671.03
644.419	37391.49
644.771	37252.06
645.124	36872.63
645.477	36813.65
645.83	36630.38
646.182	36586.54
646.535	36372.08
646.888	36494.56
647.24	36241.69
647.593	36536.37
647.945	36412.08
648.298	36391.06
648.65	36297.51
649.002	36213.67
649.355	36366.88
649.707	36347.22
650.059	36605.75
650.411	36917.15
650.763	36932.52
651.115	37304.26
651.467	37270.36
651.819	37144.72
652.171	37158.5
652.523	37139.97
652.875	37052.97
653.227	36847.32
653.578	37190.82
653.93	37257.93
654.282	36977.26
654.633	36810.71
654.985	37070.82
655.337	36983.36
655.688	36986.98
656.039	36908.34
656.391	36783.14
656.742	36916.25
657.094	36853.65
657.445	37042.8
657.796	36997.37
658.147	36897.49
658.498	36909.47
658.849	36895.68
659.2	36771.84
659.551	36731.17
659.902	37057.03
660.253	36870.37
660.604	36964.16
660.955	36777.27
661.306	36884.84
661.656	36831.5
662.007	36726.65
662.358	36709.25
662.708	36702.92
663.059	36707.66
663.409	36546.54
663.76	36746.08
664.11	36573.21
664.461	36837.83
664.811	36803.71
665.161	36808.45
665.511	36827.89
665.862	36771.62
666.212	36817.27
666.562	36777.49
666.912	36737.27
667.262	36661.11
667.612	36669.93
667.962	36734.56
668.312	36656.14
668.662	36870.15
669.011	36755.8
669.361	36659.76
669.711	36543.38
670.06	36590.15
670.41	36536.37
670.76	36500.44
671.109	36649.14
671.459	36650.72
671.808	36467.22
672.157	36654.33
672.507	36351.52
672.856	36347
673.205	36469.25
673.554	36700.21
673.904	36408.01
674.253	36723.94
674.602	36550.15
674.951	35988.59
675.3	35733
675.649	36406.88
675.998	36326.88
676.346	36260.44
676.695	36462.02
677.044	36071.52
677.393	36230.62
677.741	36250.73
678.09	36168.24
678.438	36239.2
678.787	36229.49
679.135	36244.17
679.484	35896.84
679.832	36140.45
680.181	35924.63
680.529	36001.47
680.877	35867.01
681.225	35826.78
681.573	36202.14
681.922	35827.24
682.27	35883.05
682.618	35775.94
682.966	35576.4
683.314	35842.38
683.661	35760.8
684.009	35495.72
684.357	35426.12
684.705	35378.21
685.053	35445.55
685.4	35374.37
685.748	35368.72
686.095	35267.93
686.443	35160.36
686.79	35055.05
687.138	35199
687.485	35131.89
687.832	34924.89
688.18	34947.71
688.527	34827.26
688.874	34778.22
689.221	34742.29
689.568	34596.31
689.915	34749.75
690.262	34499.59
690.609	34599.92
690.956	34449.42
691.303	34350.66
691.65	34115.19
691.997	34262.31
692.344	33867.06
692.69	34022.76
693.037	34033.84
693.383	33736.22
693.73	33885.82
694.077	33586.84
694.423	33562.66
694.769	33586.39
695.116	33530.57
695.462	33484.02
695.808	33338.04
696.155	33377.36
696.501	33103.24
696.847	33107.31
697.193	32835
697.539	33074.54
697.885	32782.12
698.231	32679.07
698.577	32725.4
698.923	32663.48
699.269	32503.03
699.614	32406.08
699.96	32411.51
700.306	32289.7
700.651	32192.08
700.997	32087.22
701.342	32080.22
701.688	32056.26
702.033	32049.03
702.379	32017.62
702.724	31861.24
703.069	31905.76
703.415	31570.62
703.76	31531.53
704.105	31699.43
704.45	31473
704.795	31394.13
705.14	31325.21
705.485	31236.62
705.83	31072.33
706.175	31115.95
706.52	31096.96
706.865	30882.28
707.209	30822.17
707.554	30686.13
707.899	30921.38
708.243	30555.96
708.588	30647.26
708.932	30345.35
709.277	30452.01
709.621	30506.7
709.966	30315.06
710.31	30275.29
710.654	30109.19
710.998	30073.94
711.342	30004.11
711.687	29987.84
712.031	29968.18
712.375	29775.64
712.719	29886.83
713.063	29809.99
713.407	29863.32
713.75	29668.08
714.094	29671.24
714.438	29532.71
714.782	29541.98
715.125	29464.24
715.469	29393.05
715.812	29287.97
716.156	29123.91
716.499	29173.85
716.843	29206.17
717.186	28958.94
717.53	29147.86
717.873	29112.16
718.216	29068.54
718.559	28960.07
718.902	28712.62
719.246	28817.25
719.589	28794.88
719.932	28575.9
720.275	28683.47
720.617	28547.65
720.96	28530.48
721.303	28524.6
721.646	28489.35
721.989	28230.15
722.331	28494.32
722.674	28279.19
723.016	28426.07
723.359	28186.08
723.701	28135.01
724.044	28079.42
724.386	27932.53
724.729	28028.34
725.071	28025.86
725.413	27954.22
725.755	27988.8
726.097	27984.73
726.439	27758.52
726.782	27626.55
727.124	27821.57
727.465	27639.43
727.807	27628.81
728.149	27597.62
728.491	27577.06
728.833	27499.77
729.175	27514.01
729.516	27415.25
729.858	27355.82
730.199	27322.83
730.541	27357.4
730.882	27345.43
731.224	27273.11
731.565	27100.46
731.906	27105.43
732.248	27139.33
732.589	27077.18
732.93	26892.56
733.271	27077.64
733.612	26939.56
733.953	26872.67
734.294	26759
734.635	26817.08
734.976	26961.48
735.317	26715.39
735.658	26755.84
735.999	26643.07
736.339	26679
736.68	26599.23
737.021	26523.3
737.361	26447.6
737.702	26631.77
738.042	26559.01
738.383	26486.24
738.723	26426.13
739.063	26418.22
739.404	26434.71
739.744	26354.26
740.084	26232.91
740.424	26291.44
740.764	26103.65
741.104	26239.69
741.444	26102.07
741.784	26106.14
742.124	26055.97
742.464	26099.58
742.804	25941.85
743.143	25978
743.483	25963.09
743.823	25773.26
744.162	25769.2
744.502	25789.76
744.841	25776.2
745.181	25744.56
745.52	25596.32
745.86	25636.32
746.199	25605.36
746.538	25558.13
746.877	25709.76
747.216	25595.41
747.556	25403.33
747.895	25384.35
748.234	25325.82
748.573	25307.51
748.911	25263.67
749.25	25248.08
749.589	25122.88
749.928	25167.63
750.267	25231.36
750.605	25022.1
750.944	25030.46
751.283	24898.94
751.621	25003.79
751.96	24813.29
752.298	24813.74
752.636	24924.47
752.975	24762.44
753.313	24604.03
753.651	24699.17
753.989	24590.47
754.327	24469.34
754.666	24484.94
755.004	24419.63
755.342	24481.77
755.679	24386.63
756.017	24382.34
756.355	24337.14
756.693	24206.07
757.031	24129.01
757.368	24024.61
757.706	24098.05
758.044	23962.01
758.381	23964.5
758.719	23927.89
759.056	23855.57
759.394	23792.3
759.731	23612.87
760.068	23742.58
760.405	23525.64
760.743	23397.51
761.08	23444.74
761.417	23343.95
761.754	23312.08
762.091	23258.75
762.428	23140.34
762.765	23040.23
763.102	23120.68
763.438	22922.72
763.775	22853.34
764.112	22795.26
764.449	22815.15
764.785	22739.67
765.122	22637.3
765.458	22519.56
765.795	22503.07
766.131	22405.67
766.467	22453.12
766.804	22228.72
767.14	22112.12
767.476	22110.31
767.812	22077.31
768.148	22074.83
768.485	21929.52
768.821	21837.32
769.157	21694.5
769.492	21627.38
769.828	21695.18
770.164	21494.51
770.5	21469.2
770.836	21434.85
771.171	21271.23
771.507	21436.43
771.842	21205.93
772.178	21099.94
772.513	21111.69
772.849	20950.56
773.184	20911.92
773.519	20875.31
773.855	20816.78
774.19	20676.22
774.525	20690.91
774.86	20656.56
775.195	20546.51
775.53	20436.91
775.865	20400.07
776.2	20167.76
776.535	20136.8
776.87	20087.54
777.205	19971.83
777.539	20025.62
777.874	20009.57
778.209	19851.38
778.543	19688.68
778.878	19640.54
779.212	19625.63
779.547	19483.48
779.881	19525.74
780.215	19440.1
780.55	19476.25
780.884	19314.45
781.218	19215.47
781.552	19198.97
781.886	19163.49
782.22	19076.49
782.554	18967.34
782.888	18743.17
783.222	18753.79
783.556	18652.77
783.889	18660.91
784.223	18440.12
784.557	18394.02
784.89	18509.95
785.224	18372.78
785.557	18344.76
785.891	18232.67
786.224	18166.23
786.558	18210.98
786.891	18020.92
787.224	17942.73
787.557	17917.2
787.891	17832.45
788.224	17900.02
788.557	17811.66
788.89	17766.69
789.223	17680.59
789.556	17575.06
789.888	17571.9
790.221	17449.19
790.554	17305.46
790.887	17338
791.219	17267.95
791.552	17244.9
791.884	17013.72
792.217	17089.42
792.549	17068.63
792.882	16861.63
793.214	16853.27
793.546	16955.64
793.879	16740.51
794.211	16663.9
794.543	16739.38
794.875	16610.79
795.207	16663.67
795.539	16541.42
795.871	16528.31
796.203	16375.54
796.535	16319.05
796.867	16293.74
797.198	16271.37
797.53	16127.19
797.862	15991.83
798.193	16166.74
798.525	15958.15
798.856	15967.65
799.188	15830.02
799.519	15775.11
799.85	15762
800.182	15761.32
800.513	15722.45
800.844	15630.93
801.175	15627.32
801.506	15603.81
801.837	15546.19
802.168	15451.5
802.499	15413.31
802.83	15399.98
803.161	15358.17
803.491	15294.44
803.822	15204.73
804.153	15211.51
804.483	15038.63
804.814	15036.37
805.145	15084.5
805.475	14986.65
805.805	15017.16
806.136	14957.73
806.466	14974.22
806.796	14895.13
807.126	14736.94
807.457	14731.97
807.787	14695.14
808.117	14684.06
808.447	14615.59
808.777	14625.99
809.107	14559.09
809.436	14508.25
809.766	14614.69
810.096	14443.39
810.426	14474.13
810.755	14388.93
811.085	14366.33
811.414	14338.08
811.744	14182.83
812.073	14175.83
812.403	14269.16
812.732	14049.5
813.061	14114.81
813.39	14048.83
813.719	14005.89
814.049	14060.8
814.378	14012.67
814.707	13914.82
815.036	13930.86
815.365	13862.84
815.693	13774.93
816.022	13728.16
816.351	13747.36
816.68	13679.57
817.008	13663.98
817.337	13536.07
817.665	13560.7
817.994	13630.76
818.322	13582.85
818.651	13500.82
818.979	13436.19
819.307	13489.74
819.636	13448.62
819.964	13306.92
820.292	13402.74
820.62	13301.73
820.948	13284.55
821.276	13358.22
821.604	13273.93
821.932	13285.91
822.259	13293.59
822.587	13246.59
822.915	13241.16
823.243	13302.63
823.57	13232.58
823.898	13288.39
824.225	13240.49
824.553	13235.74
824.88	13247.26
825.207	13287.26
825.535	13125.46
825.862	13188.28
826.189	13164.78
826.516	13285.68
826.843	13274.61
827.17	13237.77
827.497	13318
827.824	13190.77
828.151	13217.66
828.478	13209.53
828.805	13262.86
829.131	13204.33
829.458	13181.28
829.785	13131.34
830.111	13106.25
830.438	13224.67
830.764	13218.34
831.09	13191.45
831.417	13097.89
831.743	13245
832.069	13224.21
832.395	13101.96
832.722	13144.22
833.048	13133.14
833.374	13090.43
833.7	13054.5
834.026	13047.5
834.351	13080.72
834.677	13077.1
835.003	13079.81
835.329	13031.9
835.654	13027.16
835.98	12957.78
836.306	12956.42
836.631	12912.13
836.956	12851.34
837.282	12962.53
837.607	12841.4
837.932	12860.61
838.258	12885.01
838.583	12899.93
838.908	12811.57
839.233	12828.07
839.558	12768.63
839.883	12724.79
840.208	12576.77
840.533	12687.51
840.858	12692.93
841.182	12691.12
841.507	12602.99
841.832	12534.97
842.156	12601.63
842.481	12519.15
842.805	12520.73
843.13	12457.23
843.454	12501.97
843.778	12397.8
844.103	12356.67
844.427	12379.26
844.751	12327.29
845.075	12351.7
845.399	12240.51
845.723	12203.9
846.047	12194.86
846.371	12111.48
846.695	12123.9
847.019	11941.99
847.343	11983.12
847.666	11865.83
847.99	11883.01
848.313	11804.59
848.637	11781.54
848.96	11786.29
849.284	11740.41
849.607	11580.64
849.931	11658.38
850.254	11555.33
850.577	11443.02
850.9	11435.33
851.223	11429.69
851.546	11328.9
851.869	11230.14
852.192	11357.14
852.515	11254.1
852.838	11133.42
853.161	11118.51
853.483	11118.73
853.806	11035.8
854.129	10997.15
854.451	11042.58
854.774	10995.12
855.096	10898.17
855.419	10969.81
855.741	10851.62
856.063	10789.02
856.385	10745.18
856.708	10779.76
857.03	10710.83
857.352	10745.41
857.674	10667.67
857.996	10654.11
858.318	10539.99
858.64	10529.37
858.961	10518.75
859.283	10528.01
859.605	10484.17
859.926	10463.61
860.248	10402.14
860.57	10398.75
860.891	10416.15
861.212	10315.59
861.534	10290.28
861.855	10327.12
862.176	10275.59
862.498	10286.89
862.819	10341.8
863.14	10265.87
863.461	10199.21
863.782	10171.64
864.103	10210.51
864.424	10095.03
864.745	10196.95
865.065	10092.77
865.386	10027.69
865.707	10040.57
866.027	10033.11
866.348	10034.02
866.668	10054.58
866.989	10023.39
867.309	9856.39
867.63	9938.88
867.95	9944.3
868.27	9788.6
868.59	9892.78
868.91	9899.1
869.23	9815.26
869.55	9841.03
869.87	9846
870.19	9797.64
870.51	9773.01
870.83	9808.03
871.15	9738.43
871.469	9769.62
871.789	9800.12
872.109	9782.27
872.428	9703.86
872.748	9713.8
873.067	9728.71
873.386	9703.86
873.706	9634.7
874.025	9622.73
874.344	9555.61
874.663	9684.42
874.982	9598.55
875.301	9630.64
875.62	9575.04
875.939	9518.1
876.258	9522.62
876.577	9488.49
876.896	9448.72
877.214	9447.59
877.533	9523.75
877.852	9444.43
878.17	9427.7
878.489	9451.88
878.807	9418.44
879.125	9424.99
879.444	9356.97
879.762	9246.92
880.08	9262.06
880.398	9344.99
880.716	9302.96
881.034	9302.74
881.352	9242.4
881.67	9222.51
881.988	9239.01
882.306	9197.2
882.624	9230.65
882.941	9141.61
883.259	9067.49
883.577	9145
883.894	9077.2
884.212	9085.11
884.529	9087.37
884.846	9008.51
885.164	9004.21
885.481	8927.38
885.798	9012.12
886.115	8919.69
886.432	8947.26
886.75	8879.24
887.067	8927.15
887.383	8893.71
887.7	8825.23
888.017	8836.99
888.334	8833.37
888.651	8799.47
888.967	8752.92
889.284	8724.9
889.6	8679.7
889.917	8613.94
890.233	8690.55
890.55	8663.66
890.866	8582.75
891.182	8594.28
891.498	8595.86
891.815	8562.19
892.131	8455.98
892.447	8557.67
892.763	8422.98
893.079	8431.57
893.395	8440.61
893.71	8396.77
894.026	8361.29
894.342	8331.01
894.657	8274.06
894.973	8249.66
895.289	8273.16
895.604	8241.75
895.92	8186.61
896.235	8137.79
896.55	8225.93
896.865	8160.62
897.181	8153.61
897.496	8151.13
897.811	8043.79
898.126	7994.52
898.441	7961.08
898.756	8021.41
899.071	7955.2
899.386	7918.82
899.7	7856.22
900.015	7801.53
900.33	7775.32
900.644	7707.07
900.959	7800.4
901.273	7715.43
901.588	7702.78
901.902	7674.08
902.216	7651.03
902.531	7659.84
902.845	7577.13
903.159	7533.29
903.473	7513.18
903.787	7495.78
904.101	7436.8
904.415	7456.91
904.729	7449.23
905.042	7361.77
905.356	7393.63
905.67	7319.51
905.984	7363.13
906.297	7327.65
906.611	7240.87
906.924	7260.08
907.237	7220.98
907.551	7185.5
907.864	7164.49
908.177	7146.86
908.491	7096.24
908.804	7040.65
909.117	7030.25
909.43	7005.62
909.743	6959.29
910.056	6960.65
910.368	6914.1
910.681	6866.42
910.994	6866.64
911.307	6838.62
911.619	6813.08
911.932	6829.81
912.244	6744.84
912.557	6740.77
912.869	6675.69
913.181	6670.71
913.494	6630.04
913.806	6654.9
914.118	6573.09
914.43	6579.64
914.742	6582.36
915.054	6530.61
915.366	6560.21
915.678	6481.34
915.99	6397.73
916.302	6374
916.613	6380.55
916.925	6398.63
917.236	6320.67
917.548	6294
917.859	6313.21
918.171	6286.54
918.482	6227.79
918.794	6178.75
919.105	6170.61
919.416	6171.29
919.727	6146.89
920.038	6184.4
920.349	6058.75
920.66	6069.15
920.971	6053.33
921.282	6018.75
921.593	5945.08
921.903	5985.08
922.214	5986.44
922.525	5919.77
922.835	5870.74
923.146	5883.84
923.456	5880.23
923.767	5779.44
924.077	5788.93
924.387	5781.92
924.697	5756.84
925.008	5771.98
925.318	5701.93
925.628	5734.02
925.938	5660.35
926.248	5632.1
926.558	5597.07
926.867	5557.3
927.177	5542.16
927.487	5524.08
927.796	5482.05
928.106	5462.84
928.416	5430.3
928.725	5451.76
929.034	5384.65
929.344	5401.14
929.653	5371.77
929.962	5303.07
930.271	5334.48
930.581	5278.66
930.89	5258.32
931.199	5219.68
931.508	5220.36
931.817	5233.24
932.125	5196.85
932.434	5165.44
932.743	5144.43
933.051	5070.53
933.36	5112.79
933.669	5075.28
933.977	5040.93
934.286	5004.54
934.594	5026.24
934.902	4992.79
935.21	4974.26
935.519	4960.48
935.827	4938.78
936.135	4873.02
936.443	4907.14
936.751	4847.71
937.059	4823.31
937.367	4807.71
937.674	4775.62
937.982	4820.82
938.29	4729.52
938.597	4725.68
938.905	4699.92
939.213	4680.48
939.52	4686.81
939.827	4720.26
940.135	4648.85
940.442	4623.31
940.749	4603.2
941.056	4581.96
941.363	4503.31
941.67	4538.12
941.977	4569.07
942.284	4491.56
942.591	4487.04
942.898	4500.38
943.205	4430.77
943.511	4452.24
943.818	4395.52
944.125	4413.15
944.431	4373.15
944.738	4384.9
945.044	4371.11
945.35	4337.89
945.657	4280.49
945.963	4265.13
946.269	4243.66
946.575	4276.65
946.881	4221.97
947.187	4208.18
947.493	4167.73
947.799	4205.69
948.105	4171.57
948.41	4211.12
948.716	4125.47
949.022	4118.92
949.327	4108.07
949.633	4073.27
949.938	4084.79
950.244	4032.14
950.549	4085.92
950.854	4016.32
951.16	3990.56
951.465	3939.71
951.77	3933.16
952.075	3926.38
952.38	3950.33
952.685	3921.18
952.99	3901.3
953.294	3878.7
953.599	3882.31
953.904	3818.13
954.209	3840.96
954.513	3798.47
954.818	3777.68
955.122	3753.73
955.426	3740.4
955.731	3773.39
956.035	3701.3
956.339	3745.37
956.643	3707.4
956.948	3652.04
957.252	3635.77
957.556	3680.74
957.86	3643
958.163	3619.27
958.467	3563
958.771	3586.05
959.075	3552.83
959.378	3553.28
959.682	3573.62
959.985	3517.13
960.289	3513.28
960.592	3503.79
960.896	3473.28
961.199	3447.97
961.502	3414.53
961.805	3418.82
962.108	3367.98
962.411	3377.02
962.714	3363.68
963.017	3370.46
963.32	3347.41
963.623	3362.33
963.926	3315.55
964.228	3290.01
964.531	3293.63
964.833	3328.66
965.136	3228.32
965.438	3221.77
965.741	3218.15
966.043	3203.01
966.345	3212.05
966.648	3188.32
966.95	3184.48
967.252	3161.88
967.554	3154.42
967.856	3140.19
968.158	3091.83
968.46	3127.53
968.761	3122.79
969.063	3080.75
969.365	3102.45
969.666	3051.15
969.968	3024.03
970.269	3020.64
970.571	3014.99
970.872	3017.48
971.174	2981.77
971.475	2978.61
971.776	2976.12
972.077	2927.54
972.378	2934.09
972.679	2926.63
972.98	2902.9
973.281	2918.04
973.582	2890.47
973.883	2859.74
974.183	2877.37
974.484	2887.76
974.785	2823.58
975.085	2869.46
975.386	2816.58
975.686	2814.77
975.986	2796.69
976.287	2788.1
976.587	2780.87
976.887	2733.19
977.187	2761.21
977.487	2738.84
977.787	2728.67
978.087	2695
978.387	2696.81
978.687	2704.27
978.987	2669.24
979.286	2672.85
979.586	2633.53
979.885	2652.97
980.185	2625.17
980.484	2622.23
980.784	2595.79
981.083	2581.33
981.382	2596.25
981.682	2605.06
981.981	2545.85
982.28	2567.09
982.579	2532.52
982.878	2574.55
983.177	2528
983.475	2522.8
983.774	2495.68
984.073	2495.91
984.372	2451.16
984.67	2426.53
984.969	2490.03
985.267	2476.93
985.566	2472.86
985.864	2428.57
986.162	2401.67
986.461	2406.42
986.759	2397.61
987.057	2335.46
987.355	2383.14
987.653	2359.87
987.951	2363.26
988.249	2338.4
988.547	2332.52
988.844	2367.78
989.142	2320.32
989.44	2302.24
989.737	2288.68
990.035	2249.81
990.332	2254.33
990.63	2252.3
990.927	2209.14
991.224	2244.16
991.521	2210.72
991.819	2226.54
992.116	2206.88
992.413	2202.13
992.71	2173.43
993.006	2192.64
993.303	2167.56
993.6	2144.96
993.897	2132.3
994.193	2119.65
994.49	2134.11
994.787	2106.31
995.083	2116.48
995.379	2076.94
995.676	2073.32
995.972	2079.65
996.268	2064.28
996.565	2053.43
996.861	2006.88
997.157	2000.78
997.453	2030.38
997.749	2001.68
998.044	1982.48
998.34	2001.23
998.636	1956.49
998.932	2002.36
999.227	1956.04
999.523	1975.02
999.818	1928.47
1000.114	1941.8
1000.409	1941.57
1000.704	1921.01
1001	1902.93
1001.295	1903.61
1001.59	1881.69
1001.885	1903.61
1002.18	1849.15
1002.475	1873.78
1002.77	1848.69
1003.065	1856.38
1003.359	1834.68
1003.654	1832.65
1003.949	1806.21
1004.243	1813.22
1004.538	1817.28
1004.832	1795.14
1005.127	1784.06
1005.421	1776.83
1005.715	1756.04
1006.009	1731.18
1006.304	1736.38
1006.598	1751.3
1006.892	1710.84
1007.186	1702.94
1007.48	1700.45
1007.773	1704.07
1008.067	1686.89
1008.361	1692.54
1008.655	1661.35
1008.948	1632.43
1009.242	1622.03
1009.535	1632.2
1009.829	1646.44
1010.122	1592.66
1010.415	1587.91
1010.708	1603.5
1011.001	1610.51
1011.295	1590.4
1011.588	1554.24
1011.881	1571.87
1012.173	1559.66
1012.466	1524.18
1012.759	1531.64
1013.052	1537.06
1013.344	1551.75
1013.637	1498.87
1013.93	1480.57
1014.222	1469.04
1014.514	1480.57
1014.807	1472.89
1015.099	1453
1015.391	1478.76
1015.683	1455.48
1015.976	1436.28
1016.268	1426.11
1016.56	1415.26
1016.851	1413.45
1017.143	1434.69
1017.435	1387.92
1017.727	1384.3
1018.018	1373.23
1018.31	1377.07
1018.602	1350.18
1018.893	1368.93
1019.185	1340.23
1019.476	1375.03
1019.767	1334.81
1020.058	1349.5
1020.35	1335.26
1020.641	1298.65
1020.932	1326.9
1021.223	1297.75
1021.514	1283.96
1021.804	1316.73
1022.095	1270.4
1022.386	1275.15
1022.677	1261.82
1022.967	1257.52
1023.258	1244.64
1023.548	1245.77
1023.839	1241.03
1024.129	1237.41
1024.419	1203.29
1024.709	1205.55
1025	1188.6
1025.29	1190.86
1025.58	1195.38
1025.87	1203.29
1026.16	1175.94
1026.449	1128.94
1026.739	1140.46
1027.029	1143.63
1027.319	1146.79
1027.608	1130.52
1027.898	1107.24
1028.187	1122.61
1028.477	1094.59
1028.766	1100.92
1029.055	1102.73
1029.344	1098.66
1029.634	1077.87
1029.923	1054.82
1030.212	1070.64
1030.501	1084.87
1030.79	1060.01
1031.078	1073.8
1031.367	1028.83
1031.656	1043.97
1031.945	1030.86
1032.233	1010.52
1032.522	1027.47
1032.81	1011.2
1033.099	1027.92
1033.387	998.32
1033.675	980.69
1033.963	985.89
1034.251	986.12
1034.54	966.68
1034.828	977.08
1035.116	966.01
1035.403	957.42
1035.691	950.19
1035.979	928.49
1036.267	931.66
1036.554	936.18
1036.842	946.8
1037.129	933.69
1037.417	895.05
1037.704	891.88
1037.992	900.7
1038.279	876.52
1038.566	888.49
1038.853	888.49
1039.14	888.49
