Data from hue_250_FLMS001491_00043.txt Node
Date: Tue Feb 07 16:01:01 GMT 2017
User: dcchb
Spectrometer: FLMS00149
Trigger mode: 0
Integration Time (sec): 2.000000E-2
Scans to average: 10
Electric dark correction enabled: true
Nonlinearity correction enabled: false
Boxcar width: 0
XAxis mode: Wavelengths
Number of Pixels in Spectrum: 2048
>>>>>Begin Spectral Data<<<<<
341.393	-15.78
341.776	-15.78
342.16	-15.78
342.543	-41.31
342.927	-52.39
343.31	-79.96
343.693	-52.39
344.077	-64.14
344.46	-56.23
344.843	-58.26
345.226	-32.5
345.61	-28.43
345.993	-17.13
346.376	-12.39
346.759	16.54
347.142	42.3
347.525	31.23
347.908	38.91
348.291	82.07
348.674	71.23
349.057	119.14
349.44	139.25
349.823	154.39
350.206	155.97
350.588	187.38
350.971	214.05
351.354	206.82
351.737	210.66
352.119	241.17
352.502	243.65
352.884	257.89
353.267	275.29
353.65	266.25
354.032	286.36
354.414	314.16
354.797	295.4
355.179	324.78
355.562	331.11
355.944	320.71
356.326	338.79
356.709	335.4
357.091	323.42
357.473	327.49
357.855	357.77
358.238	338.56
358.62	336.98
359.002	350.54
359.384	334.04
359.766	335.63
360.148	358.23
360.53	348.96
360.912	327.49
361.294	327.04
361.676	332.91
362.057	326.36
362.439	325.01
362.821	329.53
363.203	329.75
363.584	331.79
363.966	348.28
364.348	306.93
364.729	321.84
365.111	319.36
365.493	348.06
365.874	304.67
366.256	304.44
366.637	315.74
367.019	298.34
367.4	295.18
367.781	316.42
368.163	302.86
368.544	311.9
368.925	327.27
369.306	315.51
369.688	296.08
370.069	318
370.45	307.15
370.831	314.38
371.212	305.35
371.593	308.96
371.974	332.69
372.355	296.76
372.736	317.55
373.117	316.42
373.498	310.54
373.879	317.32
374.26	299.24
374.641	321.39
375.021	316.19
375.402	292.01
375.783	293.14
376.163	309.86
376.544	320.03
376.925	318.23
377.305	333.59
377.686	320.94
378.066	334.95
378.447	346.47
378.827	318.45
379.208	334.27
379.588	339.47
379.968	316.42
380.349	342.86
380.729	319.13
381.109	326.36
381.489	320.03
381.87	343.76
382.25	336.08
382.63	334.95
383.01	329.07
383.39	332.91
383.77	334.04
384.15	319.36
384.53	340.37
384.91	352.58
385.29	362.29
385.67	338.79
386.049	343.54
386.429	346.7
386.809	334.72
387.189	357.32
387.568	374.5
387.948	339.69
388.328	344.67
388.707	354.38
389.087	371.11
389.466	360.71
389.846	369.07
390.225	369.07
390.605	352.8
390.984	362.52
391.363	371.33
391.743	376.98
392.122	376.98
392.501	374.5
392.881	390.31
393.26	380.6
393.639	385.12
394.018	390.77
394.397	361.61
394.776	389.41
395.155	387.83
395.534	374.95
395.913	402.07
396.292	415.4
396.671	389.18
397.05	407.49
397.429	408.85
397.808	391.22
398.186	389.86
398.565	393.48
398.944	407.94
399.323	411.11
399.701	394.61
400.08	395.74
400.458	414.95
400.837	401.84
401.215	415.17
401.594	399.13
401.972	425.12
402.351	411.78
402.729	430.31
403.107	425.57
403.486	423.76
403.864	414.27
404.242	450.65
404.62	446.58
404.999	428.73
405.377	456.98
405.755	449.52
406.133	478.45
406.511	460.6
406.889	469.63
407.267	456.53
407.645	461.95
408.023	479.8
408.401	489.97
408.779	484.78
409.156	494.49
409.534	491.78
409.912	488.62
410.29	509.18
410.667	505.11
411.045	516.64
411.422	533.81
411.8	539.92
412.178	542.63
412.555	551.67
412.933	553.93
413.31	545.11
413.687	569.52
414.065	562.51
414.442	550.54
414.819	573.13
415.197	574.72
415.574	593.25
415.951	588.05
416.328	629.4
416.705	619.24
417.082	588.28
417.46	613.59
417.837	626.92
418.214	637.99
418.591	633.47
418.967	652
419.344	653.58
419.721	653.81
420.098	644.09
420.475	654.71
420.852	682.74
421.228	699.23
421.605	697.65
421.982	699.01
422.358	708.72
422.735	741.72
423.111	743.98
423.488	753.47
423.864	755.05
424.241	757.54
424.617	747.14
424.994	772.23
425.37	806.12
425.746	776.07
426.123	824.88
426.499	815.84
426.875	814.94
427.251	849.96
427.627	846.8
428.003	868.27
428.379	849.51
428.756	871.66
429.132	872.34
429.507	913.46
429.883	894.48
430.259	919.34
430.635	896.74
431.011	924.99
431.387	944.42
431.763	964.99
432.138	948.49
432.514	974.93
432.89	979.9
433.265	1006.57
433.641	1018.55
434.016	1048.6
434.392	1032.11
434.767	1083.18
435.143	1066.68
435.518	1108.49
435.894	1121.14
436.269	1126.79
436.644	1116.4
437.02	1164.31
437.395	1136.74
437.77	1176.73
438.145	1197.98
438.52	1206.34
438.895	1245.66
439.271	1210.63
439.646	1256.28
440.021	1264.64
440.395	1270.52
440.77	1267.58
441.145	1312.55
441.52	1335.83
441.895	1307.8
442.27	1346.9
442.645	1369.72
443.019	1381.25
443.394	1327.01
443.769	1386.67
444.143	1404.3
444.518	1432.32
444.892	1414.02
445.267	1393.23
445.641	1440
446.016	1430.29
446.39	1450.63
446.764	1452.66
447.139	1457.86
447.513	1505.54
447.887	1489.04
448.262	1491.53
448.636	1495.37
449.01	1508.25
449.384	1532.66
449.758	1551.41
450.132	1567.01
450.506	1557.52
450.88	1543.5
451.254	1572.66
451.628	1608.59
452.002	1638.64
452.376	1600.45
452.75	1663.73
453.123	1641.36
453.497	1684.29
453.871	1692.65
454.244	1739.21
454.618	1742.82
454.992	1738.3
455.365	1760.45
455.739	1813.55
456.112	1825.31
456.486	1823.5
456.859	1829.37
457.232	1863.27
457.606	1834.12
457.979	1877.06
458.352	1913.66
458.725	1943.49
459.099	1955.92
459.472	1969.48
459.845	2004.06
460.218	2014.68
460.591	2002.02
460.964	2044.73
461.337	2079.08
461.71	2095.13
462.083	2119.76
462.456	2145.3
462.829	2128.57
463.201	2165.41
463.574	2185.3
463.947	2229.36
464.32	2292.64
464.692	2254.67
465.065	2296.93
465.438	2314.11
465.81	2334.22
466.183	2374.9
466.555	2417.83
466.928	2408.11
467.3	2407.44
467.672	2461.22
468.045	2511.61
468.417	2488.11
468.789	2511.16
469.161	2578.05
469.534	2618.05
469.906	2676.58
470.278	2669.8
470.65	2674.55
471.022	2744.83
471.394	2773.75
471.766	2789.35
472.138	2835.22
472.51	2876.58
472.882	2942.11
473.253	2922.68
473.625	2977.82
473.997	3022.34
474.369	3028.89
474.74	3080.41
475.112	3117.02
475.484	3149.34
475.855	3187.3
476.227	3251.03
476.598	3324.02
476.97	3355.66
477.341	3397.47
477.713	3428.43
478.084	3445.38
478.455	3561.98
478.827	3566.95
479.198	3644.69
479.569	3658.7
479.94	3743.67
480.311	3759.04
480.682	3827.96
481.053	3872.03
481.424	3924.68
481.795	3970.11
482.166	4042.65
482.537	4079.48
482.908	4190.21
483.279	4216.2
483.65	4276.31
484.021	4362.19
484.391	4380.27
484.762	4379.81
485.133	4412.36
485.503	4506.59
485.874	4507.49
486.244	4606.25
486.615	4643.99
486.985	4713.36
487.356	4809.41
487.726	4803.53
488.097	4898.9
488.467	4938.22
488.837	5055.95
489.207	5060.25
489.578	5095.73
489.948	5180.7
490.318	5216.85
490.688	5216.85
491.058	5273.12
491.428	5365.78
491.798	5362.39
492.168	5486.68
492.538	5505.43
492.908	5540.24
493.278	5621.59
493.648	5603.74
494.017	5705.43
494.387	5708.37
494.757	5738.2
495.126	5840.11
495.496	5827.01
495.866	5853
496.235	5888.02
496.605	5960.56
496.974	5969.83
497.344	5983.61
497.713	6042.6
498.082	6123.27
498.452	6148.81
498.821	6169.82
499.19	6131.18
499.559	6209.82
499.928	6224.06
500.298	6272.65
500.667	6372.76
501.036	6277.17
501.405	6362.59
501.774	6356.26
502.143	6414.56
502.512	6456.37
502.88	6487.78
503.249	6398.52
503.618	6510.83
503.987	6531.4
504.356	6571.62
504.724	6496.82
505.093	6624.27
505.462	6626.99
505.83	6660.43
506.199	6681.67
506.567	6727.78
506.936	6730.49
507.304	6774.33
507.672	6785.4
508.041	6845.96
508.409	6848.22
508.777	6939.75
509.145	6915.34
509.514	6960.76
509.882	6966.86
510.25	6984.27
510.618	7002.12
510.986	7010.03
511.354	7050.03
511.722	7065.39
512.09	7129.12
512.458	7093.64
512.826	7142.45
513.193	7178.84
513.561	7156.69
513.929	7202.56
514.297	7259.96
514.664	7205.73
515.032	7274.43
515.4	7308.78
515.767	7293.64
516.135	7316.23
516.502	7317.14
516.869	7417.93
517.237	7427.42
517.604	7384.25
517.972	7444.37
518.339	7461.32
518.706	7381.77
519.073	7482.56
519.44	7538.6
519.808	7588.54
520.175	7511.48
520.542	7618.15
520.909	7586.51
521.276	7660.41
521.643	7672.83
522.009	7688.88
522.376	7683.23
522.743	7704.47
523.11	7744.02
523.477	7766.62
523.843	7767.75
524.21	7868.08
524.577	7885.71
524.943	7889.1
525.31	7918.93
525.676	7966.61
526.043	7912.83
526.409	7982.21
526.776	7991.02
527.142	7967.06
527.508	8007.06
527.874	8010.45
528.241	8172.48
528.607	8107.85
528.973	8171.35
529.339	8098.59
529.705	8174.29
530.071	8187.62
530.437	8150.11
530.803	8229.43
531.169	8260.62
531.535	8215.65
531.901	8247.06
532.267	8205.7
532.632	8231.46
532.998	8226.49
533.364	8260.39
533.73	8275.98
534.095	8295.64
534.461	8313.95
534.826	8306.26
535.192	8307.62
535.557	8307.62
535.923	8398.92
536.288	8299.71
536.653	8314.85
537.019	8250.67
537.384	8311.91
537.749	8356.88
538.114	8352.82
538.479	8281.86
538.845	8329.31
539.21	8299.26
539.575	8403.89
539.94	8335.19
540.305	8398.24
540.67	8373.61
541.034	8342.2
541.399	8332.93
541.764	8350.78
542.129	8324.34
542.494	8313.72
542.858	8381.29
543.223	8318.69
543.587	8426.04
543.952	8269.2
544.316	8348.07
544.681	8321.18
545.045	8289.99
545.41	8377.22
545.774	8359.14
546.138	8382.19
546.503	8334.06
546.867	8368.64
547.231	8344
547.595	8368.64
547.959	8366.83
548.324	8344.23
548.688	8341.97
549.052	8366.6
549.416	8359.37
549.779	8423.55
550.143	8306.94
550.507	8360.73
550.871	8358.01
551.235	8314.63
551.599	8336.77
551.962	8342.42
552.326	8417.45
552.689	8383.1
553.053	8341.52
553.417	8353.04
553.78	8427.84
554.143	8369.09
554.507	8417.22
554.87	8373.61
555.234	8408.18
555.597	8405.02
555.96	8461.74
556.323	8414.06
556.686	8447.73
557.05	8462.42
557.413	8438.46
557.776	8420.84
558.139	8474.85
558.502	8538.12
558.865	8521.4
559.228	8594.62
559.59	8587.39
559.953	8537.45
560.316	8542.42
560.679	8571.34
561.041	8606.37
561.404	8722.75
561.767	8639.36
562.129	8646.59
562.492	8775.4
562.854	8767.72
563.217	8740.83
563.579	8773.6
563.941	8780.83
564.304	8838.68
564.666	8842.07
565.028	8894.05
565.39	8904.22
565.753	8913.93
566.115	8919.81
566.477	8959.13
566.839	8961.39
567.201	9025.34
567.563	9038.45
567.925	9089.75
568.287	9076.64
568.648	9019.24
569.01	9138.11
569.372	9144.21
569.734	9102.85
570.095	9135.62
570.457	9212.23
570.819	9216.52
571.18	9259.23
571.542	9292
571.903	9238.67
572.265	9289.52
572.626	9352.79
572.987	9372.68
573.349	9342.62
573.71	9394.6
574.071	9433.47
574.432	9414.26
574.794	9454.71
575.155	9475.27
575.516	9450.87
575.877	9541.94
576.238	9586.91
576.599	9520.92
576.96	9575.38
577.32	9651.09
577.681	9591.65
578.042	9671.43
578.403	9699.45
578.763	9644.31
579.124	9689.05
579.485	9710.3
579.845	9835.72
580.206	9710.52
580.566	9806.56
580.927	9764.53
581.287	9805.21
581.648	9758.66
582.008	9813.34
582.368	9794.81
582.728	9829.84
583.089	9826.45
583.449	9840.24
583.809	9917.52
584.169	9926.56
584.529	9947.35
584.889	10068.03
585.249	9947.8
585.609	9902.38
585.969	10014.92
586.329	9968.59
586.688	9996.84
587.048	9953.68
587.408	10025.09
587.768	10006.78
588.127	9998.65
588.487	9931.08
588.846	10087.23
589.206	10055.6
589.565	10002.49
589.925	10096.95
590.284	10091.98
590.643	10155.03
591.003	10073.9
591.362	10092.66
591.721	10156.61
592.08	10049.72
592.44	10221.69
592.799	10231.19
593.158	10190.96
593.517	10169.94
593.876	10263.05
594.235	10245.2
594.593	10256.5
594.952	10283.84
595.311	10197.29
595.67	10241.58
596.029	10277.51
596.387	10289.94
596.746	10331.97
597.104	10292.65
597.463	10207.68
597.822	10265.76
598.18	10274.35
598.538	10248.13
598.897	10317.06
599.255	10245.87
599.613	10362.03
599.972	10296.49
600.33	10329.49
600.688	10332.43
601.046	10413.1
601.404	10327.68
601.762	10389.15
602.12	10370.84
602.478	10447.9
602.836	10453.1
603.194	10421.01
603.552	10423.27
603.91	10313.44
604.268	10380.33
604.625	10416.04
604.983	10415.81
605.341	10402.48
605.698	10414.46
606.056	10468.69
606.413	10380.11
606.771	10463.27
607.128	10501.46
607.485	10471.18
607.843	10494.46
608.2	10518.64
608.557	10490.39
608.914	10491.07
609.272	10566.09
609.629	10509.82
609.986	10545.98
610.343	10529.48
610.7	10635.47
611.057	10577.84
611.414	10595.24
611.771	10625.75
612.127	10656.49
612.484	10529.03
612.841	10623.27
613.198	10609.48
613.554	10607.45
613.911	10680.44
614.267	10655.81
614.624	10612.19
614.98	10660.78
615.337	10752.98
615.693	10704.39
616.05	10689.48
616.406	10771.51
616.762	10660.78
617.118	10764.05
617.475	10715.69
617.831	10743.49
618.187	10823.26
618.543	10811.06
618.899	10778.29
619.255	10783.26
619.611	10799.98
619.967	10852.19
620.323	10854.22
620.678	10821.23
621.034	10793.88
621.39	10750.72
621.746	10811.74
622.101	10950.94
622.457	10857.38
622.812	10845.63
623.168	10939.42
623.523	10877.95
623.879	10814
624.234	10763.15
624.589	10853.32
624.945	10863.03
625.3	10844.28
625.655	10677.28
626.01	10800.21
626.365	10903.26
626.72	10803.83
627.075	10811.28
627.43	10743.04
627.785	10747.56
628.14	10799.76
628.495	10801.11
628.85	10785.75
629.205	10757.73
629.559	10796.59
629.914	10719.08
630.269	10769.02
630.623	10699.42
630.978	10749.82
631.332	10795.46
631.687	10811.96
632.041	10710.27
632.396	10690.16
632.75	10616.03
633.104	10713.21
633.459	10640.44
633.813	10562.93
634.167	10589.37
634.521	10592.76
634.875	10642.25
635.229	10617.84
635.583	10554.57
635.937	10550.5
636.291	10521.57
636.645	10520.67
636.999	10507.34
637.352	10496.04
637.706	10437.51
638.06	10522.25
638.413	10492.87
638.767	10474.34
639.121	10483.61
639.474	10418.3
639.828	10477.73
640.181	10436.38
640.534	10423.5
640.888	10371.52
641.241	10339.21
641.594	10387.34
641.947	10378.53
642.301	10375.14
642.654	10369.26
643.007	10357.28
643.36	10342.6
643.713	10312.09
644.066	10369.94
644.419	10264.63
644.771	10223.73
645.124	10178.53
645.477	10154.8
645.83	10063.51
646.182	9985.32
646.535	9994.58
646.888	9967.46
647.24	9897.64
647.593	9983.28
647.945	9962.94
648.298	9970.18
648.65	9908.93
649.002	9890.4
649.355	9970.4
649.707	9880.69
650.059	9953.9
650.411	10074.35
650.763	10094.69
651.115	10219.89
651.467	10147.8
651.819	10179.66
652.171	10181.7
652.523	10177.18
652.875	10098.08
653.227	10063.96
653.578	10203.39
653.93	10163.16
654.282	10021.7
654.633	10021.7
654.985	10115.93
655.337	10080.68
655.688	10040
656.039	10151.87
656.391	10082.26
656.742	10093.11
657.094	10084.07
657.445	10136.95
657.796	10063.73
658.147	10126.33
658.498	10095.82
658.849	10113
659.2	10085.88
659.551	9986.22
659.902	10045.2
660.253	10061.7
660.604	10119.78
660.955	10067.35
661.306	10120
661.656	10087.46
662.007	10054.69
662.358	9984.41
662.708	10100.79
663.059	10096.73
663.409	10017.18
663.76	10156.39
664.11	10118.87
664.461	10174.01
664.811	10117.74
665.161	10079.78
665.511	10070.29
665.862	10022.15
666.212	10070.74
666.562	10016.05
666.912	10063.28
667.262	10031.64
667.612	10021.93
667.962	10070.51
668.312	10054.24
668.662	10143.96
669.011	10008.82
669.361	10052.89
669.711	10012.89
670.06	9928.82
670.41	9981.93
670.76	10011.08
671.109	10012.66
671.459	10067.57
671.808	9978.09
672.157	9923.4
672.507	9956.62
672.856	9887.47
673.205	9985.54
673.554	9933.57
673.904	9898.54
674.253	9978.54
674.602	9929.27
674.951	9838.65
675.3	9769.73
675.649	9956.84
675.998	9889.95
676.346	9931.53
676.695	9869.84
677.044	9828.03
677.393	9842.95
677.741	9883.62
678.09	9882.72
678.438	9832.55
678.787	9909.16
679.135	9917.75
679.484	9874.13
679.832	9830.07
680.181	9784.42
680.529	9759.11
680.877	9727.47
681.225	9694.7
681.573	9844.53
681.922	9715.72
682.27	9708.94
682.618	9711.2
682.966	9644.99
683.314	9713.23
683.661	9531.32
684.009	9662.61
684.357	9537.64
684.705	9500.36
685.053	9573.58
685.4	9538.55
685.748	9519.79
686.095	9499
686.443	9419.68
686.79	9496.52
687.138	9465.56
687.485	9413.13
687.832	9401.83
688.18	9353.69
688.527	9323.19
688.874	9290.42
689.221	9314.6
689.568	9277.54
689.915	9274.6
690.262	9282.96
690.609	9273.7
690.956	9201.38
691.303	9169.97
691.65	9158.67
691.997	9128.16
692.344	9080.26
692.69	9104.89
693.037	9069.18
693.383	8973.37
693.73	8996.87
694.077	8950.32
694.423	8950.09
694.769	8899.24
695.116	8873.26
695.462	8908.51
695.808	8857.89
696.155	8808.85
696.501	8749.87
696.847	8766.14
697.193	8717.1
697.539	8734.73
697.885	8630.32
698.231	8600.27
698.577	8559.82
698.923	8599.14
699.269	8521.63
699.614	8525.02
699.96	8515.75
700.306	8438.69
700.651	8452.02
700.997	8432.14
701.342	8382.19
701.688	8372.7
702.033	8370.67
702.379	8318.47
702.724	8325.47
703.069	8344.23
703.415	8230.56
703.76	8236.89
704.105	8213.16
704.45	8210.9
704.795	8174.74
705.14	8034.41
705.485	8071.02
705.83	8020.85
706.175	8118.7
706.52	7977.23
706.865	7987.63
707.209	7977.23
707.554	7885.26
707.899	7943.56
708.243	7919.61
708.588	7900.4
708.932	7837.58
709.277	7858.14
709.621	7823.11
709.966	7791.93
710.31	7821.53
710.654	7627.19
710.998	7747.86
711.342	7739.95
711.687	7697.47
712.031	7586.51
712.375	7614.98
712.719	7688.2
713.063	7668.77
713.407	7666.06
713.75	7540.41
714.094	7571.59
714.438	7541.31
714.782	7498.15
715.125	7539.96
715.469	7588.77
715.812	7495.21
716.156	7458.15
716.499	7501.09
716.843	7491.37
717.186	7413.63
717.53	7461.09
717.873	7441.2
718.216	7468.09
718.559	7406.63
718.902	7339.28
719.246	7337.48
719.589	7326.86
719.932	7286.4
720.275	7326.63
720.617	7278.5
720.96	7280.75
721.303	7294.31
721.646	7267.2
721.989	7264.94
722.331	7324.37
722.674	7193.53
723.016	7267.65
723.359	7189.23
723.701	7225.62
724.044	7192.17
724.386	7209.12
724.729	7159.4
725.071	7194.66
725.413	7175.9
725.755	7152.17
726.097	7094.32
726.439	7102.91
726.782	7155.56
727.124	7211.38
727.465	7117.6
727.807	7142
728.149	7114.88
728.491	7097.03
728.833	7126.86
729.175	7162.79
729.516	7076.92
729.858	7095.22
730.199	7097.71
730.541	7061.55
730.882	7059.29
731.224	7068.78
731.565	7037.15
731.906	7093.64
732.248	7066.3
732.589	7015.23
732.93	7076.24
733.271	7035.34
733.612	7029.01
733.953	7046.86
734.294	7078.05
734.635	6989.69
734.976	7044.15
735.317	7044.83
735.658	7080.76
735.999	7028.78
736.339	7022
736.68	7018.61
737.021	7029.24
737.361	6988.33
737.702	7013.64
738.042	7037.15
738.383	6983.59
738.723	6999.18
739.063	7013.19
739.404	6992.4
739.744	7015.23
740.084	7003.47
740.424	7044.6
740.764	6989.01
741.104	7066.75
741.444	7099.97
741.784	7013.42
742.124	7103.13
742.464	7106.3
742.804	7075.34
743.143	7100.19
743.483	7092.74
743.823	7084.83
744.162	7109.23
744.502	7130.25
744.841	7103.81
745.181	7212.51
745.52	7128.67
745.86	7209.57
746.199	7224.26
746.538	7169.12
746.877	7276.91
747.216	7272.85
747.556	7252.06
747.895	7318.49
748.234	7335.89
748.573	7390.13
748.911	7409.79
749.25	7443.01
749.589	7424.25
749.928	7513.52
750.267	7683.46
750.605	7592.39
750.944	7641.88
751.283	7684.36
751.621	7797.8
751.96	7786.05
752.298	7833.06
752.636	7930.46
752.975	7925.48
753.313	7962.32
753.651	8080.28
753.989	8192.14
754.327	8196.89
754.666	8245.93
755.004	8339.48
755.342	8410.67
755.679	8445.24
756.017	8565.92
756.355	8705.35
756.693	8645.69
757.031	8880.03
757.368	8886.81
757.706	8996.42
758.044	9066.02
758.381	9164.1
758.719	9216.52
759.056	9289.06
759.394	9441.15
759.731	9494.48
760.068	9555.72
760.405	9679.56
760.743	9714.14
761.08	9924.53
761.417	9909.84
761.754	10017.41
762.091	10144.63
762.428	10271.86
762.765	10285.87
763.102	10457.17
763.438	10490.61
763.775	10577.39
764.112	10717.27
764.449	10839.08
764.785	10948.68
765.122	10967.44
765.458	11044.5
765.795	11121.78
766.131	11306.41
766.467	11312.97
766.804	11373.75
767.14	11484.94
767.476	11546.41
767.812	11641.09
768.148	11706.85
768.485	11746.17
768.821	11776.68
769.157	11821.2
769.492	11968.09
769.828	11969.45
770.164	12056.22
770.5	12099.84
770.836	12185.03
771.171	12211.7
771.507	12267.52
771.842	12269.1
772.178	12352.94
772.513	12423.44
772.849	12397.68
773.184	12439.04
773.519	12486.95
773.855	12543.44
774.19	12506.15
774.525	12498.7
774.86	12591.12
775.195	12599.26
775.53	12644.23
775.865	12662.76
776.2	12690.78
776.535	12575.53
776.87	12665.47
777.205	12671.12
777.539	12641.97
777.874	12788.18
778.209	12688.52
778.543	12794.28
778.878	12681.74
779.212	12684.91
779.547	12683.78
779.881	12751.35
780.215	12711.35
780.55	12748.86
780.884	12658.47
781.218	12723.1
781.552	12742.53
781.886	12664.57
782.22	12693.27
782.554	12667.73
782.888	12604
783.222	12581.18
783.556	12558.58
783.889	12659.14
784.223	12535.31
784.557	12493.5
784.89	12637.9
785.224	12454.63
785.557	12469.55
785.891	12490.11
786.224	12471.35
786.558	12395.2
786.891	12385.48
787.224	12364.46
787.557	12418.47
787.891	12401.98
788.224	12328.08
788.557	12398.36
788.89	12381.64
789.223	12346.16
789.556	12270.45
789.888	12197.46
790.221	12235.2
790.554	12175.99
790.887	12129.67
791.219	12178.25
791.552	12155.43
791.884	12117.69
792.217	12105.94
792.549	12056.45
792.882	11982.55
793.214	11940.52
793.546	12060.74
793.879	11806.51
794.211	11841.31
794.543	11869.79
794.875	11852.61
795.207	11947.07
795.539	11780.3
795.871	11843.57
796.203	11794.99
796.535	11728.55
796.867	11709.56
797.198	11666.85
797.53	11694.88
797.862	11678.38
798.193	11706.4
798.525	11563.58
798.856	11576.46
799.188	11491.94
799.519	11462.79
799.85	11395.45
800.182	11377.37
800.513	11383.25
800.844	11354.09
801.175	11406.97
801.506	11420.99
801.837	11358.61
802.168	11280.65
802.499	11296.47
802.83	11149.58
803.161	11188.9
803.491	11154.78
803.822	11219.41
804.153	11151.16
804.483	10999.75
804.814	11067.55
805.145	10976.93
805.475	11027.78
805.805	10947.78
806.136	10973.09
806.466	10959.53
806.796	10955.23
807.126	10835.69
807.457	10770.61
807.787	10822.36
808.117	10832.98
808.447	10786.88
808.777	10763.83
809.107	10783.94
809.436	10705.52
809.766	10715.47
810.096	10716.37
810.426	10626.2
810.755	10625.07
811.085	10668.01
811.414	10668.46
811.744	10495.13
812.073	10522.25
812.403	10501.69
812.732	10433.21
813.061	10466.21
813.39	10433.44
813.719	10402.93
814.049	10489.94
814.378	10418.75
814.707	10391.18
815.036	10278.64
815.365	10329.71
815.693	10142.15
816.022	10178.98
816.351	10219.21
816.68	10198.64
817.008	10231.64
817.337	10143.28
817.665	10122.49
817.994	10134.01
818.322	10123.17
818.651	10070.96
818.979	9950.74
819.307	10081.36
819.636	10022.38
819.964	10013.34
820.292	10006.11
820.62	10049.5
820.948	9974.02
821.276	9976.05
821.604	10004.98
821.932	10034.13
822.259	10003.17
822.587	9975.37
822.915	9901.25
823.243	9953
823.57	9916.84
823.898	9968.59
824.225	10023.96
824.553	9947.8
824.88	9948.03
825.207	9942.83
825.535	9973.34
825.862	9969.5
826.189	9947.13
826.516	9971.53
826.843	10002.27
827.17	10037.07
827.497	10016.73
827.824	9946
828.151	10032.32
828.478	9980.12
828.805	10026.22
829.131	9969.5
829.458	9989.38
829.785	9941.7
830.111	9987.12
830.438	9975.83
830.764	10091.75
831.09	9960.46
831.417	9926.56
831.743	9935.83
832.069	9995.94
832.395	9901.02
832.722	9969.72
833.048	9962.94
833.374	9932.21
833.7	9926.56
834.026	9906.9
834.351	9925.21
834.677	9918.88
835.003	9922.27
835.329	9876.17
835.654	9942.38
835.98	9817.86
836.306	9831.2
836.631	9791.65
836.956	9848.37
837.282	9849.27
837.607	9818.99
837.932	9790.07
838.258	9734.02
838.583	9831.2
838.908	9785.1
839.233	9692.22
839.558	9658.77
839.883	9708.71
840.208	9628.26
840.533	9630.07
840.858	9694.02
841.182	9606.57
841.507	9687.25
841.832	9563.18
842.156	9576.74
842.481	9535.84
842.805	9544.65
843.13	9582.16
843.454	9507.36
843.778	9427.82
844.103	9441.38
844.427	9461.94
844.751	9465.33
845.075	9437.08
845.399	9382.39
845.723	9282.06
846.047	9354.82
846.371	9256.97
846.695	9266.47
847.019	9169.52
847.343	9138.56
847.666	9081.16
847.99	9129.97
848.313	9070.09
848.637	9035.96
848.96	9011.56
849.284	9001.84
849.607	8932.24
849.931	8835.97
850.254	8793.94
850.577	8769.98
850.9	8749.87
851.223	8752.13
851.546	8678.46
851.869	8633.94
852.192	8741.73
852.515	8572.92
852.838	8602.08
853.161	8570.21
853.483	8554.62
853.806	8489.54
854.129	8479.37
854.451	8430.1
854.774	8458.13
855.096	8391.01
855.419	8395.53
855.741	8296.32
856.063	8301.74
856.385	8299.03
856.708	8257.68
857.03	8221.07
857.352	8228.07
857.674	8162.99
857.996	8202.99
858.318	8160.51
858.64	8109.43
858.961	8064.24
859.283	8033.73
859.605	8028.08
859.926	8044.8
860.248	8014.07
860.57	7965.71
860.891	8017.01
861.212	7911.7
861.534	7954.41
861.855	7893.85
862.176	7931.36
862.498	7986.05
862.819	7866.05
863.14	7927.74
863.461	7819.72
863.782	7841.42
864.103	7793.51
864.424	7793.74
864.745	7812.04
865.065	7748.54
865.386	7750.57
865.707	7745.15
866.027	7728.2
866.348	7767.75
866.668	7667.19
866.989	7701.08
867.309	7649.33
867.63	7682.1
867.95	7652.95
868.27	7671.93
868.59	7643.68
868.91	7657.47
869.23	7584.25
869.55	7630.58
869.87	7636.23
870.19	7571.37
870.51	7612.05
870.83	7649.33
871.15	7559.62
871.469	7569.33
871.789	7525.27
872.109	7517.36
872.428	7457.25
872.748	7512.61
873.067	7489.11
873.386	7541.09
873.706	7460.41
874.025	7409.11
874.344	7377.02
874.663	7432.62
874.982	7371.83
875.301	7411.37
875.62	7312.84
875.939	7390.13
876.258	7313.75
876.577	7251.38
876.896	7297.48
877.214	7299.96
877.533	7313.3
877.852	7308.78
878.17	7314.65
878.489	7251.6
878.807	7227.65
879.125	7284.6
879.444	7232.85
879.762	7245.05
880.08	7181.1
880.398	7229.91
880.716	7217.25
881.034	7154.2
881.352	7180.87
881.67	7106.52
881.988	7113.3
882.306	7126.18
882.624	7079.18
882.941	7080.76
883.259	7034.89
883.577	7029.46
883.894	6980.65
884.212	7023.36
884.529	6969.35
884.846	6982.46
885.164	6939.75
885.481	6916.24
885.798	6941.1
886.115	6900.43
886.432	6937.49
886.75	6872.4
887.067	6881.67
887.383	6863.36
887.7	6860.65
888.017	6770.71
888.334	6874.21
888.651	6867.66
888.967	6782.91
889.284	6791.73
889.6	6699.75
889.917	6693.65
890.233	6699.98
890.55	6697.72
890.866	6706.08
891.182	6619.76
891.498	6632.64
891.815	6565.75
892.131	6608.23
892.447	6549.7
892.763	6561.45
893.079	6575.24
893.395	6551.73
893.71	6516.93
894.026	6465.64
894.342	6484.84
894.657	6429.25
894.973	6440.33
895.289	6396.71
895.604	6379.31
895.92	6331.63
896.235	6361.68
896.55	6350.84
896.865	6290.27
897.181	6267
897.496	6309.71
897.811	6271.74
898.126	6250.05
898.441	6223.16
898.756	6197.17
899.071	6136.6
899.386	6183.16
899.7	6140.67
900.015	6054.57
900.33	6043.05
900.644	6015.48
900.959	6056.61
901.273	6027.91
901.588	5972.31
901.902	5958.3
902.216	5931.64
902.531	5907.46
902.845	5851.87
903.159	5824.3
903.473	5818.65
903.787	5784.52
904.101	5811.19
904.415	5792.43
904.729	5763.96
905.042	5760.12
905.356	5749.72
905.67	5691.64
905.984	5754.02
906.297	5675.6
906.611	5668.14
906.924	5638.99
907.237	5656.39
907.551	5584.98
907.864	5536.39
908.177	5531.42
908.491	5533.68
908.804	5508.37
909.117	5471.99
909.43	5466.79
909.743	5458.2
910.056	5414.36
910.368	5368.26
910.681	5348.6
910.994	5347.25
911.307	5297.98
911.619	5319.45
911.932	5284.42
912.244	5276.51
912.557	5284.42
912.869	5224.09
913.181	5192.22
913.494	5170.53
913.806	5196.06
914.118	5106.57
914.43	5103.64
914.742	5145.22
915.054	5076.29
915.366	5065.9
915.678	5039.91
915.99	4995.84
916.302	5003.3
916.613	4912.91
916.925	4939.8
917.236	4949.06
917.548	4911.78
917.859	4914.04
918.171	4834.94
918.482	4842.63
918.794	4874.49
919.105	4839.01
919.416	4801.95
919.727	4772.57
920.038	4748.62
920.349	4766.02
920.66	4770.54
920.971	4691.67
921.282	4696.87
921.593	4685.34
921.903	4645.34
922.214	4677.21
922.525	4645.34
922.835	4569.87
923.146	4574.61
923.456	4573.48
923.767	4544.1
924.077	4538.23
924.387	4486.48
924.697	4508.4
925.008	4491
925.318	4471.79
925.628	4487.38
925.938	4472.69
926.248	4388.18
926.558	4395.18
926.867	4342.98
927.177	4351.34
927.487	4343.21
927.796	4320.83
928.106	4279.7
928.416	4279.03
928.725	4324.67
929.034	4286.26
929.344	4289.42
929.653	4182.53
929.962	4200.16
930.271	4192.47
930.581	4155.41
930.89	4178.24
931.199	4114.96
931.508	4154.51
931.817	4142.53
932.125	4091.46
932.434	4082.42
932.743	4011.91
933.051	4037
933.36	4006.72
933.669	3977.79
933.977	4024.57
934.286	4007.62
934.594	3917.68
934.902	3954.51
935.21	3906.38
935.519	3887.62
935.827	3912.48
936.135	3877
936.443	3844.24
936.751	3849.21
937.059	3858.25
937.367	3823.67
937.674	3813.5
937.982	3812.15
938.29	3779.38
938.597	3787.97
938.905	3729.21
939.213	3731.24
939.52	3688.98
939.827	3721.3
940.135	3673.39
940.442	3644.92
940.749	3648.08
941.056	3653.28
941.363	3632.49
941.67	3621.19
941.977	3611.7
942.284	3570.34
942.591	3567.86
942.898	3568.31
943.205	3562.89
943.511	3532.6
943.818	3490.8
944.125	3456
944.431	3446.28
944.738	3452.15
945.044	3415.09
945.35	3422.1
945.657	3387.75
945.963	3394.53
946.269	3399.73
946.575	3393.63
946.881	3372.61
947.187	3345.72
947.493	3328.77
947.799	3321.31
948.105	3269.33
948.41	3285.61
948.716	3300.75
949.022	3222.33
949.327	3246.96
949.633	3226.62
949.938	3241.31
950.244	3211.26
950.549	3179.39
950.854	3139.17
951.16	3162.45
951.465	3102.11
951.77	3094.88
952.075	3123.35
952.38	3106.63
952.685	3083.13
952.99	3102.11
953.294	3088.32
953.599	3058.27
953.904	3045.16
954.209	3019.85
954.513	3008.1
954.818	3009.23
955.122	3011.71
955.426	2980.53
955.731	2978.04
956.035	2953.86
956.339	2923.81
956.643	2979.4
956.948	2946.86
957.252	2921.32
957.556	2901.21
957.86	2870.48
958.163	2892.17
958.467	2895.79
958.771	2840.42
959.075	2848.78
959.378	2837.48
959.682	2856.46
959.985	2811.04
960.289	2792.29
960.592	2791.83
960.896	2802.45
961.199	2764.72
961.502	2779.86
961.805	2738.95
962.108	2729.01
962.411	2761.1
962.714	2716.81
963.017	2705.28
963.32	2699.18
963.623	2683.59
963.926	2642.46
964.228	2653.08
964.531	2699.63
964.833	2658.73
965.136	2591.16
965.438	2619.41
965.741	2587.09
966.043	2576.25
966.345	2562.01
966.648	2581.44
966.95	2579.41
967.252	2512.52
967.554	2519.3
967.856	2537.83
968.158	2494.21
968.46	2500.09
968.761	2504.38
969.063	2494.67
969.365	2467.77
969.666	2468.45
969.968	2436.59
970.269	2446.76
970.571	2420.32
970.872	2431.16
971.174	2412.41
971.475	2432.07
971.776	2389.58
972.077	2363.14
972.378	2341.9
972.679	2351.17
972.98	2362.01
973.281	2374.44
973.582	2343.94
973.883	2332.86
974.183	2304.39
974.484	2290.15
974.785	2293.99
975.085	2286.31
975.386	2277.95
975.686	2247.21
975.986	2257.84
976.287	2242.02
976.587	2269.14
976.887	2252.86
977.187	2237.5
977.487	2244.5
977.787	2182.13
978.087	2183.49
978.387	2183.94
978.687	2173.09
978.987	2145.75
979.286	2145.52
979.586	2159.31
979.885	2129.7
980.185	2114.34
980.484	2129.93
980.784	2120.66
981.083	2096.71
981.382	2115.69
981.682	2114.34
981.981	2068.24
982.28	2067.56
982.579	2062.36
982.878	2042.25
983.177	2028.69
983.475	2047.9
983.774	2061.01
984.073	1997.96
984.372	1989.82
984.67	2026.88
984.969	1981.01
985.267	2000.44
985.566	1961.8
985.864	1976.94
986.162	1969.48
986.461	1941.01
986.759	1954.79
987.057	1919.09
987.355	1917.28
987.653	1954.34
987.951	1893.55
988.249	1935.36
988.547	1911.4
988.844	1892.65
989.142	1904.63
989.44	1877.73
989.737	1841.8
990.035	1842.71
990.332	1840.22
990.63	1863.95
990.927	1847.9
991.224	1815.36
991.521	1799.54
991.819	1811.75
992.116	1776.27
992.413	1798.41
992.71	1766.55
993.006	1760.9
993.303	1791.18
993.6	1758.41
993.897	1768.81
994.193	1768.58
994.49	1723.16
994.787	1726.55
995.083	1724.29
995.379	1720.22
995.676	1708.02
995.972	1696.49
996.268	1719.09
996.565	1694.01
996.861	1671.86
997.157	1645.65
997.453	1642.71
997.749	1665.08
998.044	1629.15
998.34	1616.72
998.636	1637.29
998.932	1621.47
999.227	1600
999.523	1628.93
999.818	1606.33
1000.114	1580.11
1000.409	1572.66
1000.704	1560.68
1001	1567.91
1001.295	1543.28
1001.59	1549.83
1001.885	1541.02
1002.18	1522.71
1002.475	1542.83
1002.77	1523.84
1003.065	1499.66
1003.359	1478.65
1003.654	1498.08
1003.949	1459.67
1004.243	1496.5
1004.538	1476.39
1004.832	1470.96
1005.127	1457.41
1005.421	1449.5
1005.715	1455.37
1006.009	1439.78
1006.304	1434.35
1006.598	1437.29
1006.892	1410.85
1007.186	1379.89
1007.48	1388.93
1007.773	1372.21
1008.067	1395.26
1008.361	1377.41
1008.655	1362.94
1008.948	1358.42
1009.242	1355.49
1009.535	1316.62
1009.829	1339.67
1010.122	1313.45
1010.415	1304.19
1010.708	1310.52
1011.001	1314.36
1011.295	1315.26
1011.588	1301.93
1011.881	1291.53
1012.173	1289.73
1012.466	1275.49
1012.759	1293.34
1013.052	1261.93
1013.344	1261.48
1013.637	1254.47
1013.93	1241.59
1014.222	1258.09
1014.514	1244.76
1014.807	1222.84
1015.099	1202.5
1015.391	1221.48
1015.683	1211.99
1015.976	1198.88
1016.268	1189.39
1016.56	1172.44
1016.851	1161.82
1017.143	1154.14
1017.435	1176.06
1017.727	1164.53
1018.018	1140.8
1018.31	1136.96
1018.602	1125.66
1018.893	1119.33
1019.185	1134.93
1019.476	1127.47
1019.767	1113.23
1020.058	1108.71
1020.35	1096.06
1020.641	1091.77
1020.932	1098.54
1021.223	1095.83
1021.514	1082.95
1021.804	1068.71
1022.095	1025.1
1022.386	1077.98
1022.677	1034.59
1022.967	1051.09
1023.258	1035.04
1023.548	1035.95
1023.839	1020.58
1024.129	1009.28
1024.419	1039.79
1024.709	981.03
1025	983.97
1025.29	996.4
1025.58	982.39
1025.87	952.79
1026.16	981.94
1026.449	984.88
1026.739	977.87
1027.029	959.79
1027.319	934.93
1027.608	967.47
1027.898	956.18
1028.187	958.66
1028.477	927.7
1028.766	939.68
1029.055	943.07
1029.344	933.13
1029.634	920.7
1029.923	936.97
1030.212	918.66
1030.501	898.1
1030.79	884.76
1031.078	896.52
1031.367	873.24
1031.656	859.23
1031.945	845.22
1032.233	870.53
1032.522	843.41
1032.81	883.41
1033.099	831.88
1033.387	843.41
1033.675	843.64
1033.963	817.2
1034.251	844.31
1034.54	827.82
1034.828	833.47
1035.116	829.63
1035.403	825.11
1035.691	790.98
1035.979	807.7
1036.267	804.32
1036.554	781.94
1036.842	789.63
1037.129	774.94
1037.417	770.64
1037.704	781.94
1037.992	783.07
1038.279	746.92
1038.566	785.56
1038.853	785.56
1039.14	785.56
