Data from hue_40_FLMS001491_56.txt Node
Date: Mon Feb 06 15:08:06 GMT 2017
User: dcchb
Spectrometer: FLMS00149
Trigger mode: 0
Integration Time (sec): 2.000000E-2
Scans to average: 10
Electric dark correction enabled: true
Nonlinearity correction enabled: false
Boxcar width: 0
XAxis mode: Wavelengths
Number of Pixels in Spectrum: 2048
>>>>>Begin Spectral Data<<<<<
341.393	-11.02
341.776	-11.02
342.16	-11.02
342.543	-55.99
342.927	-60.51
343.31	-63.9
343.693	-76.55
344.077	-59.38
344.46	-69.55
344.843	-62.99
345.226	-39.72
345.61	-40.39
345.993	-15.76
346.376	-13.05
346.759	19.72
347.142	33.5
347.525	35.99
347.908	63.56
348.291	74.63
348.674	100.39
349.057	113.5
349.44	118.25
349.823	153.72
350.206	166.83
350.588	169.54
350.971	219.26
351.354	231.01
351.737	228.53
352.119	254.97
352.502	264.91
352.884	263.55
353.267	273.72
353.65	286.15
354.032	282.53
354.414	316.88
354.797	327.96
355.179	320.73
355.562	317.56
355.944	327.73
356.326	350.56
356.709	342.42
357.091	342.19
357.473	360.27
357.855	348.07
358.238	343.78
358.62	352.36
359.002	355.3
359.384	344.23
359.766	320.73
360.148	346.26
360.53	332.03
360.912	345.13
361.294	333.61
361.676	330.9
362.057	338.35
362.439	350.56
362.821	348.52
363.203	342.65
363.584	330.9
363.966	349.88
364.348	326.38
364.729	326.6
365.111	314.85
365.493	335.19
365.874	320.95
366.256	322.31
366.637	324.57
367.019	325.92
367.4	337.9
367.781	342.87
368.163	328.86
368.544	329.77
368.925	308.52
369.306	323.44
369.688	341.52
370.069	325.92
370.45	329.31
370.831	329.54
371.212	332.03
371.593	318.24
371.974	308.75
372.355	330.22
372.736	314.4
373.117	316.43
373.498	310.1
373.879	307.85
374.26	312.82
374.641	344.45
375.021	306.94
375.402	322.08
375.783	326.38
376.163	362.98
376.544	346.71
376.925	340.61
377.305	328.41
377.686	327.51
378.066	322.53
378.447	339.48
378.827	351.91
379.208	347.62
379.588	336.77
379.968	363.44
380.349	332.03
380.729	341.97
381.109	330.44
381.489	359.14
381.87	330.9
382.25	352.14
382.63	349.65
383.01	322.99
383.39	329.77
383.77	347.17
384.15	369.99
384.53	354.62
384.91	349.43
385.29	353.49
385.67	384.68
386.049	356.21
386.429	368.18
386.809	368.41
387.189	370.89
387.568	372.02
387.948	367.28
388.328	374.28
388.707	359.37
389.087	353.95
389.466	386.71
389.846	367.73
390.225	373.38
390.605	379.93
390.984	378.58
391.363	356.66
391.743	378.8
392.122	375.19
392.501	371.8
392.881	388.52
393.26	375.41
393.639	403.66
394.018	376.54
394.397	386.26
394.776	390.1
395.155	383.55
395.534	391.01
395.913	391.46
396.292	400.95
396.671	391.46
397.05	407.05
397.429	396.88
397.808	374.28
398.186	405.92
398.565	398.01
398.944	388.52
399.323	413.38
399.701	404.79
400.08	413.6
400.458	424.45
400.837	411.8
401.215	403.66
401.594	396.88
401.972	404.57
402.351	399.14
402.729	414.28
403.107	415.64
403.486	412.25
403.864	406.37
404.242	419.71
404.62	404.11
404.999	440.5
405.377	419.48
405.755	440.04
406.133	425.58
406.511	453.38
406.889	438.92
407.267	443.43
407.645	443.89
408.023	420.61
408.401	429.42
408.779	454.73
409.156	458.8
409.534	463.55
409.912	461.74
410.29	459.48
410.667	449.08
411.045	455.64
411.422	479.14
411.8	464.45
412.178	481.85
412.555	466.26
412.933	478.01
413.31	487.28
413.687	499.03
414.065	465.58
414.442	505.58
414.819	502.42
415.197	491.34
415.574	475.98
415.951	494.28
416.328	508.07
416.705	501.51
417.082	505.58
417.46	512.13
417.837	510.78
418.214	498.12
418.591	506.71
418.967	519.59
419.344	526.14
419.721	526.14
420.098	522.75
420.475	536.77
420.852	529.31
421.228	518.69
421.605	547.61
421.982	536.09
422.358	565.01
422.735	571.79
423.111	541.51
423.488	566.14
423.864	559.59
424.241	557.56
424.617	577.44
424.994	545.13
425.37	558.91
425.746	593.26
426.123	586.71
426.499	574.05
426.875	572.47
427.251	606.14
427.627	619.02
428.003	614.96
428.379	605.92
428.756	587.61
429.132	611.79
429.507	626.25
429.883	619.48
430.259	646.59
430.635	628.74
431.011	635.07
431.387	649.3
431.763	659.47
432.138	642.07
432.514	652.69
432.89	675.07
433.265	657.89
433.641	690.43
434.016	686.82
434.392	679.13
434.767	685.24
435.143	687.27
435.518	719.36
435.894	700.6
436.269	732.01
436.644	744.44
437.02	721.85
437.395	736.99
437.77	736.08
438.145	742.64
438.52	746.93
438.895	750.32
439.271	759.81
439.646	752.81
440.021	759.58
440.395	772.47
440.77	761.17
441.145	780.15
441.52	788.96
441.895	795.52
442.27	787.61
442.645	805.23
443.019	793.71
443.394	799.81
443.769	822.41
444.143	816.98
444.518	819.24
444.892	809.53
445.267	835.06
445.641	832.8
446.016	829.41
446.39	839.13
446.764	854.5
447.139	844.78
447.513	862.63
447.887	859.47
448.262	869.64
448.636	865.34
449.01	885.91
449.384	887.26
449.758	877.32
450.132	902.41
450.506	898.56
450.88	859.92
451.254	880.26
451.628	926.36
452.002	901.95
452.376	909.41
452.75	916.42
453.123	933.37
453.497	946.7
453.871	965.23
454.244	977.88
454.618	971.1
454.992	1012.23
455.365	979.69
455.739	1028.05
456.112	1006.81
456.486	1032.57
456.859	1032.12
457.232	1049.97
457.606	1038.45
457.979	1045.9
458.352	1091.55
458.725	1079.12
459.099	1092.01
459.472	1113.47
459.845	1109.18
460.218	1129.74
460.591	1138.56
460.964	1169.52
461.337	1173.81
461.71	1167.03
462.083	1207.03
462.456	1219.46
462.829	1191.21
463.201	1220.14
463.574	1246.35
463.947	1262.17
464.32	1287.48
464.692	1289.29
465.065	1291.55
465.438	1317.08
465.81	1331.77
466.183	1360.02
466.555	1381.04
466.928	1394.14
467.3	1422.17
467.672	1420.58
468.045	1463.97
468.417	1471.2
468.789	1499.23
469.161	1516.4
469.534	1529.51
469.906	1568.6
470.278	1589.85
470.65	1604.31
471.022	1618.55
471.394	1680.24
471.766	1694.93
472.138	1714.14
472.51	1767.02
472.882	1807.24
473.253	1854.25
473.625	1854.92
473.997	1899.44
474.369	1944.41
474.74	1969.72
475.112	1956.84
475.484	2054.24
475.855	2082.71
476.227	2122.94
476.598	2186.21
476.97	2222.14
477.341	2301.69
477.713	2307.11
478.084	2376.49
478.455	2428.92
478.827	2445.64
479.198	2548.24
479.569	2601.8
479.94	2701
480.311	2767.89
480.682	2816.03
481.053	2910.26
481.424	2981.9
481.795	3034.1
482.166	3167.2
482.537	3225.73
482.908	3341.21
483.279	3383.7
483.65	3459.17
484.021	3554.09
484.391	3644.71
484.762	3699.17
485.133	3787.98
485.503	3872.05
485.874	4009.89
486.244	4060.51
486.615	4194.75
486.985	4288.76
487.356	4448.08
487.726	4465.48
488.097	4611.69
488.467	4674.51
488.837	4830.89
489.207	4972.81
489.578	5060.71
489.948	5130.77
490.318	5255.96
490.688	5373.93
491.058	5425.9
491.428	5601.04
491.798	5679.46
492.168	5831.54
492.538	5914.93
492.908	6056.17
493.278	6200.12
493.648	6227.46
494.017	6345.2
494.387	6551.07
494.757	6551.07
495.126	6722.37
495.496	6791.29
495.866	6939.76
496.235	6991.51
496.605	7151.73
496.974	7264.95
497.344	7391.27
497.713	7449.35
498.082	7536.58
498.452	7703.81
498.821	7770.02
499.19	7753.75
499.559	7957.36
499.928	8029.9
500.298	8159.39
500.667	8291.82
501.036	8288.65
501.405	8381.76
501.774	8463.56
502.143	8549.44
502.512	8617.68
502.88	8787.85
503.249	8838.24
503.618	8911.01
503.987	8962.31
504.356	9067.39
504.724	9145.13
505.093	9262.19
505.462	9319.13
505.83	9404.55
506.199	9590.09
506.567	9617.88
506.936	9645.45
507.304	9818.56
507.672	9844.54
508.041	9933.13
508.409	10003.86
508.777	10136.97
509.145	10190.07
509.514	10248.6
509.882	10390.52
510.25	10402.72
510.618	10527.46
510.986	10542.15
511.354	10696.5
511.722	10747.12
512.09	10903.05
512.458	10825.31
512.826	10939.2
513.193	11061.01
513.561	11124.06
513.929	11259.2
514.297	11349.36
514.664	11375.8
515.032	11447.67
515.4	11542.35
515.767	11607.89
516.135	11634.1
516.502	11589.13
516.869	11844.49
517.237	11894.88
517.604	11924.26
517.972	12006.29
518.339	12120.87
518.706	12136.01
519.073	12189.57
519.44	12331.26
519.808	12418.94
520.175	12491.03
520.542	12627.3
520.909	12636.33
521.276	12721.53
521.643	12853.28
522.009	12883.11
522.376	12974.4
522.743	13038.58
523.11	13189.54
523.477	13265.47
523.843	13380.95
524.21	13381.4
524.577	13523.77
524.943	13620.04
525.31	13672.24
525.676	13794.5
526.043	13898.22
526.409	13928.05
526.776	14088.73
527.142	14193.13
527.508	14208.04
527.874	14296.86
528.241	14414.82
528.607	14450.98
528.973	14583.85
529.339	14555.38
529.705	14757.41
530.071	14830.63
530.437	14898.2
530.803	15019.1
531.169	15152.88
531.535	15047.57
531.901	15177.51
532.267	15262.93
532.632	15283.27
532.998	15382.93
533.364	15491.17
533.73	15521.23
534.095	15592.87
534.461	15640.55
534.826	15791.05
535.192	15792.64
535.557	15921.45
535.923	15939.07
536.288	15989.24
536.653	16099.97
537.019	16141.33
537.384	16134.1
537.749	16227.65
538.114	16262.91
538.479	16402.79
538.845	16474.88
539.21	16407.53
539.575	16507.65
539.94	16590.35
540.305	16684.82
540.67	16688.88
541.034	16877.8
541.399	16873.96
541.764	16896.34
542.129	17032.83
542.494	17115.09
542.858	17235.54
543.223	17192.15
543.587	17230.79
543.952	17313.05
544.316	17288.42
544.681	17371.58
545.045	17453.16
545.41	17559.37
545.774	17620.38
546.138	17559.14
546.503	17780.38
546.867	17794.16
547.231	17825.8
547.595	17935.63
547.959	18005.01
548.324	17936.76
548.688	18052.69
549.052	18147.15
549.416	18222.85
549.779	18236.19
550.143	18332.91
550.507	18391.44
550.871	18461.04
551.235	18495.84
551.599	18647.93
551.962	18588.95
552.326	18689.06
552.689	18807.7
553.053	18750.07
553.417	18811.31
553.78	19026.9
554.143	18992.1
554.507	19084.53
554.87	19076.62
555.234	19315.48
555.597	19213.11
555.96	19246.56
556.323	19352.77
556.686	19370.62
557.05	19477.51
557.413	19507.57
557.776	19556.38
558.139	19747.56
558.502	19784.17
558.865	19838.18
559.228	20024.39
559.59	19988.68
559.953	19985.75
560.316	20242.69
560.679	20186.19
561.041	20305.06
561.404	20459.18
561.767	20591.38
562.129	20437.49
562.492	20818.49
562.854	20718.38
563.217	20800.41
563.579	20827.98
563.941	20982.33
564.304	21057.13
564.666	21214.41
565.028	21220.97
565.39	21291.25
565.753	21331.7
566.115	21505.48
566.477	21554.97
566.839	21497.34
567.201	21641.52
567.563	21798.81
567.925	21843.1
568.287	21886.71
568.648	21896.66
569.01	22081.28
569.372	22259.13
569.734	22077.67
570.095	22254.61
570.457	22482.4
570.819	22511.78
571.18	22522.63
571.542	22757.2
571.903	22767.14
572.265	22816.41
572.626	23001.71
572.987	23022.05
573.349	23112.44
573.71	23234.7
574.071	23239.67
574.432	23308.37
574.794	23585.43
575.155	23558.99
575.516	23656.84
575.877	23782.71
576.238	23895.47
576.599	24040.55
576.96	24115.35
577.32	24179.99
577.681	24274.67
578.042	24329.36
578.403	24492.29
578.763	24649.35
579.124	24834.88
579.485	25016.57
579.845	25190.58
580.206	25114.65
580.566	25214.99
580.927	25485.26
581.287	25758.7
581.648	25685.26
582.008	25936.55
582.368	26038.69
582.728	26150.1
583.089	26301.74
583.449	26588.96
583.809	26673.25
584.169	26918.67
584.529	27021.04
584.889	27302.16
585.249	27324.54
585.609	27545.77
585.969	27814.47
586.329	27743.28
586.688	28091.3
587.048	28246.09
587.408	28370.16
587.768	28652.41
588.127	28723.14
588.487	28857.83
588.846	29252.39
589.206	29336.91
589.565	29382.33
589.925	29747.52
590.284	29923.34
590.643	30066.16
591.003	30384.12
591.362	30626.6
591.721	30694.39
592.08	30911.11
592.44	31153.81
592.799	31373.69
593.158	31479.68
593.517	31653.24
593.876	31860.91
594.235	31882.61
594.593	32150.85
594.952	32544.51
595.311	32572.99
595.67	32761.68
596.029	33090.26
596.387	33108.11
596.746	33437.82
597.104	33443.47
597.463	33621.77
597.822	33991.48
598.18	34006.85
598.538	34105.6
598.897	34477.34
599.255	34371.36
599.613	35009.98
599.972	34904.68
600.33	35197.32
600.688	35169.98
601.046	35412.23
601.404	35595.28
601.762	35727.7
602.12	35863.52
602.478	36148.48
602.836	36238.65
603.194	36160.01
603.552	36431.19
603.91	36260.8
604.268	36661.92
604.625	36765.87
604.983	36975.36
605.341	36919.76
605.698	37130.15
606.056	37327.44
606.413	37373.99
606.771	37637.71
607.128	37831.38
607.485	37615.11
607.843	37791.15
608.2	38145.49
608.557	38353.17
608.914	38256.9
609.272	38502.55
609.629	38705.71
609.986	38869.09
610.343	38716.1
610.7	39245.13
611.057	39293.26
611.414	39328.74
611.771	39382.3
612.127	39563.31
612.484	39528.96
612.841	39840.59
613.198	39801.95
613.554	39818.9
613.911	40177.31
614.267	40293.91
614.624	40169.62
614.98	40268.15
615.337	40686.9
615.693	40564.87
616.05	40613.9
616.406	40784.75
616.762	40722.15
617.118	40877.85
617.475	40872.43
617.831	41045.76
618.187	41075.13
618.543	41219.76
618.899	41358.97
619.255	41575.46
619.611	41416.37
619.967	41642.8
620.323	41647.1
620.678	41608.68
621.034	41598.28
621.39	41619.75
621.746	41662.01
622.101	42176.57
622.457	41861.33
622.812	41928.67
623.168	42041.89
623.523	42187.87
623.879	42296.12
624.234	42017.48
624.589	42271.26
624.945	42325.95
625.3	42469.67
625.655	42388.77
626.01	42570.69
626.365	42542.21
626.72	42636.9
627.075	42474.19
627.43	42528.88
627.785	42462.44
628.14	42497.02
628.495	42563.46
628.85	42501.99
629.205	42450.92
629.559	42791.02
629.914	42629.9
630.269	42727.07
630.623	42721.87
630.978	42522.1
631.332	42854.52
631.687	42707.41
632.041	42580.86
632.396	42659.73
632.75	42539.73
633.104	42726.16
633.459	42542.44
633.813	42577.47
634.167	42628.54
634.521	42591.25
634.875	42620.86
635.229	42540.41
635.583	42340.86
635.937	42476.68
636.291	42319.85
636.645	42356.46
636.999	42269
637.352	42509.22
637.706	42210.25
638.06	42449.79
638.413	42325.5
638.767	42261.54
639.121	42244.14
639.474	42094.54
639.828	42150.59
640.181	42205.27
640.534	42178.61
640.888	42101.1
641.241	42003.92
641.594	42226.29
641.947	42232.39
642.301	42011.38
642.654	42152.39
643.007	42141.55
643.36	41976.13
643.713	41926.41
644.066	42228.78
644.419	41880.54
644.771	41597.15
645.124	41233.1
645.477	41233.32
645.83	40979.09
646.182	40930.05
646.535	40675.6
646.888	40866.55
647.24	40553.79
647.593	40875.82
647.945	40570.06
648.298	40512.21
648.65	40504.3
649.002	40532.32
649.355	40727.12
649.707	40581.59
650.059	40637.63
650.411	41180.44
650.763	41110.61
651.115	41653.42
651.467	41445.97
651.819	41341.57
652.171	41382.47
652.523	41215.7
652.875	41288.24
653.227	41050.95
653.578	41421.34
653.93	41286.2
654.282	41160.33
654.633	41230.38
654.985	41089.15
655.337	41091.63
655.688	41163.04
656.039	41320.33
656.391	40956.49
656.742	41043.95
657.094	41030.39
657.445	41219.54
657.796	41012.54
658.147	41005.31
658.498	40994.23
658.849	41231.51
659.2	41061.12
659.551	40979.54
659.902	41230.16
660.253	40860.9
660.604	40998.98
660.955	40764.63
661.306	41082.59
661.656	40848.25
662.007	40972.76
662.358	40987.45
662.708	41008.02
663.059	40913.11
663.409	40755.82
663.76	40894.35
664.11	40904.07
664.461	40837.4
664.811	40749.72
665.161	40764.41
665.511	40541.82
665.862	40633.56
666.212	40863.61
666.562	40908.81
666.912	40841.02
667.262	40805.31
667.612	40711.98
667.962	40816.38
668.312	40629.27
668.662	40843.05
669.011	40776.39
669.361	40634.92
669.711	40598.31
670.06	40609.61
670.41	40511.08
670.76	40495.94
671.109	40671.53
671.459	40570.74
671.808	40512.21
672.157	40745.2
672.507	40475.15
672.856	40543.85
673.205	40572.77
673.554	40637.41
673.904	40465.43
674.253	40635.15
674.602	40652.77
674.951	39933.7
675.3	39750.42
675.649	40298.66
675.998	40371.42
676.346	40373.46
676.695	40475.38
677.044	40116.97
677.393	40430.18
677.741	40135.72
678.09	40240.13
678.438	40034.26
678.787	40212.56
679.135	40140.24
679.484	39982.96
679.832	40074.71
680.181	39865.67
680.529	40056.18
680.877	39868.39
681.225	39826.58
681.573	40022.51
681.922	39737.54
682.27	39803.08
682.618	39607.6
682.966	39549.75
683.314	39746.36
683.661	39497.78
684.009	39331.45
684.357	39275.18
684.705	39337.55
685.053	39273.6
685.4	39261.85
685.748	38975.75
686.095	39087.16
686.443	38957.45
686.79	38903.67
687.138	39002.42
687.485	38858.02
687.832	38827.96
688.18	38868.41
688.527	38560.4
688.874	38686.95
689.221	38550.91
689.568	38383.68
689.915	38272.72
690.262	38277.69
690.609	38256.68
690.956	38135.55
691.303	38081.09
691.65	37813.53
691.997	37973.75
692.344	37586.86
692.69	37540.54
693.037	37644.72
693.383	37277.27
693.73	37500.09
694.077	37207.21
694.423	37292.18
694.769	37124.05
695.116	36912.76
695.462	36887.22
695.808	36826.66
696.155	36959.99
696.501	36701.69
696.847	36724.51
697.193	36448.14
697.539	36621.47
697.885	36306.45
698.231	36109.16
698.577	36235.94
698.923	36066.23
699.269	35941.71
699.614	35899.9
699.96	35807.48
700.306	35845.22
700.651	35668.95
700.997	35541.49
701.342	35509.63
701.688	35464.21
702.033	35361.16
702.379	35418.11
702.724	35207.27
703.069	35297.89
703.415	34896.99
703.76	34954.62
704.105	34863.77
704.45	34816.54
704.795	34647.73
705.14	34481.41
705.485	34538.58
705.83	34370
706.175	34429.21
706.52	34319.61
706.865	34178.14
707.209	34157.8
707.554	33903.8
707.899	34018.15
708.243	33871.48
708.588	33849.11
708.932	33697.25
709.277	33561.89
709.621	33594.43
709.966	33357.37
710.31	33536.35
710.654	33137.49
710.998	33254.55
711.342	33248.67
711.687	33217.71
712.031	33151.05
712.375	32962.13
712.719	32977.95
713.063	32925.52
713.407	33026.08
713.75	32785.64
714.094	32765.3
714.438	32652.31
714.782	32598.07
715.125	32470.39
715.469	32455.02
715.812	32387
716.156	32143.62
716.499	32316.72
716.843	32310.85
717.186	32070.63
717.53	32235.82
717.873	32175.03
718.216	32074.92
718.559	31858.2
718.902	31731.65
719.246	31735.27
719.589	31664.08
719.932	31520.81
720.275	31572.56
720.617	31628.83
720.96	31534.14
721.303	31510.19
721.646	31527.36
721.989	31344.09
722.331	31448.95
722.674	31338.44
723.016	31323.53
723.359	31187.26
723.701	31202.17
724.044	31077.88
724.386	30855.74
724.729	31074.95
725.071	30827.04
725.413	30947.04
725.755	30896.87
726.097	30790.21
726.439	30580.27
726.782	30643.77
727.124	30820.94
727.465	30461.18
727.807	30464.11
728.149	30513.38
728.491	30524.45
728.833	30449.2
729.175	30332.37
729.516	30288.53
729.858	30194.97
730.199	30371.91
730.541	30054.41
730.882	30193.84
731.224	30178.7
731.565	29916.11
731.906	29932.38
732.248	30011.02
732.589	29871.59
732.93	29721.08
733.271	29669.11
733.612	29701.42
733.953	29671.59
734.294	29589.56
734.635	29555.21
734.976	29645.38
735.317	29439.28
735.658	29482.22
735.999	29462.56
736.339	29357.7
736.68	29360.19
737.021	29489.68
737.361	29244.94
737.702	29372.39
738.042	29307.53
738.383	29144.6
738.723	29239.97
739.063	29024.6
739.404	29027.99
739.744	28933.76
740.084	28877.04
740.424	29018.95
740.764	28949.35
741.104	29023.93
741.444	28729.24
741.784	28747.1
742.124	28759.53
742.464	28636.82
742.804	28625.29
743.143	28552.07
743.483	28547.55
743.823	28429.14
744.162	28383.72
744.502	28505.75
744.841	28357.28
745.181	28348.92
745.52	28294.68
745.86	28342.59
746.199	28256.26
746.538	28164.06
746.877	28217.39
747.216	28141.69
747.556	28076.15
747.895	28166.32
748.234	28077.96
748.573	27890.17
748.911	27933.11
749.25	27897.63
749.589	27734.24
749.928	27691.98
750.267	27898.08
750.605	27685.88
750.944	27694.24
751.283	27547.58
751.621	27585.77
751.96	27406.79
752.298	27466.23
752.636	27549.39
752.975	27258.32
753.313	27197.08
753.651	27331.99
753.989	27222.17
754.327	27175.16
754.666	26936.75
755.004	27007.71
755.342	27021.49
755.679	26978.56
756.017	26757.32
756.355	26917.09
756.693	26742.18
757.031	26811.78
757.368	26658.79
757.706	26607.04
758.044	26444.33
758.381	26577.66
758.719	26490.66
759.056	26363.66
759.394	26358.46
759.731	26268.97
760.068	26220.84
760.405	26054.96
760.743	25992.59
761.08	26085.02
761.417	25956.66
761.754	25772.94
762.091	25755.76
762.428	25672.6
762.765	25471.25
763.102	25580.4
763.438	25421.53
763.775	25257.47
764.112	25430.12
764.449	25340.41
764.785	25236
765.122	25102.45
765.458	24950.59
765.795	24972.96
766.131	25028.1
766.467	24783.13
766.804	24796.92
767.14	24559.41
767.476	24562.35
767.812	24518.73
768.148	24464.95
768.485	24312.19
768.821	24180.21
769.157	24151.06
769.492	24144.05
769.828	24143.6
770.164	23835.36
770.5	23835.59
770.836	23908.58
771.171	23767.79
771.507	23650.06
771.842	23533.45
772.178	23528.93
772.513	23324.41
772.849	23343.62
773.184	23253.46
773.519	23233.34
773.855	23108.6
774.19	22944.09
774.525	22848.04
774.86	22859.12
775.195	22768.27
775.53	22625.68
775.865	22660.25
776.2	22492.35
776.535	22286.93
776.87	22294.39
777.205	22220.72
777.539	22122.41
777.874	22119.7
778.209	21901.63
778.543	21971
778.878	21837.22
779.212	21786.38
779.547	21575.99
779.881	21691.69
780.215	21543.22
780.55	21481.07
780.884	21447.18
781.218	21361.08
781.552	21328.76
781.886	21146.17
782.22	21049.22
782.554	20973.29
782.888	20820.53
783.222	20765.39
783.556	20683.35
783.889	20697.82
784.223	20485.85
784.557	20589.12
784.89	20461.21
785.224	20431.61
785.557	20269.58
785.891	20353.19
786.224	20162.46
786.558	20086.99
786.891	20035.01
787.224	19958.18
787.557	19871.4
787.891	19814
788.224	19791.85
788.557	19755.7
788.89	19699.2
789.223	19709.14
789.556	19425.31
789.888	19435.93
790.221	19425.53
790.554	19189.38
790.887	19255.14
791.219	19113.23
791.552	19067.58
791.884	19029.61
792.217	18976.28
792.549	18851.31
792.882	18715.72
793.214	18786.68
793.546	18697.87
793.879	18583.3
794.211	18469.4
794.543	18538.1
794.875	18425.56
795.207	18575.61
795.539	18354.6
795.871	18313.93
796.203	18251.1
796.535	18197.77
796.867	18079.81
797.198	18023.99
797.53	18023.99
797.862	17847.04
798.193	18034.61
798.525	17793.26
798.856	17769.53
799.188	17608.41
799.519	17542.42
799.85	17451.8
800.182	17466.26
800.513	17478.92
800.844	17433.72
801.175	17350.79
801.506	17329.54
801.837	17224.01
802.168	17281.18
802.499	17157.8
802.83	17071.47
803.161	17100.4
803.491	17043.9
803.822	17089.1
804.153	16927.3
804.483	16780.63
804.814	16697.02
805.145	16652.95
805.475	16678.04
805.805	16675.78
806.136	16563.69
806.466	16623.57
806.796	16489.79
807.126	16423.35
807.457	16407.76
807.787	16373.41
808.117	16301.32
808.447	16242.79
808.777	16206.64
809.107	16156.69
809.436	16121.44
809.766	16098.84
810.096	16001.44
810.426	16036.92
810.755	15993.99
811.085	16007.55
811.414	16006.19
811.744	15860.43
812.073	15739.76
812.403	15683.49
812.732	15716.48
813.061	15698.4
813.39	15603.71
813.719	15490.72
814.049	15581.57
814.378	15517.39
814.707	15415.7
815.036	15439.65
815.365	15335.02
815.693	15265.42
816.022	15226.55
816.351	15171.41
816.68	15154.46
817.008	15210.5
817.337	15091.19
817.665	15073.78
817.994	15020.9
818.322	15001.7
818.651	14922.83
818.979	14855.26
819.307	14936.61
819.636	14849.16
819.964	14823.62
820.292	14929.83
820.62	14827.69
820.948	14658.65
821.276	14847.58
821.604	14717.18
821.932	14719.44
822.259	14727.13
822.587	14682.61
822.915	14640.12
823.243	14686.68
823.57	14676.05
823.898	14702.49
824.225	14713.34
824.553	14618.43
824.88	14578.66
825.207	14695.72
825.535	14605.1
825.862	14625.43
826.189	14626.11
826.516	14659.33
826.843	14594.25
827.17	14673.34
827.497	14740.69
827.824	14716.96
828.151	14755.15
828.478	14715.83
828.805	14719.67
829.131	14589.96
829.458	14660.91
829.785	14547.92
830.111	14520.8
830.438	14622.5
830.764	14610.29
831.09	14616.85
831.417	14502.05
831.743	14584.98
832.069	14545.89
832.395	14497.08
832.722	14549.28
833.048	14524.42
833.374	14517.87
833.7	14454.59
834.026	14492.56
834.351	14543.85
834.677	14486.68
835.003	14508.6
835.329	14449.62
835.654	14389.51
835.98	14394.48
836.306	14358.55
836.631	14283.97
836.956	14382.28
837.282	14366.91
837.607	14293.24
837.932	14216.41
838.258	14277.2
838.583	14135.28
838.908	14083.53
839.233	14208.27
839.558	14151.32
839.883	14063.64
840.208	13992.46
840.533	14110.19
840.858	13998.33
841.182	14006.02
841.507	14025.45
841.832	13974.6
842.156	13897.09
842.481	13912.46
842.805	13864.78
843.13	13797.66
843.454	13803.54
843.778	13746.59
844.103	13743.2
844.427	13621.39
844.751	13653.48
845.075	13610.32
845.399	13632.69
845.723	13534.62
846.047	13567.38
846.371	13385.47
846.695	13404
847.019	13287.16
847.343	13268.86
847.666	13194.51
847.99	13183.44
848.313	13126.72
848.637	13065.02
848.96	13084.46
849.284	13049.43
849.607	12919.72
849.931	12876.33
850.254	12694.19
850.577	12710.46
850.9	12618.03
851.223	12675.43
851.546	12563.57
851.869	12565.83
852.192	12588.43
852.515	12495.32
852.838	12390.01
853.161	12344.36
853.483	12351.6
853.806	12233.18
854.129	12197.48
854.451	12170.36
854.774	12114.09
855.096	12114.09
855.419	12068.44
855.741	12008.78
856.063	12040.64
856.385	11978.27
856.708	11920.65
857.03	11856.47
857.352	11805.62
857.674	11768.11
857.996	11691.95
858.318	11753.42
858.64	11693.08
858.961	11629.13
859.283	11675.68
859.605	11561.56
859.926	11596.81
860.248	11495.57
860.57	11467.55
860.891	11488.79
861.212	11496.48
861.534	11396.14
861.855	11330.38
862.176	11384.62
862.498	11323.15
862.819	11389.36
863.14	11236.82
863.461	11271.17
863.782	11208.58
864.103	11286.99
864.424	11216.71
864.745	11206.54
865.065	11193.66
865.386	11196.15
865.707	11095.13
866.027	11099.2
866.348	11131.29
866.668	11016.94
866.989	11080.9
867.309	10923.61
867.63	10996.6
867.95	10980.78
868.27	10896.27
868.59	11015.59
868.91	10936.27
869.23	10926.77
869.55	10800.22
869.87	10869.38
870.19	10889.04
870.51	10840.22
870.83	10862.37
871.15	10788.7
871.469	10776.27
871.789	10854.46
872.109	10782.6
872.428	10720.23
872.748	10723.84
873.067	10686.56
873.386	10685.43
873.706	10687.01
874.025	10695.37
874.344	10575.6
874.663	10627.8
874.982	10593.22
875.301	10535.82
875.62	10558.65
875.939	10572.89
876.258	10563.39
876.577	10527.24
876.896	10459.67
877.214	10455.37
877.533	10436.84
877.852	10468.93
878.17	10404.98
878.489	10407.01
878.807	10393
879.125	10393.91
879.444	10352.1
879.762	10345.32
880.08	10328.37
880.398	10261.26
880.716	10249.28
881.034	10254.7
881.352	10281.14
881.67	10201.6
881.988	10181.71
882.306	10173.57
882.624	10125.21
882.941	10120.24
883.259	10076.4
883.577	10012
883.894	10070.3
884.212	9974.26
884.529	9955.73
884.846	9948.72
885.164	9899.46
885.481	9889.74
885.798	9949.4
886.115	9817.65
886.432	9921.15
886.75	9800.02
887.067	9878.89
887.383	9797.99
887.7	9761.61
888.017	9781.27
888.334	9721.61
888.651	9714.15
888.967	9643.19
889.284	9624.89
889.6	9607.26
889.917	9548.96
890.233	9569.75
890.55	9513.93
890.866	9615.62
891.182	9509.64
891.498	9433.03
891.815	9453.59
892.131	9366.14
892.447	9352.35
892.763	9319.59
893.079	9286.37
893.395	9255.86
893.71	9237.33
894.026	9228.29
894.342	9254.5
894.657	9199.14
894.973	9155.3
895.289	9115.97
895.604	9096.09
895.92	9052.47
896.235	9039.14
896.55	8991.01
896.865	8972.02
897.181	8955.08
897.496	8938.13
897.811	8899.26
898.126	8839.82
898.441	8765.7
898.756	8792.14
899.071	8718.47
899.386	8761.86
899.7	8673.27
900.015	8679.6
900.33	8561.64
900.644	8634.18
900.959	8603.67
901.273	8543.33
901.588	8514.63
901.902	8472.6
902.216	8440.51
902.531	8380.63
902.845	8419.72
903.159	8352.61
903.473	8271.03
903.787	8304.7
904.101	8232.83
904.415	8326.39
904.729	8182.67
905.042	8152.84
905.356	8138.6
905.67	8131.14
905.984	8126.85
906.297	8082.1
906.611	7924.59
906.924	8010.92
907.237	7995.55
907.551	8010.69
907.864	7901.09
908.177	7932.96
908.491	7860.64
908.804	7762.79
909.117	7743.13
909.43	7775.67
909.743	7684.6
910.056	7692.51
910.368	7625.17
910.681	7612.51
910.994	7655.67
911.307	7518.95
911.619	7443.25
911.932	7550.82
912.244	7458.84
912.557	7488.45
912.869	7402.8
913.181	7369.13
913.494	7289.13
913.806	7227.89
914.118	7316.02
914.43	7227.89
914.742	7195.12
915.054	7183.14
915.366	7133.65
915.678	7125.07
915.99	7119.64
916.302	7011.17
916.613	6981.34
916.925	7037.84
917.236	6996.26
917.548	6978.86
917.859	7005.97
918.171	6946.99
918.482	6858.63
918.794	6846.2
919.105	6809.14
919.416	6776.15
919.727	6727.11
920.038	6725.76
920.349	6675.36
920.66	6710.16
920.971	6656.6
921.282	6614.12
921.593	6624.52
921.903	6551.07
922.214	6514.24
922.525	6505.42
922.835	6474.01
923.146	6484.18
923.456	6435.82
923.767	6416.38
924.077	6388.82
924.387	6392.66
924.697	6321.25
925.008	6345.88
925.318	6255.94
925.628	6256.62
925.938	6203.96
926.248	6230.4
926.558	6189.72
926.867	6159.89
927.177	6076.05
927.487	6027.47
927.796	6024.98
928.106	6022.95
928.416	6017.53
928.725	6025.21
929.034	5935.04
929.344	5982.72
929.653	5886.46
929.962	5859.34
930.271	5902.95
930.581	5822.28
930.89	5800.36
931.199	5768.04
931.508	5698.89
931.817	5743.86
932.125	5705.67
932.434	5669.29
932.743	5593.81
933.051	5590.42
933.36	5613.24
933.669	5541.61
933.977	5512.68
934.286	5554.03
934.594	5518.56
934.902	5448.5
935.21	5441.04
935.519	5467.03
935.827	5413.25
936.135	5371.89
936.443	5338
936.751	5354.49
937.059	5312.91
937.367	5269.75
937.674	5288.05
937.982	5264.55
938.29	5224.1
938.597	5204.21
938.905	5159.02
939.213	5113.14
939.52	5140.49
939.827	5106.59
940.135	5080.37
940.442	5084.67
940.749	5043.77
941.056	5102.07
941.363	5027.04
941.67	5003.09
941.977	4995.41
942.284	4955.63
942.591	4933.49
942.898	4906.37
943.205	4874.05
943.511	4916.76
943.818	4845.58
944.125	4825.01
944.431	4777.11
944.738	4782.08
945.044	4706.15
945.35	4752.02
945.657	4666.6
945.963	4742.53
946.269	4700.72
946.575	4627.05
946.881	4625.47
947.187	4629.99
947.493	4611.23
947.799	4597.68
948.105	4556.32
948.41	4523.55
948.716	4544.34
949.022	4486.94
949.327	4514.06
949.633	4479.26
949.938	4455.53
950.244	4444.91
950.549	4411.69
950.854	4371.47
951.16	4379.38
951.465	4360.62
951.77	4348.19
952.075	4304.58
952.38	4319.49
952.685	4291.47
952.99	4227.74
953.294	4239.49
953.599	4221.64
953.904	4211.92
954.209	4134.86
954.513	4176.67
954.818	4128.99
955.122	4124.47
955.426	4116.78
955.731	4124.69
956.035	4120.85
956.339	4057.12
956.643	4040.18
956.948	4031.81
957.252	3963.34
957.556	4023.23
957.86	3954.53
958.163	3951.37
958.467	3921.31
958.771	3872.05
959.075	3886.73
959.378	3891.48
959.682	3859.62
959.985	3831.14
960.289	3810.58
960.592	3829.79
960.896	3795.21
961.199	3833.18
961.502	3765.83
961.805	3720.86
962.108	3714.76
962.411	3705.27
962.714	3684.71
963.017	3651.26
963.32	3733.07
963.623	3637.7
963.926	3635.67
964.228	3595.89
964.531	3596.12
964.833	3614.88
965.136	3557.48
965.438	3535.78
965.741	3521.09
966.043	3538.72
966.345	3503.69
966.648	3460.98
966.95	3525.61
967.252	3480.42
967.554	3458.5
967.856	3429.8
968.158	3415.56
968.46	3390.7
968.761	3390.93
969.063	3359.74
969.365	3368.33
969.666	3364.04
969.968	3336.92
970.269	3326.3
970.571	3315.68
970.872	3293.53
971.174	3269.35
971.475	3232.74
971.776	3258.05
972.077	3245.17
972.378	3186.41
972.679	3187.32
972.98	3188.9
973.281	3159.52
973.582	3125.62
973.883	3162.46
974.183	3116.36
974.484	3108.9
974.785	3136.25
975.085	3066.87
975.386	3084.5
975.686	3044.95
975.986	3023.25
976.287	3022.35
976.587	2984.84
976.887	2971.5
977.187	2968.34
977.487	2963.37
977.787	2952.52
978.087	2971.73
978.387	2973.99
978.687	2920.21
978.987	2919.3
979.286	2902.58
979.586	2870.94
979.885	2891.28
980.185	2846.99
980.484	2870.49
980.784	2837.04
981.083	2881.11
981.382	2819.64
981.682	2775.58
981.981	2782.58
982.28	2742.36
982.579	2719.98
982.878	2752.53
983.177	2749.59
983.475	2752.07
983.774	2744.84
984.073	2700.1
984.372	2679.53
984.67	2671.17
984.969	2658.52
985.267	2678.86
985.566	2685.86
985.864	2626.2
986.162	2639.31
986.461	2626.65
986.759	2615.81
987.057	2574.23
987.355	2564.28
987.653	2606.54
987.951	2541.01
988.249	2540.78
988.547	2548.01
988.844	2501.91
989.142	2524.51
989.44	2487.67
989.737	2481.57
990.035	2491.97
990.332	2485.19
990.63	2457.39
990.927	2451.97
991.224	2429.15
991.521	2404.29
991.819	2385.53
992.116	2423.5
992.413	2395.47
992.71	2380.11
993.006	2364.06
993.303	2319.32
993.6	2346.44
993.897	2331.07
994.193	2338.98
994.49	2351.18
994.787	2287.68
995.083	2304.63
995.379	2291.07
995.676	2256.04
995.972	2258.08
996.268	2260.11
996.565	2225.76
996.861	2218.3
997.157	2227.79
997.453	2215.14
997.749	2211.75
998.044	2169.49
998.34	2168.36
998.636	2158.64
998.932	2112.09
999.227	2137.63
999.523	2128.36
999.818	2093.56
1000.114	2084.52
1000.409	2079.78
1000.704	2052.88
1001	2072.77
1001.295	2059.44
1001.59	2029.61
1001.885	2037.29
1002.18	2030.96
1002.475	2022.38
1002.77	2006.78
1003.065	1989.38
1003.359	1970.85
1003.654	1992.77
1003.949	1963.85
1004.243	1946.67
1004.538	1947.35
1004.832	1906.9
1005.127	1927.24
1005.421	1898.99
1005.715	1901.7
1006.009	1883.17
1006.304	1881.36
1006.598	1891.53
1006.892	1839.56
1007.186	1838.43
1007.48	1802.72
1007.773	1815.83
1008.067	1812.44
1008.361	1806.11
1008.655	1774.7
1008.948	1793.23
1009.242	1750.52
1009.535	1776.51
1009.829	1729.05
1010.122	1704.19
1010.415	1713.91
1010.708	1711.65
1011.001	1697.19
1011.295	1701.48
1011.588	1693.35
1011.881	1672.1
1012.173	1666
1012.466	1680.01
1012.759	1642.27
1013.052	1628.94
1013.344	1645.21
1013.637	1658.09
1013.93	1653.8
1014.222	1613.57
1014.514	1603.63
1014.807	1598.66
1015.099	1612.44
1015.391	1589.62
1015.683	1553.69
1015.976	1541.94
1016.268	1563.63
1016.56	1544.42
1016.851	1548.49
1017.143	1499.68
1017.435	1497.87
1017.727	1475.27
1018.018	1488.38
1018.31	1491.09
1018.602	1456.74
1018.893	1452.22
1019.185	1466.91
1019.476	1433.47
1019.767	1418.1
1020.058	1436.18
1020.35	1419
1020.641	1400.47
1020.932	1397.99
1021.223	1402.73
1021.514	1375.84
1021.804	1364.31
1022.095	1373.13
1022.386	1359.79
1022.677	1344.2
1022.967	1353.24
1023.258	1313.47
1023.548	1322.51
1023.839	1298.33
1024.129	1325.45
1024.419	1298.33
1024.709	1311.43
1025	1268.5
1025.29	1245
1025.58	1268.72
1025.87	1262.4
1026.16	1230.76
1026.449	1237.76
1026.739	1225.56
1027.029	1212
1027.319	1213.13
1027.608	1209.74
1027.898	1195.51
1028.187	1204.54
1028.477	1185.11
1028.766	1173.81
1029.055	1174.71
1029.344	1159.12
1029.634	1146.24
1029.923	1141.95
1030.212	1134.04
1030.501	1128.61
1030.79	1119.12
1031.078	1134.72
1031.367	1095.85
1031.656	1085
1031.945	1095.62
1032.233	1121.38
1032.522	1080.71
1032.81	1078.9
1033.099	1052.68
1033.387	1049.07
1033.675	1078.45
1033.963	1038.9
1034.251	1025.11
1034.54	1029.41
1034.828	1002.06
1035.116	1011.78
1035.403	988.73
1035.691	1024.66
1035.979	1015.85
1036.267	1004.78
1036.554	985.79
1036.842	984.21
1037.129	973.14
1037.417	973.14
1037.704	970.88
1037.992	961.39
1038.279	969.97
1038.566	918.9
1038.853	918.9
1039.14	918.9
