Data from hue_210_FLMS001491_00055.txt Node
Date: Tue Feb 07 16:41:24 GMT 2017
User: dcchb
Spectrometer: FLMS00149
Trigger mode: 0
Integration Time (sec): 2.000000E-2
Scans to average: 10
Electric dark correction enabled: true
Nonlinearity correction enabled: false
Boxcar width: 0
XAxis mode: Wavelengths
Number of Pixels in Spectrum: 2048
>>>>>Begin Spectral Data<<<<<
341.393	-11.4
341.776	-11.4
342.16	-11.4
342.543	-49.36
342.927	-74
343.31	-84.39
343.693	-64.5
344.077	-51.85
344.46	-63.15
344.843	-53.2
345.226	-40.32
345.61	-50.49
345.993	-35.8
346.376	-1
346.759	-4.62
347.142	42.61
347.525	46.45
347.908	79.9
348.291	101.59
348.674	75.38
349.057	103.4
349.44	159.9
349.823	144.53
350.206	171.2
350.588	181.14
350.971	210.74
351.354	238.31
351.737	231.99
352.119	248.48
352.502	287.13
352.884	269.5
353.267	283.96
353.65	293.23
354.032	297.52
354.414	288.71
354.797	318.76
355.179	322.6
355.562	307.24
355.944	320.12
356.326	308.82
356.709	328.03
357.091	321.47
357.473	327.8
357.855	332.32
358.238	342.72
358.62	330.51
359.002	335.94
359.384	330.29
359.766	359.67
360.148	321.25
360.53	346.56
360.912	321.93
361.294	331.87
361.676	348.37
362.057	335.26
362.439	315.6
362.821	315.83
363.203	295.49
363.584	328.93
363.966	324.64
364.348	320.12
364.729	314.47
365.111	333.68
365.493	304.3
365.874	310.18
366.256	301.81
366.637	311.08
367.019	328.71
367.4	316.05
367.781	320.34
368.163	306.79
368.544	325.77
368.925	319.67
369.306	315.83
369.688	314.02
370.069	324.64
370.45	312.66
370.831	299.78
371.212	305.2
371.593	289.39
371.974	305.88
372.355	318.54
372.736	312.21
373.117	316.5
373.498	317.86
373.879	314.24
374.26	323.96
374.641	312.66
375.021	322.38
375.402	307.92
375.783	298.65
376.163	330.74
376.544	314.02
376.925	319.89
377.305	333.45
377.686	335.49
378.066	321.93
378.447	323.28
378.827	331.87
379.208	317.18
379.588	334.58
379.968	335.71
380.349	314.92
380.729	334.81
381.109	336.16
381.489	332.55
381.87	326.67
382.25	309.05
382.63	345.65
383.01	339.33
383.39	330.97
383.77	331.64
384.15	317.41
384.53	342.94
384.91	321.7
385.29	347.24
385.67	361.7
386.049	343.85
386.429	337.07
386.809	346.11
387.189	340.01
387.568	353.79
387.948	363.96
388.328	334.36
388.707	334.58
389.087	342.94
389.466	356.28
389.846	353.11
390.225	345.43
390.605	347.24
390.984	357.63
391.363	356.28
391.743	357.41
392.122	360.34
392.501	356.5
392.881	362.38
393.26	364.86
393.639	360.8
394.018	364.19
394.397	382.94
394.776	353.79
395.155	375.48
395.534	369.61
395.913	372.55
396.292	368.7
396.671	395.37
397.05	389.04
397.429	394.92
397.808	390.85
398.186	373
398.565	384.52
398.944	383.85
399.323	396.05
399.701	385.65
400.08	382.26
400.458	401.92
400.837	396.73
401.215	396.95
401.594	415.48
401.972	411.19
402.351	414.58
402.729	427.69
403.107	442.83
403.486	424.07
403.864	431.53
404.242	443.28
404.62	426.33
404.999	430.85
405.377	428.82
405.755	441.25
406.133	424.07
406.511	432.88
406.889	467.01
407.267	457.74
407.645	475.14
408.023	477.63
408.401	467.23
408.779	471.98
409.156	494.8
409.534	472.66
409.912	489.61
410.29	502.26
410.667	503.62
411.045	505.42
411.422	513.11
411.8	544.29
412.178	530.96
412.555	547.46
412.933	544.75
413.31	577.97
413.687	583.16
414.065	591.75
414.442	592.65
414.819	621.58
415.197	595.37
415.574	610.05
415.951	640.79
416.328	631.3
416.705	633.78
417.082	654.12
417.46	647.34
417.837	672.65
418.214	655.93
418.591	678.75
418.967	657.51
419.344	692.09
419.721	732.76
420.098	730.5
420.475	728.47
420.852	750.84
421.228	733.67
421.605	741.35
421.982	787
422.358	794.23
422.735	794.46
423.111	818.64
423.488	817.28
423.864	833.78
424.241	864.06
424.617	854.57
424.994	865.87
425.37	872.65
425.746	906.54
426.123	919.88
426.499	926.2
426.875	930.95
427.251	948.58
427.627	975.47
428.003	972.98
428.379	976.6
428.756	1029.03
429.132	1016.6
429.507	1018.41
429.883	1036.71
430.259	1070.38
430.635	1055.47
431.011	1083.26
431.387	1085.75
431.763	1109.7
432.138	1121.91
432.514	1128.91
432.89	1139.76
433.265	1197.38
433.641	1199.64
434.016	1233.09
434.392	1241.45
434.767	1277.16
435.143	1288.68
435.518	1298.85
435.894	1342.01
436.269	1330.26
436.644	1370.03
437.02	1407.77
437.395	1372.07
437.77	1419.07
438.145	1468.56
438.52	1447.32
438.895	1483.03
439.271	1497.49
439.646	1566.64
440.021	1547.21
440.395	1598.96
440.77	1579.07
441.145	1613.42
441.52	1629.91
441.895	1676.24
442.27	1705.17
442.645	1677.6
443.019	1694.77
443.394	1727.99
443.769	1745.17
444.143	1749.46
444.518	1789.46
444.892	1752.17
445.267	1791.94
445.641	1811.83
446.016	1813.19
446.39	1857.93
446.764	1860.19
447.139	1901.32
447.513	1865.39
447.887	1905.61
448.262	1920.08
448.636	1946.97
449.01	1964.6
449.384	1963.69
449.758	1991.71
450.132	2005.5
450.506	2002.33
450.88	2040.53
451.254	2002.33
451.628	2067.19
452.002	2111.03
452.376	2083.24
452.75	2107.64
453.123	2133.63
453.497	2200.75
453.871	2189.22
454.244	2204.36
454.618	2236
454.992	2267.64
455.365	2259.95
455.739	2330.24
456.112	2322.55
456.486	2313.06
456.859	2364.58
457.232	2382.21
457.606	2408.88
457.979	2450.68
458.352	2461.31
458.725	2502.43
459.099	2512.15
459.472	2563.22
459.845	2603.67
460.218	2606.61
460.591	2653.16
460.964	2642.09
461.337	2690.68
461.71	2717.34
462.083	2771.35
462.456	2780.39
462.829	2795.08
463.201	2847.74
463.574	2838.92
463.947	2915.53
464.32	2920.5
464.692	2967.96
465.065	2956.43
465.438	3035.53
465.81	3084.34
466.183	3095.86
466.555	3145.81
466.928	3174.28
467.3	3200.95
467.672	3203.88
468.045	3283.2
468.417	3261.96
468.789	3336.08
469.161	3395.29
469.534	3447.72
469.906	3501.05
470.278	3522.29
470.65	3515.74
471.022	3623.99
471.394	3633.48
471.766	3692.91
472.138	3714.15
472.51	3765.45
472.882	3861.49
473.253	3842.96
473.625	3940.14
473.997	4005.22
474.369	4023.75
474.74	4013.13
475.112	4100.36
475.484	4235.27
475.855	4245.21
476.227	4260.81
476.598	4387.81
476.97	4398.43
477.341	4466.45
477.713	4531.08
478.084	4612.44
478.455	4690.17
478.827	4680
479.198	4831.19
479.569	4835.71
479.94	4950.96
480.311	4976.95
480.682	5111.86
481.053	5170.61
481.424	5239.76
481.795	5281.57
482.166	5341
482.537	5437.27
482.908	5500.77
483.279	5549.59
483.65	5632.07
484.021	5738.96
484.391	5812.86
484.762	5816.25
485.133	5849.92
485.503	5946.64
485.874	6015.79
486.244	6123.13
486.615	6157.71
486.985	6245.16
487.356	6393.63
487.726	6377.81
488.097	6512.72
488.467	6519.5
488.837	6683.34
489.207	6698.71
489.578	6782.1
489.948	6878.36
490.318	6888.08
490.688	6942.32
491.058	7032.26
491.428	7070.45
491.798	7147.06
492.168	7264.12
492.538	7290.56
492.908	7312.25
493.278	7380.05
493.648	7453.94
494.017	7438.35
494.387	7516.09
494.757	7569.65
495.126	7582.07
495.496	7660.72
495.866	7749.53
496.235	7726.93
496.605	7853.25
496.974	7913.14
497.344	7901.16
497.713	7981.84
498.082	7968.51
498.452	8067.26
498.821	8090.54
499.19	8084.21
499.559	8122.63
499.928	8188.84
500.298	8154.49
500.667	8302.73
501.036	8264.99
501.405	8280.81
501.774	8308.38
502.143	8340.25
502.512	8322.17
502.88	8399
503.249	8391.32
503.618	8428.83
503.987	8467.25
504.356	8479.68
504.724	8522.84
505.093	8534.59
505.462	8580.47
505.83	8635.61
506.199	8594.93
506.567	8628.83
506.936	8643.29
507.304	8768.26
507.672	8726.9
508.041	8735.49
508.409	8769.84
508.777	8813.68
509.145	8881.02
509.514	8821.36
509.882	8917.18
510.25	8881.48
510.618	8893.23
510.986	8943.85
511.354	9005.99
511.722	8983.85
512.09	8991.98
512.458	8981.36
512.826	8961.7
513.193	9022.26
513.561	8966.22
513.929	9105.2
514.297	9091.64
514.664	9164.18
515.032	9184.52
515.4	9188.81
515.767	9184.07
516.135	9143.39
516.502	9043.73
516.869	9161.92
517.237	9188.59
517.604	9129.38
517.972	9222.03
518.339	9245.99
518.706	9170.51
519.073	9132.09
519.44	9217.74
519.808	9261.13
520.175	9150.85
520.542	9188.36
520.909	9293.44
521.276	9278.98
521.643	9229.49
522.009	9253.9
522.376	9323.05
522.743	9364.4
523.11	9329.37
523.477	9347.68
523.843	9338.64
524.21	9334.57
524.577	9448.47
524.943	9432.2
525.31	9402.82
525.676	9435.13
526.043	9436.72
526.409	9454.79
526.776	9495.92
527.142	9447.56
527.508	9389.48
527.874	9404.85
528.241	9445.08
528.607	9388.35
528.973	9475.81
529.339	9366.43
529.705	9419.09
530.071	9449.6
530.437	9379.54
530.803	9429.26
531.169	9375.7
531.535	9318.07
531.901	9280.79
532.267	9294.57
532.632	9351.75
532.998	9323.27
533.364	9299.32
533.73	9290.5
534.095	9305.65
534.461	9267.23
534.826	9292.76
535.192	9247.34
535.557	9274.23
535.923	9188.36
536.288	9109.27
536.653	9215.48
537.019	9077.85
537.384	9091.41
537.749	9026.78
538.114	8991.98
538.479	8914.69
538.845	8963.28
539.21	8950.17
539.575	8914.24
539.94	8893.68
540.305	8956.05
540.67	8861.14
541.034	8836.5
541.399	8834.92
541.764	8776.17
542.129	8765.09
542.494	8729.84
542.858	8718.54
543.223	8586.12
543.587	8655.49
543.952	8572.11
544.316	8574.14
544.681	8493.46
545.045	8497.76
545.41	8520.36
545.774	8405.1
546.138	8373.24
546.503	8370.53
546.867	8325.56
547.231	8377.53
547.595	8357.87
547.959	8270.19
548.324	8238.55
548.688	8178.67
549.052	8189.52
549.416	8180.25
549.779	8106.13
550.143	8109.74
550.507	8120.37
550.871	8054.38
551.235	7964.66
551.599	8017.32
551.962	7982.29
552.326	7920.6
552.689	7924.66
553.053	7803.99
553.417	7829.98
553.78	7895.29
554.143	7779.13
554.507	7820.71
554.87	7702.07
555.234	7754.27
555.597	7715.63
555.96	7688.74
556.323	7675.63
556.686	7655.29
557.05	7691.45
557.413	7573.71
557.776	7575.75
558.139	7611.9
558.502	7622.75
558.865	7596.09
559.228	7605.8
559.59	7556.09
559.953	7515.64
560.316	7495.75
560.679	7482.87
561.041	7493.49
561.404	7514.73
561.767	7535.75
562.129	7514.51
562.492	7542.3
562.854	7464.56
563.217	7454.39
563.579	7444.23
563.941	7522.42
564.304	7456.2
564.666	7488.52
565.028	7473.38
565.39	7486.26
565.753	7462.53
566.115	7508.18
566.477	7478.57
566.839	7469.31
567.201	7508.86
567.563	7425.24
567.925	7491.46
568.287	7513.38
568.648	7477.9
569.01	7461.63
569.372	7572.36
569.734	7489.2
570.095	7554.5
570.457	7548.4
570.819	7516.99
571.18	7472.47
571.542	7512.7
571.903	7529.42
572.265	7499.14
572.626	7519.93
572.987	7496.65
573.349	7556.31
573.71	7534.62
574.071	7575.07
574.432	7595.41
574.794	7608.06
575.155	7585.69
575.516	7524.45
575.877	7573.71
576.238	7545.24
576.599	7602.87
576.96	7603.99
577.32	7576.2
577.681	7591.34
578.042	7669.76
578.403	7657.78
578.763	7632.69
579.124	7615.07
579.485	7657.33
579.845	7715.86
580.206	7605.8
580.566	7662.75
580.927	7651.23
581.287	7740.26
581.648	7663.43
582.008	7675.63
582.368	7689.64
582.728	7667.95
583.089	7714.5
583.449	7737.32
583.809	7715.18
584.169	7785.46
584.529	7704.11
584.889	7814.61
585.249	7737.1
585.609	7735.29
585.969	7776.87
586.329	7728.51
586.688	7772.8
587.048	7764.44
587.408	7714.73
587.768	7802.41
588.127	7808.06
588.487	7793.82
588.846	7895.96
589.206	7700.04
589.565	7751.11
589.925	7872.91
590.284	7804.67
590.643	7810.09
591.003	7840.37
591.362	7783.65
591.721	7801.73
592.08	7791.56
592.44	7839.69
592.799	7871.56
593.158	7808.74
593.517	7875.17
593.876	7882.18
594.235	7859.81
594.593	7868.85
594.952	7832.92
595.311	7835.63
595.67	7846.02
596.029	7907.04
596.387	7837.21
596.746	7909.52
597.104	7874.27
597.463	7832.46
597.822	7801.05
598.18	7844.67
598.538	7773.26
598.897	7917.21
599.255	7840.15
599.613	7898.45
599.972	7883.76
600.33	7942.52
600.688	7874.04
601.046	7877.89
601.404	7853.25
601.762	7965.79
602.12	7898.22
602.478	7955.62
602.836	7895.51
603.194	7900.71
603.552	7877.21
603.91	7869.3
604.268	7895.29
604.625	7917.89
604.983	7899.81
605.341	7838.34
605.698	7936.64
606.056	7946.81
606.413	7919.01
606.771	7915.4
607.128	7947.94
607.485	7832.24
607.843	7835.85
608.2	7966.7
608.557	7943.87
608.914	7951.56
609.272	7994.72
609.629	7976.41
609.986	7981.84
610.343	7922.4
610.7	8007.37
611.057	7962.18
611.414	7973.93
611.771	7942.07
612.127	7954.27
612.484	7969.18
612.841	8008.73
613.198	8013.93
613.554	8044.44
613.911	8106.13
614.267	8054.83
614.624	8014.38
614.98	8102.29
615.337	8079.46
615.693	8016.19
616.05	8022.29
616.406	8065
616.762	8020.26
617.118	8079.46
617.475	8062.29
617.831	8108.84
618.187	8036.53
618.543	8162.85
618.899	8085.11
619.255	8089.41
619.611	8082.4
619.967	8106.81
620.323	8182.74
620.678	8155.62
621.034	8079.01
621.39	8102.29
621.746	8129.86
622.101	8211.21
622.457	8112.23
622.812	8118.56
623.168	8129.4
623.523	8175.73
623.879	8183.41
624.234	8167.14
624.589	8154.49
624.945	8134.83
625.3	8144.09
625.655	8116.98
626.01	8114.72
626.365	8158.78
626.72	8172.79
627.075	8141.83
627.43	8149.52
627.785	8088.95
628.14	8068.39
628.495	8081.72
628.85	8096.86
629.205	8106.13
629.559	8123.76
629.914	8123.53
630.269	8084.89
630.623	8026.58
630.978	8053.25
631.332	8104.09
631.687	8086.47
632.041	8082.85
632.396	8103.87
632.75	7964.89
633.104	8041.5
633.459	8004.89
633.813	8005.11
634.167	7997.43
634.521	8013.7
634.875	7986.36
635.229	7942.74
635.583	7963.99
635.937	7963.08
636.291	7899.58
636.645	7941.84
636.999	7859.58
637.352	7882.41
637.706	7894.16
638.06	7863.88
638.413	7871.11
638.767	7859.58
639.121	7899.81
639.474	7828.85
639.828	7860.03
640.181	7890.77
640.534	7828.62
640.888	7861.39
641.241	7790.2
641.594	7825.46
641.947	7880.37
642.301	7818
642.654	7803.09
643.007	7851.22
643.36	7729.19
643.713	7782.3
644.066	7766.48
644.419	7735.52
644.771	7652.81
645.124	7617.55
645.477	7650.32
645.83	7572.13
646.182	7636.08
646.535	7570.32
646.888	7492.59
647.24	7476.77
647.593	7501.85
647.945	7511.34
648.298	7531
648.65	7485.58
649.002	7506.6
649.355	7540.72
649.707	7468.86
650.059	7511.57
650.411	7601.06
650.763	7605.12
651.115	7762.86
651.467	7671.79
651.819	7738.45
652.171	7716.99
652.523	7710.43
652.875	7673.82
653.227	7581.17
653.578	7674.73
653.93	7671.34
654.282	7670.89
654.633	7656.42
654.985	7711.34
655.337	7727.61
655.688	7637.21
656.039	7728.29
656.391	7694.84
656.742	7713.6
657.094	7744.78
657.445	7740.49
657.796	7737.78
658.147	7661.17
658.498	7740.26
658.849	7742.75
659.2	7704.11
659.551	7707.04
659.902	7757.89
660.253	7760.6
660.604	7684.44
660.955	7716.31
661.306	7744.56
661.656	7710.43
662.007	7709.53
662.358	7765.12
662.708	7699.59
663.059	7784.56
663.409	7720.38
663.76	7755.63
664.11	7813.03
664.461	7750.43
664.811	7745.69
665.161	7759.47
665.511	7752.92
665.862	7767.61
666.212	7772.35
666.562	7801.96
666.912	7789.75
667.262	7836.08
667.612	7832.92
667.962	7821.84
668.312	7789.75
668.662	7843.54
669.011	7823.42
669.361	7789.53
669.711	7829.53
670.06	7767.83
670.41	7744.56
670.76	7707.04
671.109	7800.6
671.459	7781.17
671.808	7719.7
672.157	7726.7
672.507	7732.81
672.856	7672.02
673.205	7717.66
673.554	7766.48
673.904	7704.56
674.253	7816.19
674.602	7710.66
674.951	7662.3
675.3	7560.38
675.649	7669.98
675.998	7617.33
676.346	7687.38
676.695	7617.78
677.044	7622.75
677.393	7661.39
677.741	7683.54
678.09	7615.07
678.438	7628.4
678.787	7601.51
679.135	7652.36
679.484	7529.42
679.832	7604.67
680.181	7560.15
680.529	7529.19
680.877	7582.3
681.225	7490.33
681.573	7580.04
681.922	7460.27
682.27	7444.23
682.618	7498.91
682.966	7459.37
683.314	7462.53
683.661	7432.93
684.009	7439.48
684.357	7418.92
684.705	7321.97
685.053	7401.29
685.4	7359.26
685.748	7342.76
686.095	7345.02
686.443	7262.54
686.79	7273.83
687.138	7244.68
687.485	7317.45
687.832	7258.24
688.18	7228.64
688.527	7238.13
688.874	7178.47
689.221	7137.34
689.568	7128.98
689.915	7115.87
690.262	7112.03
690.609	7132.59
690.956	7041.52
691.303	7020.06
691.65	7015.99
691.997	7065.03
692.344	6982.32
692.69	6932.6
693.037	6870
693.383	6872.26
693.73	6958.81
694.077	6870.45
694.423	6797.91
694.769	6784.58
695.116	6782.55
695.462	6779.38
695.808	6739.16
696.155	6683.12
696.501	6722.89
696.847	6649.9
697.193	6584.13
697.539	6613.51
697.885	6581.2
698.231	6557.24
698.577	6605.38
698.923	6615.32
699.269	6521.54
699.614	6439.73
699.96	6467.53
700.306	6479.73
700.651	6415.1
700.997	6364.93
701.342	6356.57
701.688	6293.75
702.033	6320.19
702.379	6318.83
702.724	6298.49
703.069	6282.45
703.415	6252.39
703.76	6215.56
704.105	6182.11
704.45	6199.96
704.795	6093.53
705.14	6104.83
705.485	6082.23
705.83	6075.67
706.175	6077.71
706.52	6044.04
706.865	5984.6
707.209	6014.21
707.554	5964.26
707.899	6026.41
708.243	5972.63
708.588	5931.27
708.932	5902.57
709.277	5927.43
709.621	5920.42
709.966	5875.45
710.31	5812.18
710.654	5774.21
710.998	5819.64
711.342	5814.89
711.687	5797.94
712.031	5785.74
712.375	5698.51
712.719	5758.62
713.063	5734.89
713.407	5720.43
713.75	5723.37
714.094	5753.87
714.438	5660.77
714.782	5718.62
715.125	5671.62
715.469	5644.95
715.812	5646.08
716.156	5627.55
716.499	5607.66
716.843	5637.94
717.186	5616.7
717.53	5609.47
717.873	5667.32
718.216	5606.99
718.559	5621.9
718.902	5554.78
719.246	5572.64
719.589	5514.56
719.932	5501.23
720.275	5527.67
720.617	5503.03
720.96	5522.92
721.303	5526.31
721.646	5531.73
721.989	5485.63
722.331	5527.44
722.674	5543.03
723.016	5507.33
723.359	5508.91
723.701	5442.92
724.044	5473.2
724.386	5491.06
724.729	5454
725.071	5454.9
725.413	5512.3
725.755	5432.98
726.097	5434.33
726.439	5416.93
726.782	5394.34
727.124	5426.65
727.465	5400.89
727.807	5475.01
728.149	5418.06
728.491	5373.55
728.833	5501.9
729.175	5456.93
729.516	5430.72
729.858	5444.73
730.199	5465.29
730.541	5435.46
730.882	5379.87
731.224	5462.81
731.565	5414.9
731.906	5450.15
732.248	5448.35
732.589	5428.91
732.93	5405.63
733.271	5430.72
733.612	5444.73
733.953	5381.68
734.294	5408.57
734.635	5435.46
734.976	5498.97
735.317	5462.36
735.658	5494.67
735.999	5432.07
736.339	5461.45
736.68	5453.09
737.021	5411.74
737.361	5423.49
737.702	5448.35
738.042	5496.71
738.383	5498.06
738.723	5521.11
739.063	5509.81
739.404	5487.21
739.744	5519.53
740.084	5550.26
740.424	5551.39
740.764	5521.79
741.104	5554.33
741.444	5561.56
741.784	5631.62
742.124	5591.62
742.464	5639.98
742.804	5630.26
743.143	5654.67
743.483	5666.42
743.823	5653.76
744.162	5712.52
744.502	5736.93
744.841	5723.82
745.181	5794.1
745.52	5815.12
745.86	5828.67
746.199	5905.51
746.538	5957.48
746.877	5919.97
747.216	6032.74
747.556	6051.27
747.895	6041.55
748.234	6118.84
748.573	6185.28
748.911	6150.7
749.25	6258.95
749.589	6303.92
749.928	6394.31
750.267	6502.56
750.605	6497.36
750.944	6636.56
751.283	6664.81
751.621	6781.42
751.96	6846.05
752.298	6855.99
752.636	6977.8
752.975	7025.03
753.313	7193.61
753.651	7277.9
753.989	7338.24
754.327	7425.92
754.666	7528.74
755.004	7675.18
755.342	7786.14
755.679	7992.46
756.017	8011.89
756.355	8236.52
756.693	8268.84
757.031	8432.22
757.368	8563.07
757.706	8665.66
758.044	8847.8
758.381	9017.74
758.719	9206.66
759.056	9314.46
759.394	9402.14
759.731	9597.16
760.068	9718.97
760.405	9888.68
760.743	10066.76
761.08	10325.28
761.417	10347.43
761.754	10549.45
762.091	10684.59
762.428	10811.37
762.765	11047.52
763.102	11269.44
763.438	11359.83
763.775	11468.53
764.112	11710.33
764.449	11905.8
764.785	11978.34
765.122	12158.9
765.458	12271.67
765.795	12488.39
766.131	12718.89
766.467	12755.27
766.804	12868.26
767.14	13052.89
767.476	13185.32
767.812	13327.46
768.148	13484.07
768.485	13566.55
768.821	13638.19
769.157	13841.12
769.492	13928.35
769.828	14070.04
770.164	14066.65
770.5	14250.6
770.836	14425.28
771.171	14566.3
771.507	14687.42
771.842	14676.8
772.178	14880.19
772.513	14884.03
772.849	14989.79
773.184	15088.32
773.519	15101.65
773.855	15275.21
774.19	15341.42
774.525	15371.02
774.86	15544.35
775.195	15507.06
775.53	15558.59
775.865	15643.33
776.2	15613.05
776.535	15633.16
776.87	15767.62
777.205	15755.87
777.539	15819.82
777.874	15894.4
778.209	15887.17
778.543	15975.98
778.878	15944.34
779.212	16036.54
779.547	15895.08
779.881	16140.27
780.215	16022.08
780.55	16135.97
780.884	16101.62
781.218	16193.83
781.552	16157.44
781.886	16132.58
782.22	16157.67
782.554	16217.33
782.888	16086.03
783.222	16120.38
783.556	16075.41
783.889	16209.42
784.223	16070.67
784.557	16107.27
784.89	16199.93
785.224	16102.53
785.557	16053.26
785.891	16125.13
786.224	16073.6
786.558	16154.96
786.891	15932.82
787.224	15975.98
787.557	16040.38
787.891	16005.58
788.224	15978.24
788.557	16132.13
788.89	15983.66
789.223	16060.95
789.556	15891.23
789.888	16015.3
790.221	15913.38
790.554	15955.19
790.887	15896.21
791.219	15813.04
791.552	15824.34
791.884	15742.76
792.217	15838.35
792.549	15829.09
792.882	15764.46
793.214	15684.91
793.546	15711.35
793.879	15566.72
794.211	15568.31
794.543	15547.74
794.875	15584.12
795.207	15573.95
795.539	15515.2
795.871	15512.94
796.203	15402.43
796.535	15383.23
796.867	15359.72
797.198	15380.06
797.53	15335.09
797.862	15207.64
798.193	15312.94
798.525	15183.46
798.856	15190.01
799.188	15029.56
799.519	15018.49
799.85	15014.2
800.182	14953.41
800.513	15036.34
800.844	14902.56
801.175	15020.52
801.506	14947.08
801.837	14930.36
802.168	14899.85
802.499	14812.17
802.83	14797.93
803.161	14800.42
803.491	14752.96
803.822	14768.1
804.153	14624.38
804.483	14653.98
804.814	14616.01
805.145	14536.92
805.475	14618.73
805.805	14532.4
806.136	14513.64
806.466	14473.87
806.796	14452.63
807.126	14385.29
807.457	14263.03
807.787	14398.17
808.117	14353.65
808.447	14257.61
808.777	14394.55
809.107	14253.09
809.436	14204.5
809.766	14188.91
810.096	14146.65
810.426	14052.19
810.755	14114.56
811.085	14130.83
811.414	14020.78
811.744	13911.17
812.073	14005.41
812.403	13929.03
812.732	13879.54
813.061	13917.5
813.39	13755.92
813.719	13823.72
814.049	13877.95
814.378	13818.07
814.707	13737.84
815.036	13712.53
815.365	13635.02
815.693	13653.55
816.022	13555.48
816.351	13600.9
816.68	13560.22
817.008	13628.7
817.337	13471.19
817.665	13479.09
817.994	13443.62
818.322	13447.01
818.651	13358.65
818.979	13320.45
819.307	13440.45
819.636	13287.01
819.964	13314.13
820.292	13379.89
820.62	13304.64
820.948	13233
821.276	13313
821.604	13265.09
821.932	13330.4
822.259	13310.06
822.587	13249.04
822.915	13233
823.243	13262.83
823.57	13216.28
823.898	13284.07
824.225	13216.05
824.553	13268.03
824.88	13233.45
825.207	13299.44
825.535	13247.46
825.862	13328.82
826.189	13264.19
826.516	13400.68
826.843	13295.37
827.17	13322.71
827.497	13297.86
827.824	13329.95
828.151	13407.91
828.478	13371.53
828.805	13379.44
829.131	13376.72
829.458	13428.25
829.785	13261.02
830.111	13321.13
830.438	13388.93
830.764	13252.89
831.09	13343.96
831.417	13198.2
831.743	13328.36
832.069	13243.62
832.395	13331.53
832.722	13258.31
833.048	13216.05
833.374	13250.85
833.7	13197.07
834.026	13168.59
834.351	13255.6
834.677	13224.41
835.003	13168.37
835.329	13237.52
835.654	13113.91
835.98	13178.76
836.306	13133.79
836.631	13160.23
836.956	13125.21
837.282	13130.18
837.607	13115.26
837.932	13113.91
838.258	13100.12
838.583	12995.94
838.908	12925.89
839.233	13015.38
839.558	12945.32
839.883	12856.74
840.208	12821.03
840.533	12917.98
840.858	12860.13
841.182	12833.24
841.507	12856.06
841.832	12801.82
842.156	12746.23
842.481	12767.7
842.805	12660.36
843.13	12741.49
843.454	12646.8
843.778	12612.45
844.103	12532.45
844.427	12605.45
844.751	12646.35
845.075	12530.42
845.399	12536.07
845.723	12458.56
846.047	12495.62
846.371	12405.9
846.695	12357.32
847.019	12249.3
847.343	12166.13
847.666	12127.94
847.99	12086.36
848.313	12086.14
848.637	12038.23
848.96	11953.71
849.284	11934.05
849.607	11863.54
849.931	11835.75
850.254	11699.93
850.577	11783.09
850.9	11640.05
851.223	11562.08
851.546	11606.83
851.869	11554.17
852.192	11494.74
852.515	11397.12
852.838	11402.09
853.161	11510.78
853.483	11355.31
853.806	11285.25
854.129	11259.94
854.451	11177.01
854.774	11130.91
855.096	11115.99
855.419	11184.92
855.741	11099.27
856.063	11017.01
856.385	10953.74
856.708	11024.24
857.03	10994.19
857.352	11037.58
857.674	10933.62
857.996	10875.32
858.318	10860.41
858.64	10801.2
858.961	10806.17
859.283	10702.67
859.605	10637.59
859.926	10779.73
860.248	10693.41
860.57	10677.59
860.891	10625.61
861.212	10657.02
861.534	10509.46
861.855	10548.78
862.176	10618.38
862.498	10508.1
862.819	10564.82
863.14	10436.01
863.461	10351.27
863.782	10416.58
864.103	10411.38
864.424	10316.92
864.745	10342.23
865.065	10335.22
865.386	10296.81
865.707	10319.4
866.027	10301.78
866.348	10185.62
866.668	10219.07
866.989	10213.42
867.309	10196.24
867.63	10193.08
867.95	10165.74
868.27	10067.43
868.59	10131.39
868.91	10106.08
869.23	10041.67
869.55	10051.39
869.87	10108.56
870.19	10063.82
870.51	10081.67
870.83	10095.23
871.15	10056.13
871.469	9970.94
871.789	10009.13
872.109	9970.71
872.428	9905.18
872.748	9940.88
873.067	9982.24
873.386	9961.9
873.706	9918.96
874.025	9826.99
874.344	9819.3
874.663	9881.68
874.982	9758.29
875.301	9797.84
875.62	9777.27
875.939	9821.79
876.258	9774.79
876.577	9696.6
876.896	9728.46
877.214	9682.58
877.533	9751.74
877.852	9659.76
878.17	9637.84
878.489	9688.01
878.807	9662.02
879.125	9632.87
879.444	9665.64
879.762	9585.41
880.08	9591.97
880.398	9554.9
880.716	9594.68
881.034	9503.83
881.352	9509.71
881.67	9525.07
881.988	9506.32
882.306	9471.29
882.624	9429.03
882.941	9385.42
883.259	9327.34
883.577	9355.59
883.894	9323.05
884.212	9323.27
884.529	9316.94
884.846	9255.93
885.164	9284.85
885.481	9217.96
885.798	9265.87
886.115	9149.27
886.432	9168.93
886.75	9144.97
887.067	9160.34
887.383	9042.6
887.7	9101.13
888.017	9038.08
888.334	9055.26
888.651	9011.87
888.967	9004.86
889.284	8951.76
889.6	8975.48
889.917	8915.82
890.233	8864.3
890.55	8806.9
890.866	8861.82
891.182	8840.12
891.498	8730.97
891.815	8734.13
892.131	8717.64
892.447	8677.87
892.763	8698.66
893.079	8651.65
893.395	8641.48
893.71	8618.88
894.026	8601.71
894.342	8578.66
894.657	8468.61
894.973	8490.53
895.289	8478.1
895.604	8492.33
895.92	8435.39
896.235	8347.93
896.55	8398.78
896.865	8403.07
897.181	8275.39
897.496	8315.84
897.811	8255.96
898.126	8182.74
898.441	8181.15
898.756	8160.59
899.071	8107.48
899.386	8099.58
899.7	8034.49
900.015	7966.47
900.33	7921.95
900.644	7951.33
900.959	7983.42
901.273	7970.99
901.588	7869.98
901.902	7915.85
902.216	7756.53
902.531	7772.8
902.845	7765.8
903.159	7731
903.473	7675.41
903.787	7709.08
904.101	7667.04
904.415	7629.53
904.729	7516.09
905.042	7594.5
905.356	7551.57
905.67	7494.62
905.984	7520.16
906.297	7467.73
906.611	7362.19
906.924	7389.31
907.237	7358.13
907.551	7309.77
907.864	7295.53
908.177	7310.9
908.491	7253.72
908.804	7240.39
909.117	7124.69
909.43	7162.42
909.743	7125.36
910.056	7118.36
910.368	7089.43
910.681	7062.31
910.994	7012.6
911.307	7080.39
911.619	6885.82
911.932	6970.11
912.244	6835.43
912.557	6915.43
912.869	6814.19
913.181	6802.89
913.494	6790.01
913.806	6730.57
914.118	6708.43
914.43	6656.22
914.742	6652.38
915.054	6638.37
915.366	6664.36
915.678	6594.3
915.99	6527.87
916.302	6493.06
916.613	6510.92
916.925	6455.55
917.236	6492.39
917.548	6467.98
917.859	6474.53
918.171	6376.91
918.482	6395.67
918.794	6338.94
919.105	6327.64
919.416	6218.04
919.727	6254.88
920.038	6274.31
920.349	6216.69
920.66	6173.52
920.971	6183.02
921.282	6148.21
921.593	6111.15
921.903	6077.26
922.214	6099.4
922.525	6087.42
922.835	6002.91
923.146	6008.1
923.456	5955
923.767	5945.73
924.077	5921.1
924.387	5933.98
924.697	5870.26
925.008	5854.66
925.318	5853.08
925.628	5836.81
925.938	5826.87
926.248	5751.84
926.558	5731.5
926.867	5657.38
927.177	5646.53
927.487	5643.37
927.796	5643.82
928.106	5586.65
928.416	5591.39
928.725	5605.86
929.034	5552.52
929.344	5550.04
929.653	5525.18
929.962	5453.09
930.271	5449.93
930.581	5411.74
930.89	5371.96
931.199	5320.44
931.508	5370.83
931.817	5330.61
932.125	5315.24
932.434	5325.18
932.743	5260.33
933.051	5233.89
933.36	5220.33
933.669	5183.27
933.977	5172.87
934.286	5180.56
934.594	5144.4
934.902	5136.94
935.21	5107.79
935.519	5142.14
935.827	5066.43
936.135	5025.31
936.443	5018.98
936.751	5002.93
937.059	4970.62
937.367	4986.66
937.674	4951.64
937.982	4890.17
938.29	4914.57
938.597	4901.02
938.905	4860.34
939.213	4871.86
939.52	4810.17
939.827	4818.98
940.135	4798.19
940.442	4779.44
940.749	4738.53
941.056	4751.64
941.363	4678.87
941.67	4711.19
941.977	4643.17
942.284	4634.58
942.591	4619.67
942.898	4607.24
943.205	4596.39
943.511	4543.51
943.818	4582.15
944.125	4491.53
944.431	4519.56
944.738	4491.31
945.044	4523.62
945.35	4398.2
945.657	4408.6
945.963	4413.34
946.269	4381.48
946.575	4382.61
946.881	4339.9
947.187	4303.74
947.493	4359.79
947.799	4271.2
948.105	4276.4
948.41	4269.17
948.716	4273.46
949.022	4256.29
949.327	4192.33
949.633	4198.21
949.938	4162.5
950.244	4208.6
950.549	4135.39
950.854	4162.73
951.16	4089.06
951.465	4098.1
951.77	4081.83
952.075	4072.56
952.38	3973.81
952.685	4028.04
952.99	4000.02
953.294	4008.84
953.599	3942.4
953.904	3957.54
954.209	3955.5
954.513	3897.88
954.818	3898.56
955.122	3907.14
955.426	3865.79
955.731	3833.92
956.035	3846.81
956.339	3812.68
956.643	3814.94
956.948	3795.28
957.252	3792.12
957.556	3750.76
957.86	3701.95
958.163	3694.27
958.467	3682.74
958.771	3670.31
959.075	3676.41
959.378	3652.01
959.682	3663.08
959.985	3660.37
960.289	3585.34
960.592	3595.96
960.896	3624.89
961.199	3560.49
961.502	3545.57
961.805	3557.55
962.108	3538.57
962.411	3488.4
962.714	3458.34
963.017	3496.31
963.32	3463.09
963.623	3482.97
963.926	3466.02
964.228	3410.21
964.531	3392.35
964.833	3358.46
965.136	3376.08
965.438	3354.62
965.741	3322.3
966.043	3309.87
966.345	3332.92
966.648	3308.74
966.95	3301.96
967.252	3301.96
967.554	3268.52
967.856	3228.06
968.158	3226.93
968.46	3218.57
968.761	3198.46
969.063	3223.77
969.365	3178.57
969.666	3165.92
969.968	3145.81
970.269	3149.65
970.571	3129.08
970.872	3140.84
971.174	3103.1
971.475	3102.42
971.776	3093.61
972.077	3029.88
972.378	3022.87
972.679	3031.23
972.98	3019.26
973.281	3000.27
973.582	2976.55
973.883	2995.53
974.183	2967.28
974.484	2923.67
974.785	2928.41
975.085	2915.98
975.386	2958.92
975.686	2897.23
975.986	2926.38
976.287	2880.05
976.587	2864.46
976.887	2868.3
977.187	2833.72
977.487	2824.46
977.787	2799.6
978.087	2791.92
978.387	2795.76
978.687	2772.48
978.987	2753.05
979.286	2776.55
979.586	2753.73
979.885	2733.16
980.185	2662.2
980.484	2710.34
980.784	2688.87
981.083	2686.16
981.382	2677.8
981.682	2660.62
981.981	2667.18
982.28	2628.76
982.579	2612.49
982.878	2685.03
983.177	2634.86
983.475	2579.72
983.774	2590.12
984.073	2559.83
984.372	2560.96
984.67	2556.67
984.969	2531.81
985.267	2532.49
985.566	2515.32
985.864	2470.34
986.162	2471.25
986.461	2415.43
986.759	2457.92
987.057	2444.36
987.355	2429.44
987.653	2419.5
987.951	2395.09
988.249	2406.62
988.547	2410.91
988.844	2374.08
989.142	2393.06
989.44	2360.97
989.737	2362.78
990.035	2352.83
990.332	2339.05
990.63	2330.91
990.927	2334.3
991.224	2290.24
991.521	2259.95
991.819	2284.81
992.116	2266.51
992.413	2233.29
992.71	2202.33
993.006	2261.76
993.303	2229.45
993.6	2229.9
993.897	2202.56
994.193	2211.14
994.49	2199.84
994.787	2150.81
995.083	2143.8
995.379	2146.29
995.676	2155.1
995.972	2135.89
996.268	2115.33
996.565	2095.44
996.861	2095.21
997.157	2104.25
997.453	2058.38
997.749	2127.08
998.044	2059.28
998.34	2055.44
998.636	2035.1
998.932	2050.69
999.227	2050.02
999.523	2007.98
999.818	2010.7
1000.114	2027.19
1000.409	1964.37
1000.704	1971.83
1001	1976.8
1001.295	1948.78
1001.59	1908.78
1001.885	1946.52
1002.18	1914.88
1002.475	1917.59
1002.77	1908.55
1003.065	1903.35
1003.359	1851.83
1003.654	1876.46
1003.949	1859.06
1004.243	1847.99
1004.538	1839.85
1004.832	1843.02
1005.127	1814.09
1005.421	1786.75
1005.715	1795.33
1006.009	1814.32
1006.304	1783.81
1006.598	1783.36
1006.892	1748.56
1007.186	1756.47
1007.48	1752.17
1007.773	1722.34
1008.067	1706.52
1008.361	1699.97
1008.655	1663.36
1008.948	1703.36
1009.242	1671.04
1009.535	1685.73
1009.829	1666.3
1010.122	1628.11
1010.415	1655.22
1010.708	1600.31
1011.001	1612.29
1011.295	1598.05
1011.588	1603.7
1011.881	1583.59
1012.173	1585.4
1012.466	1569.58
1012.759	1564.15
1013.052	1544.72
1013.344	1547.88
1013.637	1552.4
1013.93	1524.15
1014.222	1531.39
1014.514	1530.71
1014.807	1518.51
1015.099	1499.97
1015.391	1544.04
1015.683	1484.83
1015.976	1502.69
1016.268	1455.91
1016.56	1464.5
1016.851	1459.75
1017.143	1434.21
1017.435	1447.77
1017.727	1427.66
1018.018	1423.59
1018.31	1424.95
1018.602	1399.86
1018.893	1405.51
1019.185	1385.4
1019.476	1351.96
1019.767	1355.57
1020.058	1383.59
1020.35	1335.01
1020.641	1341.33
1020.932	1337.95
1021.223	1312.41
1021.514	1293.43
1021.804	1268.12
1022.095	1286.65
1022.386	1289.58
1022.677	1284.61
1022.967	1257.5
1023.258	1253.88
1023.548	1242.58
1023.839	1248.46
1024.129	1230.38
1024.419	1236.03
1024.709	1215.69
1025	1223.82
1025.29	1207.33
1025.58	1191.28
1025.87	1205.97
1026.16	1178.18
1026.449	1195.58
1026.739	1149.25
1027.029	1176.82
1027.319	1168.01
1027.608	1159.87
1027.898	1135.01
1028.187	1138.4
1028.477	1136.37
1028.766	1139.31
1029.055	1127.56
1029.344	1079.65
1029.634	1101.12
1029.923	1097.05
1030.212	1067.67
1030.501	1069.93
1030.79	1062.02
1031.078	1085.07
1031.367	1042.13
1031.656	1083.71
1031.945	1019.31
1032.233	1044.85
1032.522	1013.66
1032.81	1004.62
1033.099	1009.14
1033.387	1016.15
1033.675	1000.33
1033.963	977.05
1034.251	1037.16
1034.54	991.51
1034.828	980.89
1035.116	962.59
1035.403	987.67
1035.691	975.24
1035.979	939.54
1036.267	949.48
1036.554	945.41
1036.842	915.81
1037.129	941.8
1037.417	941.8
1037.704	900.22
1037.992	904.06
1038.279	892.53
1038.566	892.76
1038.853	892.76
1039.14	892.76
