Data from hue_10_FLMS001491_86.txt Node
Date: Mon Feb 06 15:32:41 GMT 2017
User: dcchb
Spectrometer: FLMS00149
Trigger mode: 0
Integration Time (sec): 2.000000E-2
Scans to average: 10
Electric dark correction enabled: true
Nonlinearity correction enabled: false
Boxcar width: 0
XAxis mode: Wavelengths
Number of Pixels in Spectrum: 2048
>>>>>Begin Spectral Data<<<<<
341.393	-7.13
341.776	-7.13
342.16	-7.13
342.543	-43.29
342.927	-54.59
343.31	-75.83
343.693	-66.11
344.077	-61.14
344.46	-57.3
344.843	-40.13
345.226	-32.89
345.61	-20.01
345.993	-4.87
346.376	-1.03
346.759	20.21
347.142	27.22
347.525	24.51
347.908	34.9
348.291	77.16
348.674	81.9
349.057	93.43
349.44	134.33
349.823	138.63
350.206	177.5
350.588	224.5
350.971	211.17
351.354	225.18
351.737	227.66
352.119	243.93
352.502	275.12
352.884	295.68
353.267	281.9
353.65	288.68
354.032	311.73
354.414	309.24
354.797	329.81
355.179	315.57
355.562	330.03
355.944	319.41
356.326	329.81
356.709	343.82
357.091	327.32
357.473	345.17
357.855	347.43
358.238	338.85
358.62	363.48
359.002	339.3
359.384	356.02
359.766	338.4
360.148	337.72
360.53	340.2
360.912	339.75
361.294	346.08
361.676	336.81
362.057	328.23
362.439	341.11
362.821	318.96
363.203	327.77
363.584	331.16
363.966	316.47
364.348	337.27
364.729	323.93
365.111	317.15
365.493	326.19
365.874	330.03
366.256	327.77
366.637	295.91
367.019	338.4
367.4	323.71
367.781	309.24
368.163	312.63
368.544	327.55
368.925	306.08
369.306	335.91
369.688	303.59
370.069	317.15
370.45	324.84
370.831	319.64
371.212	331.16
371.593	327.32
371.974	314.67
372.355	306.76
372.736	308.34
373.117	347.66
373.498	312.63
373.879	315.34
374.26	334.33
374.641	307.21
375.021	322.8
375.402	337.04
375.783	317.38
376.163	337.04
376.544	316.47
376.925	325.29
377.305	328.23
377.686	346.08
378.066	317.38
378.447	343.82
378.827	330.71
379.208	331.16
379.588	348.11
379.968	327.55
380.349	326.42
380.729	317.83
381.109	349.47
381.489	336.36
381.87	341.33
382.25	344.72
382.63	322.12
383.01	343.59
383.39	357.38
383.77	349.47
384.15	369.13
384.53	346.98
384.91	349.24
385.29	346.53
385.67	350.15
386.049	338.85
386.429	333.88
386.809	357.83
387.189	361.67
387.568	367.77
387.948	356.02
388.328	368.9
388.707	368.68
389.087	359.41
389.466	356.47
389.846	376.59
390.225	348.56
390.605	368.22
390.984	357.83
391.363	360.32
391.743	368
392.122	373.2
392.501	353.31
392.881	366.64
393.26	356.93
393.639	345.4
394.018	376.13
394.397	351.73
394.776	367.55
395.155	383.37
395.534	372.29
395.913	369.81
396.292	384.72
396.671	361.67
397.05	398.28
397.429	390.37
397.808	391.28
398.186	389.47
398.565	370.71
398.944	392.4
399.323	386.3
399.701	366.64
400.08	386.3
400.458	374.33
400.837	389.02
401.215	389.69
401.594	391.05
401.972	401.22
402.351	396.92
402.729	402.12
403.107	422.69
403.486	402.35
403.864	384.5
404.242	402.35
404.62	396.47
404.999	422.01
405.377	419.52
405.755	422.01
406.133	401.67
406.511	427.43
406.889	412.07
407.267	419.3
407.645	400.99
408.023	402.35
408.401	430.14
408.779	411.61
409.156	438.73
409.534	437.38
409.912	439.86
410.29	446.19
410.667	429.47
411.045	449.58
411.422	447.77
411.8	436.7
412.178	465.17
412.555	456.13
412.933	462.91
413.31	476.02
413.687	466.53
414.065	461.78
414.442	471.05
414.819	471.27
415.197	461.56
415.574	464.27
415.951	485.28
416.328	452.74
416.705	480.09
417.082	481.67
417.46	506.53
417.837	480.54
418.214	466.3
418.591	478.96
418.967	488
419.344	492.06
419.721	493.87
420.098	505.4
420.475	510.59
420.852	501.55
421.228	500.88
421.605	498.62
421.982	526.64
422.358	525.51
422.735	513.53
423.111	502.01
423.488	527.77
423.864	523.93
424.241	541.55
424.617	535
424.994	542.01
425.37	540.65
425.746	530.71
426.123	549.24
426.499	528.45
426.875	548.79
427.251	573.87
427.627	565.06
428.003	558.73
428.379	575.22
428.756	572.74
429.132	554.21
429.507	578.61
429.883	594.21
430.259	595.56
430.635	580.2
431.011	583.59
431.387	617.71
431.763	614.32
432.138	609.35
432.514	600.54
432.89	603.92
433.265	650.48
433.641	613.42
434.016	623.13
434.392	615.22
434.767	663.58
435.143	628.78
435.518	643.47
435.894	643.7
436.269	670.82
436.644	642.34
437.02	673.53
437.395	673.08
437.77	668.33
438.145	693.19
438.52	686.86
438.895	698.16
439.271	685.05
439.646	729.12
440.021	712.62
440.395	707.88
440.77	709.68
441.145	705.17
441.52	697.03
441.895	711.27
442.27	717.14
442.645	723.24
443.019	721.89
443.394	740.19
443.769	748.78
444.143	751.27
444.518	730.93
444.892	755.11
445.267	754.88
445.641	753.98
446.016	757.82
446.39	766.41
446.764	751.94
447.139	774.32
447.513	757.14
447.887	756.46
448.262	777.93
448.636	784.03
449.01	790.59
449.384	803.92
449.758	814.54
450.132	810.25
450.506	824.26
450.88	787.42
451.254	816.12
451.628	812.28
452.002	815.67
452.376	838.95
452.75	824.26
453.123	821.32
453.497	864.26
453.871	831.72
454.244	868.78
454.618	881.66
454.992	884.82
455.365	892.5
455.739	883.92
456.112	889.57
456.486	882.34
456.859	896.57
457.232	901.09
457.606	935.89
457.979	948.55
458.352	954.88
458.725	932.05
459.099	963.24
459.472	971.82
459.845	977.93
460.218	997.81
460.591	981.99
460.964	979.28
461.337	1019.06
461.71	1037.81
462.083	1023.12
462.456	1033.74
462.829	1037.59
463.201	1049.34
463.574	1076
463.947	1070.35
464.32	1119.39
464.692	1112.16
465.065	1111.03
465.438	1138.37
465.81	1123.01
466.183	1140.41
466.555	1166.17
466.928	1162.33
467.3	1156
467.672	1205.26
468.045	1238.71
468.417	1217.47
468.789	1220.18
469.161	1249.78
469.534	1262.44
469.906	1270.8
470.278	1281.87
470.65	1291.14
471.022	1334.53
471.394	1326.17
471.766	1339.05
472.138	1397.8
472.51	1389.44
472.882	1412.94
473.253	1433.28
473.625	1465.37
473.997	1458.14
474.369	1499.27
474.74	1505.82
475.112	1545.82
475.484	1546.05
475.855	1598.02
476.227	1627.17
476.598	1672.82
476.97	1652.94
477.341	1696.1
477.713	1713.73
478.084	1741.52
478.455	1794.85
478.827	1807.73
479.198	1900.61
479.569	1864.91
479.94	1903.78
480.311	1930.44
480.682	1992.36
481.053	2014.74
481.424	2028.29
481.795	2094.06
482.166	2104
482.537	2162.3
482.908	2181.96
483.279	2214.73
483.65	2261.51
484.021	2315.07
484.391	2315.97
484.762	2355.07
485.133	2426.93
485.503	2405.23
485.874	2496.08
486.244	2513.93
486.615	2576.08
486.985	2570.88
487.356	2667.6
487.726	2702.4
488.097	2730.2
488.467	2785.11
488.837	2778.33
489.207	2852.68
489.578	2859.91
489.948	2933.81
490.318	2985.11
490.688	2973.81
491.058	3078.66
491.428	3076.63
491.798	3129.73
492.168	3179
492.538	3233.01
492.908	3209.96
493.278	3314.14
493.648	3300.13
494.017	3328.82
494.387	3374.25
494.757	3430.52
495.126	3442.49
495.496	3512.32
495.866	3509.84
496.235	3548.71
496.605	3576.5
496.974	3601.36
497.344	3664.18
497.713	3663.51
498.082	3719.78
498.452	3732.88
498.821	3755.03
499.19	3754.35
499.559	3812.2
499.928	3815.59
500.298	3860.79
500.667	3928.13
501.036	3874.57
501.405	3930.84
501.774	3952.76
502.143	3951.18
502.512	4021.24
502.88	4034.57
503.249	4040.9
503.618	4098.3
503.987	4110.95
504.356	4111.63
504.724	4149.59
505.093	4174.23
505.462	4199.99
505.83	4218.52
506.199	4246.77
506.567	4283.83
506.936	4256.48
507.304	4318.86
507.672	4324.73
508.041	4365.18
508.409	4406.08
508.777	4403.37
509.145	4435.46
509.514	4389.14
509.882	4421.9
510.25	4460.77
510.618	4482.24
510.986	4461.45
511.354	4551.62
511.722	4522.24
512.09	4639.07
512.458	4557.95
512.826	4595.46
513.193	4617.83
513.561	4620.77
513.929	4686.3
514.297	4699.86
514.664	4651.5
515.032	4712.74
515.4	4755.45
515.767	4789.8
516.135	4800.65
516.502	4787.32
516.869	4826.19
517.237	4838.62
517.604	4814.21
517.972	4871.38
518.339	4870.93
518.706	4896.69
519.073	4892.4
519.44	4937.82
519.808	4949.8
520.175	5032.28
520.542	5047.2
520.909	4986.18
521.276	4998.39
521.643	5074.32
522.009	5120.87
522.376	5144.14
522.743	5148.89
523.11	5184.82
523.477	5152.05
523.843	5200.41
524.21	5272.05
524.577	5301.88
524.943	5326.29
525.31	5302.56
525.676	5330.81
526.043	5430.46
526.409	5428.43
526.776	5476.34
527.142	5474.98
527.508	5501.42
527.874	5556.34
528.241	5535.55
528.607	5518.15
528.973	5596.56
529.339	5613.51
529.705	5673.62
530.071	5722.89
530.437	5707.75
530.803	5760.85
531.169	5785.94
531.535	5754.3
531.901	5814.64
532.267	5816.9
532.632	5851.47
532.998	5906.16
533.364	5953.16
533.73	5930.79
534.095	5969.43
534.461	6035.42
534.826	6025.7
535.192	6050.79
535.557	6102.31
535.923	6088.07
536.288	6109.32
536.653	6186.15
537.019	6141.41
537.384	6145.25
537.749	6202.42
538.114	6152.48
538.479	6225.7
538.845	6242.19
539.21	6240.61
539.575	6314.06
539.94	6341.63
540.305	6385.24
540.67	6382.3
541.034	6422.3
541.399	6463.43
541.764	6451.68
542.129	6522.41
542.494	6509.31
542.858	6529.19
543.223	6553.15
543.587	6573.03
543.952	6637.66
544.316	6610.32
544.681	6592.69
545.045	6673.82
545.41	6715.18
545.774	6737.1
546.138	6773.48
546.503	6769.64
546.867	6801.28
547.231	6815.29
547.595	6853.48
547.959	6880.37
548.324	6920.14
548.688	6886.25
549.052	6983.19
549.416	7011.44
549.779	7013.02
550.143	7028.84
550.507	7008.5
550.871	7067.26
551.235	7109.52
551.599	7111.32
551.962	7161.94
552.326	7221.38
552.689	7148.61
553.053	7199.01
553.417	7237.87
553.78	7310.42
554.143	7250.76
554.507	7297.31
554.87	7382.5
555.234	7425.67
555.597	7360.13
555.96	7421.82
556.323	7450.3
556.686	7439.23
557.05	7503.86
557.413	7492.78
557.776	7537.3
558.139	7583.63
558.502	7560.8
558.865	7546.12
559.228	7626.34
559.59	7652.55
559.953	7654.81
560.316	7756.05
560.679	7766.45
561.041	7771.65
561.404	7866.33
561.767	7812.32
562.129	7867.69
562.492	7905.2
562.854	7850.97
563.217	7911.3
563.579	8000.79
563.941	7973.67
564.304	8044.86
564.666	8044.63
565.028	8148.81
565.39	8049.6
565.753	8107.46
566.115	8096.38
566.477	8110.85
566.839	8172.77
567.201	8289.37
567.563	8275.59
567.925	8297.06
568.287	8353.33
568.648	8383.61
569.01	8380.22
569.372	8430.16
569.734	8415.47
570.095	8518.52
570.457	8521.91
570.819	8541.57
571.18	8624.28
571.542	8611.17
571.903	8678.51
572.265	8789.25
572.626	8797.16
572.987	8770.72
573.349	8868.79
573.71	8936.81
574.071	8942.24
574.432	9026.53
574.794	9091.16
575.155	9082.35
575.516	9078.05
575.877	9211.16
576.238	9231.27
576.599	9378.38
576.96	9367.54
577.32	9512.17
577.681	9543.12
578.042	9667.64
578.403	9715.1
578.763	9776.56
579.124	9982.21
579.485	9965.71
579.845	10104.24
580.206	10192.37
580.566	10309.66
580.927	10488.41
581.287	10575.19
581.648	10670.55
582.008	10845.24
582.368	10964.33
582.728	11107.83
583.089	11259.92
583.449	11346.69
583.809	11501.04
584.169	11604.99
584.529	11852.22
584.889	12114.58
585.249	12159.55
585.609	12381.92
585.969	12563.38
586.329	12867.56
586.688	13016.48
587.048	13239.98
587.408	13489.24
587.768	13660.3
588.127	13802.22
588.487	14104.59
588.846	14488.31
589.206	14542.54
589.565	14803.1
589.925	15134.84
590.284	15293.26
590.643	15579.12
591.003	15902.73
591.362	16283.51
591.721	16466.11
592.08	16791.3
592.44	17055.7
592.799	17398.74
593.158	17584.72
593.517	17861.78
593.876	18161.43
594.235	18513.28
594.593	18814.07
594.952	19144.45
595.311	19380.15
595.67	19648.17
596.029	20086.8
596.387	20345.1
596.746	20701.02
597.104	20913.9
597.463	21163.61
597.822	21624.62
598.18	21794.33
598.538	22163.58
598.897	22548.66
599.255	22615.1
599.613	23382.76
599.972	23478.8
600.33	23899.81
600.688	23974.38
601.046	24370.31
601.404	24761.71
601.762	24932.1
602.12	25413.44
602.478	25721.46
602.836	25927.55
603.194	26040.54
603.552	26454.77
603.91	26607.31
604.268	27018.6
604.625	27202.32
604.983	27555.53
605.341	27678.47
605.698	28041.17
606.056	28360.03
606.413	28749.4
606.771	28797.76
607.128	29198.88
607.485	29309.38
607.843	29527.91
608.2	29957.05
608.557	30182.36
608.914	30216.03
609.272	30647.88
609.629	30898.72
609.986	31211.03
610.343	31380.29
610.7	31733.73
611.057	31839.04
611.414	32036.54
611.771	32196.77
612.127	32457.55
612.484	32740.93
612.841	32945.22
613.198	32956.97
613.554	33312.22
613.911	33490.74
614.267	33734.58
614.624	33996.95
614.98	34178.18
615.337	34416.82
615.693	34482.13
616.05	34631.73
616.406	34776.36
616.762	34916.92
617.118	35098.16
617.475	35157.59
617.831	35513.52
618.187	35700.18
618.543	35861.08
618.899	36115.08
619.255	36135.19
619.611	36248.86
619.967	36468.52
620.323	36609.08
620.678	36586.26
621.034	36650.89
621.39	36883.65
621.746	36816.31
622.101	37388.27
622.457	37150.76
622.812	37348.27
623.168	37571.31
623.523	37621.48
623.879	37809.5
624.234	37602.5
624.589	37860.8
624.945	37900.12
625.3	38062.6
625.655	38227.79
626.01	38179.43
626.365	38373.1
626.72	38435.7
627.075	38319.32
627.43	38487.22
627.785	38434.79
628.14	38581.91
628.495	38721.11
628.85	38663.26
629.205	38491.06
629.559	38871.85
629.914	38739.65
630.269	38827.55
630.623	38856.93
630.978	38880.43
631.332	39133.31
631.687	39062.35
632.041	38988
632.396	39053.31
632.75	38917.27
633.104	39119.52
633.459	39030.49
633.813	38968.11
634.167	38966.76
634.521	39040.88
634.875	39197.03
635.229	38974.67
635.583	39055.8
635.937	38985.29
636.291	39007.66
636.645	39109.8
636.999	39006.98
637.352	39215.11
637.706	38988.9
638.06	39109.8
638.413	38992.97
638.767	39008.11
639.121	39053.31
639.474	38983.71
639.828	39024.16
640.181	39084.72
640.534	39100.54
640.888	38939.64
641.241	38775.8
641.594	38854.44
641.947	39044.5
642.301	39013.76
642.654	38986.42
643.007	38938.96
643.36	38920.66
643.713	38901
644.066	39192.29
644.419	38757.27
644.771	38536.03
645.124	38275.7
645.477	38191.41
645.83	38016.95
646.182	37940.12
646.535	37934.24
646.888	37901.48
647.24	37777.41
647.593	37901.7
647.945	37815.38
648.298	37722.27
648.65	37685.44
649.002	37502.62
649.355	37738.54
649.707	37661.93
650.059	37846.56
650.411	38192.99
650.763	38243.39
651.115	38610.16
651.467	38368.36
651.819	38480.67
652.171	38362.71
652.523	38414.68
652.875	38384.63
653.227	38309.6
653.578	38592.76
653.93	38443.16
654.282	38209.26
654.633	38227.57
654.985	38225.99
655.337	38261.69
655.688	38176.95
656.039	38285.19
656.391	38109.15
656.742	38070.96
657.094	38078.19
657.445	38339.88
657.796	38193.9
658.147	38022.83
658.498	38056.73
658.849	38221.24
659.2	38186.67
659.551	37971.98
659.902	38138.98
660.253	38099.21
660.604	38137.18
660.955	38052.21
661.306	38082.71
661.656	38041.36
662.007	37973.34
662.358	38098.98
662.708	37909.38
663.059	37956.16
663.409	37828.26
663.76	37972.89
664.11	38171.07
664.461	37958.65
664.811	37985.54
665.161	38038.19
665.511	37784.42
665.862	38046.33
666.212	38167.46
666.562	38078.42
666.912	37947.8
667.262	37893.11
667.612	38006.78
667.962	38005.2
668.312	37765.21
668.662	38015.82
669.011	37781.03
669.361	37804.3
669.711	37930.17
670.06	37700.8
670.41	37765.89
670.76	37724.3
671.109	37846.34
671.459	37776.05
671.808	37629.17
672.157	37738.09
672.507	37513.69
672.856	37482.05
673.205	37670.75
673.554	37727.24
673.904	37532.67
674.253	37842.49
674.602	37546.68
674.951	37293.13
675.3	36977.43
675.649	37472.56
675.998	37505.1
676.346	37490.64
676.695	37614.03
677.044	37325.9
677.393	37394.14
677.741	37497.64
678.09	37456.74
678.438	37242.28
678.787	37390.75
679.135	37414.93
679.484	37153.25
679.832	37292
680.181	37075.06
680.529	37191.21
680.877	37230.31
681.225	37061.5
681.573	37191.89
681.922	37056.75
682.27	36903.31
682.618	36937.43
682.966	36889.98
683.314	36951.44
683.661	36822.63
684.009	36752.8
684.357	36556.43
684.705	36509.65
685.053	36462.64
685.4	36482.08
685.748	36219.49
686.095	36292.03
686.443	36148.98
686.79	36140.84
687.138	36179.03
687.485	36114.63
687.832	35931.36
688.18	36020.85
688.527	35719.61
688.874	35803.9
689.221	35727.75
689.568	35645.26
689.915	35558.94
690.262	35574.3
690.609	35369.56
690.956	35391.94
691.303	35323.46
691.65	35095
691.997	35193.3
692.344	35032.17
692.69	34968.67
693.037	34937.26
693.383	34742.24
693.73	34781.33
694.077	34610.26
694.423	34574.56
694.769	34542.92
695.116	34476.93
695.462	34351.96
695.808	34266.77
696.155	34203.04
696.501	34024.97
696.847	34065.42
697.193	33824.07
697.539	33981.58
697.885	33710.62
698.231	33677.41
698.577	33631.08
698.923	33573
699.269	33334.14
699.614	33260.47
699.96	33267.7
700.306	33265.44
700.651	33080.13
700.997	32911.1
701.342	32883.53
701.688	32966.69
702.033	32801.04
702.379	32755.62
702.724	32701.16
703.069	32694.61
703.415	32359.93
703.76	32373.03
704.105	32399.47
704.45	32204.22
704.795	32125.13
705.14	31982.08
705.485	31925.14
705.83	31874.29
706.175	31901.86
706.52	31901.41
706.865	31691.69
707.209	31591.13
707.554	31558.37
707.899	31679.72
708.243	31477.69
708.588	31498.93
708.932	31282.44
709.277	31190.69
709.621	31281.31
709.966	30875.67
710.31	31126.74
710.654	30763.81
710.998	30848.33
711.342	30711.16
711.687	30696.24
712.031	30594.32
712.375	30621.89
712.719	30575.79
713.063	30493.99
713.407	30580.54
713.75	30365.18
714.094	30318.17
714.438	30260.55
714.782	30339.87
715.125	30121.79
715.469	30166.76
715.812	30016.03
716.156	29839.99
716.499	29897.17
716.843	29875.02
717.186	29712.99
717.53	29923.83
717.873	29922.25
718.216	29781.46
718.559	29602.26
718.902	29375.37
719.246	29597.74
719.589	29520.68
719.932	29292.21
720.275	29290.4
720.617	29254.92
720.96	29317.97
721.303	29218.77
721.646	29292.44
721.989	28936.29
722.331	29160.46
722.674	29022.84
723.016	28982.16
723.359	28928.38
723.701	28841.15
724.044	28715.05
724.386	28664.2
724.729	28769.06
725.071	28652.9
725.413	28571.33
725.755	28600.25
726.097	28444.32
726.439	28418.33
726.782	28392.8
727.124	28440.26
727.465	28291.78
727.807	28256.98
728.149	28304.44
728.491	28147.16
728.833	28261.28
729.175	28086.59
729.516	28160.94
729.858	28010.21
730.199	28097.21
730.541	27902.42
730.882	27865.81
731.224	28026.93
731.565	27751.23
731.906	27776.77
732.248	27879.37
732.589	27594.63
732.93	27671.01
733.271	27633.5
733.612	27558.92
733.953	27627.62
734.294	27537.45
734.635	27355.76
734.976	27353.96
735.317	27246.16
735.658	27308.53
735.999	27367.51
736.339	27304.01
736.68	27330.91
737.021	27183.34
737.361	27239.83
737.702	27186.95
738.042	26990.58
738.383	27060.86
738.723	27129.56
739.063	26951.93
739.404	27012.72
739.744	27079.39
740.084	26872.39
740.424	26832.39
740.764	26815.66
741.104	26940.41
741.444	26703.13
741.784	26678.49
742.124	26745.84
742.464	26641.88
742.804	26555.56
743.143	26472.85
743.483	26546.75
743.823	26463.13
744.162	26454.77
744.502	26368.9
744.841	26356.02
745.181	26361.21
745.52	26279.86
745.86	26305.85
746.199	26327.54
746.538	26176.81
746.877	26308.33
747.216	26183.82
747.556	26027.89
747.895	26091.62
748.234	25997.83
748.573	26010.04
748.911	25911.28
749.25	25982.47
749.589	25867.67
749.928	25795.8
750.267	25838.06
750.605	25666.32
750.944	25766.88
751.283	25574.79
751.621	25723.26
751.96	25426.1
752.298	25541.57
752.636	25545.64
752.975	25423.61
753.313	25334.57
753.651	25449.15
753.989	25243.73
754.327	25248.93
754.666	25204.86
755.004	25265.65
755.342	25134.58
755.679	25147.69
756.017	25000.35
756.355	24958.54
756.693	24885.77
757.031	24993.34
757.368	24733.69
757.706	24748.15
758.044	24613.01
758.381	24741.6
758.719	24621.6
759.056	24578.89
759.394	24493.47
759.731	24316.97
760.068	24391.77
760.405	24207.15
760.743	24173.02
761.08	24075.17
761.417	23995.85
761.754	24010.09
762.091	24035.4
762.428	23883.54
762.765	23840.83
763.102	23796.31
763.438	23649.65
763.775	23557.67
764.112	23670.66
764.449	23643.09
764.785	23538.24
765.122	23331.69
765.458	23227.74
765.795	23272.48
766.131	23174.63
766.467	23172.6
766.804	23042.2
767.14	22973.51
767.476	22967.18
767.812	22820.97
768.148	22816
768.485	22718.82
768.821	22574.65
769.157	22544.82
769.492	22499.39
769.828	22434.54
770.164	22167.88
770.5	22228.21
770.836	22188.22
771.171	22026.41
771.507	21961.56
771.842	21890.82
772.178	21900.09
772.513	21708.45
772.849	21715.23
773.184	21632.98
773.519	21667.55
773.855	21482.92
774.19	21360.67
774.525	21301.23
774.86	21346.66
775.195	21347.11
775.53	21229.15
775.865	20961.58
776.2	20858.31
776.535	20761.13
776.87	20754.13
777.205	20712.32
777.539	20627.35
777.874	20626.45
778.209	20508.49
778.543	20391.43
778.878	20242.73
779.212	20261.71
779.547	20169.29
779.881	20241.37
780.215	20036.41
780.55	20050.19
780.884	19922.51
781.218	19868.05
781.552	19872.34
781.886	19830.31
782.22	19708.28
782.554	19515.07
782.888	19387.84
783.222	19353.26
783.556	19379.7
783.889	19219.71
784.223	19098.35
784.557	19075.76
784.89	19010.22
785.224	19040.73
785.557	18911.69
785.891	18855.2
786.224	18763.9
786.558	18838.02
786.891	18722.54
787.224	18562.32
787.557	18595.09
787.891	18464.92
788.224	18437.35
788.557	18512.83
788.89	18431.48
789.223	18409.11
789.556	18124.59
789.888	18206.85
790.221	18083.24
790.554	17924.37
790.887	17894.09
791.219	17912.85
791.552	17855.45
791.884	17886.41
792.217	17757.6
792.549	17650.48
792.882	17477.61
793.214	17559.86
793.546	17543.82
793.879	17301.79
794.211	17287.1
794.543	17277.38
794.875	17218.4
795.207	17318.06
795.539	17069.71
795.871	17069.93
796.203	16952.42
796.535	16751.52
796.867	16845.31
797.198	16843.5
797.53	16722.37
797.862	16594.01
798.193	16701.13
798.525	16558.31
798.856	16587.46
799.188	16406.9
799.519	16325.32
799.85	16316.73
800.182	16223.18
800.513	16235.38
800.844	16226.11
801.175	16184.08
801.506	16142.27
801.837	16056.4
802.168	16055.5
802.499	16025.67
802.83	15956.06
803.161	15889.62
803.491	15874.48
803.822	15816.18
804.153	15763.75
804.483	15609.63
804.814	15617.09
805.145	15606.02
805.475	15619.12
805.805	15438.79
806.136	15499.58
806.466	15540.48
806.796	15376.19
807.126	15388.62
807.457	15269.08
807.787	15354.27
808.117	15258.68
808.447	15164.67
808.777	15188.85
809.107	15139.81
809.436	15016.88
809.766	15103.43
810.096	14994.96
810.426	14933.49
810.755	14934.62
811.085	14921.51
811.414	14926.94
811.744	14663.22
812.073	14704.12
812.403	14716.1
812.732	14642.43
813.061	14569.43
813.39	14498.47
813.719	14534.41
814.049	14542.77
814.378	14485.82
814.707	14468.19
815.036	14410.34
815.365	14327.18
815.693	14176
816.022	14227.97
816.351	14247.86
816.68	14039.05
817.008	14175.55
817.337	14071.37
817.665	14002.67
817.994	13970.13
818.322	14010.35
818.651	13941.2
818.979	13877.93
819.307	13933.29
819.636	13844.03
819.964	13807.19
820.292	13917.47
820.62	13872.05
820.948	13793.63
821.276	13775.1
821.604	13697.82
821.932	13736.46
822.259	13796.35
822.587	13712.28
822.915	13772.17
823.243	13764.93
823.57	13745.5
823.898	13796.35
824.225	13672.51
824.553	13601.32
824.88	13659.17
825.207	13679.97
825.535	13649.46
825.862	13729
826.189	13616.46
826.516	13636.12
826.843	13823.01
827.17	13786.18
827.497	13680.64
827.824	13704.6
828.151	13702.79
828.478	13709.57
828.805	13711.15
829.131	13584.15
829.458	13687.87
829.785	13526.07
830.111	13645.39
830.438	13640.19
830.764	13606.75
831.09	13621.21
831.417	13500.99
831.743	13632.28
832.069	13660.98
832.395	13596.8
832.722	13594.09
833.048	13520.42
833.374	13505.51
833.7	13472.51
834.026	13496.69
834.351	13546.64
834.677	13482
835.003	13522.46
835.329	13505.96
835.654	13390.93
835.98	13415.11
836.306	13445.85
836.631	13347.54
836.956	13430.03
837.282	13370.37
837.607	13348.67
837.932	13336.92
838.258	13228.45
838.583	13310.03
838.908	13196.36
839.233	13287.89
839.558	13243.14
839.883	13188.23
840.208	13093.99
840.533	13057.83
840.858	13089.92
841.182	13134.89
841.507	13056.93
841.832	13046.54
842.156	13070.04
842.481	13017.61
842.805	12934.22
843.13	12934.67
843.454	12868.91
843.778	12881.12
844.103	12851.74
844.427	12782.14
844.751	12838.41
845.075	12727
845.399	12651.52
845.723	12616.94
846.047	12664.17
846.371	12556.38
846.695	12539.43
847.019	12498.3
847.343	12490.62
847.666	12340.11
847.99	12256.27
848.313	12237.29
848.637	12216.27
848.96	12150.74
849.284	12105.32
849.607	12045.43
849.931	12056.51
850.254	11923.18
850.577	11856.96
850.9	11865.78
851.223	11795.72
851.546	11784.65
851.869	11647.93
852.192	11687.02
852.515	11596.18
852.838	11546.01
853.161	11562.73
853.483	11509.17
853.806	11416.52
854.129	11405
854.451	11391.21
854.774	11358.44
855.096	11236.64
855.419	11266.92
855.741	11281.61
856.063	11185.12
856.385	11098.56
856.708	11093.59
857.03	11072.58
857.352	11085.46
857.674	10997.78
857.996	10987.38
858.318	10928.63
858.64	10933.14
858.961	10889.3
859.283	10871
859.605	10839.14
859.926	10848.4
860.248	10787.61
860.57	10765.69
860.891	10699.25
861.212	10675.98
861.534	10710.78
861.855	10672.59
862.176	10609.76
862.498	10583.32
862.819	10612.25
863.14	10623.55
863.461	10560.95
863.782	10503.78
864.103	10518.24
864.424	10479.37
864.745	10506.49
865.065	10452.03
865.386	10389.88
865.707	10410.67
866.027	10421.07
866.348	10417.23
866.668	10386.72
866.989	10358.02
867.309	10212.03
867.63	10275.76
867.95	10257.46
868.27	10147.63
868.59	10295.2
868.91	10244.8
869.23	10235.54
869.55	10185.14
869.87	10169.1
870.19	10133.39
870.51	10047.52
870.83	10133.62
871.15	10039.61
871.469	10017.69
871.789	10052.72
872.109	10085.03
872.428	10048.65
872.748	10016.11
873.067	10067.4
873.386	9989.67
873.706	9954.64
874.025	9920.52
874.344	9883.68
874.663	9905.6
874.982	9979.72
875.301	9885.71
875.62	9853.85
875.939	9783.34
876.258	9773.18
876.577	9812.5
876.896	9765.94
877.214	9698.83
877.533	9736.57
877.852	9741.09
878.17	9707.64
878.489	9714.19
878.807	9735.44
879.125	9681.43
879.444	9689.11
879.762	9643.69
880.08	9662.67
880.398	9543.58
880.716	9602.56
881.034	9591.26
881.352	9561.66
881.67	9524.59
881.988	9552.39
882.306	9528.21
882.624	9451.38
882.941	9423.81
883.259	9424.48
883.577	9396.69
883.894	9359.63
884.212	9390.81
884.529	9412.28
884.846	9372.06
885.164	9300.42
885.481	9295.9
885.798	9260.65
886.115	9181.33
886.432	9248.44
886.75	9238.73
887.067	9179.29
887.383	9113.08
887.7	9156.47
888.017	9127.54
888.334	9102.68
888.651	9068.11
888.967	9031.73
889.284	9042.57
889.6	9024.04
889.917	8901.79
890.233	8895.46
890.55	8878.51
890.866	8970.26
891.182	8885.51
891.498	8844.84
891.815	8818.17
892.131	8762.35
892.447	8761.22
892.763	8686.2
893.079	8696.59
893.395	8671.51
893.71	8624.28
894.026	8615.69
894.342	8644.62
894.657	8531.85
894.973	8482.81
895.289	8518.29
895.604	8482.81
895.92	8474
896.235	8383.16
896.55	8477.39
896.865	8404.62
897.181	8365.3
897.496	8396.71
897.811	8333.67
898.126	8258.41
898.441	8216.15
898.756	8207.11
899.071	8211.18
899.386	8161.24
899.7	8147.68
900.015	8056.16
900.33	8090.06
900.644	8038.31
900.959	7959.66
901.273	7937.74
901.588	7961.25
901.902	7913.56
902.216	7900.68
902.531	7890.29
902.845	7881.25
903.159	7814.13
903.473	7808.26
903.787	7768.71
904.101	7707.69
904.415	7666.11
904.729	7708.37
905.042	7586.57
905.356	7620.92
905.67	7610.75
905.984	7574.36
906.297	7554.02
906.611	7507.47
906.924	7441.26
907.237	7449.62
907.551	7473.8
907.864	7411.2
908.177	7349.06
908.491	7381.37
908.804	7248.72
909.117	7323.75
909.43	7206.69
909.743	7228.16
910.056	7233.13
910.368	7192
910.681	7091.89
910.994	7143.19
911.307	7067.71
911.619	6976.41
911.932	7055.73
912.244	6981.16
912.557	6957.2
912.869	6884.89
913.181	6850.09
913.494	6850.31
913.806	6810.09
914.118	6808.96
914.43	6744.1
914.742	6715.63
915.054	6687.15
915.366	6737.77
915.678	6701.17
915.99	6604.22
916.302	6574.16
916.613	6586.37
916.925	6595.86
917.236	6528.97
917.548	6485.13
917.859	6471.79
918.171	6474.96
918.482	6382.53
918.794	6385.69
919.105	6413.26
919.416	6307.05
919.727	6354.28
920.038	6293.72
920.349	6236.55
920.66	6199.03
920.971	6202.87
921.282	6182.99
921.593	6159.48
921.903	6162.42
922.214	6112.48
922.525	6069.54
922.835	6019.6
923.146	6059.15
923.456	5989.09
923.767	6006.04
924.077	5995.42
924.387	5935.76
924.697	5927.85
925.008	5971.69
925.318	5865.71
925.628	5866.84
925.938	5829.32
926.248	5719.27
926.558	5768.76
926.867	5729.89
927.177	5729.21
927.487	5708.2
927.796	5645.15
928.106	5612.83
928.416	5634.08
928.725	5602.44
929.034	5587.75
929.344	5557.47
929.653	5554.76
929.962	5450.8
930.271	5448.09
930.581	5478.82
930.89	5373.52
931.199	5402.89
931.508	5368.09
931.817	5365.16
932.125	5309.79
932.434	5314.31
932.743	5285.38
933.051	5247.42
933.36	5229.34
933.669	5223.92
933.977	5204.48
934.286	5176.01
934.594	5185.27
934.902	5142.79
935.21	5143.01
935.519	5093.07
935.827	5136.46
936.135	5081.32
936.443	4984.15
936.751	5001.1
937.059	4998.84
937.367	4962.23
937.674	4911.61
937.982	4944.15
938.29	4895.34
938.597	4872.51
938.905	4826.19
939.213	4823.47
939.52	4830.48
939.827	4827.09
940.135	4752.52
940.442	4748.45
940.749	4673.42
941.056	4706.42
941.363	4665.96
941.67	4705.29
941.977	4643.14
942.284	4596.59
942.591	4633.65
942.898	4618.06
943.205	4575.8
943.511	4572.86
943.818	4585.97
944.125	4552.07
944.431	4482.24
944.738	4501.68
945.044	4516.59
945.35	4476.59
945.657	4415.8
945.963	4394.56
946.269	4331.74
946.575	4357.05
946.881	4344.39
947.187	4317.95
947.493	4317.73
947.799	4288.35
948.105	4242.02
948.41	4232.08
948.716	4265.3
949.022	4224.39
949.327	4171.97
949.633	4195.92
949.938	4163.15
950.244	4152.98
950.549	4094.91
950.854	4112.31
951.16	4081.12
951.465	4096.94
951.77	4037.73
952.075	4021.01
952.38	4000.9
952.685	4017.62
952.99	3969.94
953.294	3963.38
953.599	3973.33
953.904	3922.48
954.209	3930.84
954.513	3922.26
954.818	3888.81
955.122	3846.55
955.426	3802.03
955.731	3837.29
956.035	3759.1
956.339	3796.84
956.643	3794.12
956.948	3767.68
957.252	3808.13
957.556	3731.75
957.86	3696.27
958.163	3748.47
958.467	3698.08
958.771	3690.85
959.075	3695.59
959.378	3629.61
959.682	3640.68
959.985	3636.61
960.289	3568.37
960.592	3591.42
960.896	3554.81
961.199	3571.98
961.502	3512.55
961.805	3535.15
962.108	3501.93
962.411	3486.56
962.714	3458.76
963.017	3489.95
963.32	3438.43
963.623	3482.49
963.926	3480.23
964.228	3378.09
964.531	3408.82
964.833	3395.26
965.136	3291.99
965.438	3361.37
965.741	3372.67
966.043	3329.95
966.345	3304.42
966.648	3296.06
966.95	3306.9
967.252	3243.86
967.554	3218.55
967.856	3247.47
968.158	3205.21
968.46	3169.06
968.761	3192.78
969.063	3190.3
969.365	3149.85
969.666	3132.45
969.968	3154.59
970.269	3065.55
970.571	3106.23
970.872	3078.66
971.174	3066.23
971.475	3058.55
971.776	3061.49
972.077	3067.59
972.378	3021.94
972.679	2991.66
972.98	3025.56
973.281	2971.09
973.582	2981.26
973.883	2956.86
974.183	2935.39
974.484	2938.55
974.785	2926.35
975.085	2890.64
975.386	2905.79
975.686	2895.84
975.986	2873.02
976.287	2884.32
976.587	2888.61
976.887	2859.01
977.187	2824.43
977.487	2806.35
977.787	2796.18
978.087	2781.27
978.387	2755.73
978.687	2779.69
978.987	2723.64
979.286	2737.43
979.586	2747.6
979.885	2699.91
980.185	2678.9
980.484	2676.19
980.784	2670.31
981.083	2648.39
981.382	2663.31
981.682	2659.92
981.981	2650.2
982.28	2629.86
982.579	2644.1
982.878	2612.23
983.177	2572.23
983.475	2597.09
983.774	2574.72
984.073	2522.97
984.372	2532.91
984.67	2530.88
984.969	2509.86
985.267	2515.06
985.566	2494.72
985.864	2493.82
986.162	2492.24
986.461	2513.25
986.759	2454.95
987.057	2454.72
987.355	2439.58
987.653	2432.35
987.951	2393.03
988.249	2416.76
988.547	2386.93
988.844	2373.82
989.142	2360.26
989.44	2353.94
989.737	2379.47
990.035	2331.34
990.332	2287.5
990.63	2307.83
990.927	2289.76
991.224	2325.01
991.521	2303.77
991.819	2279.13
992.116	2279.81
992.413	2246.14
992.71	2234.84
993.006	2224.22
993.303	2212.92
993.6	2231
993.897	2216.54
994.193	2212.92
994.49	2188.29
994.787	2161.62
995.083	2152.58
995.379	2141.74
995.676	2133.38
995.972	2128.4
996.268	2136.77
996.565	2090.89
996.861	2089.54
997.157	2064.45
997.453	2071.46
997.749	2052.47
998.044	2054.73
998.34	2037.33
998.636	2033.04
998.932	2008.86
999.227	2022.19
999.523	2033.94
999.818	1993.49
1000.114	1960.05
1000.409	1957.11
1000.704	1969.31
1001	1944.68
1001.295	1979.03
1001.59	1935.19
1001.885	1939.03
1002.18	1940.16
1002.475	1902.2
1002.77	1905.59
1003.065	1913.27
1003.359	1891.12
1003.654	1847.28
1003.949	1860.39
1004.243	1859.94
1004.538	1819.49
1004.832	1841.63
1005.127	1799.37
1005.421	1811.35
1005.715	1817.68
1006.009	1765.48
1006.304	1787.62
1006.598	1787.4
1006.892	1770.45
1007.186	1749.88
1007.48	1739.71
1007.773	1755.76
1008.067	1706.04
1008.361	1693.39
1008.655	1708.53
1008.948	1708.98
1009.242	1670.56
1009.535	1666.72
1009.829	1659.04
1010.122	1654.29
1010.415	1646.61
1010.708	1633.5
1011.001	1639.15
1011.295	1627.4
1011.588	1607.74
1011.881	1595.54
1012.173	1649.77
1012.466	1594.63
1012.759	1532.04
1013.052	1556.22
1013.344	1558.48
1013.637	1588.98
1013.93	1537.46
1014.222	1515.31
1014.514	1540.4
1014.807	1511.25
1015.099	1485.94
1015.391	1509.44
1015.683	1501.3
1015.976	1501.75
1016.268	1475.99
1016.56	1429.67
1016.851	1426.28
1017.143	1450.23
1017.435	1434.41
1017.727	1434.41
1018.018	1397.12
1018.31	1418.59
1018.602	1413.17
1018.893	1387.63
1019.185	1389.21
1019.476	1387.18
1019.767	1360.06
1020.058	1362.32
1020.35	1340.85
1020.641	1322.32
1020.932	1334.08
1021.223	1314.87
1021.514	1306.28
1021.804	1304.7
1022.095	1305.83
1022.386	1296.34
1022.677	1294.98
1022.967	1267.64
1023.258	1264.25
1023.548	1262.44
1023.839	1270.8
1024.129	1257.01
1024.419	1243.23
1024.709	1228.99
1025	1221.31
1025.29	1204.14
1025.58	1193.74
1025.87	1173.63
1026.16	1185.15
1026.449	1189.9
1026.739	1151.48
1027.029	1168.66
1027.319	1169.56
1027.608	1132.05
1027.898	1174.98
1028.187	1146.28
1028.477	1118.26
1028.766	1091.6
1029.055	1111.26
1029.344	1090.01
1029.634	1094.31
1029.923	1087.08
1030.212	1073.97
1030.501	1073.97
1030.79	1077.36
1031.078	1071.48
1031.367	1067.64
1031.656	1033.07
1031.945	1050.47
1032.233	1047.08
1032.522	1018.83
1032.81	1010.47
1033.099	1000.3
1033.387	993.75
1033.675	1018.83
1033.963	1019.73
1034.251	989.45
1034.54	967.08
1034.828	990.58
1035.116	973.86
1035.403	986.06
1035.691	977.02
1035.979	959.17
1036.267	947.64
1036.554	939.96
1036.842	932.96
1037.129	961.2
1037.417	957.14
1037.704	933.86
1037.992	923.92
1038.279	918.72
1038.566	908.78
1038.853	908.78
1039.14	908.78
