Data from hue_320_FLMS001491_61.txt Node
Date: Mon Feb 06 15:47:31 GMT 2017
User: dcchb
Spectrometer: FLMS00149
Trigger mode: 0
Integration Time (sec): 2.000000E-2
Scans to average: 10
Electric dark correction enabled: true
Nonlinearity correction enabled: false
Boxcar width: 0
XAxis mode: Wavelengths
Number of Pixels in Spectrum: 2048
>>>>>Begin Spectral Data<<<<<
341.393	-29.21
341.776	-29.21
342.16	-29.21
342.543	-70.34
342.927	-45.71
343.31	-70.56
343.693	-78.47
344.077	-60.62
344.46	-67.63
344.843	-53.16
345.226	-31.92
345.61	-27.17
345.993	-15.42
346.376	-5.03
346.759	7.63
347.142	22.32
347.525	47.63
347.908	57.12
348.291	78.36
348.674	77
349.057	119.94
349.44	131.47
349.823	148.64
350.206	166.04
350.588	187.51
350.971	227.73
351.354	228.86
351.737	240.62
352.119	261.63
352.502	252.59
352.884	274.06
353.267	283.78
353.65	295.75
354.032	274.06
354.414	287.17
354.797	312.03
355.179	323.55
355.562	319.26
355.944	325.58
356.326	338.24
356.709	338.47
357.091	325.36
357.473	333.49
357.855	340.05
358.238	336.88
358.62	338.47
359.002	355.19
359.384	345.7
359.766	336.21
360.148	327.39
360.53	329.43
360.912	327.39
361.294	339.82
361.676	326.26
362.057	338.24
362.439	324
362.821	333.27
363.203	324.45
363.584	316.09
363.966	323.1
364.348	312.7
364.729	336.88
365.111	330.56
365.493	317.45
365.874	331.91
366.256	305.7
366.637	306.6
367.019	317.68
367.4	304.34
367.781	312.48
368.163	313.61
368.544	302.99
368.925	295.53
369.306	300.73
369.688	311.12
370.069	330.33
370.45	309.09
370.831	308.18
371.212	314.74
371.593	310.67
371.974	306.6
372.355	297.11
372.736	315.42
373.117	305.47
373.498	308.41
373.879	312.48
374.26	308.18
374.641	303.21
375.021	309.99
375.402	307.96
375.783	319.94
376.163	321.29
376.544	307.28
376.925	326.26
377.305	319.71
377.686	331.91
378.066	307.73
378.447	321.74
378.827	324.68
379.208	330.1
379.588	308.86
379.968	327.39
380.349	303.89
380.729	316.77
381.109	341.4
381.489	343.21
381.87	334.85
382.25	336.88
382.63	319.94
383.01	322.87
383.39	332.82
383.77	336.88
384.15	342.53
384.53	313.61
384.91	357.22
385.29	347.05
385.67	314.74
386.049	333.72
386.429	351.12
386.809	332.82
387.189	327.62
387.568	324.23
387.948	333.27
388.328	326.71
388.707	358.35
389.087	343.21
389.466	349.31
389.846	369.65
390.225	382.76
390.605	371.01
390.984	344.57
391.363	333.72
391.743	364.68
392.122	364
392.501	366.71
392.881	357.67
393.26	354.28
393.639	348.86
394.018	363.55
394.397	361.52
394.776	361.97
395.155	359.26
395.534	352.7
395.913	371.23
396.292	382.31
396.671	380.5
397.05	381.18
397.429	371.46
397.808	375.53
398.186	381.85
398.565	378.46
398.944	386.83
399.323	374.85
399.701	402.87
400.08	401.29
400.458	400.84
400.837	375.53
401.215	407.39
401.594	383.44
401.972	391.12
402.351	399.03
402.729	404.9
403.107	394.51
403.486	397.9
403.864	399.71
404.242	401.06
404.62	406.26
404.999	402.42
405.377	413.04
405.755	407.62
406.133	419.37
406.511	429.54
406.889	420.95
407.267	424.79
407.645	437.22
408.023	453.72
408.401	440.16
408.779	456.2
409.156	441.74
409.534	442.19
409.912	433.15
410.29	458.91
410.667	460.27
411.045	469.31
411.422	464.34
411.8	482.87
412.178	492.36
412.555	484.68
412.933	492.36
413.31	490.78
413.687	511.79
414.065	514.73
414.442	498.24
414.819	506.37
415.197	521.74
415.574	528.29
415.951	531.45
416.328	542.98
416.705	565.8
417.082	552.7
417.46	556.54
417.837	585.01
418.214	578.01
418.591	575.75
418.967	569.42
419.344	597.89
419.721	597.89
420.098	596.09
420.475	605.58
420.852	621.85
421.228	619.14
421.605	622.07
421.982	631.79
422.358	629.31
422.735	650.1
423.111	642.19
423.488	653.26
423.864	656.88
424.241	661.85
424.617	677.44
424.994	677.44
425.37	660.72
425.746	694.16
426.123	692.58
426.499	686.93
426.875	726.03
427.251	732.35
427.627	733.94
428.003	736.2
428.379	744.33
428.756	750.21
429.132	738.91
429.507	778.23
429.883	752.24
430.259	775.52
430.635	785.69
431.011	774.61
431.387	804.44
431.763	804.89
432.138	800.37
432.514	806.93
432.89	829.07
433.265	846.7
433.641	832.24
434.016	852.8
434.392	865.68
434.767	885.8
435.143	877.89
435.518	883.54
435.894	898
436.269	912.24
436.644	920.82
437.02	916.08
437.395	933.25
437.77	930.54
438.145	940.26
438.52	970.77
438.895	948.85
439.271	943.87
439.646	960.82
440.021	970.09
440.395	1020.48
440.77	974.61
441.145	966.92
441.52	998.56
441.895	992.01
442.27	1011.67
442.645	978.45
443.019	1030.2
443.394	1046.02
443.769	1039.69
444.143	1042.63
444.518	1031.33
444.892	1019.35
445.267	1029.07
445.641	1042.4
446.016	1077.66
446.39	1079.92
446.764	1100.48
447.139	1066.81
447.513	1063.87
447.887	1092.34
448.262	1082.85
448.636	1075.4
449.01	1111.1
449.384	1106.81
449.758	1097.54
450.132	1106.58
450.506	1151.1
450.88	1075.85
451.254	1144.55
451.628	1153.36
452.002	1128.28
452.376	1139.12
452.75	1147.26
453.123	1131.21
453.497	1175.05
453.871	1165.79
454.244	1178.67
454.618	1192.45
454.992	1187.03
455.365	1189.06
455.739	1178.44
456.112	1207.14
456.486	1225
456.859	1228.16
457.232	1236.3
457.606	1234.26
457.979	1268.61
458.352	1257.76
458.725	1292.11
459.099	1290.31
459.472	1282.17
459.845	1304.32
460.218	1308.84
460.591	1327.37
460.964	1311.32
461.337	1340.7
461.71	1363.3
462.083	1366.69
462.456	1329.63
462.829	1372.34
463.201	1387.48
463.574	1368.04
463.947	1387.03
464.32	1396.74
464.692	1420.25
465.065	1444.43
465.438	1437.87
465.81	1462.73
466.183	1461.83
466.555	1507.93
466.928	1494.59
467.3	1478.32
467.672	1502.73
468.045	1525.33
468.417	1534.82
468.789	1528.49
469.161	1563.97
469.534	1591.99
469.906	1580.69
470.278	1605.55
470.65	1621.82
471.022	1621.6
471.394	1636.51
471.766	1661.82
472.138	1702.27
472.51	1721.25
472.882	1682.84
473.253	1688.03
473.625	1765.32
473.997	1767.13
474.369	1790.86
474.74	1816.84
475.112	1848.71
475.484	1837.86
475.855	1854.58
476.227	1887.35
476.598	1923.51
476.97	1913.57
477.341	1951.76
477.713	1968.48
478.084	1979.78
478.455	2004.86
478.827	2028.36
479.198	2084.18
479.569	2100
479.94	2107.68
480.311	2095.48
480.682	2124.86
481.053	2174.58
481.424	2231.07
481.795	2224.74
482.166	2218.87
482.537	2304.29
482.908	2309.94
483.279	2306.55
483.65	2377.28
484.021	2363.5
484.391	2374.34
484.762	2432.2
485.133	2423.61
485.503	2470.61
485.874	2547.9
486.244	2485.53
486.615	2525.3
486.985	2560.1
487.356	2564.85
487.726	2631.96
488.097	2651.4
488.467	2678.74
488.837	2718.97
489.207	2680.55
489.578	2717.61
489.948	2773.66
490.318	2799.87
490.688	2798.06
491.058	2863.37
491.428	2882.58
491.798	2902.69
492.168	2937.04
492.538	2949.02
492.908	2971.84
493.278	3012.75
493.648	3000.09
494.017	3005.97
494.387	3068.79
494.757	3054.33
495.126	3079.64
495.496	3115.12
495.866	3127.54
496.235	3146.53
496.605	3173.65
496.974	3178.39
497.344	3209.12
497.713	3231.5
498.082	3226.53
498.452	3222.46
498.821	3309.69
499.19	3256.13
499.559	3280.76
499.928	3298.61
500.298	3356.69
500.667	3315.56
501.036	3342.68
501.405	3384.04
501.774	3382
502.143	3357.37
502.512	3414.99
502.88	3415.9
503.249	3432.62
503.618	3475.33
503.987	3466.07
504.356	3467.42
504.724	3449.12
505.093	3495.22
505.462	3498.38
505.83	3544.71
506.199	3524.6
506.567	3580.19
506.936	3573.18
507.304	3537.7
507.672	3593.07
508.041	3597.82
508.409	3638.04
508.777	3587.19
509.145	3642.11
509.514	3641.66
509.882	3631.49
510.25	3660.19
510.618	3682.33
510.986	3657.7
511.354	3660.19
511.722	3714.42
512.09	3749.45
512.458	3712.39
512.826	3759.39
513.193	3765.04
513.561	3744.7
513.929	3782.22
514.297	3795.1
514.664	3800.52
515.032	3788.77
515.4	3789.67
515.767	3836
516.135	3828.77
516.502	3830.35
516.869	3851.59
517.237	3871.93
517.604	3871.93
517.972	3849.33
518.339	3880.07
518.706	3894.08
519.073	3940.63
519.44	3937.92
519.808	3897.69
520.175	3956
520.542	3971.59
520.909	3958.48
521.276	3956.22
521.643	3948.09
522.009	4014.08
522.376	4027.18
522.743	4005.94
523.11	4033.96
523.477	4064.02
523.843	4104.02
524.21	4132.04
524.577	4123.68
524.943	4146.05
525.31	4148.31
525.676	4173.39
526.043	4197.8
526.409	4212.26
526.776	4228.98
527.142	4247.52
527.508	4294.52
527.874	4320.73
528.241	4299.04
528.607	4319.6
528.973	4355.31
529.339	4335.87
529.705	4423.33
530.071	4415.19
530.437	4429.66
530.803	4470.79
531.169	4504.68
531.535	4460.62
531.901	4464.46
532.267	4527.28
532.632	4514.63
532.998	4582.87
533.364	4595.53
533.73	4583.78
534.095	4617.9
534.461	4588.52
534.826	4683.21
535.192	4655.64
535.557	4699.03
535.923	4722.53
536.288	4683.66
536.653	4706.03
537.019	4689.31
537.384	4758.46
537.749	4786.48
538.114	4773.38
538.479	4781.06
538.845	4822.42
539.21	4803.43
539.575	4889.08
539.94	4888.85
540.305	4949.42
540.67	4903.54
541.034	4914.16
541.399	4967.95
541.764	4960.72
542.129	4950.1
542.494	4996.2
542.858	5036.65
543.223	5054.95
543.587	5043.2
543.952	5055.63
544.316	5077.32
544.681	5111
545.045	5120.49
545.41	5175.17
545.774	5148.73
546.138	5200.71
546.503	5213.82
546.867	5232.12
547.231	5271.44
547.595	5276.19
547.959	5322.74
548.324	5332.23
548.688	5339.46
549.052	5368.84
549.416	5372.01
549.779	5431.89
550.143	5407.03
550.507	5426.02
550.871	5432.12
551.235	5478.22
551.599	5445.22
551.962	5480.48
552.326	5541.72
552.689	5531.55
553.053	5544.43
553.417	5521.38
553.78	5614.49
554.143	5582.85
554.507	5614.03
554.87	5606.8
555.234	5642.06
555.597	5640.93
555.96	5647.48
556.323	5677.76
556.686	5706.91
557.05	5701.04
557.413	5715.5
557.776	5719.34
558.139	5772.67
558.502	5737.87
558.865	5807.02
559.228	5848.6
559.59	5841.37
559.953	5880.92
560.316	5924.08
560.679	5897.19
561.041	5924.99
561.404	5964.08
561.767	5945.32
562.129	5948.71
562.492	6013.8
562.854	5980.8
563.217	6016.06
563.579	6031.2
563.941	5998.88
564.304	6030.52
564.666	6089.73
565.028	6091.31
565.39	6139.67
565.753	6147.35
566.115	6169.95
566.477	6188.03
566.839	6181.02
567.201	6214.02
567.563	6263.28
567.925	6266.67
568.287	6278.65
568.648	6267.12
569.01	6308.7
569.372	6345.77
569.734	6320.91
570.095	6433.9
570.457	6441.81
570.819	6484.52
571.18	6505.08
571.542	6502.6
571.903	6582.37
572.265	6579.21
572.626	6651.29
572.987	6630.96
573.349	6702.82
573.71	6743.04
574.071	6767.22
574.432	6814.23
574.794	6882.7
575.155	6952.3
575.516	6912.53
575.877	7012.41
576.238	7041.11
576.599	7153.88
576.96	7172.64
577.32	7223.48
577.681	7318.62
578.042	7469.58
578.403	7507.32
578.763	7515.68
579.124	7622.12
579.485	7735.56
579.845	7843.58
580.206	7926.97
580.566	8017.36
580.927	8097.13
581.287	8204.7
581.648	8358.14
582.008	8525.6
582.368	8579.38
582.728	8782.54
583.089	8857.34
583.449	9089.65
583.809	9220.49
584.169	9308.85
584.529	9526.92
584.889	9747.71
585.249	9866.58
585.609	10061.37
585.969	10262.27
586.329	10410.97
586.688	10669.49
587.048	10859.09
587.408	11031.52
587.768	11297.05
588.127	11495.01
588.487	11760.31
588.846	11894.32
589.206	12157.14
589.565	12398.71
589.925	12706.5
590.284	12902.66
590.643	13158.47
591.003	13422.42
591.362	13744.67
591.721	13950.31
592.08	14173.58
592.44	14583.29
592.799	14755.49
593.158	14974.47
593.517	15366.09
593.876	15560.89
594.235	15848.79
594.593	16155.22
594.952	16404.71
595.311	16611.03
595.67	17093.05
596.029	17326.95
596.387	17625.02
596.746	17918.79
597.104	18169.41
597.463	18423.64
597.822	18718.55
598.18	18967.35
598.538	19298.87
598.897	19694.79
599.255	19758.97
599.613	20356.47
599.972	20479.41
600.33	20849.79
600.688	20965.95
601.046	21239.61
601.404	21682.09
601.762	21828.52
602.12	22162.3
602.478	22522.29
602.836	22759.12
603.194	22872.34
603.552	23104.42
603.91	23346
604.268	23699.43
604.625	23959.99
604.983	24237.05
605.341	24417.83
605.698	24717.26
606.056	25037.7
606.413	25205.83
606.771	25477.24
607.128	25753.62
607.485	25791.36
607.843	26243.77
608.2	26371
608.557	26701.39
608.914	26823.64
609.272	27116.29
609.629	27476.06
609.986	27627.47
610.343	27693.68
610.7	28139.32
611.057	28262.25
611.414	28357.16
611.771	28424.73
612.127	28817.72
612.484	29027.43
612.841	29248.67
613.198	29344.03
613.554	29414.09
613.911	29788.76
614.267	29836.67
614.624	30084.35
614.98	30227.85
615.337	30491.57
615.693	30517.56
616.05	30669.87
616.406	30967.94
616.762	30989.86
617.118	31115.06
617.475	31391.21
617.831	31535.16
618.187	31614.71
618.543	31806.34
618.899	32164.75
619.255	32068.25
619.611	32228.93
619.967	32371.07
620.323	32624.62
620.678	32653.1
621.034	32761.34
621.39	32705.3
621.746	32842.47
622.101	33266.87
622.457	33059.87
622.812	33235.45
623.168	33387.99
623.523	33333.98
623.879	33707.98
624.234	33340.99
624.589	33655.56
624.945	33765.38
625.3	33851.48
625.655	33846.96
626.01	34019.61
626.365	34044.47
626.72	34255.31
627.075	34234.75
627.43	34245.82
627.785	34161.08
628.14	34410.79
628.495	34480.62
628.85	34457.12
629.205	34432.26
629.559	34752.02
629.914	34621.18
630.269	34758.58
630.623	34687.17
630.978	34646.72
631.332	34661.86
631.687	34881.06
632.041	34747.5
632.396	34903.66
632.75	34851
633.104	34853.94
633.459	34811.01
633.813	34744.11
634.167	34916.09
634.521	34835.41
634.875	34946.82
635.229	34919.48
635.583	34857.56
635.937	34860.72
636.291	34789.31
636.645	34907.95
636.999	34898.69
637.352	35011.23
637.706	34769.2
638.06	34946.37
638.413	34837.67
638.767	34909.08
639.121	34866.37
639.474	34969.87
639.828	34820.72
640.181	34973.49
640.534	34998.57
640.888	34737.79
641.241	34737.11
641.594	34915.41
641.947	35014.39
642.301	34758.35
642.654	35024.33
643.007	34977.33
643.36	34889.87
643.713	34865.24
644.066	34973.04
644.419	34858.91
644.771	34546.83
645.124	34176.67
645.477	34120.18
645.83	33965.38
646.182	33895.55
646.535	33900.3
646.888	33959.28
647.24	33711.83
647.593	33819.85
647.945	33943.91
648.298	33627.31
648.65	33732.62
649.002	33652.39
649.355	33812.84
649.707	33722.9
650.059	33768.55
650.411	34178.93
650.763	34229.55
651.115	34564.01
651.467	34495.31
651.819	34584.57
652.171	34412.82
652.523	34422.32
652.875	34444.69
653.227	34333.73
653.578	34508.64
653.93	34375.99
654.282	34270.91
654.633	34184.58
654.985	34413.73
655.337	34503.9
655.688	34405.37
656.039	34551.35
656.391	34219.61
656.742	34133.74
657.094	34178.25
657.445	34380.73
657.796	34350.23
658.147	34171.7
658.498	34326.27
658.849	34295.09
659.2	34231.81
659.551	34161.53
659.902	34251.92
660.253	34209.44
660.604	34275.43
660.955	34114.3
661.306	34213.28
661.656	34152.72
662.007	34078.14
662.358	34136.9
662.708	34130.8
663.059	34075.66
663.409	34055.32
663.76	34255.09
664.11	34133.74
664.461	34221.87
664.811	34080.18
665.161	34122.21
665.511	34106.17
665.862	34262.32
666.212	34163.34
666.562	34238.59
666.912	34037.92
667.262	34054.42
667.612	34015.55
667.962	34103.68
668.312	34002.67
668.662	34044.92
669.011	33977.13
669.361	34045.38
669.711	34008.99
670.06	33857.58
670.41	33901.2
670.76	33783.69
671.109	34060.74
671.459	33999.05
671.808	33956.79
672.157	34054.87
672.507	33763.12
672.856	33764.25
673.205	33736.46
673.554	33971.93
673.904	33854.87
674.253	34000.41
674.602	33861.43
674.951	33383.02
675.3	33136.93
675.649	33736.23
675.998	33712.73
676.346	33780.3
676.695	33959.73
677.044	33610.59
677.393	33676.57
677.741	33712.28
678.09	33633.86
678.438	33562.68
678.787	33597.93
679.135	33634.09
679.484	33401.55
679.832	33519.06
680.181	33381.21
680.529	33388.44
680.877	33366.98
681.225	33306.19
681.573	33489.91
681.922	33332.4
682.27	33054.67
682.618	33244.27
682.966	33158.62
683.314	33184.61
683.661	33112.07
684.009	32923.15
684.357	32800.21
684.705	32835.24
685.053	32873.88
685.4	32785.3
685.748	32629.37
686.095	32684.28
686.443	32500.33
686.79	32569.71
687.138	32537.17
687.485	32568.35
687.832	32384.85
688.18	32476.38
688.527	32223.05
688.874	32219.66
689.221	32115.03
689.568	32150.28
689.915	31975.83
690.262	32006.56
690.609	31943.28
690.956	31739.45
691.303	31785.55
691.65	31694.03
691.997	31611.09
692.344	31405.45
692.69	31444.99
693.037	31419.68
693.383	31235.96
693.73	31292.45
694.077	31111.67
694.423	31242.51
694.769	31071.44
695.116	31100.37
695.462	30967.26
695.808	30834.16
696.155	30981.73
696.501	30597.33
696.847	30696.76
697.193	30474.17
697.539	30720.72
697.885	30296.1
698.231	30255.87
698.577	30271.24
698.923	30212.03
699.269	30087.06
699.614	29857.69
699.96	29921.87
700.306	29940.4
700.651	29799.61
700.997	29699.05
701.342	29659.95
701.688	29630.12
702.033	29503.12
702.379	29358.27
702.724	29553.06
703.069	29368.21
703.415	29047.77
703.76	29192.17
704.105	29107.2
704.45	29149.91
704.795	28855.68
705.14	28852.07
705.485	28773.65
705.83	28758.51
706.175	28756.48
706.52	28541.11
706.865	28595.12
707.209	28525.75
707.554	28493.66
707.899	28517.84
708.243	28285.53
708.588	28263.16
708.932	28088.92
709.277	28007.34
709.621	28097.51
709.966	27917.18
710.31	28054.12
710.654	27722.38
710.998	27904.75
711.342	27834.47
711.687	27801.47
712.031	27656.17
712.375	27635.6
712.719	27637.41
713.063	27429.5
713.407	27565.77
713.75	27508.6
714.094	27511.76
714.438	27261.83
714.782	27273.12
715.125	27141.83
715.469	27176.18
715.812	27175.5
716.156	26971.89
716.499	27043.3
716.843	27015.05
717.186	26888.5
717.53	26988.61
717.873	26907.94
718.216	26794.72
718.559	26655.29
718.902	26523.54
719.246	26626.14
719.589	26482.41
719.932	26418.68
720.275	26446.25
720.617	26389.53
720.96	26304.11
721.303	26361.74
721.646	26292.13
721.989	26107.05
722.331	26194.96
722.674	26116.09
723.016	26181.18
723.359	26076.55
723.701	26102.76
724.044	25898.02
724.386	25892.6
724.729	25957.45
725.071	25826.61
725.413	25805.82
725.755	25863.9
726.097	25766.27
726.439	25554.75
726.782	25672.04
727.124	25729.21
727.465	25605.6
727.807	25540.97
728.149	25470.23
728.491	25368.99
728.833	25396.79
729.175	25306.62
729.516	25336.23
729.858	25308.66
730.199	25303.46
730.541	25244.48
730.882	25113.41
731.224	25254.65
731.565	25101.43
731.906	25060.98
732.248	25052.62
732.589	24939.4
732.93	24870.7
733.271	24928.1
733.612	24878.61
733.953	24933.3
734.294	24803.13
734.635	24665.51
734.976	24712.29
735.317	24534.89
735.658	24650.14
735.999	24647.66
736.339	24586.87
736.68	24649.69
737.021	24517.04
737.361	24405.63
737.702	24485.63
738.042	24421
738.383	24351.39
738.723	24413.31
739.063	24348.91
739.404	24375.8
739.744	24279.08
740.084	24301.9
740.424	24209.93
740.764	24147.33
741.104	24187.56
741.444	24031.18
741.784	24081.34
742.124	24147.78
742.464	23982.14
742.804	23994.11
743.143	23857.85
743.483	23846.1
743.823	23721.81
744.162	23812.2
744.502	23879.99
744.841	23710.96
745.181	23771.52
745.52	23659.21
745.86	23662.15
746.199	23627.34
746.538	23656.5
746.877	23633.22
747.216	23649.49
747.556	23476.39
747.895	23457.41
748.234	23403.85
748.573	23331.31
748.911	23360.46
749.25	23296.05
749.589	23097.64
749.928	23184.19
750.267	23302.83
750.605	23196.4
750.944	23064.2
751.283	23099.22
751.621	23128.37
751.96	23058.77
752.298	22939.91
752.636	23039.79
752.975	22855.16
753.313	22734.71
753.651	22885.67
753.989	22727.48
754.327	22677.77
754.666	22523.19
755.004	22635.05
755.342	22572.46
755.679	22554.6
756.017	22373.59
756.355	22487.71
756.693	22357.1
757.031	22254.27
757.368	22322.52
757.706	22242.07
758.044	22174.5
758.381	22137.44
758.719	22161.39
759.056	22061.06
759.394	21922.08
759.731	21841.86
760.068	21836.66
760.405	21678.7
760.743	21677.11
761.08	21719.6
761.417	21485.25
761.754	21553.73
762.091	21429.44
762.428	21408.42
762.765	21237.8
763.102	21381.3
763.438	21199.61
763.775	21082.55
764.112	21147.86
764.449	21077.36
764.785	21012.95
765.122	20857.93
765.458	20791.04
765.795	20860.64
766.131	20702
766.467	20697.7
766.804	20550.14
767.14	20472.17
767.476	20622.9
767.812	20412.74
768.148	20389.24
768.485	20194.67
768.821	20128.68
769.157	20127.78
769.492	20134.56
769.828	20001.23
770.164	19857.95
770.5	19814.79
770.836	19885.52
771.171	19677.39
771.507	19625.87
771.842	19483.05
772.178	19480.56
772.513	19465.42
772.849	19400.79
773.184	19202.6
773.519	19307.01
773.855	19235.82
774.19	19177.29
774.525	19063.62
774.86	19015.26
775.195	18954.47
775.53	18928.03
775.865	18702.5
776.2	18635.16
776.535	18575.95
776.87	18568.04
777.205	18465.9
777.539	18458.67
777.874	18459.8
778.209	18257.09
778.543	18185.45
778.878	18087.6
779.212	18277.2
779.547	18051.67
779.881	17993.59
780.215	17898.68
780.55	17941.62
780.884	17804.45
781.218	17761.28
781.552	17820.49
781.886	17661.17
782.22	17529.43
782.554	17589.09
782.888	17342.76
783.222	17290.34
783.556	17261.64
783.889	17114.52
784.223	17139.15
784.557	17128.31
784.89	17067.29
785.224	16919.95
785.557	16889.89
785.891	16808.32
786.224	16762.67
786.558	16775.32
786.891	16583.46
787.224	16601.54
787.557	16515.44
787.891	16564.71
788.224	16455.78
788.557	16451.04
788.89	16333.98
789.223	16286.07
789.556	16186.64
789.888	16197.94
790.221	16200.87
790.554	16050.59
790.887	16006.53
791.219	15899.64
791.552	15945.51
791.884	15868
792.217	15817.15
792.549	15698.51
792.882	15518.86
793.214	15554.79
793.546	15557.5
793.879	15534.68
794.211	15435.24
794.543	15512.08
794.875	15418.75
795.207	15349.37
795.539	15274.8
795.871	15301.01
796.203	15155.93
796.535	15089.04
796.867	15039.1
797.198	15044.97
797.53	15026.67
797.862	14895.82
798.193	14903.73
798.525	14847.24
798.856	14849.95
799.188	14642.04
799.519	14661.48
799.85	14586
800.182	14526.79
800.513	14608.6
800.844	14451.54
801.175	14438.89
801.506	14445.44
801.837	14294.93
802.168	14348.72
802.499	14191.66
802.83	14188.95
803.161	14177.88
803.491	14171.32
803.822	14202.51
804.153	14057.65
804.483	13859.69
804.814	13872.57
805.145	14004.55
805.475	13923.42
805.805	13789.41
806.136	13786.47
806.466	13732.01
806.796	13818.34
807.126	13642.97
807.457	13641.17
807.787	13609.98
808.117	13472.81
808.447	13498.57
808.777	13449.53
809.107	13485.92
809.436	13390.1
809.766	13404.11
810.096	13386.94
810.426	13382.64
810.755	13294.51
811.085	13243.44
811.414	13190.11
811.744	13118.47
812.073	13102.42
812.403	13140.16
812.732	13046.83
813.061	13104.23
813.39	13013.16
813.719	12928.19
814.049	13001.18
814.378	12926.38
814.707	12835.76
815.036	12831.7
815.365	12761.87
815.693	12654.3
816.022	12701.53
816.351	12657.24
816.68	12553.74
817.008	12572.49
817.337	12591.7
817.665	12554.42
817.994	12557.13
818.322	12481.2
818.651	12466.96
818.979	12409.79
819.307	12508.09
819.636	12399.39
819.964	12284.14
820.292	12360.3
820.62	12349
820.948	12231.26
821.276	12356.23
821.604	12210.24
821.932	12290.02
822.259	12263.58
822.587	12228.77
822.915	12192.84
823.243	12275.33
823.57	12261.99
823.898	12203.24
824.225	12264.25
824.553	12170.92
824.88	12236.23
825.207	12187.19
825.535	12159.4
825.862	12212.28
826.189	12189
826.516	12228.1
826.843	12283.24
827.17	12297.93
827.497	12296.12
827.824	12187.87
828.151	12223.8
828.478	12204.37
828.805	12319.17
829.131	12192.17
829.458	12107.2
829.785	12146.06
830.111	12105.39
830.438	12216.12
830.764	12213.63
831.09	12194.88
831.417	12142.68
831.743	12178.38
832.069	12163.69
832.395	12130.92
832.722	12102.9
833.048	12137.03
833.374	12122.56
833.7	11982.91
834.026	12015.45
834.351	12119.85
834.677	12033.3
835.003	12112.62
835.329	12009.57
835.654	12015.45
835.98	12012.51
836.306	11941.78
836.631	11920.08
836.956	12025.39
837.282	11982.91
837.607	11872.17
837.932	11844.83
838.258	11840.08
838.583	11865.17
838.908	11766.41
839.233	11798.96
839.558	11797.15
839.883	11764.15
840.208	11746.53
840.533	11651.39
840.858	11702.46
841.182	11678.28
841.507	11630.82
841.832	11581.79
842.156	11621.33
842.481	11532.3
842.805	11506.31
843.13	11551.05
843.454	11530.49
843.778	11448.68
844.103	11482.35
844.427	11376.37
844.751	11398.51
845.075	11343.15
845.399	11294.11
845.723	11250.5
846.047	11280.78
846.371	11227.67
846.695	11201.68
847.019	11105.19
847.343	11099.31
847.666	11021.35
847.99	10904.29
848.313	11009.37
848.637	10902.03
848.96	10871.52
849.284	10835.82
849.607	10770.73
849.931	10814.12
850.254	10638.99
850.577	10610.74
850.9	10495.26
851.223	10514.47
851.546	10448.48
851.869	10437.18
852.192	10466.56
852.515	10323.29
852.838	10321.25
853.161	10324.64
853.483	10214.36
853.806	10223.86
854.129	10193.35
854.451	10113.12
854.774	10120.36
855.096	10058.21
855.419	10065.22
855.741	10011.43
856.063	10046.46
856.385	9944.09
856.708	9889.18
857.03	9859.12
857.352	9904.09
857.674	9798.56
857.996	9815.96
858.318	9753.13
858.64	9758.33
858.961	9714.26
859.283	9684.21
859.605	9681.04
859.926	9643.76
860.248	9671.55
860.57	9573.03
860.891	9652.8
861.212	9537.09
861.534	9560.37
861.855	9453.25
862.176	9499.35
862.498	9511.11
862.819	9503.42
863.14	9391.33
863.461	9401.73
863.782	9403.76
864.103	9375.74
864.424	9346.36
864.745	9400.6
865.065	9315.63
865.386	9269.76
865.707	9260.72
866.027	9231.79
866.348	9284.9
866.668	9309.98
866.989	9211
867.309	9143.66
867.63	9162.19
867.95	9159.48
868.27	9078.8
868.59	9092.59
868.91	9178.69
869.23	9160.61
869.55	9099.82
869.87	9121.51
870.19	9050.55
870.51	9060.5
870.83	9085.58
871.15	9009.65
871.469	8994.28
871.789	9045.13
872.109	8970.56
872.428	8925.58
872.748	8902.08
873.067	8956.77
873.386	9000.61
873.706	8938.47
874.025	8886.94
874.344	8862.31
874.663	8882.42
874.982	8876.09
875.301	8831.12
875.62	8803.78
875.939	8769.66
876.258	8808.3
876.577	8789.77
876.896	8728.08
877.214	8669.32
877.533	8723.33
877.852	8667.51
878.17	8724.01
878.489	8751.58
878.807	8707.29
879.125	8641.75
879.444	8704.8
879.762	8676.1
880.08	8625.93
880.398	8550.23
880.716	8658.92
881.034	8562.66
881.352	8589.1
881.67	8564.24
881.988	8546.61
882.306	8477.01
882.624	8480.62
882.941	8503.45
883.259	8408.54
883.577	8407.86
883.894	8378.48
884.212	8452.38
884.529	8361.76
884.846	8350.91
885.164	8313.85
885.481	8291.02
885.798	8309.33
886.115	8269.1
886.432	8253.51
886.75	8272.27
887.067	8238.82
887.383	8171.48
887.7	8142.55
888.017	8147.53
888.334	8115.89
888.651	8080.86
888.967	8100.3
889.284	8084.7
889.6	8038.15
889.917	7965.61
890.233	7977.36
890.55	7975.78
890.866	7933.52
891.182	7908.89
891.498	7893.97
891.815	7869.12
892.131	7891.49
892.447	7821.88
892.763	7838.38
893.079	7811.72
893.395	7780.98
893.71	7828.44
894.026	7731.72
894.342	7646.97
894.657	7578.5
894.973	7571.27
895.289	7625.96
895.604	7681.78
895.92	7603.59
896.235	7597.48
896.55	7526.75
896.865	7446.08
897.181	7491.05
897.496	7401.78
897.811	7427.09
898.126	7336.02
898.441	7381.44
898.756	7370.82
899.071	7305.29
899.386	7305.74
899.7	7219.19
900.015	7232.07
900.33	7150.26
900.644	7112.52
900.959	7128.8
901.273	7173.77
901.588	7166.31
901.902	7104.39
902.216	7083.83
902.531	7036.37
902.845	6993.43
903.159	6954.79
903.473	6972.42
903.787	6855.13
904.101	6900.33
904.415	6862.81
904.729	6883.38
905.042	6835.02
905.356	6809.71
905.67	6785.98
905.984	6807
906.297	6761.57
906.611	6655.81
906.924	6641.58
907.237	6652.42
907.551	6661.92
907.864	6621.46
908.177	6615.81
908.491	6593.67
908.804	6542.14
909.117	6502.37
909.43	6534.23
909.743	6510.28
910.056	6426.67
910.368	6409.04
910.681	6382.6
910.994	6356.16
911.307	6332.66
911.619	6279.33
911.932	6265.77
912.244	6262.15
912.557	6249.04
912.869	6205.43
913.181	6178.99
913.494	6166.56
913.806	6179.22
914.118	6097.18
914.43	6065.09
914.742	6013.12
915.054	6035.04
915.366	6090.18
915.678	5967.92
915.99	5986.68
916.302	5919.56
916.613	5912.78
916.925	5929.51
917.236	5895.38
917.548	5799.79
917.859	5882.73
918.171	5787.81
918.482	5767.7
918.794	5748.94
919.105	5750.3
919.416	5703.3
919.727	5735.16
920.038	5705.1
920.349	5667.82
920.66	5631.43
920.971	5611.1
921.282	5595.5
921.593	5517.31
921.903	5512.34
922.214	5500.14
922.525	5477.77
922.835	5474.15
923.146	5407.94
923.456	5436.64
923.767	5355.06
924.077	5377.2
924.387	5320.48
924.697	5258.34
925.008	5281.61
925.318	5274.83
925.628	5276.19
925.938	5224.21
926.248	5168.85
926.558	5142.18
926.867	5136.08
927.177	5123.2
927.487	5121.84
927.796	5052.47
928.106	5071.45
928.416	5087.95
928.725	5074.84
929.034	4999.59
929.344	5001.17
929.653	4978.57
929.962	4958.46
930.271	4914.16
930.581	4885.01
930.89	4913.26
931.199	4894.73
931.508	4832.81
931.817	4820.83
932.125	4802.53
932.434	4805.92
932.743	4765.02
933.051	4747.62
933.36	4701.51
933.669	4696.32
933.977	4737.9
934.286	4610.44
934.594	4651.57
934.902	4613.38
935.21	4632.59
935.519	4619.71
935.827	4557.56
936.135	4565.7
936.443	4529.54
936.751	4513.27
937.059	4465.59
937.367	4464.01
937.674	4461.75
937.982	4482.54
938.29	4419.49
938.597	4419.94
938.905	4373.16
939.213	4336.33
939.52	4329.55
939.827	4328.64
940.135	4314.41
940.442	4305.82
940.749	4302.43
941.056	4271.7
941.363	4263.33
941.67	4220.62
941.977	4240.28
942.284	4155.09
942.591	4172.26
942.898	4122.32
943.205	4135.2
943.511	4118.25
943.818	4085.49
944.125	4044.13
944.431	4043.23
944.738	4054.3
945.044	4072.38
945.35	4001.42
945.657	3974.53
945.963	3974.08
946.269	3954.64
946.575	3978.37
946.881	3937.69
947.187	3909.67
947.493	3885.04
947.799	3850.01
948.105	3844.81
948.41	3830.35
948.716	3862.67
949.022	3801.2
949.327	3787.41
949.633	3752.16
949.938	3742.67
950.244	3778.6
950.549	3721.65
950.854	3722.56
951.16	3679.39
951.465	3645.05
951.77	3661.09
952.075	3666.06
952.38	3630.36
952.685	3654.31
952.99	3603.24
953.294	3620.87
953.599	3559.85
953.904	3553.07
954.209	3536.8
954.513	3518.5
954.818	3473.07
955.122	3517.14
955.426	3490.93
955.731	3465.84
956.035	3476.46
956.339	3458.16
956.643	3478.5
956.948	3395.33
957.252	3397.14
957.556	3392.17
957.86	3365.05
958.163	3327.99
958.467	3358.95
958.771	3334.32
959.075	3318.05
959.378	3298.39
959.682	3303.81
959.985	3264.04
960.289	3235.11
960.592	3260.42
960.896	3201.22
961.199	3197.37
961.502	3181.78
961.805	3170.71
962.108	3132.97
962.411	3156.02
962.714	3116.25
963.017	3117.38
963.32	3138.84
963.623	3091.16
963.926	3048
964.228	3068.34
964.531	3048
964.833	3053.42
965.136	3041.9
965.438	3011.84
965.741	3009.13
966.043	2965.74
966.345	2955.57
966.648	2946.08
966.95	2956.25
967.252	2950.37
967.554	2939.53
967.856	2893.2
968.158	2921.45
968.46	2933.43
968.761	2859.3
969.063	2890.71
969.365	2836.71
969.666	2876.03
969.968	2805.75
970.269	2823.15
970.571	2777.05
970.872	2794.45
971.174	2769.81
971.475	2810.27
971.776	2756.71
972.077	2735.24
972.378	2731.62
972.679	2726.88
972.98	2707.89
973.281	2738.63
973.582	2696.37
973.883	2678.52
974.183	2660.44
974.484	2661.34
974.785	2640.78
975.085	2639.65
975.386	2626.32
975.686	2618.63
975.986	2599.65
976.287	2588.35
976.587	2554.9
976.887	2578.86
977.187	2591.06
977.487	2533.66
977.787	2509.26
978.087	2514
978.387	2488.24
978.687	2494.12
978.987	2476.71
979.286	2456.38
979.586	2451.18
979.885	2479.65
980.185	2468.81
980.484	2424.29
980.784	2410.28
981.083	2429.48
981.382	2397.85
981.682	2423.83
981.981	2392.87
982.28	2389.94
982.579	2375.25
982.878	2376.38
983.177	2391.75
983.475	2328.47
983.774	2316.27
984.073	2348.36
984.372	2290.05
984.67	2310.17
984.969	2323.72
985.267	2289.37
985.566	2295.7
985.864	2255.48
986.162	2243.5
986.461	2260
986.759	2202.6
987.057	2203.05
987.355	2204.86
987.653	2195.14
987.951	2184.97
988.249	2165.76
988.547	2188.81
988.844	2144.75
989.142	2170.96
989.44	2151.07
989.737	2145.88
990.035	2126.22
990.332	2111.98
990.63	2087.12
990.927	2075.82
991.224	2074.24
991.521	2089.15
991.819	2061.13
992.116	2058.65
992.413	2049.16
992.71	2044.86
993.006	2034.24
993.303	2027.46
993.6	2029.49
993.897	2006.22
994.193	2001.92
994.49	1993.56
994.787	1949.95
995.083	1958.76
995.379	1956.05
995.676	1952.66
995.972	1940.01
996.268	1925.54
996.565	1938.42
996.861	1916.05
997.157	1890.52
997.453	1901.59
997.749	1906.56
998.044	1855.49
998.34	1867.69
998.636	1870.4
998.932	1862.72
999.227	1820.01
999.523	1825.43
999.818	1852.55
1000.114	1836.73
1000.409	1785.21
1000.704	1792.21
1001	1777.75
1001.295	1765.09
1001.59	1786.79
1001.885	1739.56
1002.18	1740.01
1002.475	1757.41
1002.77	1714.02
1003.065	1718.54
1003.359	1712.89
1003.654	1725.77
1003.949	1676.96
1004.243	1693.01
1004.538	1664.31
1004.832	1682.16
1005.127	1664.53
1005.421	1660.92
1005.715	1625.44
1006.009	1612.78
1006.304	1657.98
1006.598	1597.64
1006.892	1594.93
1007.186	1595.61
1007.48	1585.21
1007.773	1594.7
1008.067	1543.41
1008.361	1537.76
1008.655	1550.41
1008.948	1570.07
1009.242	1539.56
1009.535	1524.2
1009.829	1531.88
1010.122	1520.36
1010.415	1491.43
1010.708	1480.58
1011.001	1495.5
1011.295	1454.59
1011.588	1464.31
1011.881	1465.44
1012.173	1426.57
1012.466	1432
1012.759	1446.91
1013.052	1474.93
1013.344	1451.43
1013.637	1433.13
1013.93	1407.14
1014.222	1413.47
1014.514	1417.99
1014.807	1408.27
1015.099	1383.41
1015.391	1373.92
1015.683	1350.42
1015.976	1362.62
1016.268	1369.17
1016.56	1347.48
1016.851	1325.78
1017.143	1345.22
1017.435	1320.59
1017.727	1303.64
1018.018	1293.02
1018.31	1272.45
1018.602	1312.45
1018.893	1302.28
1019.185	1264.99
1019.476	1246.92
1019.767	1262.28
1020.058	1253.92
1020.35	1249.18
1020.641	1240.59
1020.932	1221.38
1021.223	1221.83
1021.514	1209.63
1021.804	1163.98
1022.095	1191.32
1022.386	1198.56
1022.677	1184.77
1022.967	1178.9
1023.258	1192.91
1023.548	1123.53
1023.839	1153.13
1024.129	1155.62
1024.419	1131.89
1024.709	1122.4
1025	1157.2
1025.29	1131.89
1025.58	1103.87
1025.87	1105.9
1026.16	1096.19
1026.449	1112.46
1026.739	1078.33
1027.029	1087.37
1027.319	1053.93
1027.608	1059.12
1027.898	1062.74
1028.187	1032.23
1028.477	1021.61
1028.766	1038.79
1029.055	1047.15
1029.344	1010.76
1029.634	1029.75
1029.923	1010.76
1030.212	1012.8
1030.501	1004.44
1030.79	964.21
1031.078	990.65
1031.367	948.39
1031.656	975.29
1031.945	959.47
1032.233	963.31
1032.522	982.06
1032.81	950.88
1033.099	945.46
1033.387	947.49
1033.675	954.27
1033.963	940.71
1034.251	960.6
1034.54	931.44
1034.828	888.96
1035.116	892.12
1035.403	893.93
1035.691	911.56
1035.979	894.38
1036.267	897.77
1036.554	897.77
1036.842	870.43
1037.129	866.81
1037.417	853.71
1037.704	873.14
1037.992	863.42
1038.279	854.61
1038.566	827.04
1038.853	827.04
1039.14	827.04
