Data from hue_220_FLMS001491_00026.txt Node
Date: Tue Feb 07 16:39:11 GMT 2017
User: dcchb
Spectrometer: FLMS00149
Trigger mode: 0
Integration Time (sec): 2.000000E-2
Scans to average: 10
Electric dark correction enabled: true
Nonlinearity correction enabled: false
Boxcar width: 0
XAxis mode: Wavelengths
Number of Pixels in Spectrum: 2048
>>>>>Begin Spectral Data<<<<<
341.393	9.69
341.776	9.69
342.16	9.69
342.543	-48.16
342.927	-74.6
343.31	-74.38
343.693	-66.92
344.077	-70.08
344.46	-61.72
344.843	-41.38
345.226	-50.42
345.61	-31.67
345.993	3.81
346.376	-10.2
346.759	-0.03
347.142	26.64
347.525	36.81
347.908	65.28
348.291	78.61
348.674	78.16
349.057	117.48
349.44	133.3
349.823	171.72
350.206	155.67
350.588	201.55
350.971	226.63
351.354	228.44
351.737	235.67
352.119	234.99
352.502	261.43
352.884	277.25
353.267	293.75
353.65	282
354.032	309.12
354.414	310.25
354.797	312.96
355.179	313.86
355.562	338.95
355.944	298.49
356.326	331.71
356.709	326.06
357.091	331.26
357.473	360.19
357.855	333.3
358.238	325.16
358.62	326.29
359.002	355.44
359.384	350.25
359.766	349.12
360.148	326.29
360.53	342.56
360.912	333.75
361.294	319.29
361.676	331.04
362.057	321.32
362.439	316.35
362.821	320.87
363.203	330.36
363.584	324.48
363.966	318.16
364.348	340.98
364.729	326.74
365.111	310.92
365.493	309.12
365.874	315.22
366.256	300.3
366.637	304.6
367.019	323.35
367.4	322
367.781	304.6
368.163	291.49
368.544	321.32
368.925	309.79
369.306	328.32
369.688	304.6
370.069	310.02
370.45	306.4
370.831	315.9
371.212	311.38
371.593	303.47
371.974	289.46
372.355	325.16
372.736	305.95
373.117	329.68
373.498	311.15
373.879	311.83
374.26	308.66
374.641	315.44
375.021	312.05
375.402	328.78
375.783	317.93
376.163	323.35
376.544	316.35
376.925	324.03
377.305	319.06
377.686	314.54
378.066	310.7
378.447	310.92
378.827	315.44
379.208	310.25
379.588	336.91
379.968	332.62
380.349	334.43
380.729	324.03
381.109	330.81
381.489	314.77
381.87	333.75
382.25	344.14
382.63	336.23
383.01	357.02
383.39	329
383.77	338.04
384.15	336.23
384.53	334.65
384.91	330.81
385.29	344.37
385.67	349.79
386.049	347.31
386.429	365.61
386.809	336.46
387.189	350.92
387.568	359.51
387.948	358.38
388.328	350.92
388.707	369.68
389.087	359.28
389.466	334.65
389.846	338.95
390.225	334.88
390.605	347.08
390.984	346.63
391.363	345.73
391.743	358.83
392.122	368.1
392.501	353.18
392.881	371.49
393.26	376.69
393.639	379.85
394.018	356.12
394.397	359.28
394.776	362.22
395.155	391.83
395.534	382.56
395.913	376.91
396.292	362.45
396.671	378.49
397.05	379.62
397.429	394.31
397.808	386.18
398.186	395.22
398.565	394.76
398.944	398.15
399.323	387.53
399.701	371.71
400.08	418.72
400.458	411.71
400.837	411.71
401.215	401.09
401.594	411.94
401.972	398.83
402.351	402.9
402.729	425.27
403.107	413.29
403.486	430.92
403.864	423.46
404.242	444.25
404.62	421.88
404.999	427.76
405.377	419.62
405.755	436.57
406.133	434.99
406.511	454.65
406.889	454.42
407.267	462.78
407.645	468.89
408.023	468.43
408.401	487.19
408.779	470.47
409.156	479.51
409.534	500.98
409.912	479.96
410.29	490.35
410.667	491.94
411.045	501.65
411.422	530.35
411.8	502.78
412.178	547.98
412.555	539.62
412.933	552.05
413.31	567.64
413.687	547.75
414.065	577.58
414.442	573.29
414.819	599.28
415.197	587.07
415.574	586.17
415.951	596.11
416.328	610.35
416.705	616.68
417.082	592.95
417.46	620.52
417.837	654.87
418.214	656.45
418.591	657.81
418.967	674.98
419.344	655.1
419.721	684.7
420.098	684.02
420.475	691.03
420.852	687.86
421.228	717.47
421.605	722.66
421.982	734.19
422.358	745.26
422.735	768.77
423.111	764.47
423.488	765.38
423.864	812.61
424.241	801.53
424.617	825.71
424.994	858.71
425.37	867.52
425.746	851.93
426.123	862.77
426.499	870.01
426.875	872.72
427.251	890.34
427.627	933.05
428.003	935.99
428.379	948.42
428.756	933.28
429.132	958.82
429.507	986.84
429.883	979.61
430.259	1010.11
430.635	974.86
431.011	1019.38
431.387	1037.46
431.763	1033.16
432.138	1048.76
432.514	1077.68
432.89	1086.95
433.265	1136.44
433.641	1135.08
434.016	1160.39
434.392	1161.75
434.767	1164.69
435.143	1197.45
435.518	1229.54
435.894	1265.02
436.269	1287.85
436.644	1287.62
437.02	1309.77
437.395	1340.05
437.77	1316.77
438.145	1367.62
438.52	1397
438.895	1389.77
439.271	1411.23
439.646	1483.77
440.021	1446.49
440.395	1480.84
440.77	1500.72
441.145	1492.14
441.52	1533.26
441.895	1527.84
442.27	1580.5
442.645	1599.25
443.019	1628.86
443.394	1588.86
443.769	1609.19
444.143	1624.11
444.518	1654.39
444.892	1646.48
445.267	1677.89
445.641	1694.39
446.016	1716.08
446.39	1732.58
446.764	1746.59
447.139	1735.07
447.513	1747.27
447.887	1747.95
448.262	1761.28
448.636	1799.47
449.01	1803.31
449.384	1806.25
449.758	1844.22
450.132	1826.59
450.506	1853.93
450.88	1881.28
451.254	1857.1
451.628	1913.14
452.002	1888.96
452.376	1926.7
452.75	1943.65
453.123	2010.31
453.497	2016.87
453.871	1994.95
454.244	2032.23
454.618	2069.75
454.992	2082.18
455.365	2071.1
455.739	2113.36
456.112	2156.53
456.486	2169.63
456.859	2183.42
457.232	2233.59
457.606	2202.4
457.979	2245.11
458.352	2284.21
458.725	2280.59
459.099	2288.95
459.472	2351.1
459.845	2346.8
460.218	2404.2
460.591	2414.6
460.964	2368.27
461.337	2444.65
461.71	2500.7
462.083	2554.48
462.456	2508.38
462.829	2521.26
463.201	2581.37
463.574	2573.24
463.947	2629.51
464.32	2696.4
464.692	2709.73
465.065	2748.6
465.438	2758.32
465.81	2771.42
466.183	2825.66
466.555	2862.04
466.928	2892.78
467.3	2875.6
467.672	2934.36
468.045	2996.05
468.417	2994.47
468.789	3010.97
469.161	3028.14
469.534	3055.71
469.906	3173.22
470.278	3191.53
470.65	3191.53
471.022	3260
471.394	3314.69
471.766	3278.53
472.138	3360.34
472.51	3375.7
472.882	3462.25
473.253	3465.19
473.625	3529.14
473.997	3600.33
474.369	3626.54
474.74	3627.45
475.112	3682.13
475.484	3732.3
475.855	3862.24
476.227	3819.08
476.598	3948.57
476.97	3922.13
477.341	3991.51
477.713	4037.83
478.084	4057.49
478.455	4158.96
478.827	4210.48
479.198	4326.41
479.569	4322.57
479.94	4426.52
480.311	4449.8
480.682	4523.02
481.053	4581.55
481.424	4682.11
481.795	4733.41
482.166	4758.72
482.537	4817.7
482.908	4903.35
483.279	4916.68
483.65	5019.27
484.021	5086.84
484.391	5101.98
484.762	5139.72
485.133	5195.77
485.503	5256.78
485.874	5367.97
486.244	5389.21
486.615	5480.51
486.985	5579.26
487.356	5590.56
487.726	5624
488.097	5740.61
488.467	5702.19
488.837	5824
489.207	5914.17
489.578	6017.21
489.948	6007.95
490.318	6122.52
490.688	6085.01
491.058	6155.06
491.428	6284.55
491.798	6264.89
492.168	6375.17
492.538	6384.66
492.908	6426.02
493.278	6489.07
493.648	6484.77
494.017	6602.51
494.387	6607.03
494.757	6631.89
495.126	6714.37
495.496	6746.91
495.866	6831.88
496.235	6842.5
496.605	6866.46
496.974	6907.81
497.344	6937.87
497.713	6927.47
498.082	7004.31
498.452	6995.72
498.821	7028.71
499.19	7045.21
499.559	7119.33
499.928	7158.88
500.298	7150.29
500.667	7236.84
501.036	7215.15
501.405	7313.45
501.774	7251.31
502.143	7283.85
502.512	7317.07
502.88	7323.17
503.249	7384.64
503.618	7409.49
503.987	7373.34
504.356	7383.28
504.724	7458.76
505.093	7463.05
505.462	7466.22
505.83	7509.6
506.199	7522.03
506.567	7624.86
506.936	7562.48
507.304	7670.73
507.672	7632.31
508.041	7682.26
508.409	7759.77
508.777	7727.9
509.145	7763.38
509.514	7776.72
509.882	7749.15
510.25	7763.61
510.618	7759.54
510.986	7816.94
511.354	7842.25
511.722	7856.94
512.09	7912.31
512.458	7875.7
512.826	7883.83
513.193	7869.14
513.561	7861.01
513.929	7914.34
514.297	7941.01
514.664	7957.95
515.032	7967.9
515.4	8030.27
515.767	8075.69
516.135	8072.3
516.502	7914.57
516.869	8058.97
517.237	8059.87
517.604	8035.47
517.972	8028.46
518.339	8086.99
518.706	8010.83
519.073	8029.37
519.44	8071.4
519.808	8040.44
520.175	8037.95
520.542	8112.07
520.909	8104.17
521.276	8066.2
521.643	8108.23
522.009	8114.11
522.376	8136.03
522.743	8110.04
523.11	8190.04
523.477	8241.11
523.843	8193.2
524.21	8205.18
524.577	8244.5
524.943	8184.84
525.31	8197.72
525.676	8244.27
526.043	8233.43
526.409	8220.55
526.776	8279.08
527.142	8264.39
527.508	8254.22
527.874	8281.34
528.241	8269.36
528.607	8222.35
528.973	8286.99
529.339	8279.08
529.705	8275.01
530.071	8293.76
530.437	8290.38
530.803	8326.76
531.169	8282.92
531.535	8237.5
531.901	8213.32
532.267	8223.48
532.632	8209.47
532.998	8217.61
533.364	8222.58
533.73	8209.47
534.095	8234.78
534.461	8170.15
534.826	8251.73
535.192	8232.07
535.557	8154.79
535.923	8163.15
536.288	8169.47
536.653	8153.88
537.019	8081.57
537.384	8068.46
537.749	8046.31
538.114	8023.04
538.479	8007.67
538.845	8014.68
539.21	7928.12
539.575	7969.71
539.94	7975.58
540.305	7931.06
540.67	7963.38
541.034	7882.7
541.399	7893.32
541.764	7844.96
542.129	7860.33
542.494	7834.57
542.858	7770.61
543.223	7725.64
543.587	7772.2
543.952	7645.65
544.316	7639.09
544.681	7643.39
545.045	7639.09
545.41	7666.21
545.774	7573.78
546.138	7597.96
546.503	7612.88
546.867	7533.11
547.231	7593.67
547.595	7514.58
547.959	7535.14
548.324	7487.68
548.688	7427.8
549.052	7454.69
549.416	7428.93
549.779	7424.18
550.143	7375.15
550.507	7382.6
550.871	7315.94
551.235	7312.1
551.599	7290.85
551.962	7268.48
552.326	7215.15
552.689	7280.46
553.053	7261.7
553.417	7216.28
553.78	7228.03
554.143	7170.63
554.507	7147.58
554.87	7152.1
555.234	7220.12
555.597	7163.63
555.96	7166.34
556.323	7131.54
556.686	7068.49
557.05	7073.46
557.413	7105.1
557.776	7100.58
558.139	7124.98
558.502	7060.13
558.865	7087.69
559.228	7066.9
559.59	7018.77
559.953	7060.8
560.316	7118.43
560.679	7093.34
561.041	7065.77
561.404	7061.93
561.767	7003.86
562.129	7039.33
562.492	7109.16
562.854	7072.1
563.217	7043.85
563.579	7058.32
563.941	7025.78
564.304	7067.58
564.666	7121.59
565.028	7070.52
565.39	7100.8
565.753	7118.2
566.115	7100.58
566.477	7128.82
566.839	7096.73
567.201	7166.79
567.563	7122.04
567.925	7159.56
568.287	7217.64
568.648	7141.25
569.01	7220.35
569.372	7213.12
569.734	7165.21
570.095	7174.02
570.457	7210.63
570.819	7230.29
571.18	7252.89
571.542	7253.11
571.903	7253.57
572.265	7261.25
572.626	7248.37
572.987	7332.43
573.349	7295.6
573.71	7305.54
574.071	7293.79
574.432	7360.91
574.794	7343.96
575.155	7393.68
575.516	7344.19
575.877	7385.31
576.238	7328.14
576.599	7380.12
576.96	7444.75
577.32	7426.9
577.681	7410.17
578.042	7444.3
578.403	7485.88
578.763	7449.04
579.124	7442.04
579.485	7505.99
579.845	7527.01
580.206	7549.6
580.566	7563.16
580.927	7541.47
581.287	7546.21
581.648	7573.11
582.008	7597.06
582.368	7623.27
582.728	7652.43
583.089	7585.99
583.449	7684.97
583.809	7654.46
584.169	7688.13
584.529	7637.74
584.889	7706.89
585.249	7730.39
585.609	7666.66
585.969	7759.09
586.329	7718.19
586.688	7713.44
587.048	7731.52
587.408	7729.94
587.768	7763.84
588.127	7803.38
588.487	7794.12
588.846	7820.56
589.206	7812.65
589.565	7855.81
589.925	7848.13
590.284	7861.91
590.643	7885.41
591.003	7889.93
591.362	7896.26
591.721	7925.64
592.08	7877.05
592.44	7944.62
592.799	7966.99
593.158	7943.72
593.517	7972.87
593.876	7994.34
594.235	7975.13
594.593	8013.77
594.952	7975.58
595.311	7995.02
595.67	8030.5
596.029	8064.62
596.387	8054.22
596.746	8011.51
597.104	8068.01
597.463	8024.17
597.822	8046.54
598.18	8019.87
598.538	8078.4
598.897	8062.58
599.255	8018.97
599.613	8163.6
599.972	8118.63
600.33	8087.22
600.688	8075.24
601.046	8142.13
601.404	8137.16
601.762	8122.7
602.12	8151.17
602.478	8176.03
602.836	8228.46
603.194	8056.94
603.552	8149.14
603.91	8119.31
604.268	8185.75
604.625	8148.68
604.983	8147.1
605.341	8138.06
605.698	8190.94
606.056	8154.79
606.413	8207.89
606.771	8195.46
607.128	8169.93
607.485	8181.9
607.843	8157.72
608.2	8175.35
608.557	8209.02
608.914	8182.13
609.272	8228
609.629	8284.73
609.986	8319.08
610.343	8234.11
610.7	8296.02
611.057	8282.69
611.414	8317.04
611.771	8309.36
612.127	8324.05
612.484	8306.87
612.841	8291.28
613.198	8343.71
613.554	8329.7
613.911	8304.16
614.267	8339.64
614.624	8403.14
614.98	8335.12
615.337	8367.66
615.693	8394.33
616.05	8375.57
616.406	8476.36
616.762	8410.82
617.118	8332.86
617.475	8393.42
617.831	8343.93
618.187	8394.78
618.543	8444.27
618.899	8471.16
619.255	8403.37
619.611	8421.9
619.967	8516.36
620.323	8489.24
620.678	8468.22
621.034	8423.71
621.39	8362.24
621.746	8462.57
622.101	8519.75
622.457	8425.06
622.812	8504.15
623.168	8505.28
623.523	8464.83
623.879	8470.26
624.234	8456.7
624.589	8492.4
624.945	8461.22
625.3	8505.51
625.655	8412.63
626.01	8449.69
626.365	8474.78
626.72	8442.24
627.075	8489.01
627.43	8451.27
627.785	8463.25
628.14	8446.08
628.495	8443.59
628.85	8436.13
629.205	8364.72
629.559	8544.38
629.914	8394.78
630.269	8391.84
630.623	8422.58
630.978	8371.5
631.332	8397.72
631.687	8400.88
632.041	8361.79
632.396	8378.73
632.75	8345.74
633.104	8447.89
633.459	8333.76
633.813	8344.61
634.167	8342.58
634.521	8277.27
634.875	8329.92
635.229	8314.1
635.583	8296.7
635.937	8280.21
636.291	8221
636.645	8249.02
636.999	8322.69
637.352	8333.54
637.706	8194.11
638.06	8225.07
638.413	8209.47
638.767	8204.05
639.121	8236.37
639.474	8177.16
639.828	8151.17
640.181	8192.98
640.534	8174.45
640.888	8105.07
641.241	8171.06
641.594	8161.11
641.947	8150.94
642.301	8108.46
642.654	8158.4
643.007	8150.04
643.36	8123.37
643.713	8077.27
644.066	8173.99
644.419	8120.44
644.771	8043.38
645.124	7915.47
645.477	8006.09
645.83	7866.66
646.182	7925.64
646.535	7830.05
646.888	7884.74
647.24	7787.79
647.593	7915.92
647.945	7861.69
648.298	7802.93
648.65	7817.85
649.002	7828.47
649.355	7848.8
649.707	7760.67
650.059	7878.63
650.411	7887
650.763	7920.44
651.115	8048.8
651.467	8051.74
651.819	7978.29
652.171	8049.03
652.523	8010.83
652.875	7973.77
653.227	7939.42
653.578	8031.62
653.93	8068.91
654.282	7978.97
654.633	7975.13
654.985	7962.93
655.337	8056.48
655.688	7986.43
656.039	7998.41
656.391	7966.99
656.742	8035.92
657.094	7997.05
657.445	8017.39
657.796	8034.34
658.147	7982.13
658.498	7983.94
658.849	7992.98
659.2	7988.46
659.551	7968.35
659.902	8042.7
660.253	8052.64
660.604	8026.2
660.955	7994.34
661.306	8020.33
661.656	8086.09
662.007	8003.83
662.358	8070.95
662.708	8102.36
663.059	8066.65
663.409	8050.61
663.76	8076.14
664.11	8109.82
664.461	8140.32
664.811	8127.44
665.161	8073.88
665.511	8093.77
665.862	8016.26
666.212	8076.37
666.562	8125.86
666.912	8091.28
667.262	8072.08
667.612	8076.37
667.962	8070.04
668.312	8057.39
668.662	8142.81
669.011	8079.76
669.361	8084.28
669.711	8075.01
670.06	8037.95
670.41	8023.94
670.76	8029.37
671.109	8139.64
671.459	7967.45
671.808	8030.04
672.157	8069.82
672.507	8005.18
672.856	8002.47
673.205	7986.43
673.554	8049.25
673.904	7943.27
674.253	7969.71
674.602	7995.02
674.951	7839.77
675.3	7816.26
675.649	7972.87
675.998	7970.38
676.346	7998.18
676.695	7991.63
677.044	7943.27
677.393	7897.84
677.741	7963.15
678.09	7897.17
678.438	7852.65
678.787	7863.49
679.135	7910.95
679.484	7849.71
679.832	7875.02
680.181	7822.14
680.529	7865.3
680.877	7754.34
681.225	7846.09
681.573	7828.69
681.922	7738.3
682.27	7742.82
682.618	7778.07
682.966	7769.26
683.314	7697.17
683.661	7722.48
684.009	7741.24
684.357	7677.06
684.705	7605.42
685.053	7633.9
685.4	7640.67
685.748	7601.35
686.095	7541.69
686.443	7498.53
686.79	7591.18
687.138	7594.8
687.485	7477.29
687.832	7495.37
688.18	7457.4
688.527	7451.75
688.874	7459.89
689.221	7403.84
689.568	7362.94
689.915	7399.55
690.262	7392.55
690.609	7305.99
690.956	7313.9
691.303	7307.12
691.65	7224.41
691.997	7286.56
692.344	7251.08
692.69	7198.88
693.037	7143.74
693.383	7154.36
693.73	7129.95
694.077	7093.57
694.423	7055.61
694.769	7088.15
695.116	7041.82
695.462	7033.69
695.808	7010.63
696.155	6965.66
696.501	6949.39
696.847	6923.18
697.193	6886.57
697.539	6938.09
697.885	6804.09
698.231	6842.5
698.577	6856.29
698.923	6776.06
699.269	6790.3
699.614	6734.26
699.96	6738.55
700.306	6736.97
700.651	6668.5
700.997	6690.19
701.342	6611.32
701.688	6601.61
702.033	6591.89
702.379	6562.51
702.724	6507.82
703.069	6565.22
703.415	6449.52
703.76	6462.17
704.105	6415.17
704.45	6478.45
704.795	6376.98
705.14	6387.37
705.485	6400.71
705.83	6315.29
706.175	6324.55
706.52	6303.76
706.865	6308.51
707.209	6281.61
707.554	6235.51
707.899	6255.85
708.243	6180.15
708.588	6169.53
708.932	6188.96
709.277	6153.71
709.621	6173.82
709.966	6086.82
710.31	6125.46
710.654	6129.3
710.998	6127.04
711.342	6103.09
711.687	6003.2
712.031	6005.92
712.375	5978.57
712.719	6025.12
713.063	6040.26
713.407	5986.71
713.75	5980.15
714.094	5908.52
714.438	5922.3
714.782	5896.09
715.125	5955.3
715.469	5904.9
715.812	5939.7
716.156	5833.26
716.499	5826.03
716.843	5908.97
717.186	5839.82
717.53	5884.34
717.873	5885.92
718.216	5863.77
718.559	5800.72
718.902	5798.69
719.246	5804.34
719.589	5772.25
719.932	5757.11
720.275	5745.81
720.617	5767.73
720.96	5752.81
721.303	5757.56
721.646	5790.55
721.989	5764.79
722.331	5738.8
722.674	5725.47
723.016	5690.67
723.359	5739.48
723.701	5719.82
724.044	5682.08
724.386	5732.02
724.729	5776.09
725.071	5685.02
725.413	5751.91
725.755	5713.04
726.097	5654.74
726.439	5644.34
726.782	5617
727.124	5689.09
727.465	5666.04
727.807	5711.46
728.149	5611.35
728.491	5669.88
728.833	5689.09
729.175	5704.68
729.516	5687.51
729.858	5648.64
730.199	5655.64
730.541	5673.72
730.882	5653.16
731.224	5652.7
731.565	5713.49
731.906	5620.16
732.248	5648.64
732.589	5639.6
732.93	5661.07
733.271	5608.86
733.612	5655.19
733.953	5648.41
734.294	5616.1
734.635	5664.23
734.976	5675.08
735.317	5652.03
735.658	5662.42
735.999	5695.19
736.339	5679.82
736.68	5711.91
737.021	5681.4
737.361	5665.36
737.702	5688.41
738.042	5646.38
738.383	5637.56
738.723	5738.13
739.063	5709.88
739.404	5753.72
739.744	5739.71
740.084	5678.01
740.424	5745.36
740.764	5734.28
741.104	5814.51
741.444	5798.01
741.784	5751.01
742.124	5800.27
742.464	5884.79
742.804	5825.81
743.143	5755.98
743.483	5856.99
743.823	5826.71
744.162	5893.15
744.502	5921.62
744.841	5925.92
745.181	5958.46
745.52	6051.34
745.86	6068.96
746.199	6047.95
746.538	6092.47
746.877	6103.09
747.216	6145.8
747.556	6216.76
747.895	6291.33
748.234	6290.2
748.573	6360.71
748.911	6396.64
749.25	6435.73
749.589	6529.97
749.928	6568.16
750.267	6596.41
750.605	6682.96
750.944	6722.96
751.283	6832.11
751.621	6877.08
751.96	6947.81
752.298	6967.02
752.636	7094.93
752.975	7212.66
753.313	7251.31
753.651	7424.18
753.989	7425.09
754.327	7597.06
754.666	7658.08
755.004	7821.46
755.342	7920.22
755.679	8077.05
756.017	8121.34
756.355	8320.43
756.693	8408.56
757.031	8517.71
757.368	8675
757.706	8792.51
758.044	8939.85
758.381	9096.68
758.719	9219.16
759.056	9404.02
759.394	9531.92
759.731	9621.41
760.068	9851.69
760.405	9940.28
760.743	10083.55
761.08	10344.56
761.417	10442.86
761.754	10614.16
762.091	10803.3
762.428	10962.62
762.765	11047.59
763.102	11330.97
763.438	11448.71
763.775	11587.01
764.112	11788.59
764.449	11934.8
764.785	12170.05
765.122	12151.52
765.458	12345.64
765.795	12550.83
766.131	12787.66
766.467	12908.33
766.804	13074.66
767.14	13097.71
767.476	13270.58
767.812	13359.17
768.148	13599.16
768.485	13635.77
768.821	13753.96
769.157	13915.31
769.492	14002.09
769.828	14257.9
770.164	14301.29
770.5	14325.47
770.836	14565.92
771.171	14608.4
771.507	14691.11
771.842	14766.14
772.178	14865.8
772.513	15030.76
772.849	15092.23
773.184	15199.57
773.519	15313.02
773.855	15349.85
774.19	15478.21
774.525	15508.04
774.86	15618.54
775.195	15682.72
775.53	15671.42
775.865	15802.72
776.2	15756.85
776.535	15772.66
776.87	15827.35
777.205	15988.03
777.539	15987.12
777.874	16112.54
778.209	16012.66
778.543	16077.29
778.878	16170.17
779.212	16181.92
779.547	16174.01
779.881	16319.09
780.215	16232.77
780.55	16319.54
780.884	16314.12
781.218	16368.58
781.552	16438.41
781.886	16419.43
782.22	16420.33
782.554	16426.66
782.888	16306.44
783.222	16331.75
783.556	16326.1
783.889	16381.69
784.223	16213.33
784.557	16304.18
784.89	16440.22
785.224	16317.96
785.557	16305.98
785.891	16357.96
786.224	16326.32
786.558	16352.99
786.891	16247.91
787.224	16371.52
787.557	16197.96
787.891	16256.95
788.224	16261.01
788.557	16243.61
788.89	16329.71
789.223	16297.17
789.556	16249.94
789.888	16230.73
790.221	16239.32
790.554	16178.3
790.887	16165.87
791.219	16011.3
791.552	16165.2
791.884	16024.86
792.217	16029.38
792.549	15969.27
792.882	15967.69
793.214	15927.91
793.546	15940.8
793.879	15912.55
794.211	15788.03
794.543	15842.95
794.875	15769.27
795.207	15931.98
795.539	15749.61
795.871	15814.92
796.203	15708.26
796.535	15684.31
796.867	15668.94
797.198	15717.3
797.53	15606.57
797.862	15537.19
798.193	15623.06
798.525	15389.85
798.856	15532.9
799.188	15310.08
799.519	15352.11
799.85	15269.17
800.182	15292.23
800.513	15346.46
800.844	15240.02
801.175	15307.37
801.506	15228.5
801.837	15188.72
802.168	15087.71
802.499	15158.44
802.83	15068.5
803.161	14962.06
803.491	14966.13
803.822	15022.4
804.153	14903.76
804.483	14850.43
804.814	14886.13
805.145	14835.29
805.475	14816.31
805.805	14815.85
806.136	14724.1
806.466	14812.24
806.796	14674.39
807.126	14591.68
807.457	14595.75
807.787	14604.79
808.117	14505.81
808.447	14472.36
808.777	14506.93
809.107	14519.82
809.436	14409.76
809.766	14438.69
810.096	14384.9
810.426	14383.1
810.755	14324.57
811.085	14319.82
811.414	14319.82
811.744	14171.58
812.073	14222.42
812.403	14230.11
812.732	14141.52
813.061	14155.98
813.39	14063.1
813.719	14031.02
814.049	14148.53
814.378	14017
814.707	13989.89
815.036	14003.9
815.365	13927.97
815.693	13789.67
816.022	13836.9
816.351	13820.85
816.68	13761.87
817.008	13923.45
817.337	13654.3
817.665	13652.27
817.994	13687.75
818.322	13695.2
818.651	13630.12
818.979	13603.68
819.307	13671.48
819.636	13600.97
819.964	13548.54
820.292	13611.59
820.62	13569.33
820.948	13628.99
821.276	13516.45
821.604	13620.63
821.932	13592.16
822.259	13526.62
822.587	13483.23
822.915	13537.92
823.243	13548.54
823.57	13510.35
823.898	13492.95
824.225	13476.68
824.553	13522.33
824.88	13585.15
825.207	13589.22
825.535	13558.03
825.862	13552.38
826.189	13470.58
826.516	13533.63
826.843	13606.39
827.17	13563.23
827.497	13577.92
827.824	13659.05
828.151	13536.11
828.478	13516.45
828.805	13695.43
829.131	13628.54
829.458	13567.98
829.785	13518.03
830.111	13541.08
830.438	13539.5
830.764	13570.91
831.09	13588.77
831.417	13465.15
831.743	13561.2
832.069	13579.5
832.395	13507.19
832.722	13494.08
833.048	13564.36
833.374	13527.75
833.7	13495.89
834.026	13576.11
834.351	13499.5
834.677	13482.33
835.003	13527.3
835.329	13458.37
835.654	13410.92
835.98	13324.82
836.306	13384.48
836.631	13352.16
836.956	13397.13
837.282	13462.67
837.607	13344.93
837.932	13282.56
838.258	13311.71
838.583	13305.38
838.908	13248.89
839.233	13321.2
839.558	13218.83
839.883	13168.44
840.208	13142.23
840.533	13196.91
840.858	13137.48
841.182	13179.06
841.507	13140.87
841.832	13069.23
842.156	13122.11
842.481	13101.77
842.805	13027.65
843.13	12937.26
843.454	12940.2
843.778	12946.75
844.103	12856.81
844.427	12793.08
844.751	12853.65
845.075	12814.1
845.399	12749.69
845.723	12676.25
846.047	12681.67
846.371	12575.69
846.695	12593.99
847.019	12483.94
847.343	12496.59
847.666	12523.94
847.99	12355.81
848.313	12313.32
848.637	12219.09
848.96	12219.99
849.284	12193.32
849.607	12117.62
849.931	12069.94
850.254	12020.67
850.577	11989.26
850.9	11810.51
851.223	11909.04
851.546	11767.8
851.869	11679.44
852.192	11823.39
852.515	11714.24
852.838	11634.47
853.161	11568.71
853.483	11556.96
853.806	11550.63
854.129	11522.38
854.451	11490.97
854.774	11475.15
855.096	11332.56
855.419	11375.04
855.741	11293.69
856.063	11306.34
856.385	11262.95
856.708	11275.16
857.03	11100.02
857.352	11157.42
857.674	11107.7
857.996	11089.17
858.318	11046.69
858.64	10996.97
858.961	11062.05
859.283	10946.58
859.605	10969.63
859.926	10947.48
860.248	10832.68
860.57	10855.51
860.891	10837.65
861.212	10815.05
861.534	10793.59
861.855	10766.92
862.176	10779.12
862.498	10688.05
862.819	10738.67
863.14	10679.24
863.461	10657.09
863.782	10647.6
864.103	10585
864.424	10542.52
864.745	10623.87
865.065	10615.06
865.386	10530.54
865.707	10479.47
866.027	10493.93
866.348	10487.38
866.668	10427.72
866.989	10454.84
867.309	10394.95
867.63	10438.12
867.95	10398.12
868.27	10317.21
868.59	10385.91
868.91	10289.87
869.23	10258.69
869.55	10215.75
869.87	10313.82
870.19	10253.94
870.51	10182.3
870.83	10269.53
871.15	10217.56
871.469	10202.19
871.789	10232.02
872.109	10191.79
872.428	10105.02
872.748	10118.12
873.067	10134.62
873.386	10109.54
873.706	10112.7
874.025	10027.73
874.344	10062.08
874.663	10029.31
874.982	10024.57
875.301	9957.45
875.62	10001.97
875.939	10006.49
876.258	9935.98
876.577	9950.9
876.896	9924.46
877.214	9851.46
877.533	9867.06
877.852	9871.12
878.17	9879.49
878.489	9895.08
878.807	9867.06
879.125	9830
879.444	9857.11
879.762	9786.16
880.08	9811.24
880.398	9770.34
880.716	9738.25
881.034	9686.04
881.352	9717.91
881.67	9634.52
881.988	9667.29
882.306	9621.87
882.624	9576.22
882.941	9555.65
883.259	9615.54
883.577	9589.1
883.894	9512.94
884.212	9524.02
884.529	9500.29
884.846	9479.27
885.164	9469.78
885.481	9399.72
885.798	9433.17
886.115	9322.66
886.432	9331.48
886.75	9311.59
887.067	9317.69
887.383	9267.3
887.7	9262.78
888.017	9298.94
888.334	9312.5
888.651	9202.44
888.967	9196.57
889.284	9144.14
889.6	9104.14
889.917	9094.65
890.233	9117.7
890.55	9028.89
890.866	9040.19
891.182	8991.37
891.498	8942.56
891.815	8929.45
892.131	8906.18
892.447	8885.16
892.763	8854.2
893.079	8829.12
893.395	8850.59
893.71	8723.58
894.026	8732.17
894.342	8719.06
894.657	8650.82
894.973	8626.19
895.289	8638.16
895.604	8588.22
895.92	8541.22
896.235	8557.49
896.55	8520.88
896.865	8456.25
897.181	8553.87
897.496	8434.55
897.811	8444.95
898.126	8364.5
898.441	8301
898.756	8323.14
899.071	8265.52
899.386	8211.96
899.7	8247.44
900.015	8146.65
900.33	8093.32
900.644	8123.83
900.959	8173.32
901.273	8088.12
901.588	8061
901.902	8007.44
902.216	8008.57
902.531	8025.98
902.845	7959.76
903.159	7879.99
903.473	7814.23
903.787	7851.29
904.101	7817.39
904.415	7832.76
904.729	7764.06
905.042	7761.35
905.356	7681.58
905.67	7704.63
905.984	7691.29
906.297	7630.73
906.611	7600.22
906.924	7592.31
907.237	7532.43
907.551	7448.82
907.864	7460.34
908.177	7478.65
908.491	7425.99
908.804	7363.17
909.117	7294.47
909.43	7256.28
909.743	7225.09
910.056	7257.18
910.368	7206.11
910.681	7167.47
910.994	7165.89
911.307	7130.41
911.619	7103.74
911.932	7044.08
912.244	7039.33
912.557	7036.62
912.869	6984.87
913.181	6939.9
913.494	6886.34
913.806	6882.28
914.118	6887.47
914.43	6828.49
914.742	6801.37
915.054	6848.38
915.366	6748.27
915.678	6739.46
915.99	6746.46
916.302	6656.97
916.613	6675.5
916.925	6607.26
917.236	6643.19
917.548	6560.7
917.859	6538.33
918.171	6533.59
918.482	6522.51
918.794	6461.27
919.105	6443.19
919.416	6404.32
919.727	6387.83
920.038	6381.5
920.349	6336.98
920.66	6285.23
920.971	6308.28
921.282	6328.17
921.593	6235.51
921.903	6215.4
922.214	6191
922.525	6207.04
922.835	6200.03
923.146	6079.59
923.456	6080.72
923.767	6047.04
924.077	6071.68
924.387	6027.16
924.697	6031
925.008	5928.4
925.318	5916.2
925.628	5982.64
925.938	5852.7
926.248	5848.86
926.558	5774.28
926.867	5768.86
927.177	5771.8
927.487	5759.59
927.796	5742.42
928.106	5708.3
928.416	5708.97
928.725	5682.99
929.034	5645.02
929.344	5611.35
929.653	5614.51
929.962	5632.82
930.271	5546.49
930.581	5561.86
930.89	5512.14
931.199	5522.09
931.508	5489.54
931.817	5461.75
932.125	5437.57
932.434	5457.23
932.743	5399.6
933.051	5369.55
933.36	5343.33
933.669	5336.78
933.977	5308.31
934.286	5310.57
934.594	5278.03
934.902	5209.78
935.21	5199.16
935.519	5202.55
935.827	5157.12
936.135	5157.58
936.443	5134.75
936.751	5114.64
937.059	5131.59
937.367	5045.71
937.674	5050.01
937.982	5045.04
938.29	5000.29
938.597	5017.69
938.905	4929.79
939.213	4950.35
939.52	4915.1
939.827	4900.18
940.135	4859.28
940.442	4748.1
940.749	4879.39
941.056	4817.47
941.363	4830.35
941.67	4766.63
941.977	4749.23
942.284	4727.76
942.591	4722.11
942.898	4684.37
943.205	4622
943.511	4693.86
943.818	4629.45
944.125	4612.96
944.431	4604.82
944.738	4554.88
945.044	4552.17
945.35	4457.26
945.657	4545.16
945.963	4513.75
946.269	4503.58
946.575	4457.26
946.881	4435.11
947.187	4442.34
947.493	4367.09
947.799	4447.76
948.105	4390.14
948.41	4327.99
948.716	4316.02
949.022	4374.77
949.327	4328.9
949.633	4264.27
949.938	4290.25
950.244	4268.79
950.549	4220.88
950.854	4253.19
951.16	4160.09
951.465	4157.83
951.77	4174.33
952.075	4140.88
952.38	4103.82
952.685	4108.11
952.99	4055.46
953.294	4061.79
953.599	4078.73
953.904	4045.52
954.209	4005.29
954.513	4011.39
954.818	4002.58
955.122	3950.6
955.426	3956.48
955.731	3894.33
956.035	3909.25
956.339	3911.28
956.643	3857.27
956.948	3879.87
957.252	3847.33
957.556	3824.28
957.86	3794.22
958.163	3797.84
958.467	3760.32
958.771	3766.2
959.075	3768.01
959.378	3742.25
959.682	3747.9
959.985	3734.34
960.289	3697.73
960.592	3660.21
960.896	3637.16
961.199	3637.62
961.502	3646.2
961.805	3588.8
962.108	3582.25
962.411	3599.43
962.714	3554.68
963.017	3554
963.32	3565.75
963.623	3528.69
963.926	3495.47
964.228	3477.17
964.531	3466.55
964.833	3465.64
965.136	3423.61
965.438	3443.72
965.741	3386.32
966.043	3407.11
966.345	3381.13
966.648	3407.79
966.95	3365.76
967.252	3361.92
967.554	3337.06
967.856	3323.5
968.158	3263.39
968.46	3314.01
968.761	3286.21
969.063	3272.2
969.365	3245.08
969.666	3252.32
969.968	3182.71
970.269	3190.4
970.571	3170.06
970.872	3172.54
971.174	3196.27
971.475	3174.8
971.776	3171.41
972.077	3127.12
972.378	3087.8
972.679	3077.86
972.98	3084.18
973.281	3074.24
973.582	3068.37
973.883	3004.64
974.183	3003.73
974.484	3033.56
974.785	3027.46
975.085	2971.87
975.386	3012.77
975.686	2942.27
975.986	2958.09
976.287	2952.89
976.587	2918.54
976.887	2890.07
977.187	2898.2
977.487	2896.62
977.787	2867.02
978.087	2835.15
978.387	2836.96
978.687	2832.21
978.987	2822.95
979.286	2848.03
979.586	2815.04
979.885	2778.88
980.185	2796.51
980.484	2748.15
980.784	2756.28
981.083	2738.2
981.382	2729.39
981.682	2727.58
981.981	2708.83
982.28	2690.52
982.579	2679.68
982.878	2647.59
983.177	2646.68
983.475	2636.29
983.774	2622.5
984.073	2603.29
984.372	2605.33
984.67	2610.52
984.969	2561.94
985.267	2574.59
985.566	2579.11
985.864	2530.07
986.162	2562.39
986.461	2538.21
986.759	2528.49
987.057	2472.45
987.355	2483.75
987.653	2498.21
987.951	2469.06
988.249	2435.16
988.547	2413.69
988.844	2424.54
989.142	2426.8
989.44	2402.17
989.737	2426.35
990.035	2381.6
990.332	2371.89
990.63	2371.66
990.927	2355.62
991.224	2349.74
991.521	2317.2
991.819	2354.94
992.116	2351.55
992.413	2281.95
992.71	2253.7
993.006	2298.22
993.303	2252.12
993.6	2285.79
993.897	2273.81
994.193	2228.39
994.49	2239.46
994.787	2220.48
995.083	2182.29
995.379	2198.78
995.676	2166.69
995.972	2188.84
996.268	2182.29
996.565	2128.5
996.861	2119.46
997.157	2160.14
997.453	2102.52
997.749	2148.39
998.044	2118.33
998.34	2089.86
998.636	2098.67
998.932	2075.17
999.227	2057.09
999.523	2034.95
999.818	1993.37
1000.114	2007.38
1000.409	2000.6
1000.704	2024.78
1001	1994.5
1001.295	1987.49
1001.59	1989.75
1001.885	1967.6
1002.18	1967.6
1002.475	1946.14
1002.77	1962.41
1003.065	1926.25
1003.359	1892.35
1003.654	1888.51
1003.949	1901.84
1004.243	1902.07
1004.538	1880.6
1004.832	1886.7
1005.127	1855.06
1005.421	1838.12
1005.715	1802.86
1006.009	1837.89
1006.304	1832.92
1006.598	1815.74
1006.892	1773.71
1007.186	1750.43
1007.48	1756.76
1007.773	1771.9
1008.067	1725.58
1008.361	1734.16
1008.655	1714.5
1008.948	1712.47
1009.242	1683.09
1009.535	1689.42
1009.829	1667.5
1010.122	1674.96
1010.415	1682.87
1010.708	1651
1011.001	1680.83
1011.295	1646.03
1011.588	1663.88
1011.881	1629.08
1012.173	1648.29
1012.466	1608.74
1012.759	1592.7
1013.052	1594.05
1013.344	1570.78
1013.637	1566.94
1013.93	1556.99
1014.222	1535.98
1014.514	1540.5
1014.807	1534.62
1015.099	1525.13
1015.391	1518.8
1015.683	1509.76
1015.976	1499.14
1016.268	1525.81
1016.56	1453.27
1016.851	1464.34
1017.143	1453.49
1017.435	1443.78
1017.727	1428.63
1018.018	1462.53
1018.31	1440.39
1018.602	1454.17
1018.893	1408.97
1019.185	1397.9
1019.476	1402.65
1019.767	1371.91
1020.058	1357.9
1020.35	1353.83
1020.641	1377.34
1020.932	1353.61
1021.223	1355.87
1021.514	1332.59
1021.804	1323.1
1022.095	1314.51
1022.386	1331.46
1022.677	1309.77
1022.967	1281.52
1023.258	1301.86
1023.548	1268.86
1023.839	1259.37
1024.129	1280.62
1024.419	1261.18
1024.709	1261.86
1025	1229.77
1025.29	1221.63
1025.58	1230.45
1025.87	1183.9
1026.16	1202.43
1026.449	1202.65
1026.739	1206.04
1027.029	1165.82
1027.319	1186.83
1027.608	1179.6
1027.898	1139.6
1028.187	1126.72
1028.477	1142.09
1028.766	1130.34
1029.055	1117.23
1029.344	1132.37
1029.634	1138.92
1029.923	1126.27
1030.212	1120.62
1030.501	1131.47
1030.79	1098.47
1031.078	1091.02
1031.367	1053.5
1031.656	1090.56
1031.945	1068.42
1032.233	1055.31
1032.522	1075.2
1032.81	1040.4
1033.099	1036.55
1033.387	1017.57
1033.675	1004.92
1033.963	1022.32
1034.251	1029.78
1034.54	1008.98
1034.828	1000.85
1035.116	976.22
1035.403	962.88
1035.691	986.61
1035.979	951.13
1036.267	958.82
1036.554	955.65
1036.842	933.73
1037.129	941.87
1037.417	930.57
1037.704	938.7
1037.992	918.82
1038.279	908.65
1038.566	939.38
1038.853	939.38
1039.14	939.38
