Data from hue_300_FLMS001491_00085.txt Node
Date: Tue Feb 07 15:51:19 GMT 2017
User: dcchb
Spectrometer: FLMS00149
Trigger mode: 0
Integration Time (sec): 2.000000E-2
Scans to average: 10
Electric dark correction enabled: true
Nonlinearity correction enabled: false
Boxcar width: 0
XAxis mode: Wavelengths
Number of Pixels in Spectrum: 2048
>>>>>Begin Spectral Data<<<<<
341.393	-3.81
341.776	-3.81
342.16	-3.81
342.543	-44.49
342.927	-57.37
343.31	-71.61
343.693	-61.89
344.077	-66.41
344.46	-65.96
344.843	-38.39
345.226	-52.17
345.61	-54.66
345.993	-20.99
346.376	3.42
346.759	23.08
347.142	27.15
347.525	31.67
347.908	58.33
348.291	75.05
348.674	102.85
349.057	110.53
349.44	143.75
349.823	126.8
350.206	150.31
350.588	204.09
350.971	206.58
351.354	209.51
351.737	227.37
352.119	247.48
352.502	265.78
352.884	270.53
353.267	289.29
353.65	278.66
354.032	310.53
354.414	296.29
354.797	319.12
355.179	310.08
355.562	322.51
355.944	333.8
356.326	308.72
356.709	325.44
357.091	318.89
357.473	343.75
357.855	353.01
358.238	345.78
358.62	335.84
359.002	332.9
359.384	334.26
359.766	337.65
360.148	324.31
360.53	327.03
360.912	326.12
361.294	350.08
361.676	334.71
362.057	345.56
362.439	341.94
362.821	337.87
363.203	340.58
363.584	350.75
363.966	313.24
364.348	336.97
364.729	316.86
365.111	329.29
365.493	337.65
365.874	328.83
366.256	319.57
366.637	324.31
367.019	326.57
367.4	333.35
367.781	343.75
368.163	316.4
368.544	329.96
368.925	316.4
369.306	327.48
369.688	314.6
370.069	318.21
370.45	326.8
370.831	327.7
371.212	315.05
371.593	320.02
371.974	322.96
372.355	322.05
372.736	339
373.117	330.42
373.498	336.97
373.879	323.86
374.26	334.71
374.641	329.74
375.021	322.05
375.402	313.24
375.783	317.08
376.163	328.16
376.544	331.54
376.925	336.97
377.305	323.86
377.686	336.52
378.066	337.65
378.447	321.83
378.827	337.42
379.208	344.43
379.588	348.04
379.968	326.35
380.349	335.61
380.729	345.1
381.109	359.79
381.489	360.02
381.87	353.01
382.25	333.35
382.63	353.69
383.01	338.1
383.39	362.96
383.77	348.72
384.15	385.1
384.53	352.79
384.91	351.88
385.29	376.52
385.67	374.93
386.049	368.38
386.429	358.21
386.809	377.19
387.189	372.45
387.568	355.27
387.948	372
388.328	387.14
388.707	393.01
389.087	374.48
389.466	395.5
389.846	375.61
390.225	371.32
390.605	386.23
390.984	407.25
391.363	390.53
391.743	395.27
392.122	402.73
392.501	413.12
392.881	402.96
393.26	411.77
393.639	412.22
394.018	396.85
394.397	392.56
394.776	434.59
395.155	423.52
395.534	415.38
395.913	417.42
396.292	424.65
396.671	412.9
397.05	419.68
397.429	433.24
397.808	442.28
398.186	448.6
398.565	423.07
398.944	421.94
399.323	443.41
399.701	410.19
400.08	430.3
400.458	466
400.837	450.19
401.215	464.2
401.594	469.62
401.972	454.25
402.351	461.71
402.729	470.3
403.107	472.11
403.486	487.25
403.864	471.2
404.242	483.18
404.62	499.68
404.999	480.69
405.377	489.51
405.755	509.85
406.133	520.69
406.511	515.72
406.889	542.16
407.267	523.86
407.645	524.99
408.023	528.15
408.401	552.1
408.779	564.99
409.156	553.91
409.534	534.25
409.912	564.08
410.29	588.04
410.667	557.98
411.045	584.19
411.422	577.87
411.8	599.11
412.178	613.35
412.555	627.58
412.933	643.85
413.31	635.94
413.687	640.92
414.065	690.86
414.442	695.83
414.819	701.48
415.197	689.05
415.574	712.78
415.951	701.7
416.328	733.12
416.705	729.27
417.082	738.77
417.46	737.64
417.837	764.98
418.214	763.85
418.591	799.78
418.967	803.4
419.344	821.48
419.721	826.45
420.098	793.68
420.475	837.29
420.852	831.19
421.228	866.45
421.605	880.01
421.982	858.99
422.358	865.09
422.735	908.7
423.111	923.39
423.488	914.81
423.864	905.99
424.241	943.96
424.617	957.52
424.994	975.6
425.37	954.58
425.746	986.67
426.123	981.25
426.499	990.96
426.875	1025.76
427.251	1033.67
427.627	1038.42
428.003	1046.78
428.379	1054.69
428.756	1074.35
429.132	1106.67
429.507	1089.27
429.883	1126.55
430.259	1144.63
430.635	1148.02
431.011	1168.13
431.387	1175.36
431.763	1157.51
432.138	1209.04
432.514	1220.11
432.89	1222.82
433.265	1256.04
433.641	1270.73
434.016	1278.41
434.392	1296.94
434.767	1325.42
435.143	1290.16
435.518	1324.74
435.894	1367.22
436.269	1366.09
436.644	1373.33
437.02	1378.3
437.395	1402.7
437.77	1416.26
438.145	1458.75
438.52	1467.11
438.895	1460.78
439.271	1452.65
439.646	1513.66
440.021	1492.87
440.395	1511.17
440.77	1504.62
441.145	1494.45
441.52	1540.78
441.895	1532.19
442.27	1534.9
442.645	1538.74
443.019	1573.77
443.394	1552.98
443.769	1589.36
444.143	1578.97
444.518	1617.61
444.892	1594.34
445.267	1636.82
445.641	1621.68
446.016	1639.31
446.39	1609.93
446.764	1665.75
447.139	1656.71
447.513	1683.37
447.887	1679.98
448.262	1678.63
448.636	1636.37
449.01	1689.02
449.384	1717.27
449.758	1705.52
450.132	1682.24
450.506	1718.18
450.88	1707.78
451.254	1736.93
451.628	1749.13
452.002	1744.16
452.376	1744.84
452.75	1736.03
453.123	1803.82
453.497	1778.06
453.871	1811.96
454.244	1823.03
454.618	1832.07
454.992	1834.78
455.365	1832.07
455.739	1878.17
456.112	1918.85
456.486	1881.79
456.859	1903.26
457.232	1944.84
457.606	1964.95
457.979	1978.28
458.352	2001.78
458.725	2020.31
459.099	2009.92
459.472	2055.12
459.845	2085.17
460.218	2085.62
460.591	2103.7
460.964	2074.55
461.337	2110.26
461.71	2145.28
462.083	2174.89
462.456	2156.58
462.829	2185.51
463.201	2180.08
463.574	2197.94
463.947	2249.01
464.32	2262.12
464.692	2313.64
465.065	2257.37
465.438	2309.8
465.81	2327.2
466.183	2379.63
466.555	2376.01
466.928	2409.68
467.3	2411.26
467.672	2435.22
468.045	2430.47
468.417	2450.36
468.789	2489.68
469.161	2507.76
469.534	2522.22
469.906	2565.84
470.278	2606.97
470.65	2597.25
471.022	2627.3
471.394	2681.77
471.766	2689
472.138	2733.74
472.51	2749.56
472.882	2760.63
473.253	2795.66
473.625	2811.48
473.997	2880.86
474.369	2847.19
474.74	2917.24
475.112	2926.28
475.484	2940.52
475.855	3011.93
476.227	3020.97
476.598	3085.37
476.97	3071.81
477.341	3167.4
477.713	3129.89
478.084	3198.81
478.455	3293.27
478.827	3241.52
479.198	3353.61
479.569	3386.38
479.94	3404.68
480.311	3382.31
480.682	3466.6
481.053	3507.51
481.424	3564.68
481.795	3603.55
482.166	3612.59
482.537	3628.86
482.908	3736.43
483.279	3713.15
483.65	3803.54
484.021	3796.31
484.391	3827.05
484.762	3897.55
485.133	3922.86
485.503	3970.55
485.874	4024.56
486.244	4018.91
486.615	4119.02
486.985	4111.11
487.356	4207.6
487.726	4209.64
488.097	4263.87
488.467	4245.57
488.837	4325.56
489.207	4415.05
489.578	4457.54
489.948	4485.79
490.318	4508.16
490.688	4480.81
491.058	4558.1
491.428	4594.94
491.798	4666.35
492.168	4651.88
492.538	4737.08
492.908	4761.94
493.278	4801.71
493.648	4789.73
494.017	4847.36
494.387	4865.21
494.757	4916.74
495.126	4962.84
495.496	4918.99
495.866	4985.43
496.235	5009.61
496.605	5018.2
496.974	5020.69
497.344	5051.42
497.713	5145.66
498.082	5120.57
498.452	5166.45
498.821	5197.86
499.19	5190.4
499.559	5257.29
499.928	5234.01
500.298	5288.25
500.667	5362.83
501.036	5322.15
501.405	5386.78
501.774	5357.85
502.143	5434.01
502.512	5438.3
502.88	5450.28
503.249	5443.27
503.618	5470.62
503.987	5490.96
504.356	5565.76
504.724	5576.6
505.093	5552.42
505.462	5568.92
505.83	5656.83
506.199	5648.24
506.567	5747
506.936	5710.84
507.304	5741.57
507.672	5740.44
508.041	5733.21
508.409	5780.89
508.777	5825.64
509.145	5834.9
509.514	5864.73
509.882	5846.65
510.25	5843.72
510.618	5920.78
510.986	5929.14
511.354	5943.15
511.722	6010.94
512.09	6048.23
512.458	5988.12
512.826	6072.86
513.193	6068.57
513.561	6073.54
513.929	6137.49
514.297	6101.11
514.664	6161.22
515.032	6141.11
515.4	6219.3
515.767	6228.34
516.135	6248.23
516.502	6176.14
516.869	6248.23
517.237	6299.07
517.604	6275.34
517.972	6303.82
518.339	6315.57
518.706	6326.64
519.073	6372.97
519.44	6412.52
519.808	6443.93
520.175	6447.54
520.542	6485.51
520.909	6472.63
521.276	6451.84
521.643	6525.96
522.009	6548.56
522.376	6555.79
522.743	6644.83
523.11	6633.98
523.477	6732.73
523.843	6724.15
524.21	6770.02
524.577	6832.16
524.943	6840.07
525.31	6866.97
525.676	6915.33
526.043	6958.49
526.409	6943.35
526.776	7034.19
527.142	7039.84
527.508	7046.4
527.874	7144.02
528.241	7140.18
528.607	7135.89
528.973	7174.3
529.339	7201.42
529.705	7230.8
530.071	7346.73
530.437	7363.9
530.803	7380.63
531.169	7448.87
531.535	7368.2
531.901	7415.2
532.267	7451.13
532.632	7507.63
532.998	7498.81
533.364	7601.86
533.73	7597.57
534.095	7704.68
534.461	7743.1
534.826	7798.69
535.192	7740.84
535.557	7805.92
535.923	7840.73
536.288	7841.63
536.653	7927.96
537.019	7845.25
537.384	7934.96
537.749	7969.99
538.114	8005.47
538.479	8038.01
538.845	8029.87
539.21	8063.55
539.575	8129.31
539.94	8085.01
540.305	8172.02
540.67	8154.62
541.034	8195.07
541.399	8245.91
541.764	8246.59
542.129	8324.56
542.494	8348.51
542.858	8344.22
543.223	8367.27
543.587	8396.19
543.952	8468.51
544.316	8499.24
544.681	8525.45
545.045	8587.83
545.41	8607.49
545.774	8660.14
546.138	8597.09
546.503	8722.96
546.867	8693.36
547.231	8778.33
547.595	8811.55
547.959	8863.98
548.324	8861.26
548.688	8843.19
549.052	8982.62
549.416	8963.18
549.779	8937.42
550.143	8978.55
550.507	9007.25
550.871	9071.88
551.235	9084.31
551.599	9105.55
551.962	9151.43
552.326	9208.37
552.689	9226
553.053	9204.31
553.417	9243.85
553.78	9329.95
554.143	9235.72
554.507	9363.62
554.87	9339.22
555.234	9350.74
555.597	9400.46
555.96	9481.13
556.323	9440.46
556.686	9453.79
557.05	9548.48
557.413	9564.3
557.776	9561.13
558.139	9646.78
558.502	9634.8
558.865	9683.16
559.228	9697.4
559.59	9774.01
559.953	9753.9
560.316	9849.03
560.679	9774.01
561.041	9913.44
561.404	9940.33
561.767	10011.06
562.129	9948.92
562.492	10070.27
562.854	10009.48
563.217	10004.51
563.579	10078.63
563.941	10143.49
564.304	10183.04
564.666	10246.54
565.028	10199.99
565.39	10249.7
565.753	10302.81
566.115	10283.37
566.477	10421.45
566.839	10447.66
567.201	10459.87
567.563	10468
567.925	10504.84
568.287	10530.6
568.648	10594.1
569.01	10633.87
569.372	10704.38
569.734	10647.21
570.095	10775.56
570.457	10804.49
570.819	10864.6
571.18	10849.91
571.542	10923.36
571.903	10961.32
572.265	11001.32
572.626	11125.84
572.987	11081.32
573.349	11217.13
573.71	11275.89
574.071	11310.24
574.432	11271.6
574.794	11516.79
575.155	11518.14
575.516	11611.47
575.877	11723.34
576.238	11781.19
576.599	11853.28
576.96	11887.85
577.32	11992.71
577.681	12202.87
578.042	12266.15
578.403	12295.07
578.763	12523.09
579.124	12625.46
579.485	12736.87
579.845	12861.16
580.206	12981.38
580.566	13164.43
580.927	13281.26
581.287	13413.23
581.648	13564.87
582.008	13754.47
582.368	14004.41
582.728	14192.65
583.089	14312.87
583.449	14532.98
583.809	14713.77
584.169	14967.32
584.529	15134.09
584.889	15350.13
585.249	15600.97
585.609	15841.65
585.969	16130.23
586.329	16417.22
586.688	16656.99
587.048	16863.77
587.408	17133.82
587.768	17431.89
588.127	17695.16
588.487	17969.27
588.846	18417.4
589.206	18513.21
589.565	18841.57
589.925	19306.19
590.284	19660.08
590.643	19872.95
591.003	20281.75
591.362	20575.08
591.721	20909.31
592.08	21263.2
592.44	21603.98
592.799	22047.36
593.158	22277.41
593.517	22525.76
593.876	22938.18
594.235	23205.29
594.593	23608
594.952	23982.67
595.311	24247.75
595.67	24634.18
596.029	25058.58
596.387	25452.69
596.746	25846.35
597.104	25988.05
597.463	26284.99
597.822	26909.38
598.18	27008.81
598.538	27335.81
598.897	27885.17
599.255	27995
599.613	28684.47
599.972	28715.43
600.33	29095.08
600.688	29297.34
601.046	29841.5
601.404	30187.94
601.762	30385.67
602.12	30779.78
602.478	31214.35
602.836	31413.44
603.194	31533.89
603.552	32011.16
603.91	32158.05
604.268	32464.71
604.625	32682.56
604.983	33180.4
605.341	33196.22
605.698	33574.74
606.056	33971.34
606.413	34127.04
606.771	34475.51
607.128	34675.73
607.485	34743.52
607.843	35170.63
608.2	35556.61
608.557	35889.25
608.914	36018.74
609.272	36413.53
609.629	36736.69
609.986	36950.02
610.343	36889.91
610.7	37345.49
611.057	37479.49
611.414	37616.67
611.771	37966.71
612.127	38257.78
612.484	38359.02
612.841	38655.74
613.198	38570.54
613.554	38742.51
613.911	39273.12
614.267	39233.12
614.624	39476.5
614.98	39662.04
615.337	39937.96
615.693	39991.75
616.05	40223.15
616.406	40562.13
616.762	40495.91
617.118	40662.46
617.475	40939.52
617.831	41135.9
618.187	41154.65
618.543	41302.45
618.899	41548.54
619.255	41659.95
619.611	41682.32
619.967	42002.99
620.323	42254.51
620.678	42161.41
621.034	42155.3
621.39	42319.14
621.746	42487.95
622.101	42998.22
622.457	42741.5
622.812	42855.17
623.168	43074.83
623.523	43174.03
623.879	43352.33
624.234	43181.72
624.589	43336.97
624.945	43416.74
625.3	43526.12
625.655	43537.87
626.01	43590.29
626.365	43801.36
626.72	43753
627.075	43792.32
627.43	43888.82
627.785	43798.42
628.14	44014.01
628.495	43983.96
628.85	44180.56
629.205	44129.94
629.559	44308.24
629.914	44270.95
630.269	44388.69
630.623	44296.49
630.978	44159.09
631.332	44395.25
631.687	44521.34
632.041	44371.52
632.396	44475.92
632.75	44300.56
633.104	44411.06
633.459	44202.48
633.813	44166.55
634.167	44317.96
634.521	44437.28
634.875	44439.54
635.229	44372.42
635.583	44138.75
635.937	44255.81
636.291	44315.02
636.645	44306.43
636.999	44201.13
637.352	44465.98
637.706	44105.08
638.06	44381.46
638.413	44334.23
638.767	44195.25
639.121	44395.47
639.474	43956.16
639.828	44163.84
640.181	44285.19
640.534	44301.01
640.888	44180.79
641.241	43811.31
641.594	44123.84
641.947	44113.22
642.301	44157.29
642.654	44217.62
643.007	44195.7
643.36	44185.76
643.713	44047.91
644.066	44168.36
644.419	44038.19
644.771	43695.15
645.124	43331.32
645.477	43253.81
645.83	43030.76
646.182	43087.48
646.535	42902.18
646.888	42944.44
647.24	42806.81
647.593	43055.85
647.945	42984.21
648.298	42727.04
648.65	42715.06
649.002	42598
649.355	42833.7
649.707	42818.56
650.059	43050.87
650.411	43290.87
650.763	43346.91
651.115	43802.27
651.467	43696.28
651.819	43633.91
652.171	43516.4
652.523	43562.5
652.875	43554.59
653.227	43426.91
653.578	43706.45
653.93	43566.11
654.282	43363.41
654.633	43429.85
654.985	43596.62
655.337	43517.98
655.688	43596.62
656.039	43635.72
656.391	43196.18
656.742	43465.33
657.094	43618.32
657.445	43576.74
657.796	43544.65
658.147	43408.38
658.498	43369.74
658.849	43394.37
659.2	43422.16
659.551	43419.45
659.902	43317.08
660.253	43260.36
660.604	43500.13
660.955	43106.69
661.306	43308.04
661.656	43168.38
662.007	43138.55
662.358	43212.45
662.708	43202.73
663.059	43184.43
663.409	42893.36
663.76	43189.18
664.11	43254.94
664.461	43278.66
664.811	43218.1
665.161	43280.7
665.511	43199.12
665.862	43261.04
666.212	43302.39
666.562	43279.57
666.912	43312.11
667.262	43232.34
667.612	43141.94
667.962	43257.65
668.312	43041.83
668.662	43325.22
669.011	43091.55
669.361	43095.39
669.711	43059.91
670.06	43042.29
670.41	43042.06
670.76	42985.79
671.109	43147.82
671.459	43049.29
671.808	42901.5
672.157	43036.86
672.507	42757.77
672.856	42863.53
673.205	42892.46
673.554	42860.82
673.904	42826.47
674.253	42972.46
674.602	42730.66
674.951	42234.4
675.3	42078.7
675.649	42730.88
675.998	42739.47
676.346	42600.72
676.695	42622.86
677.044	42533.37
677.393	42490.66
677.741	42642.07
678.09	42610.43
678.438	42358.69
678.787	42527.5
679.135	42435.52
679.484	42244.12
679.832	42358.01
680.181	42208.18
680.529	42279.14
680.877	42184.46
681.225	42125.47
681.573	42474.39
681.922	42032.82
682.27	41962.31
682.618	42046.38
682.966	41851.36
683.314	41951.69
683.661	41850.45
684.009	41688.88
684.357	41627.41
684.705	41526.17
685.053	41569.78
685.4	41547.64
685.748	41420.63
686.095	41188.1
686.443	41225.84
686.79	41137.03
687.138	41330.69
687.485	41212.96
687.832	41126.63
688.18	41089.34
688.527	40869.91
688.874	40794.89
689.221	40806.19
689.568	40684.38
689.915	40527.78
690.262	40529.58
690.609	40384.73
690.956	40323.71
691.303	40357.61
691.65	40184.96
691.997	40122.14
692.344	39861.35
692.69	39805.76
693.037	39983.38
693.383	39435.15
693.73	39740.23
694.077	39435.38
694.423	39426.56
694.769	39343.85
695.116	39136.4
695.462	39138.43
695.808	39063.41
696.155	39183.63
696.501	38864.54
696.847	38899.57
697.193	38651.44
697.539	38535.96
697.885	38459.13
698.231	38408.96
698.577	38384.33
698.923	38206.26
699.269	38118.35
699.614	37943.44
699.96	37902.31
700.306	37820.05
700.651	37681.3
700.997	37548.42
701.342	37576.44
701.688	37446.05
702.033	37383.45
702.379	37482.88
702.724	37112.05
703.069	37320.4
703.415	36882
703.76	36932.16
704.105	36926.06
704.45	36686.3
704.795	36603.59
705.14	36517.03
705.485	36449.92
705.83	36305.29
706.175	36362.69
706.52	36109.59
706.865	36146.87
707.209	36171.51
707.554	35970.38
707.899	36053.77
708.243	35812.42
708.588	35739.65
708.932	35562.93
709.277	35564.97
709.621	35515.93
709.966	35332.43
710.31	35425.09
710.654	35037.07
710.998	35219.22
711.342	35112.78
711.687	35069.16
712.031	34835.72
712.375	34769.74
712.719	34913.91
713.063	34824.42
713.407	34792.33
713.75	34628.5
714.094	34602.51
714.438	34469.4
714.782	34645.44
715.125	34395.96
715.469	34398.67
715.812	34173.37
716.156	34092.47
716.499	34110.77
716.843	34061.73
717.186	33944.45
717.53	34131.56
717.873	33994.39
718.216	33913.94
718.559	33797.78
718.902	33578.35
719.246	33466.72
719.589	33536.55
719.932	33493.84
720.275	33438.02
720.617	33268.76
720.96	33276.89
721.303	33338.59
721.646	33276.44
721.989	33028.54
722.331	33313.73
722.674	33142.66
723.016	33132.49
723.359	33104.47
723.701	33130.68
724.044	32902.67
724.386	32723.24
724.729	32796.68
725.071	32744.48
725.413	32685.72
725.755	32659.28
726.097	32490.25
726.439	32389.91
726.782	32370.93
727.124	32560.98
727.465	32457.93
727.807	32313.98
728.149	32277.37
728.491	32191.27
728.833	32272.63
729.175	32177.26
729.516	32106.53
729.858	31962.13
730.199	32027.66
730.541	31937.27
730.882	31903.37
731.224	32033.76
731.565	31717.39
731.906	31745.41
732.248	31677.39
732.589	31647.56
732.93	31540.44
733.271	31521.01
733.612	31575.02
733.953	31504.06
734.294	31526.88
734.635	31407.34
734.976	31403.72
735.317	31226.33
735.658	31235.14
735.999	31417.51
736.339	31153.33
736.68	31340
737.021	31075.14
737.361	30915.37
737.702	31138.19
738.042	31072.88
738.383	30905.43
738.723	31052.55
739.063	30859.1
739.404	30995.6
739.744	30817.07
740.084	30701.37
740.424	30711.76
740.764	30707.02
741.104	30806.68
741.444	30670.63
741.784	30718.32
742.124	30630.18
742.464	30649.62
742.804	30387.48
743.143	30513.12
743.483	30436.06
743.823	30300.93
744.162	30299.8
744.502	30369.17
744.841	30280.59
745.181	30391.32
745.52	30034.49
745.86	30257.31
746.199	30065
746.538	30014.61
746.877	30202.85
747.216	30076.53
747.556	29977.55
747.895	30092.8
748.234	29933.03
748.573	30015.51
748.911	29922.86
749.25	29897.1
749.589	29856.19
749.928	29712.92
750.267	29889.86
750.605	29771
750.944	29736.42
751.283	29616.2
751.621	29746.14
751.96	29503.43
752.298	29578.01
752.636	29543.88
752.975	29393.83
753.313	29300.73
753.651	29494.39
753.989	29448.29
754.327	29242.42
754.666	29195.42
755.004	29192.03
755.342	29255.98
755.679	29275.87
756.017	29006.27
756.355	29060.96
756.693	29005.14
757.031	29055.31
757.368	28882.66
757.706	28879.72
758.044	28672.49
758.381	28801.08
758.719	28712.27
759.056	28640.18
759.394	28656.68
759.731	28405.84
760.068	28397.25
760.405	28401.77
760.743	28203.81
761.08	28281.09
761.417	28190.25
761.754	28180.53
762.091	28144.15
762.428	27982.12
762.765	27852.4
763.102	27960.87
763.438	27845.62
763.775	27698.51
764.112	27656.7
764.449	27712.97
764.785	27562.47
765.122	27491.96
765.458	27325.86
765.795	27351.4
766.131	27284.51
766.467	27309.37
766.804	27108.69
767.14	27004.06
767.476	26890.39
767.812	26828.7
768.148	26905.08
768.485	26704.86
768.821	26538.09
769.157	26577.18
769.492	26604.98
769.828	26463.74
770.164	26175.61
770.5	26155.05
770.836	26179.23
771.171	26058.78
771.507	25975.84
771.842	25721.16
772.178	25799.58
772.513	25664.21
772.849	25619.92
773.184	25508.96
773.519	25498.11
773.855	25365.01
774.19	25237.78
774.525	25233.04
774.86	25220.61
775.195	25155.3
775.53	25025.81
775.865	24931.12
776.2	24774.07
776.535	24575.43
776.87	24618.59
777.205	24465.6
777.539	24441.65
777.874	24401.87
778.209	24221.99
778.543	24155.55
778.878	23927.76
779.212	24015.89
779.547	23864.03
779.881	23887.54
780.215	23716.92
780.55	23692.96
780.884	23571.16
781.218	23562.35
781.552	23493.2
781.886	23368.23
782.22	23284.16
782.554	23209.14
782.888	22994
783.222	22853.89
783.556	22886.43
783.889	22771.18
784.223	22618.42
784.557	22565.99
784.89	22654.35
785.224	22355.82
785.557	22441.02
785.891	22362.38
786.224	22225.88
786.558	22291.87
786.891	22017.53
787.224	21941.15
787.557	21841.49
787.891	21840.13
788.224	21793.81
788.557	21777.08
788.89	21723.75
789.223	21651.44
789.556	21565.79
789.888	21441.05
790.221	21399.24
790.554	21094.61
790.887	21236.08
791.219	21072.02
791.552	21034.05
791.884	20938.69
792.217	20915.41
792.549	20830.67
792.882	20744.57
793.214	20605.59
793.546	20681.74
793.879	20543.22
794.211	20328.53
794.543	20500.28
794.875	20364.46
795.207	20448.53
795.539	20228.2
795.871	20208.08
796.203	20053.96
796.535	20023.91
796.867	19904.36
797.198	19795.44
797.53	19905.95
797.862	19749.34
798.193	19730.36
798.525	19682.67
798.856	19625.27
799.188	19459.86
799.519	19437.03
799.85	19325.62
800.182	19377.37
800.513	19233.19
800.844	19121.56
801.175	19215.12
801.506	19138.51
801.837	19045.63
802.168	19032.52
802.499	18887.44
802.83	18811.74
803.161	18798.18
803.491	18805.86
803.822	18760.66
804.153	18612.87
804.483	18571.29
804.814	18485.42
805.145	18456.49
805.475	18483.61
805.805	18416.72
806.136	18352.77
806.466	18272.77
806.796	18268.25
807.126	18055.6
807.457	18072.55
807.787	18041.14
808.117	17971.31
808.447	17855.83
808.777	17912.1
809.107	17751.43
809.436	17786.23
809.766	17697.87
810.096	17718.21
810.426	17636.4
810.755	17584.88
811.085	17659.22
811.414	17544.88
811.744	17400.25
812.073	17374.94
812.403	17462.17
812.732	17298.1
813.061	17340.59
813.39	17184.44
813.719	17245.45
814.049	17292.91
814.378	17204.77
814.707	17112.35
815.036	17094.95
815.365	16952.12
815.693	16807.95
816.022	16870.32
816.351	16816.08
816.68	16690.66
817.008	16790.55
817.337	16529.54
817.665	16618.57
817.994	16599.37
818.322	16569.76
818.651	16445.47
818.979	16424.68
819.307	16570.44
819.636	16411.8
819.964	16259.49
820.292	16317.34
820.62	16414.29
820.948	16261.07
821.276	16360.5
821.604	16128.87
821.932	16331.12
822.259	16231.01
822.587	16193.05
822.915	16126.38
823.243	16241.86
823.57	16243.22
823.898	16220.39
824.225	16181.98
824.553	16143.78
824.88	16210.9
825.207	16174.52
825.535	16127.06
825.862	16247.74
826.189	16124.12
826.516	16210
826.843	16233.05
827.17	16228.08
827.497	16165.48
827.824	16144.91
828.151	16178.81
828.478	16169.32
828.805	16263.78
829.131	16192.14
829.458	16083.45
829.785	16063.79
830.111	16037.57
830.438	16158.25
830.764	16144.24
831.09	16202.99
831.417	16040.51
831.743	16068.31
832.069	16118.93
832.395	15973.62
832.722	16061.98
833.048	15995.77
833.374	15980.85
833.7	15992.15
834.026	15945.15
834.351	16009.1
834.677	15873.28
835.003	15921.87
835.329	15926.84
835.654	15919.38
835.98	15889.78
836.306	15866.96
836.631	15799.84
836.956	15891.81
837.282	15804.81
837.607	15788.77
837.932	15750.12
838.258	15690.92
838.583	15712.38
838.908	15597.36
839.233	15674.19
839.558	15638.04
839.883	15518.26
840.208	15566.4
840.533	15434.65
840.858	15433.97
841.182	15511.94
841.507	15498.15
841.832	15354.65
842.156	15380.64
842.481	15362.34
842.805	15330.25
843.13	15313.07
843.454	15211.15
843.778	15206.63
844.103	15160.08
844.427	15103.13
844.751	15137.48
845.075	15027.66
845.399	14951.95
845.723	14849.36
846.047	14904.04
846.371	14799.64
846.695	14700.88
847.019	14700.21
847.343	14556.71
847.666	14540.66
847.99	14409.82
848.313	14531.85
848.637	14377.28
848.96	14394
849.284	14402.14
849.607	14216.38
849.931	14204.4
850.254	14107
850.577	14060.45
850.9	13924.41
851.223	13983.16
851.546	13854.58
851.869	13759.67
852.192	13838.76
852.515	13743.17
852.838	13659.56
853.161	13619.78
853.483	13540.92
853.806	13513.57
854.129	13462.73
854.451	13455.72
854.774	13344.08
855.096	13365.78
855.419	13312.22
855.741	13256.85
856.063	13139.12
856.385	13153.13
856.708	13119.23
857.03	13143.41
857.352	13093.47
857.674	12947.03
857.996	12932.8
858.318	12897.77
858.64	12938.22
858.961	12897.09
859.283	12800.82
859.605	12789.97
859.926	12812.57
860.248	12791.78
860.57	12663.42
860.891	12712.01
861.212	12562.64
861.534	12555.86
861.855	12484.22
862.176	12523.31
862.498	12573.93
862.819	12588.62
863.14	12505.24
863.461	12426.37
863.782	12386.37
864.103	12401.74
864.424	12386.6
864.745	12441.28
865.065	12283.1
865.386	12250.1
865.707	12236.77
866.027	12279.48
866.348	12215.53
866.668	12218.46
866.989	12283.1
867.309	12198.13
867.63	12194.96
867.95	12116.09
868.27	12013.27
868.59	12057.11
868.91	12030.45
869.23	12041.29
869.55	11942.77
869.87	12004.68
870.19	11969.43
870.51	12002.65
870.83	12016.21
871.15	11855.54
871.469	11893.5
871.789	11924.46
872.109	11859.38
872.428	11839.26
872.748	11830.45
873.067	11864.12
873.386	11827.29
873.706	11774.41
874.025	11768.76
874.344	11660.06
874.663	11645.82
874.982	11727.4
875.301	11642.66
875.62	11578.03
875.939	11581.87
876.258	11579.84
876.577	11612.83
876.896	11563.57
877.214	11527.86
877.533	11568.76
877.852	11535.32
878.17	11448.31
878.489	11505.04
878.807	11484.02
879.125	11409.22
879.444	11427.98
879.762	11414.87
880.08	11452.61
880.398	11324.25
880.716	11368.32
881.034	11355.21
881.352	11315.44
881.67	11262.78
881.988	11220.75
882.306	11191.37
882.624	11154.09
882.941	11093.07
883.259	11038.83
883.577	11070.02
883.894	11083.35
884.212	11085.39
884.529	11065.27
884.846	11059.4
885.164	10992.73
885.481	10927.65
885.798	11011.49
886.115	10853.3
886.432	10943.7
886.75	10821.89
887.067	10805.17
887.383	10822.12
887.7	10809.24
888.017	10710.93
888.334	10762.91
888.651	10724.94
888.967	10655.34
889.284	10608.79
889.6	10535.12
889.917	10592.97
890.233	10570.82
890.55	10430.49
890.866	10531.05
891.182	10449.47
891.498	10405.4
891.815	10375.8
892.131	10342.36
892.447	10266.2
892.763	10269.59
893.079	10203.83
893.395	10219.65
893.71	10220.1
894.026	10182.13
894.342	10081.12
894.657	10098.29
894.973	10040.22
895.289	10068.46
895.604	10036.15
895.92	9956.38
896.235	9914.8
896.55	9875.93
896.865	9857.85
897.181	9796.83
897.496	9846.32
897.811	9751.18
898.126	9688.59
898.441	9666.89
898.756	9679.1
899.071	9598.87
899.386	9649.04
899.7	9521.13
900.015	9567.01
900.33	9450.63
900.644	9487.91
900.959	9469.16
901.273	9388.48
901.588	9395.26
901.902	9243.18
902.216	9314.59
902.531	9265.55
902.845	9231.2
903.159	9152.78
903.473	9172.44
903.787	9059.23
904.101	9108.94
904.415	8992.56
904.729	9026.23
905.042	8970.87
905.356	8926.8
905.67	8946.91
905.984	8954.14
906.297	8909.4
906.611	8801.38
906.924	8833.02
907.237	8797.99
907.551	8729.06
907.864	8692.91
908.177	8665.79
908.491	8643.42
908.804	8614.04
909.117	8591.67
909.43	8496.98
909.743	8464.66
910.056	8501.05
910.368	8423.31
910.681	8375.18
910.994	8362.29
911.307	8364.1
911.619	8220.83
911.932	8300.15
912.244	8251.79
912.557	8183.99
912.869	8160.27
913.181	8123.88
913.494	8083.43
913.806	8068.52
914.118	8075.07
914.43	7960.95
914.742	8040.49
915.054	7938.58
915.366	7896.09
915.678	7851.35
915.99	7833.04
916.302	7759.37
916.613	7733.38
916.925	7734.74
917.236	7690.67
917.548	7667.17
917.859	7620.17
918.171	7573.61
918.482	7558.93
918.794	7575.65
919.105	7567.96
919.416	7437.8
919.727	7422.43
920.038	7466.5
920.349	7349.67
920.66	7321.87
920.971	7324.13
921.282	7254.07
921.593	7225.6
921.903	7157.35
922.214	7249.78
922.525	7127.3
922.835	7111.48
923.146	7082.1
923.456	7077.36
923.767	7043.68
924.077	6965.72
924.387	6957.36
924.697	6888.21
925.008	6892.5
925.318	6906.74
925.628	6814.09
925.938	6803.69
926.248	6764.14
926.558	6721.66
926.867	6717.37
927.177	6700.42
927.487	6650.93
927.796	6561.66
928.106	6604.37
928.416	6534.09
928.725	6576.13
929.034	6531.61
929.344	6493.64
929.653	6427.2
929.962	6442.34
930.271	6366.64
930.581	6407.09
930.89	6383.82
931.199	6277.6
931.508	6299.98
931.817	6299.52
932.125	6208.68
932.434	6221.79
932.743	6191.73
933.051	6163.71
933.36	6173.65
933.669	6101.56
933.977	6081.22
934.286	6057.5
934.594	5988.8
934.902	5956.26
935.21	5975.69
935.519	5947.89
935.827	5911.74
936.135	5899.76
936.443	5854.11
936.751	5813.89
937.059	5840.78
937.367	5826.99
937.674	5796.26
937.982	5815.92
938.29	5746.77
938.597	5725.3
938.905	5647.56
939.213	5628.81
939.52	5638.98
939.827	5608.24
940.135	5584.74
940.442	5556.27
940.749	5518.3
941.056	5500
941.363	5484.4
941.67	5492.09
941.977	5417.29
942.284	5389.49
942.591	5352.43
942.898	5370.73
943.205	5384.52
943.511	5300.45
943.818	5299.55
944.125	5301.13
944.431	5261.81
944.738	5212.09
945.044	5206.45
945.35	5183.62
945.657	5196.5
945.963	5166.45
946.269	5132.1
946.575	5147.01
946.881	5059.56
947.187	5043.96
947.493	5032.66
947.799	5003.06
948.105	5007.35
948.41	4925.55
948.716	4933.68
949.022	4940.92
949.327	4916.51
949.633	4843.74
949.938	4846.45
950.244	4787.7
950.549	4827.25
950.854	4859.79
951.16	4789.28
951.465	4711.99
951.77	4720.58
952.075	4671.54
952.38	4685.78
952.685	4685.33
952.99	4609.62
953.294	4582.73
953.599	4600.81
953.904	4562.17
954.209	4510.64
954.513	4580.7
954.818	4506.12
955.122	4486.69
955.426	4501.38
955.731	4455.5
956.035	4448.27
956.339	4390.42
956.643	4413.92
956.948	4380.48
957.252	4359.91
957.556	4351.78
957.86	4326.02
958.163	4293.7
958.467	4342.06
958.771	4280.37
959.075	4258
959.378	4226.81
959.682	4251.22
959.985	4196.08
960.289	4145
960.592	4128.28
960.896	4084.67
961.199	4106.36
961.502	4108.39
961.805	4107.94
962.108	4045.8
962.411	4025.23
962.714	4032.01
963.017	3996.08
963.32	4023.43
963.623	3992.69
963.926	3964.9
964.228	3943.2
964.531	3933.26
964.833	3902.98
965.136	3926.48
965.438	3830.89
965.741	3872.02
966.043	3839.02
966.345	3800.83
966.648	3784.34
966.95	3804.67
967.252	3768.06
967.554	3741.62
967.856	3739.36
968.158	3687.61
968.46	3693.26
968.761	3721.51
969.063	3682.19
969.365	3623.89
969.666	3628.41
969.968	3632.02
970.269	3594.96
970.571	3615.75
970.872	3578.01
971.174	3511.12
971.475	3558.35
971.776	3504.57
972.077	3510.67
972.378	3460.5
972.679	3501.63
972.98	3506.6
973.281	3453.5
973.582	3435.42
973.883	3429.32
974.183	3418.92
974.484	3412.59
974.785	3413.72
975.085	3343.67
975.386	3336.66
975.686	3324.69
975.986	3281.52
976.287	3308.42
976.587	3281.75
976.887	3269.55
977.187	3277.68
977.487	3233.62
977.787	3256.21
978.087	3214.41
978.387	3189.32
978.687	3161.98
978.987	3152.71
979.286	3145.03
979.586	3126.27
979.885	3126.5
980.185	3107.97
980.484	3115.43
980.784	3099.83
981.083	3079.5
981.382	3050.12
981.682	3076.78
981.981	3031.81
982.28	3052.6
982.579	3000.4
982.878	2957.01
983.177	3014.64
983.475	2988.2
983.774	2931.48
984.073	2936.22
984.372	2908.65
984.67	2878.6
984.969	2900.29
985.267	2894.64
985.566	2877.47
985.864	2872.27
986.162	2865.49
986.461	2836.56
986.759	2779.62
987.057	2814.42
987.355	2788.66
987.653	2771.03
987.951	2758.15
988.249	2766.06
988.547	2767.19
988.844	2732.39
989.142	2730.8
989.44	2656.46
989.737	2687.42
990.035	2653.97
990.332	2651.94
990.63	2636.12
990.927	2628.66
991.224	2626.4
991.521	2599.51
991.819	2599.73
992.116	2603.12
992.413	2578.94
992.71	2544.37
993.006	2532.62
993.303	2522.45
993.6	2541.43
993.897	2522
994.193	2515.67
994.49	2516.8
994.787	2503.92
995.083	2415.56
995.379	2449.23
995.676	2395.45
995.972	2437.93
996.268	2381.21
996.565	2380.53
996.861	2402.22
997.157	2398.38
997.453	2362.45
997.749	2353.19
998.044	2333.53
998.34	2351.6
998.636	2313.87
998.932	2291.27
999.227	2305.28
999.523	2251.72
999.818	2273.87
1000.114	2256.92
1000.409	2246.07
1000.704	2235
1001	2232.51
1001.295	2202.91
1001.59	2218.5
1001.885	2190.93
1002.18	2168.56
1002.475	2167.88
1002.77	2141.67
1003.065	2125.17
1003.359	2161.78
1003.654	2108
1003.949	2118.39
1004.243	2086.98
1004.538	2049.92
1004.832	2045.62
1005.127	2070.93
1005.421	2047.21
1005.715	2030.94
1006.009	2052.63
1006.304	2037.26
1006.598	2004.5
1006.892	1973.54
1007.186	1974.67
1007.48	1981.9
1007.773	1960.43
1008.067	1914.33
1008.361	1938.96
1008.655	1896.93
1008.948	1881.11
1009.242	1894.22
1009.535	1879.3
1009.829	1858.28
1010.122	1836.14
1010.415	1883.37
1010.708	1842.47
1011.001	1860.09
1011.295	1824.61
1011.588	1837.95
1011.881	1794.33
1012.173	1765.63
1012.466	1781
1012.759	1775.8
1013.052	1755.69
1013.344	1761.79
1013.637	1739.42
1013.93	1728.34
1014.222	1738.29
1014.514	1729.02
1014.807	1703.49
1015.099	1685.18
1015.391	1718.63
1015.683	1680.89
1015.976	1665.52
1016.268	1623.26
1016.56	1645.86
1016.851	1591.85
1017.143	1609.03
1017.435	1586.88
1017.727	1603.6
1018.018	1604.51
1018.31	1564.51
1018.602	1557.73
1018.893	1555.69
1019.185	1548.46
1019.476	1546.2
1019.767	1529.25
1020.058	1530.16
1020.35	1513.43
1020.641	1479.31
1020.932	1483.38
1021.223	1476.6
1021.514	1466.88
1021.804	1456.26
1022.095	1424.17
1022.386	1437.96
1022.677	1415.58
1022.967	1412.65
1023.258	1407
1023.548	1387.79
1023.839	1397.28
1024.129	1412.42
1024.419	1363.61
1024.709	1377.39
1025	1359.77
1025.29	1343.72
1025.58	1336.72
1025.87	1319.09
1026.16	1319.54
1026.449	1348.92
1026.739	1300.11
1027.029	1298.75
1027.319	1284.29
1027.608	1282.03
1027.898	1295.14
1028.187	1245.65
1028.477	1244.74
1028.766	1248.36
1029.055	1238.87
1029.344	1238.64
1029.634	1224.63
1029.923	1230.96
1030.212	1193.67
1030.501	1185.99
1030.79	1174.01
1031.078	1194.57
1031.367	1166.78
1031.656	1192.77
1031.945	1177.85
1032.233	1123.16
1032.522	1143.73
1032.81	1129.49
1033.099	1124.97
1033.387	1146.21
1033.675	1120.9
1033.963	1120
1034.251	1110.06
1034.54	1083.16
1034.828	1092.65
1035.116	1097.17
1035.403	1111.41
1035.691	1059.21
1035.979	1065.99
1036.267	1055.14
1036.554	1059.66
1036.842	1056.95
1037.129	1008.82
1037.417	1003.39
1037.704	1016.72
1037.992	1005.43
1038.279	1025.09
1038.566	1006.33
1038.853	1006.33
1039.14	1006.33
