Data from hue_60_FLMS001491_10.txt Node
Date: Mon Feb 06 15:11:51 GMT 2017
User: dcchb
Spectrometer: FLMS00149
Trigger mode: 0
Integration Time (sec): 2.000000E-2
Scans to average: 10
Electric dark correction enabled: true
Nonlinearity correction enabled: false
Boxcar width: 0
XAxis mode: Wavelengths
Number of Pixels in Spectrum: 2048
>>>>>Begin Spectral Data<<<<<
341.393	-9.83
341.776	-9.83
342.16	-9.83
342.543	-73.56
342.927	-63.84
343.31	-84.18
343.693	-61.81
344.077	-71.3
344.46	-64.29
344.843	-57.74
345.226	-48.02
345.61	-30.17
345.993	-2.82
346.376	-13.22
346.759	27.91
347.142	39.89
347.525	37.63
347.908	60.68
348.291	66.33
348.674	96.16
349.057	104.97
349.44	139.77
349.823	160.56
350.206	162.14
350.588	206.44
350.971	201.69
351.354	234.91
351.737	269.94
352.119	274
352.502	237.62
352.884	295.25
353.267	310.61
353.65	305.87
354.032	305.87
354.414	296.83
354.797	319.65
355.179	330.27
355.562	338.86
355.944	342.48
356.326	333.44
356.709	364.17
357.091	347
357.473	356.71
357.855	351.52
358.238	372.76
358.62	351.97
359.002	373.66
359.384	377.05
359.766	361.69
360.148	333.44
360.53	332.76
360.912	354
361.294	348.13
361.676	335.02
362.057	365.3
362.439	344.74
362.821	333.89
363.203	332.53
363.584	328.24
363.966	335.02
364.348	341.57
364.729	328.69
365.111	343.61
365.493	328.24
365.874	329.82
366.256	327.34
366.637	313.33
367.019	320.33
367.4	349.48
367.781	342.48
368.163	314.46
368.544	311.52
368.925	315.58
369.306	347.67
369.688	323.49
370.069	335.47
370.45	297.05
370.831	309.03
371.212	314.46
371.593	340.22
371.974	339.31
372.355	328.01
372.736	330.05
373.117	332.76
373.498	361.23
373.879	321.69
374.26	339.31
374.641	315.13
375.021	330.05
375.402	338.64
375.783	318.75
376.163	337.96
376.544	329.14
376.925	311.52
377.305	326.66
377.686	328.47
378.066	342.48
378.447	334.57
378.827	345.41
379.208	355.36
379.588	349.71
379.968	349.71
380.349	343.15
380.729	334.12
381.109	360.1
381.489	354.68
381.87	359.2
382.25	354.23
382.63	370.05
383.01	332.31
383.39	349.71
383.77	346.09
384.15	344.96
384.53	345.19
384.91	349.03
385.29	369.37
385.67	350.39
386.049	344.74
386.429	364.62
386.809	364.17
387.189	356.94
387.568	355.13
387.948	377.73
388.328	362.82
388.707	362.14
389.087	363.27
389.466	358.07
389.846	378.63
390.225	377.28
390.605	363.04
390.984	371.18
391.363	373.21
391.743	390.16
392.122	383.83
392.501	380.22
392.881	367.11
393.26	363.72
393.639	375.24
394.018	404.4
394.397	393.1
394.776	399.42
395.155	400.33
395.534	378.86
395.913	371.63
396.292	383.83
396.671	391.97
397.05	380.44
397.429	406.43
397.808	398.97
398.186	396.71
398.565	396.94
398.944	402.81
399.323	389.48
399.701	401.46
400.08	380.22
400.458	407.33
400.837	424.73
401.215	413.21
401.594	404.85
401.972	405.53
402.351	395.36
402.729	408.24
403.107	400.33
403.486	420.44
403.864	399.42
404.242	418.41
404.62	413.44
404.999	423.6
405.377	416.15
405.755	438.52
406.133	422.93
406.511	401.01
406.889	421.34
407.267	445.07
407.645	446.65
408.023	434.9
408.401	441.68
408.779	453.66
409.156	424.73
409.534	442.14
409.912	445.98
410.29	462.25
410.667	449.14
411.045	438.29
411.422	473.09
411.8	472.19
412.178	472.64
412.555	480.55
412.933	497.05
413.31	468.12
413.687	474.68
414.065	488.01
414.442	477.61
414.819	485.3
415.197	472.87
415.574	497.73
415.951	495.47
416.328	504.96
416.705	495.24
417.082	510.16
417.46	503.38
417.837	490.5
418.214	505.86
418.591	521.68
418.967	506.99
419.344	532.53
419.721	531.62
420.098	509.03
420.475	536.6
420.852	519.2
421.228	521.68
421.605	518.52
421.982	541.57
422.358	521.23
422.735	520.33
423.111	547.22
423.488	554.9
423.864	560.78
424.241	558.06
424.617	572.75
424.994	554
425.37	570.72
425.746	566.2
426.123	595.13
426.499	568.91
426.875	578.4
427.251	579.76
427.627	583.6
428.003	592.19
428.379	600.55
428.756	570.95
429.132	609.14
429.507	595.8
429.883	607.55
430.259	611.4
430.635	612.53
431.011	636.93
431.387	615.92
431.763	635.8
432.138	626.31
432.514	643.71
432.89	633.54
433.265	661.34
433.641	654.11
434.016	665.18
434.392	684.84
434.767	662.69
435.143	675.8
435.518	658.17
435.894	694.56
436.269	692.75
436.644	697.04
437.02	684.84
437.395	701.34
437.77	735.69
438.145	723.26
438.52	727.78
438.895	727.33
439.271	724.16
439.646	735.91
440.021	756.93
440.395	759.64
440.77	729.36
441.145	727.33
441.52	750.6
441.895	749.02
442.27	746.76
442.645	759.42
443.019	770.71
443.394	781.79
443.769	769.36
444.143	781.79
444.518	785.4
444.892	782.92
445.267	812.97
445.641	786.98
446.016	801.67
446.39	780.21
446.764	813.88
447.139	808.45
447.513	833.54
447.887	806.87
448.262	830.15
448.636	819.3
449.01	842.35
449.384	839.64
449.758	849.36
450.132	847.77
450.506	872.86
450.88	861.79
451.254	869.69
451.628	901.56
452.002	907.21
452.376	895.68
452.75	862.92
453.123	894.1
453.497	904.5
453.871	934.1
454.244	935
454.618	924.16
454.992	981.1
455.365	939.3
455.739	943.37
456.112	976.58
456.486	984.04
456.859	983.82
457.232	1033.08
457.606	1024.72
457.979	1015.91
458.352	1040.99
458.725	1040.31
459.099	1058.39
459.472	1072.85
459.845	1089.58
460.218	1086.41
460.591	1075.11
460.964	1108.11
461.337	1139.97
461.71	1151.04
462.083	1160.99
462.456	1165.05
462.829	1185.39
463.201	1190.14
463.574	1186.3
463.947	1221.55
464.32	1268.78
464.692	1226.75
465.065	1242.79
465.438	1277.82
465.81	1288.21
466.183	1281.89
466.555	1333.19
466.928	1360.3
467.3	1368.66
467.672	1380.19
468.045	1415.67
468.417	1412.05
468.789	1424.71
469.161	1464.03
469.534	1511.26
469.906	1534.54
470.278	1569.34
470.65	1587.64
471.022	1624.03
471.394	1665.83
471.766	1671.03
472.138	1720.75
472.51	1747.86
472.882	1805.04
473.253	1813.85
473.625	1856.79
473.997	1910.57
474.369	1927.07
474.74	1979.5
475.112	2030.12
475.484	2094.52
475.855	2132.94
476.227	2154.86
476.598	2260.84
476.97	2263.33
477.341	2319.15
477.713	2392.59
478.084	2463.33
478.455	2579.03
478.827	2557.79
479.198	2668.07
479.569	2713.49
479.94	2840.94
480.311	2918.45
480.682	2984.67
481.053	3082.74
481.424	3186.47
481.795	3302.17
482.166	3393.24
482.537	3470.08
482.908	3595.27
483.279	3679.34
483.65	3795.04
484.021	3935.6
484.391	3978.31
484.762	4117.97
485.133	4215.37
485.503	4343.73
485.874	4483.84
486.244	4533.55
486.615	4711.4
486.985	4876.14
487.356	5026.42
487.726	5112.52
488.097	5285.17
488.467	5436.35
488.837	5633.86
489.207	5733.75
489.578	5927.64
489.948	6030.01
490.318	6193.4
490.688	6341.87
491.058	6531.24
491.428	6686.94
491.798	6818.01
492.168	6972.59
492.538	7166.7
492.908	7355.17
493.278	7537.54
493.648	7677.43
494.017	7873.13
494.387	7987.25
494.757	8209.39
495.126	8367.8
495.496	8544.75
495.866	8624.74
496.235	8873.1
496.605	8973.89
496.974	9262.02
497.344	9382.69
497.713	9547.43
498.082	9681.44
498.452	9859.74
498.821	10020.41
499.19	10224.02
499.559	10394.42
499.928	10510.35
500.298	10651.81
500.667	10885.02
501.036	10939.71
501.405	11175.41
501.774	11325.46
502.143	11409.53
502.512	11592.58
502.88	11809.07
503.249	11822.85
503.618	12117.99
503.987	12246.12
504.356	12372.67
504.724	12520.69
505.093	12708.48
505.462	12765.65
505.83	12988.25
506.199	13168.13
506.567	13412.87
506.936	13418.74
507.304	13618.06
507.672	13861.44
508.041	13974.89
508.409	14175.33
508.777	14315.44
509.145	14537.58
509.514	14533.74
509.882	14728.54
510.25	14807.18
510.618	15034.75
510.986	15153.16
511.354	15332.37
511.722	15471.57
512.09	15692.36
512.458	15705.69
512.826	16018.67
513.193	16098.67
513.561	16209.18
513.929	16338.89
514.297	16526.68
514.664	16760.8
515.032	16846.45
515.4	17074.24
515.767	17129.83
516.135	17359.88
516.502	17270.17
516.869	17608.46
517.237	17710.83
517.604	17763.71
517.972	18051.62
518.339	18207.77
518.706	18243.02
519.073	18450.93
519.44	18483.69
519.808	18810.69
520.175	18794.65
520.542	19141.3
520.909	19251.81
521.276	19271.47
521.643	19561.63
522.009	19674.4
522.376	19838.69
522.743	20131.34
523.11	20257.21
523.477	20480.7
523.843	20476.18
524.21	20812.22
524.577	20904.65
524.943	20987.58
525.31	21070.52
525.676	21408.82
526.043	21626.44
526.409	21695.59
526.776	21870.95
527.142	21930.16
527.508	22124.5
527.874	22322.69
528.241	22569.69
528.607	22470.03
528.973	22808.1
529.339	22843.81
529.705	23159.73
530.071	23274.53
530.437	23306.17
530.803	23505.71
531.169	23578.48
531.535	23676.55
531.901	23811.92
532.267	23839.94
532.632	24102.53
532.998	24199.93
533.364	24229.76
533.73	24364.44
534.095	24615.74
534.461	24626.81
534.826	24826.35
535.192	24983.41
535.557	24946.8
535.923	25068.15
536.288	25293.46
536.653	25362.84
537.019	25196.74
537.384	25571.64
537.749	25667.69
538.114	25595.37
538.479	25712.43
538.845	25863.61
539.21	25781.81
539.575	25976.61
539.94	26106.77
540.305	26326.43
540.67	26202.59
541.034	26409.14
541.399	26522.13
541.764	26581.79
542.129	26712.63
542.494	26702.46
542.858	26765.06
543.223	26857.94
543.587	27025.84
543.952	27057.48
544.316	27202.56
544.681	27194.65
545.045	27448.66
545.41	27471.71
545.774	27505.6
546.138	27578.6
546.503	27686.39
546.867	27682.32
547.231	27903.33
547.595	27948.08
547.959	28200.5
548.324	28144.91
548.688	28264.68
549.052	28283.66
549.416	28313.49
549.779	28418.8
550.143	28493.6
550.507	28708.51
550.871	28847.04
551.235	28874.61
551.599	29074.83
551.962	29053.36
552.326	29175.17
552.689	29370.41
553.053	29308.95
553.417	29342.39
553.78	29709.16
554.143	29667.81
554.507	29671.2
554.87	29900.34
555.234	30194.35
555.597	29949.61
555.96	30094.91
556.323	30316.83
556.686	30384.62
557.05	30437.28
557.413	30629.82
557.776	30758.17
558.139	30894.89
558.502	30965.17
558.865	31094.21
559.228	31333.98
559.59	31480.64
559.953	31520.41
560.316	31771.93
560.679	32009.21
561.041	32139.15
561.404	32141.64
561.767	32371.92
562.129	32318.81
562.492	32588.41
562.854	32620.27
563.217	32668.18
563.579	32796.09
563.941	33058.45
564.304	33248.5
564.666	33400.59
565.028	33505.45
565.39	33470.19
565.753	33756.29
566.115	33742.28
566.477	34001.48
566.839	34071.31
567.201	34238.08
567.563	34309.04
567.925	34472.43
568.287	34491.41
568.648	34644.4
569.01	34811.85
569.372	35061.34
569.734	34954.45
570.095	35151.05
570.457	35298.39
570.819	35405.06
571.18	35479.41
571.542	35712.39
571.903	35673.53
572.265	35849.11
572.626	35866.06
572.987	35954.42
573.349	36086.17
573.71	36345.37
574.071	36204.36
574.432	36468.53
574.794	36706.04
575.155	36653.61
575.516	36615.87
575.877	36856.32
576.238	36937.67
576.599	36980.38
576.96	36969.54
577.32	37083.88
577.681	37186.93
578.042	37258.12
578.403	37299.7
578.763	37297.66
579.124	37501.73
579.485	37661.04
579.845	37607.26
580.206	37620.37
580.566	37577.88
580.927	37686.58
581.287	37790.98
581.648	37790.08
582.008	37885.22
582.368	37861.26
582.728	37885.67
583.089	38035.27
583.449	37950.75
583.809	38051.77
584.169	38026.01
584.529	38081.6
584.889	38396.17
585.249	38007.48
585.609	37954.37
585.969	38204.98
586.329	38146.68
586.688	38222.84
587.048	38273
587.408	38166.57
587.768	38126.12
588.127	38289.5
588.487	38197.98
588.846	38350.97
589.206	38129.05
589.565	38189.62
589.925	38387.13
590.284	38235.27
590.643	38400.23
591.003	38469.16
591.362	38599.32
591.721	38553.9
592.08	38562.94
592.44	38580.57
592.799	38695.14
593.158	38593
593.517	38602.71
593.876	38593
594.235	38637.29
594.593	38677.06
594.952	38783.95
595.311	38616.5
595.67	38792.31
596.029	38956.15
596.387	38954.34
596.746	39049.71
597.104	38711.41
597.463	38723.84
597.822	39147.11
598.18	38808.58
598.538	38736.72
598.897	39124.28
599.255	38817.85
599.613	39367.21
599.972	39060.55
600.33	39274.33
600.688	39070.95
601.046	39351.62
601.404	39394.78
601.762	39376.25
602.12	39506.42
602.478	39618.28
602.836	39537.38
603.194	39293.09
603.552	39547.1
603.91	39357.72
604.268	39768.78
604.625	39657.15
604.983	39799.52
605.341	39544.84
605.698	39908.89
606.056	39919.06
606.413	39924.71
606.771	40012.85
607.128	40162.45
607.485	39959.29
607.843	40009
608.2	40343.01
608.557	40458.03
608.914	40259.85
609.272	40499.16
609.629	40406.06
609.986	40802.88
610.343	40496.45
610.7	40867.51
611.057	40701.42
611.414	40822.32
611.771	40824.12
612.127	40909.55
612.484	40999.94
612.841	41030.67
613.198	41012.14
613.554	41010.11
613.911	41292.36
614.267	41213.72
614.624	41162.42
614.98	41358.8
615.337	41530.09
615.693	41419.81
616.05	41433.37
616.406	41632.69
616.762	41515.86
617.118	41566.25
617.475	41621.62
617.831	41730.77
618.187	41883.76
618.543	41821.84
618.899	42191.77
619.255	42065.45
619.611	41962.4
619.967	42072.45
620.323	42187.03
620.678	42085.79
621.034	42067.71
621.39	42081.04
621.746	42120.59
622.101	42558.99
622.457	42207.82
622.812	42373.24
623.168	42571.65
623.523	42482.84
623.879	42566.23
624.234	42341.15
624.589	42596.73
624.945	42448.71
625.3	42516.74
625.655	42678.54
626.01	42525.32
626.365	42635.38
626.72	42417.08
627.075	42630.86
627.43	42629.05
627.785	42549.5
628.14	42593.34
628.495	42703.17
628.85	42673.12
629.205	42546.11
629.559	42878.53
629.914	42587.92
630.269	42511.31
630.623	42524.64
630.978	42413.01
631.332	42561.03
631.687	42645.32
632.041	42524.19
632.396	42601.93
632.75	42287.36
633.104	42365.33
633.459	42223.64
633.813	42364.42
634.167	42296.63
634.521	42280.36
634.875	42439.45
635.229	42419.34
635.583	42093.02
635.937	42178.44
636.291	42165.33
636.645	42148.84
636.999	42106.8
637.352	42299.57
637.706	42001.04
638.06	42076.29
638.413	41989.97
638.767	41939.8
639.121	42136.41
639.474	41819.13
639.828	41859.8
640.181	42012.79
640.534	41988.16
640.888	41728.96
641.241	41603.54
641.594	41781.84
641.947	41826.36
642.301	41676.53
642.654	41767.6
643.007	41738.45
643.36	41626.36
643.713	41649.87
644.066	41636.53
644.419	41559.92
644.771	41258.92
645.124	40839.72
645.477	40885.37
645.83	40583.23
646.182	40445.6
646.535	40530.35
646.888	40430.69
647.24	40226.4
647.593	40478.14
647.945	40354.08
648.298	40293.29
648.65	40156.12
649.002	40110.92
649.355	40185.5
649.707	40063.47
650.059	40211.26
650.411	40768.53
650.763	40822.32
651.115	41103.66
651.467	40986.38
651.819	41043.33
652.171	40895.31
652.523	40890.34
652.875	40825.25
653.227	40648.76
653.578	40936.89
653.93	40798.59
654.282	40652.38
654.633	40599.5
654.985	40646.73
655.337	40658.7
655.688	40655.99
656.039	40832.94
656.391	40381.65
656.742	40619.61
657.094	40539.84
657.445	40614.64
657.796	40555.43
658.147	40426.17
658.498	40385.04
658.849	40550.23
659.2	40408.99
659.551	40506.62
659.902	40483.12
660.253	40402.44
660.604	40526.73
660.955	40356.34
661.306	40492.61
661.656	40316.79
662.007	40484.92
662.358	40359.05
662.708	40296.91
663.059	40341.65
663.409	40072.73
663.76	40310.01
664.11	40309.56
664.461	40293.52
664.811	40316.12
665.161	40139.4
665.511	40260.75
665.862	40352.27
666.212	40299.17
666.562	40446.28
666.912	40218.26
667.262	40144.59
667.612	40079.29
667.962	40229.79
668.312	40153.86
668.662	40285.83
669.011	40148.89
669.361	40093.3
669.711	40109.57
670.06	39892.62
670.41	39984.15
670.76	39895.56
671.109	40116.35
671.459	40000.42
671.808	39951.6
672.157	40036.35
672.507	39768.78
672.856	39866.41
673.205	39877.26
673.554	39902.34
673.904	39841.1
674.253	40017.82
674.602	39786.41
674.951	39330.6
675.3	39129.93
675.649	39714.1
675.998	39778.73
676.346	39680.88
676.695	39876.58
677.044	39626.64
677.393	39651.5
677.741	39672.74
678.09	39553.65
678.438	39450.15
678.787	39609.02
679.135	39501.9
679.484	39323.82
679.832	39463.48
680.181	39207.44
680.529	39334.9
680.877	39234.79
681.225	39001.35
681.573	39595.91
681.922	39235.69
682.27	38975.59
682.618	39107.11
682.966	39011.74
683.314	38913.44
683.661	38901.91
684.009	38720.9
684.357	38638.42
684.705	38550.29
685.053	38642.26
685.4	38691.53
685.748	38453.11
686.095	38471.19
686.443	38220.58
686.79	38268.26
687.138	38324.76
687.485	38237.3
687.832	38110.52
688.18	38079.79
688.527	37888.38
688.874	37900.59
689.221	37793.24
689.568	37830.08
689.915	37633.47
690.262	37710.99
690.609	37512.57
690.956	37445.68
691.303	37323.88
691.65	37303.31
691.997	37159.14
692.344	37147.61
692.69	36993.04
693.037	36978.8
693.383	36669.88
693.73	36716.21
694.077	36657.23
694.423	36583.56
694.769	36418.59
695.116	36343.56
695.462	36345.37
695.808	36240.97
696.155	36309.21
696.501	35917.13
696.847	35969.34
697.193	35790.81
697.539	35985.16
697.885	35751.49
698.231	35590.36
698.577	35542
698.923	35539.29
699.269	35498.39
699.614	35228.11
699.96	35149.47
700.306	35281.67
700.651	35079.42
700.997	34824.96
701.342	34951.74
701.688	34902.02
702.033	34753.55
702.379	34728.47
702.724	34705.64
703.069	34703.83
703.415	34235.6
703.76	34269.04
704.105	34435.14
704.45	34324.18
704.795	34044.87
705.14	33845.78
705.485	33942.72
705.83	33867.02
706.175	33914.02
706.52	33735.5
706.865	33517.2
707.209	33594.48
707.554	33476.52
707.899	33615.27
708.243	33220.93
708.588	33221.39
708.932	33025.23
709.277	33084.67
709.621	33080.37
709.966	32738.69
710.31	32858.23
710.654	32655.07
710.998	32735.75
711.342	32684.9
711.687	32577.56
712.031	32324.23
712.375	32302.09
712.719	32328.75
713.063	32317.46
713.407	32370.56
713.75	32105.03
714.094	32192.49
714.438	32015.99
714.782	32050.8
715.125	31771.48
715.469	31978.03
715.812	31774.42
716.156	31540.3
716.499	31667.3
716.843	31594.54
717.186	31457.82
717.53	31654.42
717.873	31638.6
718.216	31483.13
718.559	31301.66
718.902	31100.54
719.246	31164.72
719.589	31147.09
719.932	31000.88
720.275	31044.95
720.617	30933.08
720.96	30829.81
721.303	30940.32
721.646	30866.42
721.989	30698.74
722.331	30686.31
722.674	30588.01
723.016	30698.51
723.359	30664.84
723.701	30672.07
724.044	30373.33
724.386	30245.19
724.729	30401.35
725.071	30282.93
725.413	30263.05
725.755	30391.63
726.097	30244.06
726.439	30048.36
726.782	30152.31
727.124	30126.33
727.465	29938.53
727.807	29963.62
728.149	29829.16
728.491	29848.59
728.833	29822.83
729.175	29741.48
729.516	29744.42
729.858	29458.77
730.199	29591.2
730.541	29571.54
730.882	29557.53
731.224	29597.98
731.565	29411.09
731.906	29361.37
732.248	29427.14
732.589	29160.93
732.93	29148.5
733.271	29160.25
733.612	29152.34
733.953	29000.93
734.294	28890.88
734.635	28984.89
734.976	29105.79
735.317	28856.53
735.658	28893.59
735.999	28812.01
736.339	28707.38
736.68	28787.6
737.021	28809.98
737.361	28641.39
737.702	28718.68
738.042	28650.89
738.383	28617.89
738.723	28618.12
739.063	28459.48
739.404	28534.5
739.744	28405.24
740.084	28363.44
740.424	28379.03
740.764	28328.18
741.104	28519.59
741.444	28150.56
741.784	28160.73
742.124	28122.99
742.464	28081.18
742.804	28075.31
743.143	28023.78
743.483	28035.08
743.823	27939.72
744.162	27906.5
744.502	27783.56
744.841	27692.49
745.181	27802.09
745.52	27732.27
745.86	27680.74
746.199	27643.91
746.538	27482.55
746.877	27508.77
747.216	27495.89
747.556	27474.87
747.895	27416.34
748.234	27292.73
748.573	27330.69
748.911	27253.86
749.25	27227.19
749.589	27106.97
749.928	27117.82
750.267	27194.43
750.605	27067.65
750.944	27052.06
751.283	26960.76
751.621	26933.42
751.96	26742.69
752.298	26812.06
752.636	26787.21
752.975	26619.75
753.313	26654.78
753.651	26652.97
753.989	26535.23
754.327	26397.84
754.666	26407.78
755.004	26441
755.342	26464.28
755.679	26293.88
756.017	26147.67
756.355	26287.11
756.693	26055.47
757.031	26187.9
757.368	26041.91
757.706	25986.55
758.044	25904.97
758.381	25897.96
758.719	25687.12
759.056	25669.49
759.394	25658.87
759.731	25474.7
760.068	25524.64
760.405	25405.55
760.743	25258.21
761.08	25315.61
761.417	25122.62
761.754	25159
762.091	24930.76
762.428	25032.9
762.765	24825.67
763.102	24849.18
763.438	24721.72
763.775	24595.62
764.112	24632.46
764.449	24743.42
764.785	24425.01
765.122	24404.67
765.458	24174.84
765.795	24220.27
766.131	24208.06
766.467	24109.76
766.804	23981.4
767.14	23911.8
767.476	23821.18
767.812	23777.79
768.148	23807.4
768.485	23661.19
768.821	23511.81
769.157	23467.29
769.492	23366.96
769.828	23382.32
770.164	23256.68
770.5	23100.3
770.836	23198.83
771.171	22965.38
771.507	22868.89
771.842	22763.81
772.178	22796.12
772.513	22734.43
772.849	22583.02
773.184	22413.99
773.519	22427.55
773.855	22409.92
774.19	22375.8
774.525	22178.74
774.86	22248.79
775.195	22158.4
775.53	22078.63
775.865	21886.54
776.2	21793.66
776.535	21547.8
776.87	21590.96
777.205	21531.07
777.539	21503.73
777.874	21461.7
778.209	21355.03
778.543	21280.23
778.878	21116.85
779.212	21131.99
779.547	21042.05
779.881	21032.55
780.215	20954.14
780.55	20914.59
780.884	20701.94
781.218	20788.72
781.552	20835.05
781.886	20574.26
782.22	20469.86
782.554	20415.85
782.888	20180.15
783.222	20118.23
783.556	20010.89
783.889	20063.54
784.223	19996.88
784.557	19917.33
784.89	19944.22
785.224	19798.01
785.557	19720.05
785.891	19589.43
786.224	19558.02
786.558	19529.77
786.891	19278.7
787.224	19284.35
787.557	19190.34
787.891	19073.51
788.224	19178.59
788.557	19119.61
788.89	19067.63
789.223	19009.56
789.556	18920.07
789.888	18841.43
790.221	18746.29
790.554	18637.36
790.887	18545.61
791.219	18538.83
791.552	18446.86
791.884	18422.23
792.217	18373.87
792.549	18228.79
792.882	18120.54
793.214	18010.94
793.546	18116.7
793.879	17976.14
794.211	17854.78
794.543	17952.86
794.875	17843.26
795.207	17859.53
795.539	17752.41
795.871	17686.65
796.203	17569.37
796.535	17485.75
796.867	17513.55
797.198	17500.44
797.53	17451.63
797.862	17217.97
798.193	17390.16
798.525	17191.98
798.856	17298.42
799.188	17029.27
799.519	17024.3
799.85	17024.07
800.182	16947.69
800.513	16943.4
800.844	16787.92
801.175	16839.22
801.506	16833.79
801.837	16627.7
802.168	16733.68
802.499	16648.94
802.83	16465.89
803.161	16505.22
803.491	16424.09
803.822	16407.37
804.153	16260.93
804.483	16252.12
804.814	16199.24
805.145	16202.62
805.475	16154.26
805.805	15987.26
806.136	16036.3
806.466	16030.65
806.796	16011.44
807.126	15882.63
807.457	15849.87
807.787	15858.23
808.117	15848.51
808.447	15694.16
808.777	15796.53
809.107	15714.28
809.436	15688.97
809.766	15587.95
810.096	15626.82
810.426	15547.05
810.755	15487.39
811.085	15440.38
811.414	15364.91
811.744	15284
812.073	15233.38
812.403	15264.34
812.732	15149.77
813.061	15147.74
813.39	15105.7
813.719	15062.09
814.049	15084.24
814.378	14995.42
814.707	15017.57
815.036	14999.04
815.365	14839.27
815.693	14723.57
816.022	14620.07
816.351	14675.89
816.68	14602.44
817.008	14601.99
817.337	14581.65
817.665	14491.03
817.994	14611.48
818.322	14507.53
818.651	14449.45
818.979	14397.02
819.307	14482.9
819.636	14363.35
819.964	14394.76
820.292	14342.11
820.62	14369.45
820.948	14330.13
821.276	14347.98
821.604	14209.46
821.932	14244.94
822.259	14277.93
822.587	14250.36
822.915	14163.58
823.243	14263.47
823.57	14236.8
823.898	14263.24
824.225	14156.12
824.553	14172.17
824.88	14283.35
825.207	14146.63
825.535	14092.4
825.862	14266.86
826.189	14140.98
826.516	14166.29
826.843	14236.8
827.17	14233.86
827.497	14223.69
827.824	14201.55
828.151	14254.65
828.478	14154.77
828.805	14324.26
829.131	14107.99
829.458	14208.55
829.785	14079.97
830.111	14106.41
830.438	14212.62
830.764	14134.43
831.09	14192.96
831.417	14069.57
831.743	14110.93
832.069	14114.32
832.395	14034.55
832.722	14109.35
833.048	14054.66
833.374	14021.67
833.7	14019.86
834.026	14009.46
834.351	14067.31
834.677	13994.32
835.003	13953.19
835.329	14051.72
835.654	13904.15
835.98	13955.68
836.306	13920.88
836.631	13836.13
836.956	13940.31
837.282	13899.18
837.607	13844.27
837.932	13769.92
838.258	13734.67
838.583	13759.98
838.908	13799.52
839.233	13715.91
839.558	13656.03
839.883	13686.76
840.208	13542.81
840.533	13586.87
840.858	13651.28
841.182	13560.89
841.507	13542.36
841.832	13489.7
842.156	13490.15
842.481	13459.87
842.805	13410.61
843.13	13356.82
843.454	13349.59
843.778	13384.85
844.103	13271.63
844.427	13205.64
844.751	13243.15
845.075	13225.98
845.399	13061.46
845.723	13064.85
846.047	13082.48
846.371	13035.02
846.695	12977.85
847.019	12909.83
847.343	12803.39
847.666	12839.1
847.99	12689.72
848.313	12723.39
848.637	12664.86
848.96	12622.38
849.284	12533.79
849.607	12483.63
849.931	12469.84
850.254	12309.85
850.577	12299.45
850.9	12266.46
851.223	12223.29
851.546	12133.35
851.869	12103.98
852.192	12147.14
852.515	11951.89
852.838	11979.23
853.161	11984.2
853.483	11902.85
853.806	11834.15
854.129	11859.24
854.451	11791.22
854.774	11751.22
855.096	11658.11
855.419	11725.45
855.741	11685
856.063	11555.06
856.385	11579.24
856.708	11526.59
857.03	11502.41
857.352	11536.76
857.674	11475.29
857.996	11387.38
858.318	11405.69
858.64	11365.92
858.961	11277.33
859.283	11257.9
859.605	11225.81
859.926	11249.08
860.248	11157.56
860.57	11104.68
860.891	11122.53
861.212	11068.97
861.534	10977.9
861.855	11021.52
862.176	11035.3
862.498	11067.17
862.819	11012.03
863.14	10974.74
863.461	10947.4
863.782	10855.19
864.103	10882.76
864.424	10870.79
864.745	10906.72
865.065	10788.76
865.386	10784.46
865.707	10752.82
866.027	10806.83
866.348	10753.28
866.668	10753.28
866.989	10697.01
867.309	10639.38
867.63	10605.03
867.95	10571.13
868.27	10610.46
868.59	10566.39
868.91	10611.13
869.23	10552.38
869.55	10475.54
869.87	10502.89
870.19	10495.2
870.51	10547.63
870.83	10553.96
871.15	10439.39
871.469	10374.3
871.789	10421.53
872.109	10402.1
872.428	10361.42
872.748	10468.76
873.067	10345.15
873.386	10440.06
873.706	10365.94
874.025	10310.35
874.344	10316.68
874.663	10236.23
874.982	10240.07
875.301	10210.47
875.62	10198.49
875.939	10206.62
876.258	10203.46
876.577	10160.3
876.896	10146.51
877.214	10155.1
877.533	10095.89
877.852	10087.08
878.17	10125.27
878.489	10082.33
878.807	10072.62
879.125	10051.6
879.444	9995.56
879.762	10002.79
880.08	9958.72
880.398	9971.38
880.716	9975.67
881.034	9870.14
881.352	9896.35
881.67	9934.77
881.988	9883.47
882.306	9843.47
882.624	9787.2
882.941	9832.17
883.259	9710.37
883.577	9714.43
883.894	9724.15
884.212	9666.75
884.529	9644.38
884.846	9674.21
885.164	9618.84
885.481	9626.07
885.798	9608.9
886.115	9534.78
886.432	9573.65
886.75	9550.82
887.067	9586.98
887.383	9499.3
887.7	9456.14
888.017	9509.92
888.334	9445.29
888.651	9384.5
888.967	9324.39
889.284	9273.99
889.6	9285.07
889.917	9267.44
890.233	9193.77
890.55	9143.83
890.866	9208.91
891.182	9123.71
891.498	9141.57
891.815	9111.06
892.131	9091.85
892.447	9026.54
892.763	9036.94
893.079	8993.32
893.395	8966.66
893.71	8887.79
894.026	8952.42
894.342	8923.49
894.657	8819.99
894.973	8882.82
895.289	8835.81
895.604	8824.06
895.92	8715.59
896.235	8724.86
896.55	8728.47
896.865	8708.58
897.181	8692.99
897.496	8659.55
897.811	8614.35
898.126	8583.39
898.441	8527.35
898.756	8474.24
899.071	8500
899.386	8516.73
899.7	8416.61
900.015	8353.34
900.33	8296.62
900.644	8235.38
900.959	8295.26
901.273	8340.46
901.588	8236.73
901.902	8227.69
902.216	8172.1
902.531	8198.32
902.845	8130.97
903.159	8065.21
903.473	8054.36
903.787	8013.24
904.101	7959.9
904.415	7965.33
904.729	7970.75
905.042	7880.36
905.356	7875.84
905.67	7907.7
905.984	7768.27
906.297	7785.45
906.611	7698.67
906.924	7755.62
907.237	7660.02
907.551	7727.82
907.864	7655.28
908.177	7618.9
908.491	7659.12
908.804	7543.64
909.117	7525.56
909.43	7502.74
909.743	7416.87
910.056	7444.66
910.368	7450.54
910.681	7405.79
910.994	7340.48
911.307	7316.08
911.619	7241.5
911.932	7274.5
912.244	7230.21
912.557	7233.6
912.869	7182.75
913.181	7066.14
913.494	7112.92
913.806	7054.84
914.118	7060.04
914.43	6990.44
914.742	7016.88
915.054	6986.6
915.366	6913.38
915.678	6886.71
915.99	6899.59
916.302	6860.5
916.613	6777.56
916.925	6807.62
917.236	6778.01
917.548	6745.47
917.859	6750.9
918.171	6687.17
918.482	6640.62
918.794	6553.61
919.105	6601.07
919.416	6582.76
919.727	6606.49
920.038	6527.85
920.349	6522.43
920.66	6452.82
920.971	6454.86
921.282	6432.94
921.593	6378.7
921.903	6306.16
922.214	6370.79
922.525	6280.63
922.835	6241.53
923.146	6234.07
923.456	6211.7
923.767	6156.11
924.077	6229.33
924.387	6147.3
924.697	6133.06
925.008	6112.95
925.318	6085.83
925.628	5979.39
925.938	5994.76
926.248	5962.89
926.558	5974.19
926.867	5963.35
927.177	5910.69
927.487	5856.68
927.796	5797.7
928.106	5797.02
928.416	5810.58
928.725	5790.24
929.034	5743.46
929.344	5716.12
929.653	5743.69
929.962	5693.75
930.271	5686.97
930.581	5674.99
930.89	5594.32
931.199	5552.74
931.508	5576.46
931.817	5577.59
932.125	5522.23
932.434	5478.39
932.743	5408.11
933.051	5387.54
933.36	5429.35
933.669	5397.26
933.977	5369.69
934.286	5359.52
934.594	5374.66
934.902	5258.96
935.21	5317.04
935.519	5252.18
935.827	5255.34
936.135	5263.7
936.443	5158.4
936.751	5167.43
937.059	5133.76
937.367	5171.05
937.674	5127.66
937.982	5114.1
938.29	5071.17
938.597	5057.61
938.905	5005.41
939.213	4975.8
939.52	4989.36
939.827	4994.33
940.135	4963.37
940.442	4939.19
940.749	4930.83
941.056	4877.5
941.363	4859.19
941.67	4842.02
941.977	4836.6
942.284	4793.66
942.591	4776.94
942.898	4775.58
943.205	4704.4
943.511	4709.37
943.818	4717.5
944.125	4588.92
944.431	4665.3
944.738	4601.8
945.044	4586.66
945.35	4612.87
945.657	4569.26
945.963	4524.29
946.269	4474.12
946.575	4485.64
946.881	4461.69
947.187	4469.15
947.493	4434.57
947.799	4453.33
948.105	4437.96
948.41	4338.3
948.716	4357.74
949.022	4348.02
949.327	4345.31
949.633	4245.88
949.938	4300.79
950.244	4282.26
950.549	4237.06
950.854	4237.97
951.16	4214.01
951.465	4218.31
951.77	4176.73
952.075	4144.64
952.38	4211.98
952.685	4134.69
952.99	4120.23
953.294	4068.25
953.599	4078.42
953.904	4059.22
954.209	4060.57
954.513	4007.47
954.818	4004.98
955.122	4013.11
955.426	3997.52
955.731	3958.88
956.035	3917.98
956.339	3931.99
956.643	3905.77
956.948	3896.28
957.252	3877.75
957.556	3860.8
957.86	3845.89
958.163	3875.94
958.467	3813.57
958.771	3819.9
959.075	3823.74
959.378	3812.89
959.682	3798.88
959.985	3753.69
960.289	3742.61
960.592	3689.96
960.896	3704.42
961.199	3693.58
961.502	3682.28
961.805	3608.15
962.108	3606.8
962.411	3581.04
962.714	3588.49
963.017	3576.97
963.32	3532.9
963.623	3570.64
963.926	3547.59
964.228	3503.98
964.531	3519.79
964.833	3477.54
965.136	3440.25
965.438	3441.6
965.741	3436.63
966.043	3397.76
966.345	3413.58
966.648	3375.84
966.95	3370.19
967.252	3380.36
967.554	3371.32
967.856	3314.15
968.158	3313.02
968.46	3307.6
968.761	3264.21
969.063	3295.85
969.365	3267.6
969.666	3264.66
969.968	3284.77
970.269	3201.61
970.571	3223.08
970.872	3192.8
971.174	3214.27
971.475	3125.45
971.776	3127.71
972.077	3148.96
972.378	3162.29
972.679	3112.8
972.98	3106.92
973.281	3077.32
973.582	3063.08
973.883	3064.67
974.183	3024.67
974.484	3014.72
974.785	2999.36
975.085	3034.16
975.386	2971.11
975.686	2956.87
975.986	2972.92
976.287	2952.35
976.587	2908.74
976.887	2917.1
977.187	2884.56
977.487	2925.46
977.787	2864.22
978.087	2869.64
978.387	2861.96
978.687	2872.58
978.987	2824.22
979.286	2820.38
979.586	2786.03
979.885	2779.25
980.185	2810.43
980.484	2773.6
980.784	2737.89
981.083	2736.76
981.382	2757.78
981.682	2708.74
981.981	2681.4
982.28	2682.53
982.579	2702.19
982.878	2678.23
983.177	2699.93
983.475	2639.82
983.774	2659.93
984.073	2643.66
984.372	2623.32
984.67	2640.5
984.969	2603.66
985.267	2567.05
985.566	2600.95
985.864	2558.24
986.162	2552.59
986.461	2566.6
986.759	2533.38
987.057	2539.93
987.355	2540.84
987.653	2490.44
987.951	2456.55
988.249	2465.36
988.547	2458.13
988.844	2446.38
989.142	2454.96
989.44	2451.57
989.737	2411.12
990.035	2396.43
990.332	2390.78
990.63	2402.99
990.927	2374.06
991.224	2376.55
991.521	2334.29
991.819	2338.81
992.116	2327.06
992.413	2320.73
992.71	2267.62
993.006	2281.18
993.303	2263.1
993.6	2286.15
993.897	2264.01
994.193	2235.53
994.49	2262.88
994.787	2219.26
995.083	2219.04
995.379	2232.14
995.676	2221.52
995.972	2200.06
996.268	2185.37
996.565	2181.98
996.861	2191.02
997.157	2177.68
997.453	2130.45
997.749	2146.27
998.044	2091.81
998.34	2133.39
998.636	2106.05
998.932	2138.81
999.227	2080.28
999.523	2049.1
999.818	2085.26
1000.114	2046.61
1000.409	2041.19
1000.704	2045.71
1001	2001.19
1001.295	1979.72
1001.59	1967.74
1001.885	1971.59
1002.18	1979.72
1002.475	1952.6
1002.77	1929.78
1003.065	1940.63
1003.359	1906.5
1003.654	1933.62
1003.949	1899.27
1004.243	1898.37
1004.538	1896.56
1004.832	1894.98
1005.127	1856.34
1005.421	1843.23
1005.715	1855.66
1006.009	1865.83
1006.304	1830.35
1006.598	1823.12
1006.892	1814.53
1007.186	1774.3
1007.48	1807.3
1007.773	1782.21
1008.067	1791.03
1008.361	1757.13
1008.655	1726.17
1008.948	1739.5
1009.242	1746.28
1009.535	1711.48
1009.829	1709.9
1010.122	1696.11
1010.415	1676.68
1010.708	1676.45
1011.001	1652.95
1011.295	1657.24
1011.588	1668.77
1011.881	1630.8
1012.173	1631.26
1012.466	1614.53
1012.759	1613.86
1013.052	1638.49
1013.344	1598.94
1013.637	1607.75
1013.93	1582.9
1014.222	1570.02
1014.514	1573.86
1014.807	1554.42
1015.099	1537.7
1015.391	1551.71
1015.683	1542.67
1015.976	1546.51
1016.268	1500.41
1016.56	1489.34
1016.851	1468.55
1017.143	1497.93
1017.435	1467.87
1017.727	1484.37
1018.018	1459.96
1018.31	1418.38
1018.602	1445.27
1018.893	1413.86
1019.185	1417.25
1019.476	1408.44
1019.767	1408.66
1020.058	1383.35
1020.35	1372.73
1020.641	1345.16
1020.932	1371.83
1021.223	1358.72
1021.514	1365.73
1021.804	1340.19
1022.095	1323.92
1022.386	1348.55
1022.677	1320.08
1022.967	1291.83
1023.258	1288.44
1023.548	1273.98
1023.839	1279.85
1024.129	1269.23
1024.419	1251.15
1024.709	1236.92
1025	1262.23
1025.29	1251.15
1025.58	1245.5
1025.87	1224.71
1026.16	1226.97
1026.449	1228.1
1026.739	1203.7
1027.029	1212.51
1027.319	1175
1027.608	1197.37
1027.898	1162.34
1028.187	1173.42
1028.477	1131.83
1028.766	1151.27
1029.055	1121.67
1029.344	1153.08
1029.634	1136.81
1029.923	1118.73
1030.212	1122.57
1030.501	1114.89
1030.79	1112.17
1031.078	1061.33
1031.367	1072.85
1031.656	1104.72
1031.945	1061.33
1032.233	1065.4
1032.522	1083.25
1032.81	1069.69
1033.099	1037.15
1033.387	1045.96
1033.675	1015.45
1033.963	1032.85
1034.251	1019.3
1034.54	1017.71
1034.828	980.88
1035.116	1009.58
1035.403	999.63
1035.691	983.59
1035.979	979.52
1036.267	958.51
1036.554	965.29
1036.842	943.59
1037.129	945.4
1037.417	942.69
1037.704	977.71
1037.992	947.21
1038.279	920.77
1038.566	926.42
1038.853	926.42
1039.14	926.42
