Data from hue_80_FLMS001491_35.txt Node
Date: Mon Feb 06 15:22:54 GMT 2017
User: dcchb
Spectrometer: FLMS00149
Trigger mode: 0
Integration Time (sec): 2.000000E-2
Scans to average: 10
Electric dark correction enabled: true
Nonlinearity correction enabled: false
Boxcar width: 0
XAxis mode: Wavelengths
Number of Pixels in Spectrum: 2048
>>>>>Begin Spectral Data<<<<<
341.393	-22.92
341.776	-22.92
342.16	-22.92
342.543	-66.54
342.927	-56.59
343.31	-74
343.693	-74
344.077	-69.02
344.46	-63.15
344.843	-56.14
345.226	-45.52
345.61	-26.54
345.993	-30.61
346.376	12.33
346.759	27.02
347.142	36.06
347.525	32.89
347.908	33.8
348.291	86
348.674	99.11
349.057	111.76
349.44	121.48
349.823	138.88
350.206	159.44
350.588	190.86
350.971	218.43
351.354	210.52
351.737	229.27
352.119	244.19
352.502	244.64
352.884	276.05
353.267	275.83
353.65	282.83
354.032	277.41
354.414	316.05
354.797	317.18
355.179	318.31
355.562	322.83
355.944	324.19
356.326	319.44
356.709	321.02
357.091	325.54
357.473	344.52
357.855	333.23
358.238	334.36
358.62	351.3
359.002	324.19
359.384	336.16
359.766	318.54
360.148	347.91
360.53	340.68
360.912	318.76
361.294	316.95
361.676	331.19
362.057	340.91
362.439	336.62
362.821	323.06
363.203	303.17
363.584	311.08
363.966	325.77
364.348	318.76
364.729	332.77
365.111	304.98
365.493	310.4
365.874	321.47
366.256	319.89
366.637	311.98
367.019	315.83
367.4	308.59
367.781	302.27
368.163	318.31
368.544	316.95
368.925	305.88
369.306	336.84
369.688	309.72
370.069	312.21
370.45	312.66
370.831	308.82
371.212	292.77
371.593	300.68
371.974	336.39
372.355	324.41
372.736	304.75
373.117	315.83
373.498	309.5
373.879	320.12
374.26	306.79
374.641	326.22
375.021	314.7
375.402	305.66
375.783	334.36
376.163	324.64
376.544	316.5
376.925	310.18
377.305	310.85
377.686	313.11
378.066	326.22
378.447	343.85
378.827	344.07
379.208	303.17
379.588	343.85
379.968	334.58
380.349	328.48
380.729	314.92
381.109	330.74
381.489	344.98
381.87	333.45
382.25	310.85
382.63	337.52
383.01	329.84
383.39	348.82
383.77	331.42
384.15	337.97
384.53	330.29
384.91	340.23
385.29	346.33
385.67	321.93
386.049	340.46
386.429	330.06
386.809	347.01
387.189	345.88
387.568	354.69
387.948	354.69
388.328	348.37
388.707	346.11
389.087	341.59
389.466	344.98
389.846	350.85
390.225	347.91
390.605	365.54
390.984	372.55
391.363	342.49
391.743	365.09
392.122	363.06
392.501	358.76
392.881	351.98
393.26	335.49
393.639	374.35
394.018	375.26
394.397	339.1
394.776	365.54
395.155	367.12
395.534	387.69
395.913	368.48
396.292	374.13
396.671	386.11
397.05	405.31
397.429	370.96
397.808	372.09
398.186	363.51
398.565	389.5
398.944	377.97
399.323	360.12
399.701	362.38
400.08	389.5
400.458	387.24
400.837	382.26
401.215	386.78
401.594	411.19
401.972	404.18
402.351	400.12
402.729	396.27
403.107	390.63
403.486	392.66
403.864	382.04
404.242	394.69
404.62	405.54
404.999	415.48
405.377	399.21
405.755	402.15
406.133	427.01
406.511	385.2
406.889	410.29
407.267	414.81
407.645	403.73
408.023	431.08
408.401	428.59
408.779	423.84
409.156	418.42
409.534	411.64
409.912	426.1
410.29	439.44
410.667	449.83
411.045	437.4
411.422	404.86
411.8	450.28
412.178	437.63
412.555	444.18
412.933	439.89
413.31	444.18
413.687	460.45
414.065	476.5
414.442	458.42
414.819	475.37
415.197	474.01
415.574	482.6
415.951	482.6
416.328	480.79
416.705	477.4
417.082	467.46
417.46	491.64
417.837	466.56
418.214	480.34
418.591	502.71
418.967	475.59
419.344	496.16
419.721	491.41
420.098	517.85
420.475	508.14
420.852	508.81
421.228	509.72
421.605	500.45
421.982	541.36
422.358	539.1
422.735	521.24
423.111	500.68
423.488	511.3
423.864	509.49
424.241	551.75
424.617	537.74
424.994	519.89
425.37	550.17
425.746	546.33
426.123	528.25
426.499	564.63
426.875	535.25
427.251	567.57
427.627	561.24
428.003	551.3
428.379	565.99
428.756	568.25
429.132	581.81
429.507	595.14
429.883	560.79
430.259	617.74
430.635	593.78
431.011	625.42
431.387	624.07
431.763	618.87
432.138	641.24
432.514	634.46
432.89	611.64
433.265	618.64
433.641	650.05
434.016	643.5
434.392	639.66
434.767	643.5
435.143	653.67
435.518	657.51
435.894	674.01
436.269	665.42
436.644	677.17
437.02	680.34
437.395	701.13
437.77	694.35
438.145	693.44
438.52	710.62
438.895	718.98
439.271	696.38
439.646	707.68
440.021	706.55
440.395	732.99
440.77	701.35
441.145	731.18
441.52	743.84
441.895	721.92
442.27	761.69
442.645	751.75
443.019	765.76
443.394	761.24
443.769	775.25
444.143	783.84
444.518	754.68
444.892	793.78
445.267	766.89
445.641	798.07
446.016	798.52
446.39	769.6
446.764	808.92
447.139	802.37
447.513	805.53
447.887	805.08
448.262	815.02
448.636	836.94
449.01	822.48
449.384	833.55
449.758	823.83
450.132	845.3
450.506	865.19
450.88	840.33
451.254	843.27
451.628	870.39
452.002	892.53
452.376	878.97
452.75	881.46
453.123	915.58
453.497	885.98
453.871	912.87
454.244	914.45
454.618	925.53
454.992	925.98
455.365	923.94
455.739	955.58
456.112	930.27
456.486	991.51
456.859	1000.78
457.232	994.45
457.606	995.13
457.979	999.65
458.352	1022.47
458.725	1016.82
459.099	1058.18
459.472	1066.77
459.845	1082.13
460.218	1088.91
460.591	1087.33
460.964	1075.81
461.337	1108.12
461.71	1123.26
462.083	1139.08
462.456	1134.56
462.829	1157.16
463.201	1173.2
463.574	1159.19
463.947	1185.18
464.32	1207.78
464.692	1216.82
465.065	1237.83
465.438	1277.16
465.81	1281.68
466.183	1295.46
466.555	1304.27
466.928	1322.35
467.3	1334.33
467.672	1375.68
468.045	1416.14
468.417	1408.68
468.789	1432.86
469.161	1439.86
469.534	1476.25
469.906	1475.79
470.278	1512.63
470.65	1545.4
471.022	1587.2
471.394	1604.15
471.766	1630.37
472.138	1669.91
472.51	1683.7
472.882	1732.51
473.253	1773.19
473.625	1803.92
473.997	1851.83
474.369	1897.03
474.74	1865.16
475.112	1943.8
475.484	2008.44
475.855	2062.22
476.227	2049.79
476.598	2139.28
476.97	2170.92
477.341	2231.93
477.713	2273.06
478.084	2326.62
478.455	2400.74
478.827	2440.06
479.198	2546.05
479.569	2574.97
479.94	2653.39
480.311	2725.71
480.682	2791.69
481.053	2892.93
481.424	2959.15
481.795	3040.73
482.166	3131.57
482.537	3184.9
482.908	3302.64
483.279	3356.42
483.65	3466.7
484.021	3520.26
484.391	3688.62
484.762	3712.57
485.133	3823.3
485.503	3933.81
485.874	4033.24
486.244	4127.02
486.615	4261.26
486.985	4343.52
487.356	4487.69
487.726	4573.57
488.097	4725.2
488.467	4800
488.837	4983.05
489.207	5083.16
489.578	5190.5
489.948	5318.63
490.318	5490.38
490.688	5547.55
491.058	5718.39
491.428	5875.68
491.798	5930.82
492.168	6136.46
492.538	6190.47
492.908	6415.1
493.278	6496.68
493.648	6587.07
494.017	6727.63
494.387	6836.78
494.757	7004.69
495.126	7147.96
495.496	7225.47
495.866	7348.41
496.235	7478.35
496.605	7602.87
496.974	7704.56
497.344	7867.26
497.713	8012.35
498.082	8145.45
498.452	8268.61
498.821	8304.32
499.19	8442.39
499.559	8582.05
499.928	8698.43
500.298	8829.05
500.667	8929.16
501.036	9077.85
501.405	9106.55
501.774	9156.04
502.143	9295.7
502.512	9438.52
502.88	9572.53
503.249	9616.37
503.618	9688.23
503.987	9836.7
504.356	9925.97
504.724	10011.39
505.093	10095
505.462	10154.89
505.83	10270.82
506.199	10429.23
506.567	10531.15
506.936	10577.25
507.304	10728.21
507.672	10854.98
508.041	10807.75
508.409	10989.67
508.777	11101.53
509.145	11155.09
509.514	11247.51
509.882	11372.26
510.25	11366.38
510.618	11477.34
510.986	11492.71
511.354	11669.42
511.722	11793.72
512.09	11867.84
512.458	11819.7
512.826	12054.73
513.193	12019.7
513.561	12115.06
513.929	12259.47
514.297	12347.83
514.664	12371.78
515.032	12436.64
515.4	12578.33
515.767	12569.29
516.135	12601.15
516.502	12529.97
516.869	12809.28
517.237	12871.2
517.604	12843.18
517.972	12931.09
518.339	13098.09
518.706	13071.42
519.073	13105.32
519.44	13145.09
519.808	13294.01
520.175	13282.26
520.542	13424.41
520.909	13498.53
521.276	13477.96
521.643	13558.19
522.009	13704.85
522.376	13723.38
522.743	13754.57
523.11	13966.09
523.477	13992.75
523.843	13989.59
524.21	14151.85
524.577	14235.01
524.943	14279.75
525.31	14287.66
525.676	14421.22
526.043	14413.31
526.409	14517.94
526.776	14644.49
527.142	14563.36
527.508	14612.85
527.874	14700.76
528.241	14745.05
528.607	14857.82
528.973	14887.42
529.339	14899.4
529.705	14866.85
530.071	14989.11
530.437	15119.5
530.803	15047.87
531.169	15131.25
531.535	15072.95
531.901	15165.15
532.267	15136.68
532.632	15185.94
532.998	15167.41
533.364	15324.47
533.73	15297.13
534.095	15318.14
534.461	15366.05
534.826	15337.35
535.192	15389.33
535.557	15472.49
535.923	15366.05
536.288	15409.67
536.653	15415.54
537.019	15326.96
537.384	15461.42
537.749	15463.45
538.114	15413.28
538.479	15470.23
538.845	15558.59
539.21	15466.84
539.575	15457.12
539.94	15451.92
540.305	15543.45
540.67	15514.52
541.034	15430.91
541.399	15571.24
541.764	15462.55
542.129	15534.18
542.494	15464.81
542.858	15486.5
543.223	15470.91
543.587	15583.45
543.952	15460.96
544.316	15442.21
544.681	15492.83
545.045	15444.69
545.41	15596.55
545.774	15528.53
546.138	15420.51
546.503	15381.42
546.867	15407.63
547.231	15547.29
547.595	15469.78
547.959	15408.31
548.324	15498.48
548.688	15345.49
549.052	15403.11
549.416	15382.77
549.779	15469.78
550.143	15405.37
550.507	15471.81
550.871	15487.86
551.235	15305.71
551.599	15521.98
551.962	15393.62
552.326	15502.54
552.689	15514.75
553.053	15407.41
553.417	15465.94
553.78	15519.04
554.143	15449.66
554.507	15480.62
554.87	15564.01
555.234	15609.66
555.597	15470
555.96	15429.78
556.323	15587.74
556.686	15465.71
557.05	15532.37
557.413	15615.31
557.776	15550.23
558.139	15672.26
558.502	15588.19
558.865	15648.3
559.228	15738.02
559.59	15628.87
559.953	15759.71
560.316	15794.97
560.679	15866.15
561.041	15886.72
561.404	15802.88
561.767	15915.19
562.129	15854.63
562.492	15992.47
562.854	15896.21
563.217	15929.43
563.579	15969.88
563.941	16046.48
564.304	16021.4
564.666	16164.22
565.028	16201.96
565.39	16085.35
565.753	16200.15
566.115	16211.23
566.477	16287.38
566.839	16348.85
567.201	16320.6
567.563	16259.81
567.925	16414.16
568.287	16436.98
568.648	16379.58
569.01	16427.94
569.372	16541.61
569.734	16436.31
570.095	16441.05
570.457	16601.72
570.819	16712.23
571.18	16557.43
571.542	16723.98
571.903	16607.6
572.265	16754.04
572.626	16766.01
572.987	16734.83
573.349	16750.42
573.71	16823.64
574.071	16912.68
574.432	16878.1
574.794	16983.86
575.155	16988.83
575.516	16920.59
575.877	16854.83
576.238	16947.03
576.599	17004.65
576.96	16963.3
577.32	16975.05
577.681	17093.46
578.042	17070.64
578.403	17018.21
578.763	16961.04
579.124	16998.55
579.485	17151.77
579.845	17154.03
580.206	17126.68
580.566	17144.76
580.927	17136.4
581.287	17131.65
581.648	17064.54
582.008	17239.45
582.368	17168.49
582.728	17109.28
583.089	17177.98
583.449	17159.22
583.809	17214.59
584.169	17156.74
584.529	17099.56
584.889	17190.41
585.249	17129.85
585.609	17051.43
585.969	17147.25
586.329	17055.95
586.688	17090.98
587.048	17222.73
587.408	17100.24
587.768	17091.43
588.127	17093.01
588.487	17093.01
588.846	17184.08
589.206	17039
589.565	17092.11
589.925	17048.94
590.284	17036.06
590.643	17058.44
591.003	17054.82
591.362	17141.82
591.721	17151.99
592.08	17058.89
592.44	17098.21
592.799	17039.23
593.158	17036.97
593.517	16994.03
593.876	17056.4
594.235	16925.78
594.593	17048.27
594.952	17049.4
595.311	16947.7
595.67	16990.64
596.029	17128.49
596.387	17104.54
596.746	17114.93
597.104	17041.49
597.463	17022.28
597.822	17099.56
598.18	17009.85
598.538	17010.3
598.897	17051.2
599.255	16892.11
599.613	17161.03
599.972	17092.79
600.33	17069.51
600.688	16872.45
601.046	17038.32
601.404	17070.86
601.762	17055.72
602.12	17087.36
602.478	17131.65
602.836	17177.98
603.194	17036.97
603.552	17044.2
603.91	17065.22
604.268	17129.85
604.625	17078.77
604.983	17104.76
605.341	17026.8
605.698	17239.22
606.056	17244.19
606.413	17121.48
606.771	17196.29
607.128	17217.3
607.485	17243.97
607.843	17191.31
608.2	17311.76
608.557	17271.09
608.914	17168.49
609.272	17208.04
609.629	17360.57
609.986	17342.95
610.343	17348.82
610.7	17482.61
611.057	17366
611.414	17379.11
611.771	17366
612.127	17482.15
612.484	17419.78
612.841	17356.51
613.198	17401.93
613.554	17414.13
613.911	17543.17
614.267	17383.62
614.624	17535.26
614.98	17502.94
615.337	17622.94
615.693	17579.55
616.05	17490.97
616.406	17677.63
616.762	17575.26
617.118	17673.79
617.475	17584.52
617.831	17707.91
618.187	17722.15
618.543	17593.56
618.899	17919.88
619.255	17732.32
619.611	17723.73
619.967	17758.98
620.323	17832.2
620.678	17780.68
621.034	17690.06
621.39	17714.92
621.746	17790.62
622.101	17974.34
622.457	17742.26
622.812	17857.06
623.168	17812.09
623.523	17913.55
623.879	17883.95
624.234	17769.83
624.589	17875.82
624.945	17856.83
625.3	17863.84
625.655	17864.97
626.01	17943.38
626.365	17908.58
626.72	17891.86
627.075	17821.58
627.43	17908.13
627.785	17876.49
628.14	17751.3
628.495	17849.83
628.85	17818.42
629.205	17692.32
629.559	17806.44
629.914	17768.93
630.269	17763.28
630.623	17739.55
630.978	17787.91
631.332	17808.25
631.687	17767.8
632.041	17728.93
632.396	17765.54
632.75	17687.57
633.104	17745.88
633.459	17589.5
633.813	17669.72
634.167	17635.6
634.521	17633.56
634.875	17594.69
635.229	17653.67
635.583	17538.87
635.937	17578.87
636.291	17516.28
636.645	17522.38
636.999	17440.57
637.352	17523.51
637.706	17333.46
638.06	17510.4
638.413	17429.5
638.767	17403.74
639.121	17446.45
639.474	17390.4
639.828	17328.49
640.181	17286.9
640.534	17363.74
640.888	17291.88
641.241	17242.16
641.594	17158.09
641.947	17246.45
642.301	17264.76
642.654	17343.63
643.007	17351.76
643.36	17261.14
643.713	17263.18
644.066	17349.95
644.419	17155.38
644.771	17030.41
645.124	16921.04
645.477	16923.75
645.83	16745.9
646.182	16649.86
646.535	16710.2
646.888	16561.95
647.24	16607.15
647.593	16730.08
647.945	16584.32
648.298	16573.48
648.65	16567.6
649.002	16516.98
649.355	16611.44
649.707	16549.3
650.059	16643.53
650.411	16842.62
650.763	16878.55
651.115	17073.35
651.467	17022.73
651.819	16934.15
652.171	16963.52
652.523	16922.39
652.875	16901.6
653.227	16914.03
653.578	16947.03
653.93	16892.56
654.282	16962.39
654.633	16934.15
654.985	16916.74
655.337	16913.35
655.688	16891.43
656.039	17055.95
656.391	16819.57
656.742	16845.11
657.094	16785.45
657.445	17033.8
657.796	16859.57
658.147	16904.09
658.498	16918.55
658.849	16922.39
659.2	16919.46
659.551	16881.72
659.902	16903.41
660.253	16907.48
660.604	16962.17
660.955	16839.46
661.306	17007.59
661.656	16918.33
662.007	16935.05
662.358	16936.63
662.708	16897.76
663.059	16914.03
663.409	16875.16
663.76	16936.4
664.11	16860.25
664.461	16939.34
664.811	16866.12
665.161	16896.63
665.511	16907.48
665.862	16974.6
666.212	17020.92
666.562	17076.06
666.912	16949.51
667.262	16994.93
667.612	16933.24
667.962	17013.01
668.312	16968.49
668.662	16967.36
669.011	16883.75
669.361	16791.78
669.711	16886.46
670.06	16934.15
670.41	16824.09
670.76	16877.88
671.109	16860.93
671.459	16888.27
671.808	16808.95
672.157	16893.47
672.507	16687.15
672.856	16753.13
673.205	16755.84
673.554	16912.45
673.904	16755.62
674.253	16810.76
674.602	16856.18
674.951	16642.4
675.3	16455.97
675.649	16684.43
675.998	16689.41
676.346	16679.91
676.695	16739.35
677.044	16535.96
677.393	16686.92
677.741	16707.03
678.09	16673.59
678.438	16639.92
678.787	16576.64
679.135	16596.07
679.484	16513.14
679.832	16521.95
680.181	16356.99
680.529	16451.67
680.877	16412.8
681.225	16451.22
681.573	16531.67
681.922	16393.37
682.27	16342.3
682.618	16428.62
682.966	16305.91
683.314	16307.72
683.661	16283.77
684.009	16184.11
684.357	16132.58
684.705	16201.28
685.053	16130.32
685.4	16131.23
685.748	16029.08
686.095	16097.1
686.443	15991.57
686.79	15940.95
687.138	15903.44
687.485	15937.56
687.832	15890.1
688.18	15898.69
688.527	15746.61
688.874	15867.73
689.221	15768.07
689.568	15699.83
689.915	15657.34
690.262	15641.52
690.609	15610.11
690.956	15507.06
691.303	15534.18
691.65	15413.06
691.997	15431.59
692.344	15238.14
692.69	15307.07
693.037	15284.92
693.383	15172.38
693.73	15204.7
694.077	15084.25
694.423	15046.29
694.769	15009
695.116	15032.5
695.462	14899.62
695.808	14870.7
696.155	14950.24
696.501	14756.35
696.847	14765.16
697.193	14664.15
697.539	14759.97
697.885	14533.3
698.231	14473.42
698.577	14517.26
698.923	14483.36
699.269	14388.22
699.614	14291.05
699.96	14277.94
700.306	14256.48
700.651	14162.92
700.997	14129.02
701.342	14135.35
701.688	14065.52
702.033	14019.42
702.379	13973.77
702.724	13992.98
703.069	13980.32
703.415	13808.8
703.76	13757.73
704.105	13794.79
704.45	13701.46
704.795	13731.07
705.14	13635.25
705.485	13666.43
705.83	13571.97
706.175	13551.18
706.52	13470.51
706.865	13448.81
707.209	13428.93
707.554	13332.66
707.899	13447.91
708.243	13358.87
708.588	13348.48
708.932	13191.87
709.277	13190.29
709.621	13173.57
709.966	13133.79
710.31	13129.27
710.654	13012.21
710.998	13053.57
711.342	12916.4
711.687	12986.45
712.031	12946.23
712.375	12822.61
712.719	12927.47
713.063	12890.64
713.407	12891.77
713.75	12860.58
714.094	12786.68
714.438	12746.46
714.782	12696.74
715.125	12690.64
715.469	12721.83
715.812	12601.15
716.156	12535.16
716.499	12593.24
716.843	12596.63
717.186	12456.07
717.53	12604.09
717.873	12500.82
718.216	12452
718.559	12495.17
718.902	12334.04
719.246	12452.91
719.589	12351.44
719.932	12383.08
720.275	12293.14
720.617	12313.7
720.96	12297.43
721.303	12277.09
721.646	12295.17
721.989	12254.72
722.331	12260.6
722.674	12209.52
723.016	12226.25
723.359	12234.38
723.701	12198
724.044	12154.38
724.386	12115.29
724.729	12095.85
725.071	12112.13
725.413	12067.83
725.755	12129.75
726.097	12021.28
726.439	12002.75
726.782	11932.69
727.124	12046.59
727.465	11965.91
727.807	12059.92
728.149	11963.2
728.491	11995.29
728.833	12011.56
729.175	11906.48
729.516	11945.12
729.858	11916.65
730.199	11963.2
730.541	11913.26
730.882	11945.8
731.224	11983.09
731.565	11943.09
731.906	11885.46
732.248	11898.35
732.589	11873.71
732.93	11850.89
733.271	11840.95
733.612	11888.85
733.953	11869.87
734.294	11896.09
734.635	11818.8
734.976	11900.38
735.317	11825.8
735.658	11807.27
735.999	11886.14
736.339	11831
736.68	11829.42
737.021	11842.3
737.361	11823.77
737.702	11850.66
738.042	11857.89
738.383	11841.62
738.723	11849.08
739.063	11862.19
739.404	11834.39
739.744	11816.31
740.084	11842.98
740.424	11874.17
740.764	11866.71
741.104	11912.58
741.444	11773.15
741.784	11788.52
742.124	11931.79
742.464	11828.97
742.804	11908.97
743.143	11917.55
743.483	11968.63
743.823	11965.46
744.162	11925.92
744.502	12045.69
744.841	11933.6
745.181	12075.06
745.52	12021.51
745.86	12099.24
746.199	12091.56
746.538	12200.03
746.877	12249.07
747.216	12254.72
747.556	12309.86
747.895	12317.77
748.234	12312.57
748.573	12356.64
748.911	12422.85
749.25	12487.26
749.589	12511.44
749.928	12621.26
750.267	12615.39
750.605	12606.35
750.944	12711.43
751.283	12729.51
751.621	12844.54
751.96	12888.38
752.298	13071.87
752.636	13044.53
752.975	13167.69
753.313	13173.57
753.651	13357.52
753.989	13274.13
754.327	13468.7
754.666	13524.52
755.004	13588.7
755.342	13772.65
755.679	13775.81
756.017	13851.06
756.355	14121.34
756.693	14058.06
757.031	14238.85
757.368	14213.31
757.706	14449.92
758.044	14405.85
758.381	14590.93
758.719	14728.33
759.056	14825.27
759.394	14927.64
759.731	14927.64
760.068	15094.42
760.405	15119.96
760.743	15297.58
761.08	15372.83
761.417	15395.43
761.754	15537.57
762.091	15627.29
762.428	15754.97
762.765	15813.5
763.102	16006.71
763.438	16016.43
763.775	16014.17
764.112	16185.01
764.449	16362.86
764.785	16414.61
765.122	16462.29
765.458	16431.33
765.795	16585.45
766.131	16666.58
766.467	16688.28
766.804	16771.89
767.14	16785.9
767.476	16888.72
767.812	16946.57
768.148	17059.57
768.485	17074.25
768.821	17104.76
769.157	17129.39
769.492	17169.17
769.828	17274.7
770.164	17237.64
770.5	17318.09
770.836	17331.2
771.171	17267.7
771.507	17437.41
771.842	17367.35
772.178	17409.61
772.513	17398.09
772.849	17380.46
773.184	17502.72
773.519	17597.18
773.855	17425.21
774.19	17467.24
774.525	17543.85
774.86	17557.63
775.195	17549.04
775.53	17435.6
775.865	17511.53
776.2	17491.87
776.535	17357.86
776.87	17500.46
777.205	17334.13
777.539	17348.37
777.874	17433.34
778.209	17306.11
778.543	17337.52
778.878	17278.54
779.212	17341.37
779.547	17302.05
779.881	17270.41
780.215	17209.84
780.55	17253.23
780.884	17171.2
781.218	17156.06
781.552	17130.52
781.886	17119.9
782.22	17095.5
782.554	16949.96
782.888	16884.2
783.222	16991.09
783.556	16872
783.889	16852.34
784.223	16789.29
784.557	16749.29
784.89	16827.03
785.224	16732.34
785.557	16661.61
785.891	16710.42
786.224	16516.3
786.558	16595.17
786.891	16438.11
787.224	16433.82
787.557	16410.77
787.891	16354.27
788.224	16371.22
788.557	16438.79
788.89	16440.37
789.223	16342.75
789.556	16256.2
789.888	16154.28
790.221	16065.69
790.554	16151.79
790.887	16024.11
791.219	16006.03
791.552	15913.83
791.884	15964
792.217	15884.68
792.549	15851.69
792.882	15712.93
793.214	15670.9
793.546	15757.68
793.879	15618.93
794.211	15579.83
794.543	15617.34
794.875	15515.88
795.207	15619.6
795.539	15484.01
795.871	15546.16
796.203	15406.73
796.535	15268.65
796.867	15227.07
797.198	15312.04
797.53	15198.15
797.862	15153.4
798.193	15125.38
798.525	15064.36
798.856	15196.56
799.188	14989.34
799.519	14936.23
799.85	14891.49
800.182	14867.08
800.513	14855.56
800.844	14759.29
801.175	14850.13
801.506	14825.5
801.837	14710.25
802.168	14686.07
802.499	14670.25
802.83	14584.83
803.161	14462.35
803.491	14514.32
803.822	14433.19
804.153	14453.31
804.483	14244.72
804.814	14258.06
805.145	14284.27
805.475	14313.65
805.805	14202.92
806.136	14211.28
806.466	14150.94
806.796	14149.36
807.126	14039.76
807.457	14008.35
807.787	13963.6
808.117	13918.41
808.447	13906.2
808.777	13929.7
809.107	13905.3
809.436	13926.77
809.766	13819.88
810.096	13790.95
810.426	13750.95
810.755	13768.13
811.085	13567.68
811.414	13734.68
811.744	13512.99
812.073	13587.11
812.403	13512.77
812.732	13423.95
813.061	13435.03
813.39	13395.48
813.719	13310.74
814.049	13441.13
814.378	13271.19
814.707	13243.62
815.036	13274.13
815.365	13298.31
815.693	13102.38
816.022	13122.72
816.351	13131.76
816.68	12992.78
817.008	13113.23
817.337	12925.66
817.665	12934.25
817.994	12947.13
818.322	13004.76
818.651	12872.78
818.979	12891.09
819.307	12953.23
819.636	12902.61
819.964	12814.48
820.292	12824.2
820.62	12802.5
820.948	12782.16
821.276	12833.24
821.604	12764.76
821.932	12803.41
822.259	12717.53
822.587	12771.99
822.915	12671.88
823.243	12812.22
823.57	12842.73
823.898	12689.51
824.225	12681.15
824.553	12734.93
824.88	12706.69
825.207	12783.07
825.535	12698.78
825.862	12736.29
826.189	12641.83
826.516	12794.14
826.843	12804.54
827.17	12708.49
827.497	12697.19
827.824	12764.09
828.151	12787.59
828.478	12769.28
828.805	12719.79
829.131	12747.59
829.458	12743.52
829.785	12756.18
830.111	12671.66
830.438	12807.02
830.764	12712.11
831.09	12729.96
831.417	12601.15
831.743	12760.92
832.069	12660.36
832.395	12604.09
832.722	12628.27
833.048	12633.02
833.374	12660.59
833.7	12564.54
834.026	12685.67
834.351	12648.38
834.677	12587.37
835.003	12609.51
835.329	12585.33
835.654	12620.36
835.98	12497.65
836.306	12596.41
836.631	12496.3
836.956	12576.52
837.282	12612
837.607	12444.09
837.932	12416.07
838.258	12424.89
838.583	12424.21
838.908	12318.22
839.233	12302.4
839.558	12358.67
839.883	12307.6
840.208	12256.08
840.533	12188.96
840.858	12287.49
841.182	12325.23
841.507	12247.71
841.832	12119.58
842.156	12138.11
842.481	12171.56
842.805	12075.06
843.13	12088.4
843.454	12037.78
843.778	11971.79
844.103	11942.41
844.427	11914.39
844.751	11891.34
845.075	11906.03
845.399	11920.04
845.723	11846.82
846.047	11761.17
846.371	11712.59
846.695	11651.57
847.019	11692.48
847.343	11623.78
847.666	11437.57
847.99	11504.46
848.313	11534.06
848.637	11317.12
848.96	11402.31
849.284	11364.12
849.607	11257.23
849.931	11197.12
850.254	11223.11
850.577	11076.67
850.9	11038.93
851.223	11014.3
851.546	10983.12
851.869	10840.75
852.192	11018.59
852.515	10896.56
852.838	10826.96
853.161	10840.07
853.483	10721.88
853.806	10779.28
854.129	10692.05
854.451	10663.8
854.774	10579.74
855.096	10616.57
855.419	10586.06
855.741	10516.46
856.063	10446.18
856.385	10432.62
856.708	10442.79
857.03	10380.19
857.352	10409.57
857.674	10322.57
857.996	10261.33
858.318	10194.89
858.64	10249.12
858.961	10247.99
859.283	10089.35
859.605	10116.02
859.926	10112.86
860.248	10131.16
860.57	10107.88
860.891	10067.66
861.212	10001.67
861.534	9920.32
861.855	9914.44
862.176	10018.62
862.498	9977.49
862.819	9950.37
863.14	9977.94
863.461	9904.95
863.782	9810.72
864.103	9837.83
864.424	9776.37
864.745	9819.76
865.065	9814.33
865.386	9760.1
865.707	9774.33
866.027	9779.76
866.348	9703.83
866.668	9747.22
866.989	9654.34
867.309	9615.24
867.63	9624.05
867.95	9588.8
868.27	9565.53
868.59	9542.7
868.91	9615.02
869.23	9518.97
869.55	9522.59
869.87	9561.01
870.19	9558.52
870.51	9541.12
870.83	9473.55
871.15	9419.77
871.469	9504.06
871.789	9461.35
872.109	9469.03
872.428	9360.11
872.748	9473.78
873.067	9445.3
873.386	9362.14
873.706	9324.85
874.025	9355.81
874.344	9310.39
874.663	9302.03
874.982	9296.83
875.301	9309.49
875.62	9283.27
875.939	9219.09
876.258	9229.04
876.577	9229.71
876.896	9215.25
877.214	9156.04
877.533	9199.66
877.852	9130.73
878.17	9211.86
878.489	9187
878.807	9125.08
879.125	9067.69
879.444	9095.03
879.762	9080.57
880.08	9080.11
880.398	8984.3
880.716	9028.59
881.034	9012.09
881.352	8993.34
881.67	8896.62
881.988	8991.53
882.306	8984.07
882.624	8950.85
882.941	8873.79
883.259	8895.03
883.577	8916.95
883.894	8865.88
884.212	8784.53
884.529	8784.98
884.846	8760.35
885.164	8779.11
885.481	8737.75
885.798	8686.9
886.115	8625.21
886.432	8624.53
886.75	8649.39
887.067	8673.35
887.383	8582.27
887.7	8609.84
888.017	8528.72
888.334	8560.58
888.651	8522.16
888.967	8434.26
889.284	8502.95
889.6	8453.01
889.917	8396.74
890.233	8412.34
890.55	8344.54
890.866	8373.69
891.182	8342.96
891.498	8295.28
891.815	8213.24
892.131	8280.81
892.447	8243.53
892.763	8252.11
893.079	8200.59
893.395	8142.29
893.71	8123.08
894.026	8146.35
894.342	8151.33
894.657	8027.03
894.973	8058.9
895.289	7964.89
895.604	8033.59
895.92	8006.02
896.235	7870.65
896.55	7884.89
896.865	7905.23
897.181	7808.74
897.496	7848.28
897.811	7795.85
898.126	7759.92
898.441	7713.14
898.756	7729.42
899.071	7630.66
899.386	7680.83
899.7	7605.12
900.015	7564.22
900.33	7516.54
900.644	7481.51
900.959	7568.52
901.273	7489.42
901.588	7514.05
901.902	7385.24
902.216	7380.27
902.531	7333.72
902.845	7364.23
903.159	7350.89
903.473	7329.88
903.787	7261.63
904.101	7187.06
904.415	7238.13
904.729	7191.12
905.042	7133.72
905.356	7116.55
905.67	7107.06
905.984	7024.35
906.297	7093.73
906.611	7059.15
906.924	7042.88
907.237	7020.51
907.551	6936.44
907.864	6878.59
908.177	6922.66
908.491	6859.83
908.804	6838.37
909.117	6825.71
909.43	6747.29
909.743	6738.93
910.056	6739.16
910.368	6696.45
910.681	6666.39
910.994	6681.53
911.307	6611.25
911.619	6536.23
911.932	6538.94
912.244	6558.82
912.557	6543.91
912.869	6498.26
913.181	6435.21
913.494	6444.03
913.806	6376.23
914.118	6397.02
914.43	6426.17
914.742	6375.1
915.054	6302.33
915.366	6334.88
915.678	6253.75
915.99	6270.24
916.302	6198.16
916.613	6165.61
916.925	6190.25
917.236	6161.32
917.548	6111.15
917.859	6145.5
918.171	6034.77
918.482	6033.64
918.794	5993.19
919.105	5967.65
919.416	5994.77
919.727	5971.72
920.038	5945.73
920.349	5877.26
920.66	5849.69
920.971	5857.15
921.282	5832.29
921.593	5808.79
921.903	5759.98
922.214	5774.21
922.525	5713.42
922.835	5706.42
923.146	5678.62
923.456	5710.03
923.767	5643.59
924.077	5651.5
924.387	5615.35
924.697	5586.19
925.008	5501.23
925.318	5522.69
925.628	5541
925.938	5529.02
926.248	5433.88
926.558	5431.85
926.867	5427.33
927.177	5401.79
927.487	5382.81
927.796	5329.03
928.106	5303.94
928.416	5307.56
928.725	5307.78
929.034	5251.51
929.344	5287.9
929.653	5251.97
929.962	5207.22
930.271	5161.57
930.581	5085.42
930.89	5183.95
931.199	5065.3
931.508	5116.6
931.817	5103.27
932.125	5073.67
932.434	5037.96
932.743	4934.23
933.051	4942.82
933.36	4950.96
933.669	4922.71
933.977	4915.48
934.286	4887.23
934.594	4878.64
934.902	4816.27
935.21	4833.45
935.519	4835.48
935.827	4783.5
936.135	4783.73
936.443	4740.79
936.751	4695.82
937.059	4710.96
937.367	4695.6
937.674	4694.24
937.982	4703.96
938.29	4645.2
938.597	4642.26
938.905	4596.16
939.213	4583.28
939.52	4507.81
939.827	4583.51
940.135	4513.91
940.442	4457.86
940.749	4483.63
941.056	4465.32
941.363	4435.72
941.67	4394.59
941.977	4393.91
942.284	4383.29
942.591	4351.2
942.898	4360.46
943.205	4364.76
943.511	4299
943.818	4319.79
944.125	4259.68
944.431	4240.02
944.738	4260.35
945.044	4231.88
945.35	4251.09
945.657	4155.05
945.963	4141.26
946.269	4110.75
946.575	4186.91
946.881	4116.18
947.187	4097.19
947.493	4072.11
947.799	4089.51
948.105	4043.64
948.41	4026.01
948.716	4030.98
949.022	3941.49
949.327	3946.46
949.633	3973.58
949.938	3936.97
950.244	3964.32
950.549	3908.95
950.854	3862.62
951.16	3879.8
951.465	3820.14
951.77	3826.02
952.075	3819.24
952.38	3805.9
952.685	3755.51
952.99	3725.23
953.294	3774.94
953.599	3752.8
953.904	3768.84
954.209	3677.54
954.513	3682.06
954.818	3686.36
955.122	3639.13
955.426	3652.46
955.731	3666.7
956.035	3602.07
956.339	3593.03
956.643	3614.27
956.948	3544.89
957.252	3566.81
957.556	3581.95
957.86	3505.8
958.163	3532.69
958.467	3484.56
958.771	3501.73
959.075	3495.18
959.378	3446.14
959.682	3447.04
959.985	3414.73
960.289	3434.39
960.592	3351.45
960.896	3400.72
961.199	3369.08
961.502	3385.35
961.805	3355.75
962.108	3323.88
962.411	3329.76
962.714	3269.87
963.017	3307.16
963.32	3259.02
963.623	3214.51
963.926	3242.3
964.228	3186.94
964.531	3185.58
964.833	3193.72
965.136	3165.24
965.438	3185.35
965.741	3134.73
966.043	3165.02
966.345	3113.49
966.648	3159.59
966.95	3093.61
967.252	3105.58
967.554	3074.17
967.856	3097.9
968.158	3073.72
968.46	3048.63
968.761	3030.78
969.063	3009.54
969.365	3001.4
969.666	3000.05
969.968	2951.01
970.269	2921.63
970.571	2949.65
970.872	2949.65
971.174	2936.77
971.475	2902.2
971.776	2875.76
972.077	2903.55
972.378	2878.7
972.679	2871.92
972.98	2858.13
973.281	2850.9
973.582	2829.66
973.883	2813.16
974.183	2822.88
974.484	2772.48
974.785	2803.67
975.085	2781.97
975.386	2771.58
975.686	2733.84
975.986	2727.29
976.287	2722.54
976.587	2686.61
976.887	2704.69
977.187	2689.32
977.487	2704.46
977.787	2673.05
978.087	2655.2
978.387	2624.69
978.687	2631.92
978.987	2605.93
979.286	2609.78
979.586	2597.12
979.885	2566.84
980.185	2580.4
980.484	2527.07
980.784	2548.53
981.083	2513.96
981.382	2515.99
981.682	2532.49
981.981	2486.16
982.28	2532.94
982.579	2478.03
982.878	2479.16
983.177	2450.23
983.475	2460.4
983.774	2433.51
984.073	2382.89
984.372	2395.32
984.67	2399.61
984.969	2390.12
985.267	2393.51
985.566	2388.09
985.864	2360.97
986.162	2339.27
986.461	2345.38
986.759	2299.05
987.057	2294.98
987.355	2317.35
987.653	2317.13
987.951	2315.55
988.249	2282.1
988.547	2275.32
988.844	2260.41
989.142	2249.56
989.44	2221.54
989.737	2225.38
990.035	2211.37
990.332	2170.69
990.63	2184.7
990.927	2190.13
991.224	2169.34
991.521	2183.35
991.819	2147.64
992.116	2147.87
992.413	2134.76
992.71	2131.37
993.006	2106.74
993.303	2094.76
993.6	2128.21
993.897	2084.37
994.193	2102.9
994.49	2066.51
994.787	2050.47
995.083	2045.72
995.379	2042.79
995.676	2064.93
995.972	2054.99
996.268	2017.7
996.565	2014.99
996.861	2020.41
997.157	1973.63
997.453	1997.14
997.749	1974.99
998.044	1964.14
998.34	1922.11
998.636	1945.39
998.932	1915.56
999.227	1919.4
999.523	1914.88
999.818	1925.05
1000.114	1914.88
1000.409	1899.29
1000.704	1860.19
1001	1873.52
1001.295	1863.81
1001.59	1840.08
1001.885	1826.07
1002.18	1794.66
1002.475	1822.9
1002.77	1794.88
1003.065	1801.66
1003.359	1763.7
1003.654	1770.93
1003.949	1774.09
1004.243	1772.74
1004.538	1743.58
1004.832	1748.1
1005.127	1747.88
1005.421	1739.29
1005.715	1696.13
1006.009	1702.23
1006.304	1683.92
1006.598	1677.6
1006.892	1666.98
1007.186	1607.77
1007.48	1652.51
1007.773	1652.51
1008.067	1648.45
1008.361	1617.94
1008.655	1599.41
1008.948	1619.75
1009.242	1636.02
1009.535	1596.92
1009.829	1570.93
1010.122	1591.27
1010.415	1565.06
1010.708	1586.3
1011.001	1554.44
1011.295	1530.03
1011.588	1535.68
1011.881	1488.9
1012.173	1532.52
1012.466	1527.09
1012.759	1496.13
1013.052	1515.79
1013.344	1491.84
1013.637	1496.13
1013.93	1443.25
1014.222	1460.65
1014.514	1436.7
1014.807	1461.78
1015.099	1428.79
1015.391	1439.64
1015.683	1419.98
1015.976	1410.71
1016.268	1409.13
1016.56	1390.15
1016.851	1399.41
1017.143	1394.67
1017.435	1392.18
1017.727	1370.94
1018.018	1362.58
1018.31	1356.7
1018.602	1351.96
1018.893	1301.56
1019.185	1308.79
1019.476	1286.19
1019.767	1309.25
1020.058	1281.68
1020.35	1296.36
1020.641	1286.19
1020.932	1284.61
1021.223	1280.77
1021.514	1258.85
1021.804	1224.5
1022.095	1235.35
1022.386	1223.37
1022.677	1209.13
1022.967	1238.29
1023.258	1202.58
1023.548	1219.3
1023.839	1208.68
1024.129	1185.41
1024.419	1174.11
1024.709	1178.85
1025	1190.38
1025.29	1159.19
1025.58	1161.9
1025.87	1164.84
1026.16	1134.79
1026.449	1131.62
1026.739	1128.69
1027.029	1121.68
1027.319	1092.53
1027.608	1103.83
1027.898	1112.87
1028.187	1100.89
1028.477	1091.17
1028.766	1063.6
1029.055	1069.25
1029.344	1074.9
1029.634	1037.16
1029.923	1041.91
1030.212	1056.37
1030.501	1034.9
1030.79	1040.78
1031.078	1034.45
1031.367	984.73
1031.656	1024.51
1031.945	1020.21
1032.233	1007.56
1032.522	1017.73
1032.81	997.84
1033.099	962.59
1033.387	958.52
1033.675	974.11
1033.963	963.94
1034.251	930.72
1034.54	957.39
1034.828	931.4
1035.116	956.26
1035.403	927.33
1035.691	912.42
1035.979	920.78
1036.267	927.11
1036.554	920.55
1036.842	864.96
1037.129	880.56
1037.417	896.37
1037.704	881.69
1037.992	884.4
1038.279	897.28
1038.566	843.95
1038.853	843.95
1039.14	843.95
