Data from hue_60_FLMS001491_48.txt Node
Date: Mon Feb 06 15:17:27 GMT 2017
User: dcchb
Spectrometer: FLMS00149
Trigger mode: 0
Integration Time (sec): 2.000000E-2
Scans to average: 10
Electric dark correction enabled: true
Nonlinearity correction enabled: false
Boxcar width: 0
XAxis mode: Wavelengths
Number of Pixels in Spectrum: 2048
>>>>>Begin Spectral Data<<<<<
341.393	-10.49
341.776	-10.49
342.16	-10.49
342.543	-75.13
342.927	-65.86
343.31	-74.22
343.693	-51.85
344.077	-44.84
344.46	-53.43
344.843	-43.49
345.226	-51.62
345.61	-53.43
345.993	-24.05
346.376	14.82
346.759	7.36
347.142	27.25
347.525	35.38
347.908	64.08
348.291	55.94
348.674	81.25
349.057	110.86
349.44	125.55
349.823	142.5
350.206	167.35
350.588	186.56
350.971	217.3
351.354	228.14
351.737	225.66
352.119	245.54
352.502	276.73
352.884	281.48
353.267	279.89
353.65	288.71
354.032	312.66
354.414	301.81
354.797	311.31
355.179	325.54
355.562	346.78
355.944	320.12
356.326	345.88
356.709	331.42
357.091	349.5
357.473	363.06
357.855	325.32
358.238	344.98
358.62	339.78
359.002	351.98
359.384	355.82
359.766	331.42
360.148	336.39
360.53	334.13
360.912	347.69
361.294	353.11
361.676	345.65
362.057	334.58
362.439	337.07
362.821	340.46
363.203	313.11
363.584	338.2
363.966	353.56
364.348	341.81
364.729	314.02
365.111	318.54
365.493	326.22
365.874	321.25
366.256	334.58
366.637	340.23
367.019	310.63
367.4	300.91
367.781	318.99
368.163	330.06
368.544	325.09
368.925	303.17
369.306	316.73
369.688	324.86
370.069	322.83
370.45	311.31
370.831	330.51
371.212	314.24
371.593	308.37
371.974	325.54
372.355	316.73
372.736	319.67
373.117	298.88
373.498	325.99
373.879	317.86
374.26	320.8
374.641	294.81
375.021	332.55
375.402	316.95
375.783	334.13
376.163	346.11
376.544	330.74
376.925	302.94
377.305	330.74
377.686	325.99
378.066	322.38
378.447	313.79
378.827	325.77
379.208	334.58
379.588	326.67
379.968	319.21
380.349	338.88
380.729	301.59
381.109	324.41
381.489	320.8
381.87	342.72
382.25	349.72
382.63	347.24
383.01	346.11
383.39	340.46
383.77	350.4
384.15	312.21
384.53	367.8
384.91	347.24
385.29	342.04
385.67	338.88
386.049	351.76
386.429	348.82
386.809	344.07
387.189	337.75
387.568	352.89
387.948	352.66
388.328	351.76
388.707	348.59
389.087	353.11
389.466	342.72
389.846	344.3
390.225	337.07
390.605	355.15
390.984	335.03
391.363	342.27
391.743	360.34
392.122	369.16
392.501	348.82
392.881	377.07
393.26	351.53
393.639	351.98
394.018	368.7
394.397	351.08
394.776	369.16
395.155	363.51
395.534	374.58
395.913	376.84
396.292	375.03
396.671	386.33
397.05	373.45
397.429	374.58
397.808	394.47
398.186	379.33
398.565	397.4
398.944	383.39
399.323	370.74
399.701	378.42
400.08	383.39
400.458	387.01
400.837	400.12
401.215	396.27
401.594	367.35
401.972	383.62
402.351	378.87
402.729	369.16
403.107	370.06
403.486	394.69
403.864	391.76
404.242	407.57
404.62	405.54
404.999	418.87
405.377	423.17
405.755	403.96
406.133	399.44
406.511	380
406.889	438.99
407.267	388.82
407.645	408.93
408.023	413.45
408.401	427.01
408.779	426.1
409.156	443.28
409.534	402.38
409.912	406.44
410.29	425.43
410.667	412.77
411.045	418.87
411.422	424.3
411.8	435.6
412.178	422.94
412.555	441.02
412.933	423.84
413.31	442.83
413.687	457.52
414.065	448.93
414.442	442.38
414.819	439.89
415.197	466.1
415.574	478.76
415.951	449.61
416.328	482.37
416.705	485.99
417.082	475.37
417.46	450.51
417.837	469.27
418.214	485.99
418.591	464.3
418.967	470.85
419.344	476.95
419.721	478.76
420.098	482.83
420.475	481.7
420.852	496.16
421.228	489.38
421.605	532.32
421.982	500.9
422.358	490.96
422.735	498.42
423.111	515.59
423.488	514.24
423.864	504.52
424.241	516.72
424.617	517.85
424.994	515.14
425.37	502.03
425.746	519.44
426.123	520.57
426.499	512.2
426.875	523.5
427.251	522.6
427.627	545.88
428.003	551.3
428.379	548.81
428.756	546.1
429.132	565.54
429.507	559.66
429.883	546.78
430.259	569.6
430.635	557.85
431.011	553.56
431.387	570.96
431.763	578.64
432.138	594.01
432.514	585.87
432.89	589.26
433.265	622.94
433.641	590.85
434.016	604.86
434.392	627.68
434.767	612.09
435.143	619.55
435.518	614.8
435.894	612.09
436.269	625.2
436.644	669.26
437.02	636.04
437.395	641.92
437.77	643.05
438.145	642.37
438.52	655.25
438.895	661.58
439.271	671.52
439.646	656.61
440.021	670.17
440.395	657.28
440.77	659.77
441.145	666.78
441.52	687.34
441.895	701.35
442.27	697.06
442.645	689.83
443.019	695.48
443.394	703.84
443.769	705.19
444.143	694.57
444.518	723.27
444.892	708.36
445.267	693.67
445.641	727.57
446.016	735.7
446.39	714.46
446.764	710.62
447.139	738.41
447.513	743.61
447.887	728.02
448.262	725.76
448.636	752.2
449.01	769.6
449.384	769.82
449.758	758.53
450.132	785.87
450.506	744.74
450.88	772.99
451.254	784.51
451.628	786.77
452.002	764.63
452.376	781.8
452.75	813.44
453.123	820.22
453.497	817.51
453.871	817.28
454.244	818.64
454.618	855.02
454.992	849.82
455.365	842.82
455.739	838.07
456.112	865.19
456.486	865.87
456.859	865.87
457.232	906.54
457.606	897.28
457.979	902.48
458.352	899.76
458.725	918.97
459.099	949.48
459.472	957.62
459.845	958.52
460.218	965.98
460.591	959.88
460.964	977.95
461.337	990.61
461.71	991.97
462.083	1036.03
462.456	1031.96
462.829	1024.96
463.201	1042.59
463.574	1043.26
463.947	1069.48
464.32	1084.62
464.692	1096.37
465.065	1111.96
465.438	1118.29
465.81	1141.79
466.183	1132.53
466.555	1165.97
466.928	1170.49
467.3	1191.28
467.672	1220.21
468.045	1214.11
468.417	1258.85
468.789	1243.26
469.161	1292.07
469.534	1301.79
469.906	1354.44
470.278	1367.32
470.65	1373.2
471.022	1416.81
471.394	1417.04
471.766	1461.56
472.138	1485.74
472.51	1521.67
472.882	1545.85
473.253	1559.18
473.625	1632.63
473.997	1657.03
474.369	1651.16
474.74	1722.57
475.112	1749.23
475.484	1801.44
475.855	1860.19
476.227	1881.21
476.598	1928.66
476.97	2000.75
477.341	2047.53
477.713	2089.79
478.084	2104.25
478.455	2202.56
478.827	2289.56
479.198	2360.52
479.569	2370.46
479.94	2473.73
480.311	2503.11
480.682	2612.04
481.053	2698.36
481.424	2800.96
481.795	2838.47
482.166	2884.8
482.537	2990.33
482.908	3098.12
483.279	3174.51
483.65	3287.27
484.021	3379.02
484.391	3506.7
484.762	3554.84
485.133	3642.74
485.503	3744.89
485.874	3877.99
486.244	3980.36
486.615	4092.45
486.985	4230.3
487.356	4364.53
487.726	4497.64
488.097	4595.26
488.467	4688.37
488.837	4846.55
489.207	4926.33
489.578	5081.35
489.948	5256.71
490.318	5347.78
490.688	5473.66
491.058	5630.71
491.428	5771.05
491.798	5945.96
492.168	6109.35
492.538	6180.08
492.908	6342.79
493.278	6531.93
493.648	6608.99
494.017	6821.87
494.387	6872.49
494.757	7060.05
495.126	7214.4
495.496	7364.68
495.866	7472.02
496.235	7651.9
496.605	7766.7
496.974	7980.26
497.344	8055.96
497.713	8237.2
498.082	8446.46
498.452	8582.5
498.821	8628.83
499.19	8772.33
499.559	8921.47
499.928	9063.62
500.298	9280.11
500.667	9367.34
501.036	9419.77
501.405	9659.76
501.774	9771.4
502.143	9901.11
502.512	10051.84
502.88	10193.53
503.249	10271.04
503.618	10452.96
503.987	10539.96
504.356	10740.86
504.724	10811.14
505.093	10980.18
505.462	11049.1
505.83	11195.99
506.199	11350.34
506.567	11584.23
506.936	11519.37
507.304	11888.4
507.672	11930.43
508.041	12003.2
508.409	12189.64
508.777	12280.03
509.145	12499.01
509.514	12538.33
509.882	12715.95
510.25	12807.7
510.618	13012.21
510.986	13049.05
511.354	13250.4
511.722	13450.62
512.09	13582.59
512.458	13606.55
512.826	13709.15
513.193	13857.16
513.561	13906.88
513.929	14035.01
514.297	14230.49
514.664	14367.88
515.032	14340.54
515.4	14663.7
515.767	14732.17
516.135	14862.11
516.502	14851.71
516.869	15153.18
517.237	15262.78
517.604	15262.55
517.972	15549.55
518.339	15640.17
518.706	15666.16
519.073	15826.38
519.44	15968.52
519.808	16119.25
520.175	16125.35
520.542	16434.27
520.909	16488.96
521.276	16578.67
521.643	16755.84
522.009	16937.76
522.376	17104.99
522.743	17153.35
523.11	17311.08
523.477	17580.23
523.843	17686.67
524.21	17900
524.577	17987.68
524.943	18149.71
525.31	18259.53
525.676	18365.07
526.043	18524.61
526.409	18657.94
526.776	18860.87
527.142	18838.95
527.508	18996.24
527.874	19167.53
528.241	19260.19
528.607	19292.73
528.973	19579.05
529.339	19620.63
529.705	19811.13
530.071	19992.14
530.437	20038.47
530.803	20292.47
531.169	20252.02
531.535	20279.37
531.901	20324.79
532.267	20530.89
532.632	20743.54
532.998	20723.65
533.364	20877.77
533.73	20937.2
534.095	21173.81
534.461	21153.92
534.826	21346.23
535.192	21382.62
535.557	21515.04
535.923	21527.24
536.288	21728.6
536.653	21805.43
537.019	21794.81
537.384	21904.18
537.749	22058.53
538.114	22078.42
538.479	22057.85
538.845	22200.9
539.21	22108.7
539.575	22373.1
539.94	22433.89
540.305	22552.98
540.67	22416.03
541.034	22626.88
541.399	22774.67
541.764	22744.84
542.129	22895.12
542.494	22966.53
542.858	23044.72
543.223	22985.06
543.587	23325.39
543.952	23193.19
544.316	23268.67
544.681	23348.67
545.045	23369.23
545.41	23577.36
545.774	23629.56
546.138	23700.29
546.503	23795.43
546.867	23693.74
547.231	24053.05
547.595	23950.68
547.959	24111.13
548.324	24141.19
548.688	24204.46
549.052	24221.19
549.416	24241.3
549.779	24347.06
550.143	24457.79
550.507	24597.45
550.871	24694.62
551.235	24662.76
551.599	24865.69
551.962	24869.53
552.326	25047.6
552.689	25236.53
553.053	25138
553.417	25150.43
553.78	25494.15
554.143	25445.79
554.507	25500.93
554.87	25611.43
555.234	25896.4
555.597	25793.8
555.96	25937.98
556.323	26002.83
556.686	25946.11
557.05	26174.35
557.413	26335.71
557.776	26328.02
558.139	26482.59
558.502	26600.33
558.865	26681.69
559.228	26919.19
559.59	26854.56
559.953	27038.74
560.316	27275.79
560.679	27408.22
561.041	27607.76
561.404	27617.93
561.767	27786.29
562.129	27739.74
562.492	28032.38
562.854	28025.6
563.217	27999.16
563.579	28206.17
563.941	28332.94
564.304	28488.42
564.666	28606.15
565.028	28603.44
565.39	28741.97
565.753	28916.2
566.115	29035.52
566.477	29208.4
566.839	29192.58
567.201	29408.85
567.563	29468.73
567.925	29636.64
568.287	29579.24
568.648	29737.88
569.01	29962.96
569.372	30134.25
569.734	30027.36
570.095	30251.31
570.457	30392.77
570.819	30468.93
571.18	30448.37
571.542	30645.65
571.903	30695.59
572.265	30661.92
572.626	30950.05
572.987	31017.62
573.349	31132.64
573.71	31188.23
574.071	31275.91
574.432	31387.1
574.794	31578.05
575.155	31547.55
575.516	31485.17
575.877	31760.65
576.238	31774.43
576.599	31853.75
576.96	31880.19
577.32	31928.55
577.681	32063.46
578.042	32111.6
578.403	32063.24
578.763	32251.71
579.124	32213.74
579.485	32431.82
579.845	32448.54
580.206	32398.37
580.566	32408.77
580.927	32512.27
581.287	32505.49
581.648	32451.48
582.008	32740.06
582.368	32589.33
582.728	32678.59
583.089	32720.4
583.449	32716.78
583.809	32663
584.169	32865.93
584.529	32692.6
584.889	32990.9
585.249	32746.16
585.609	32781.41
585.969	32945.02
586.329	32865.48
586.688	32846.27
587.048	32907.51
587.408	32821.41
587.768	32889.66
588.127	32872.03
588.487	32969.43
588.846	33193.6
589.206	32935.98
589.565	32982.31
589.925	33311.12
590.284	33010.78
590.643	33253.49
591.003	33129.2
591.362	33259.14
591.721	33272.92
592.08	33214.4
592.44	33226.82
592.799	33275.18
593.158	33221.17
593.517	33231.34
593.876	33369.19
594.235	33350.44
594.593	33292.36
594.952	33373.03
595.311	33250.33
595.67	33450.77
596.029	33592.46
596.387	33588.85
596.746	33681.95
597.104	33400.83
597.463	33498.46
597.822	33655.97
598.18	33417.1
598.538	33490.55
598.897	33946.81
599.255	33517.44
599.613	34071.32
599.972	33778.67
600.33	33935.51
600.688	33802.85
601.046	34110.19
601.404	34046.92
601.762	34026.13
602.12	34134.14
602.478	34256.18
602.836	34149.29
603.194	33994.71
603.552	34162.84
603.91	34105.45
604.268	34276.97
604.625	34216.63
604.983	34324.42
605.341	34239
605.698	34320.13
606.056	34420.69
606.413	34421.37
606.771	34590.86
607.128	34547.69
607.485	34566.68
607.843	34574.81
608.2	34789.04
608.557	34847.35
608.914	34781.13
609.272	35080.79
609.629	35025.87
609.986	35240.1
610.343	35072.88
610.7	35317.62
611.057	35323.04
611.414	35182.03
611.771	35329.14
612.127	35475.8
612.484	35386.09
612.841	35646.65
613.198	35530.72
613.554	35414.56
613.911	35746.31
614.267	35654.33
614.624	35499.53
614.98	35674.9
615.337	35935.91
615.693	35847.77
616.05	35809.58
616.406	36121.89
616.762	35796.25
617.118	36006.86
617.475	36029.24
617.831	36173.19
618.187	36115.79
618.543	36260.42
618.899	36375.67
619.255	36361.2
619.611	36396.01
619.967	36427.87
620.323	36611.59
620.678	36532.5
621.034	36407.76
621.39	36429.23
621.746	36492.27
622.101	36937.01
622.457	36740.63
622.812	36704.92
623.168	36818.82
623.523	36776.11
623.879	36900.63
624.234	36737.24
624.589	36906.05
624.945	36918.48
625.3	36911.47
625.655	36831.93
626.01	36964.8
626.365	36985.37
626.72	36840.51
627.075	36761.42
627.43	36908.31
627.785	36887.74
628.14	36985.14
628.495	37025.82
628.85	36921.19
629.205	36822.21
629.559	37165.48
629.914	36833.28
630.269	36848.65
630.623	36798.71
630.978	36741.31
631.332	36996.67
631.687	36981.08
632.041	36899.5
632.396	36857.92
632.75	36692.5
633.104	36800.52
633.459	36634.87
633.813	36760.74
634.167	36584.93
634.521	36697.69
634.875	36807.07
635.229	36640.07
635.583	36508.55
635.937	36598.71
636.291	36583.35
636.645	36624.47
636.999	36383.8
637.352	36713.06
637.706	36571.37
638.06	36591.26
638.413	36428.55
638.767	36296.12
639.121	36496.34
639.474	36291.6
639.828	36294.09
640.181	36314.88
640.534	36334.09
640.888	36175.67
641.241	36092.74
641.594	36116.01
641.947	36301.77
642.301	36196.92
642.654	36183.58
643.007	36275.56
643.36	36215.67
643.713	36038.73
644.066	36195.33
644.419	35974.32
644.771	35664.73
645.124	35382.02
645.477	35359.2
645.83	35172.31
646.182	35067.23
646.535	34994.69
646.888	35129.82
647.24	34936.84
647.593	35033.78
647.945	34912.66
648.298	34918.31
648.65	34732.1
649.002	34646.9
649.355	34900.45
649.707	34783.62
650.059	34856.61
650.411	35438.74
650.763	35223.83
651.115	35719.41
651.467	35510.61
651.819	35404.39
652.171	35479.65
652.523	35379.08
652.875	35373.21
653.227	35303.38
653.578	35436.03
653.93	35480.78
654.282	35344.28
654.633	35243.72
654.985	35241.69
655.337	35248.01
655.688	35296.37
656.039	35340.44
656.391	35097.96
656.742	35162.37
657.094	35129.15
657.445	35251.86
657.796	35246.43
658.147	35115.81
658.498	35253.21
658.849	35136.15
659.2	35076.94
659.551	34955.59
659.902	35113.33
660.253	34968.47
660.604	35102.25
660.955	35005.99
661.306	35093.67
661.656	34922.37
662.007	35047.34
662.358	35025.19
662.708	35039.43
663.059	35000.56
663.409	34773.9
663.76	35054.57
664.11	34960.34
664.461	35069.49
664.811	34882.83
665.161	34950.62
665.511	34840.11
665.862	34866.1
666.212	35013.22
666.562	34934.58
666.912	34838.76
667.262	34848.48
667.612	34939.77
667.962	34965.31
668.312	34880.11
668.662	35010.28
669.011	34827.91
669.361	34695.03
669.711	34733.23
670.06	34705.2
670.41	34573.91
670.76	34705.66
671.109	34708.14
671.459	34763.05
671.808	34632.66
672.157	34718.54
672.507	34629.5
672.856	34532.55
673.205	34582.27
673.554	34703.17
673.904	34530.74
674.253	34717.63
674.602	34429.96
674.951	34010.98
675.3	34010.08
675.649	34356.06
675.998	34469.5
676.346	34415.72
676.695	34596.05
677.044	34191.77
677.393	34363.74
677.741	34455.72
678.09	34252.56
678.438	34264.31
678.787	34263.18
679.135	34264.99
679.484	34061.15
679.832	34231.32
680.181	34036.29
680.529	34139.79
680.877	33894.83
681.225	34075.84
681.573	34206.91
681.922	33897.09
682.27	33682.86
682.618	33843.53
682.966	33743.87
683.314	33796.75
683.661	33731.67
684.009	33546.82
684.357	33481.51
684.705	33353.83
685.053	33489.19
685.4	33470.43
685.748	33301.4
686.095	33335.07
686.443	33098.69
686.79	33101.63
687.138	33209.2
687.485	33168.97
687.832	33087.84
688.18	33009.65
688.527	32858.92
688.874	32824.12
689.221	32740.06
689.568	32737.57
689.915	32709.78
690.262	32574.41
690.609	32446.51
690.956	32421.2
691.303	32364.93
691.65	32232.27
691.997	32329.22
692.344	31973.3
692.69	32065.72
693.037	32128.55
693.383	31840.42
693.73	32084.48
694.077	31691.95
694.423	31869.35
694.769	31648.11
695.116	31574.89
695.462	31548.22
695.808	31527.43
696.155	31485.63
696.501	31345.29
696.847	31319.53
697.193	31018.07
697.539	31209.02
697.885	31036.6
698.231	30814.46
698.577	30782.59
698.923	30843.16
699.269	30597.51
699.614	30440.91
699.96	30468.48
700.306	30491.53
700.651	30303.29
700.997	30271.2
701.342	30092.9
701.688	30104.42
702.033	29937.19
702.379	29990.75
702.724	29870.3
703.069	30009.73
703.415	29586.47
703.76	29679.8
704.105	29697.2
704.45	29554.38
704.795	29385.57
705.14	29364.78
705.485	29217.21
705.83	29183.99
706.175	29324.55
706.52	29127.72
706.865	28990.78
707.209	28940.61
707.554	28874.62
707.899	29030.78
708.243	28757.79
708.588	28753.27
708.932	28668.53
709.277	28362.09
709.621	28576.78
709.966	28418.14
710.31	28457.46
710.654	28249.78
710.998	28316.22
711.342	28349.21
711.687	28250.23
712.031	28086.39
712.375	28008.66
712.719	27998.49
713.063	27977.02
713.407	28002.78
713.75	27803.01
714.094	28024.93
714.438	27725.5
714.782	27838.94
715.125	27657.93
715.469	27631.49
715.812	27582.68
716.156	27396.47
716.499	27432.63
716.843	27374.32
717.186	27247.32
717.53	27384.04
717.873	27367.32
718.216	27274.44
718.559	27199.41
718.902	26917.84
719.246	27005.74
719.589	26933.66
719.932	26804.85
720.275	26826.77
720.617	26800.1
720.96	26758.52
721.303	26779.99
721.646	26786.09
721.989	26519.2
722.331	26751.97
722.674	26530.28
723.016	26578.19
723.359	26554.68
723.701	26435.59
724.044	26263.62
724.386	26202.15
724.729	26289.83
725.071	26114.69
725.413	26242.15
725.755	26304.29
726.097	26156.73
726.439	25843.06
726.782	25972.78
727.124	26094.13
727.465	25913.8
727.807	25844.19
728.149	25860.69
728.491	25789.73
728.833	25850.75
729.175	25707.25
729.516	25698.43
729.858	25656.63
730.199	25619.11
730.541	25584.54
730.882	25608.04
731.224	25721.94
731.565	25454.6
731.906	25497.08
732.248	25418.22
732.589	25347.71
732.93	25192.69
733.271	25166.25
733.612	25274.72
733.953	25275.62
734.294	25033.14
734.635	25068.39
734.976	25154.27
735.317	25115.4
735.658	25057.1
735.999	25015.06
736.339	24951.79
736.68	24988.4
737.021	24822.3
737.361	24896.65
737.702	24970.09
738.042	24794.73
738.383	24782.3
738.723	24761.06
739.063	24653.04
739.404	24678.35
739.744	24557.45
740.084	24657.56
740.424	24468.64
740.764	24612.81
741.104	24527.39
741.444	24344.35
741.784	24393.16
742.124	24399.94
742.464	24245.82
742.804	24359.03
743.143	24237.91
743.483	24272.26
743.823	24109.55
744.162	24169.21
744.502	24127.4
744.841	23997.91
745.181	24065.94
745.52	23969.89
745.86	24114.52
746.199	23862.1
746.538	23867.97
746.877	24013.28
747.216	23898.26
747.556	23823
747.895	23875.43
748.234	23709.33
748.573	23724.93
748.911	23566.29
749.25	23573.52
749.589	23572.16
749.928	23494.42
750.267	23532.62
750.605	23542.56
750.944	23453.97
751.283	23377.82
751.621	23399.06
751.96	23181.44
752.298	23244.49
752.636	23231.61
752.975	23133.53
753.313	23143.7
753.651	23102.12
753.989	23045.4
754.327	23098.05
754.666	22873.42
755.004	22992.97
755.342	22952.52
755.679	22779.87
756.017	22771.73
756.355	22751.85
756.693	22649.02
757.031	22660.55
757.368	22497.39
757.706	22547.33
758.044	22439.31
758.381	22472.76
758.719	22247.23
759.056	22217.85
759.394	22233.44
759.731	22136.27
760.068	22098.53
760.405	22007.01
760.743	22016.5
761.08	21998.64
761.417	21855.15
761.754	21815.82
762.091	21743.51
762.428	21650.41
762.765	21501.71
763.102	21615.6
763.438	21419.22
763.775	21391.88
764.112	21436.4
764.449	21372.45
764.785	21198.89
765.122	21166.8
765.458	21115.05
765.795	21118.22
766.131	21008.61
766.467	20945.79
766.804	20880.93
767.14	20811.78
767.476	20809.3
767.812	20620.83
768.148	20672.35
768.485	20516.42
768.821	20437.78
769.157	20390.33
769.492	20329.08
769.828	20279.59
770.164	20059.03
770.5	20088.86
770.836	20025.82
771.171	19959.15
771.507	19884.8
771.842	19730.23
772.178	19772.04
772.513	19714.41
772.849	19670.57
773.184	19586.5
773.519	19572.27
773.855	19518.71
774.19	19386.06
774.525	19296.34
774.86	19300.18
775.195	19266.06
775.53	19214.54
775.865	19055.22
776.2	18902
776.535	18840.54
776.87	18805.51
777.205	18752.4
777.539	18550.83
777.874	18576.81
778.209	18461.11
778.543	18481.22
778.878	18414.11
779.212	18286.88
779.547	18299.53
779.881	18208.24
780.215	18111.06
780.55	18159.65
780.884	18038.52
781.218	17988.13
781.552	17950.39
781.886	17855.93
782.22	17766.44
782.554	17651.64
782.888	17522.15
783.222	17526.22
783.556	17511.08
783.889	17389.95
784.223	17261.14
784.557	17167.36
784.89	17354.93
785.224	17206.23
785.557	17069.06
785.891	17115.38
786.224	17033.58
786.558	16962.84
786.891	16817.99
787.224	16815.96
787.557	16766.01
787.891	16697.99
788.224	16739.12
788.557	16687.37
788.89	16644.89
789.223	16544.55
789.556	16391.11
789.888	16449.19
790.221	16346.82
790.554	16220.27
790.887	16217.78
791.219	16149.76
791.552	16097.78
791.884	16082.42
792.217	16008.75
792.549	15895.75
792.882	15854.63
793.214	15783.89
793.546	15759.49
793.879	15622.99
794.211	15484.24
794.543	15549.55
794.875	15482.66
795.207	15538.7
795.539	15525.37
795.871	15430.91
796.203	15371.47
796.535	15195.21
796.867	15181.65
797.198	15142.1
797.53	15201.08
797.862	14988.89
798.193	15059.39
798.525	14996.12
798.856	15025.04
799.188	14816.91
799.519	14744.37
799.85	14725.39
800.182	14728.1
800.513	14722.9
800.844	14593.19
801.175	14711.15
801.506	14626.41
801.837	14562.91
802.168	14528.56
802.499	14490.14
802.83	14345.51
803.161	14298.51
803.491	14324.95
803.822	14340.99
804.153	14215.8
804.483	14167.89
804.814	14074.11
805.145	14078.85
805.475	14073.2
805.805	13999.31
806.136	14040.66
806.466	13987.1
806.796	13971.51
807.126	13766.77
807.457	13722.7
807.787	13767.45
808.117	13799.99
808.447	13711.41
808.777	13760.22
809.107	13693.55
809.436	13679.09
809.766	13587.11
810.096	13483.84
810.426	13432.32
810.755	13522.03
811.085	13433.67
811.414	13459.43
811.744	13333.11
812.073	13278.87
812.403	13283.17
812.732	13193.45
813.061	13269.83
813.39	13171.31
813.719	13132.89
814.049	13169.95
814.378	13168.82
814.707	13061.25
815.036	13056.51
815.365	12965.21
815.693	12895.83
816.022	12916.17
816.351	12778.1
816.68	12735.16
817.008	12770.19
817.337	12705.1
817.665	12643.64
817.994	12688.83
818.322	12671.66
818.651	12608.38
818.979	12589.4
819.307	12565.67
819.636	12566.8
819.964	12411.33
820.292	12536.97
820.62	12496.07
820.948	12485.9
821.276	12485.9
821.604	12460.36
821.932	12454.94
822.259	12468.73
822.587	12398.45
822.915	12390.08
823.243	12435.96
823.57	12418.56
823.898	12361.84
824.225	12357.54
824.553	12326.58
824.88	12293.14
825.207	12377.88
825.535	12332.68
825.862	12381.04
826.189	12280.71
826.516	12431.89
826.843	12368.84
827.17	12389.18
827.497	12375.85
827.824	12356.86
828.151	12424.89
828.478	12407.26
828.805	12447.03
829.131	12307.15
829.458	12318.67
829.785	12267.15
830.111	12320.71
830.438	12310.31
830.764	12357.77
831.09	12269.64
831.417	12294.95
831.743	12378.11
832.069	12315.06
832.395	12191.67
832.722	12274.15
833.048	12241.61
833.374	12249.52
833.7	12210.43
834.026	12246.81
834.351	12140.6
834.677	12152.8
835.003	12212.69
835.329	12198.45
835.654	12176.08
835.98	12101.05
836.306	12138.11
836.631	12088.17
836.956	12150.54
837.282	12110.32
837.607	12042.3
837.932	12071.22
838.258	12068.28
838.583	12016.31
838.908	11917.78
839.233	11950.1
839.558	11880.49
839.883	11832.36
840.208	11907.16
840.533	11857.67
840.858	11867.61
841.182	11809.53
841.507	11790.78
841.832	11772.02
842.156	11720.95
842.481	11681.4
842.805	11729.54
843.13	11666.04
843.454	11678.46
843.778	11558.69
844.103	11614.74
844.427	11554.63
844.751	11554.63
845.075	11495.87
845.399	11482.54
845.723	11394.63
846.047	11397.79
846.371	11309.21
846.695	11326.38
847.019	11208.65
847.343	11223.56
847.666	11104.47
847.99	11088.88
848.313	11090.23
848.637	11044.13
848.96	11053.4
849.284	10965.04
849.607	10932.04
849.931	10796
850.254	10748.32
850.577	10678.26
850.9	10664.03
851.223	10638.04
851.546	10598.49
851.869	10509.46
852.192	10638.72
852.515	10484.82
852.838	10411.83
853.161	10462.9
853.483	10404.37
853.806	10374.77
854.129	10343.36
854.451	10341.1
854.774	10330.02
855.096	10166.41
855.419	10198.05
855.741	10181.55
856.063	10140.88
856.385	10058.85
856.708	10058.39
857.03	9983.14
857.352	10041.9
857.674	10104.27
857.996	9964.38
858.318	9915.12
858.64	9908.12
858.961	9863.14
859.283	9833.99
859.605	9798.29
859.926	9837.83
860.248	9781.34
860.57	9686.43
860.891	9743.83
861.212	9744.5
861.534	9699.08
861.855	9651.17
862.176	9633.77
862.498	9613.89
862.819	9654.56
863.14	9606.2
863.461	9569.37
863.782	9501.8
864.103	9515.58
864.424	9475.13
864.745	9466.54
865.065	9452.53
865.386	9388.35
865.707	9423.83
866.027	9403.04
866.348	9376.15
866.668	9331.63
866.989	9342.03
867.309	9306.1
867.63	9325.98
867.95	9274.69
868.27	9275.82
868.59	9271.52
868.91	9158.53
869.23	9210.05
869.55	9146.1
869.87	9244.18
870.19	9191.52
870.51	9177.74
870.83	9207.34
871.15	9048.93
871.469	9101.36
871.789	9205.99
872.109	9165.08
872.428	9035.6
872.748	9153.78
873.067	9056.16
873.386	9052.32
873.706	9003.05
874.025	8993.11
874.344	8964.19
874.663	9005.09
874.982	8922.15
875.301	8963.28
875.62	8919.21
875.939	8908.14
876.258	8883.06
876.577	8878.54
876.896	8868.14
877.214	8849.84
877.533	8829.95
877.852	8822.04
878.17	8893.9
878.489	8793.34
878.807	8821.82
879.125	8804.19
879.444	8774.13
879.762	8702.27
880.08	8783.85
880.398	8713.8
880.716	8712.67
881.034	8671.54
881.352	8707.02
881.67	8666.57
881.988	8608.94
882.306	8553.8
882.624	8546.12
882.941	8530.75
883.259	8500.24
883.577	8489.17
883.894	8507.93
884.212	8455.5
884.529	8424.31
884.846	8529.85
885.164	8488.94
885.481	8424.09
885.798	8443.29
886.115	8364.2
886.432	8375.5
886.75	8356.97
887.067	8315.16
887.383	8282.85
887.7	8271.77
888.017	8209.63
888.334	8265.9
888.651	8179.12
888.967	8113.36
889.284	8189.52
889.6	8161.72
889.917	8106.35
890.233	8113.36
890.55	8041.27
890.866	8101.16
891.182	8010.99
891.498	8048.73
891.815	7961.05
892.131	8017.77
892.447	7935.74
892.763	7941.61
893.079	7888.06
893.395	7820.03
893.71	7851.45
894.026	7803.76
894.342	7794.5
894.657	7754.95
894.973	7739.13
895.289	7818.23
895.604	7719.47
895.92	7676.08
896.235	7663.43
896.55	7584.11
896.865	7595.86
897.181	7486.94
897.496	7567.39
897.811	7564.67
898.126	7509.08
898.441	7447.61
898.756	7446.94
899.071	7375.98
899.386	7387.73
899.7	7342.98
900.015	7252.59
900.33	7314.96
900.644	7305.7
900.959	7247.39
901.273	7221.63
901.588	7156.1
901.902	7156.78
902.216	7137.57
902.531	7155.19
902.845	7075.65
903.159	7112.26
903.473	7001.07
903.787	7037.23
904.101	7006.04
904.415	6949.77
904.729	6927.63
905.042	6944.35
905.356	6883.79
905.67	6827.52
905.984	6862.32
906.297	6772.83
906.611	6824.13
906.924	6752.27
907.237	6757.24
907.551	6704.13
907.864	6683.79
908.177	6681.53
908.491	6653.74
908.804	6663.45
909.117	6634.75
909.43	6588.2
909.743	6501.2
910.056	6502.33
910.368	6535.32
910.681	6476.57
910.994	6457.13
911.307	6409.9
911.619	6348.89
911.932	6336.68
912.244	6317.48
912.557	6353.41
912.869	6273.41
913.181	6285.61
913.494	6248.55
913.806	6182.11
914.118	6216.91
914.43	6144.15
914.742	6147.76
915.054	6139.17
915.366	6075.45
915.678	6056.24
915.99	6018.05
916.302	6017.37
916.613	5961.33
916.925	5989.35
917.236	5926.52
917.548	5924.49
917.859	5898.96
918.171	5834.1
918.482	5812.86
918.794	5802.01
919.105	5829.13
919.416	5740.77
919.727	5740.77
920.038	5718.39
920.349	5669.81
920.66	5690.15
920.971	5683.37
921.282	5639.98
921.593	5575.8
921.903	5481.34
922.214	5526.99
922.525	5532.19
922.835	5520.21
923.146	5483.82
923.456	5455.12
923.767	5448.57
924.077	5469.59
924.387	5387.56
924.697	5396.37
925.008	5379.42
925.318	5306.43
925.628	5315.69
925.938	5309.59
926.248	5227.11
926.558	5246.99
926.867	5235.47
927.177	5232.31
927.487	5140.1
927.796	5089.71
928.106	5130.16
928.416	5116.15
928.725	5069.15
929.034	5072.31
929.344	5081.58
929.653	5054.68
929.962	4983.95
930.271	4999.77
930.581	4933.33
930.89	4954.12
931.199	4927
931.508	4885.42
931.817	4903.05
932.125	4842.49
932.434	4852.43
932.743	4802.26
933.051	4777.4
933.36	4769.04
933.669	4779.44
933.977	4740.79
934.286	4709.16
934.594	4743.51
934.902	4672.32
935.21	4621.7
935.519	4621.47
935.827	4643.85
936.135	4602.04
936.443	4489.27
936.751	4573.11
937.059	4508.71
937.367	4531.53
937.674	4514.13
937.982	4522.27
938.29	4464.42
938.597	4450.86
938.905	4426
939.213	4372.67
939.52	4353.23
939.827	4407.02
940.135	4368.83
940.442	4374.25
940.749	4283.18
941.056	4303.74
941.363	4253.57
941.67	4268.49
941.977	4252.67
942.284	4185.1
942.591	4207.7
942.898	4168.15
943.205	4156.4
943.511	4120.24
943.818	4091.77
944.125	4111.66
944.431	4118.89
944.738	4085.67
945.044	4082.73
945.35	4038.66
945.657	4043.18
945.963	4048.61
946.269	3969.97
946.575	4004.77
946.881	3965.67
947.187	3979.23
947.493	3926.58
947.799	3939.68
948.105	3864.21
948.41	3888.39
948.716	3845.68
949.022	3810.2
949.327	3847.26
949.633	3805.45
949.938	3788.5
950.244	3781.72
950.549	3770.65
950.854	3790.08
951.16	3752.57
951.465	3741.5
951.77	3743.08
952.075	3684.1
952.38	3696.98
952.685	3674.15
952.99	3595.29
953.294	3653.14
953.599	3618.11
953.904	3646.13
954.209	3549.19
954.513	3578.79
954.818	3537.21
955.122	3525.46
955.426	3534.27
955.731	3556.64
956.035	3492.24
956.339	3483.65
956.643	3480.04
956.948	3431.68
957.252	3405.46
957.556	3451.34
957.86	3381.73
958.163	3377.21
958.467	3358
958.771	3346.48
959.075	3351.9
959.378	3322.53
959.682	3319.81
959.985	3324.56
960.289	3252.24
960.592	3251.12
960.896	3248.63
961.199	3248.18
961.502	3207.95
961.805	3209.08
962.108	3207.73
962.411	3159.14
962.714	3165.69
963.017	3152.36
963.32	3140.38
963.623	3163.21
963.926	3122.08
964.228	3096.09
964.531	3074.4
964.833	3089.31
965.136	3051.8
965.438	3051.12
965.741	3014.06
966.043	3064.91
966.345	2994.62
966.648	3031.91
966.95	2974.06
967.252	2951.69
967.554	2951.69
967.856	2962.99
968.158	2942.42
968.46	2903.1
968.761	2901.29
969.063	2888.41
969.365	2855.87
969.666	2871.01
969.968	2867.4
970.269	2827.17
970.571	2836.89
970.872	2807.06
971.174	2819.49
971.475	2795.08
971.776	2770.45
972.077	2812.71
972.378	2744.46
972.679	2786.27
972.98	2748.3
973.281	2734.07
973.582	2724.8
973.883	2685.03
974.183	2708.3
974.484	2694.29
974.785	2697.46
975.085	2676.67
975.386	2668.53
975.686	2617.01
975.986	2618.36
976.287	2611.36
976.587	2626.95
976.887	2582.21
977.187	2603.45
977.487	2557.35
977.787	2533.62
978.087	2568.2
978.387	2528.2
978.687	2524.58
978.987	2508.76
979.286	2487.97
979.586	2488.65
979.885	2483.9
980.185	2451.81
980.484	2503.79
980.784	2438.71
981.083	2449.78
981.382	2426.73
981.682	2423.34
981.981	2374.08
982.28	2412.49
982.579	2392.15
982.878	2403.23
983.177	2375.88
983.475	2375.43
983.774	2341.76
984.073	2334.3
984.372	2322.33
984.67	2309.9
984.969	2325.04
985.267	2329.78
985.566	2309.22
985.864	2275.55
986.162	2293.85
986.461	2260.63
986.759	2241.65
987.057	2241.88
987.355	2210.01
987.653	2210.24
987.951	2225.61
988.249	2197.36
988.547	2215.66
988.844	2187.19
989.142	2189.22
989.44	2151.93
989.737	2142.22
990.035	2161.65
990.332	2133.63
990.63	2125.04
990.927	2105.38
991.224	2118.04
991.521	2094.54
991.819	2088.21
992.116	2069.68
992.413	2071.94
992.71	2042.56
993.006	2051.15
993.303	2019.74
993.6	2028.32
993.897	2023.8
994.193	2031.71
994.49	2010.24
994.787	1979.51
995.083	2009.34
995.379	1970.47
995.676	1981.32
995.972	1939.74
996.268	1941.32
996.565	1961.43
996.861	1910.59
997.157	1916.23
997.453	1925.5
997.749	1903.35
998.044	1884.82
998.34	1873.75
998.636	1886.86
998.932	1882.34
999.227	1894.09
999.523	1836.69
999.818	1828.78
1000.114	1831.49
1000.409	1796.24
1000.704	1816.58
1001	1784.71
1001.295	1793.75
1001.59	1779.06
1001.885	1791.49
1002.18	1791.49
1002.475	1779.29
1002.77	1732.51
1003.065	1734.54
1003.359	1687.77
1003.654	1737.93
1003.949	1716.69
1004.243	1692.51
1004.538	1677.82
1004.832	1684.6
1005.127	1637.6
1005.421	1685.51
1005.715	1683.02
1006.009	1624.72
1006.304	1638.95
1006.598	1631.72
1006.892	1627.2
1007.186	1587.66
1007.48	1572.52
1007.773	1594.21
1008.067	1582.68
1008.361	1576.81
1008.655	1555.57
1008.948	1582.01
1009.242	1539.07
1009.535	1562.8
1009.829	1569.35
1010.122	1525.28
1010.415	1528.22
1010.708	1514.66
1011.001	1509.01
1011.295	1491.39
1011.588	1480.77
1011.881	1474.66
1012.173	1471.27
1012.466	1451.39
1012.759	1485.96
1013.052	1445.06
1013.344	1464.04
1013.637	1448.68
1013.93	1389.7
1014.222	1394.67
1014.514	1383.37
1014.807	1384.5
1015.099	1376.36
1015.391	1405.74
1015.683	1383.14
1015.976	1388.34
1016.268	1375.23
1016.56	1355.57
1016.851	1344.72
1017.143	1338.17
1017.435	1339.07
1017.727	1321.67
1018.018	1317.38
1018.31	1339.53
1018.602	1312.18
1018.893	1304.73
1019.185	1275.8
1019.476	1281.68
1019.767	1287.55
1020.058	1249.36
1020.35	1261.11
1020.641	1256.14
1020.932	1231.73
1021.223	1237.16
1021.514	1206.88
1021.804	1233.09
1022.095	1228.8
1022.386	1228.12
1022.677	1193.32
1022.967	1181.34
1023.258	1200.55
1023.548	1167.78
1023.839	1169.36
1024.129	1145.63
1024.419	1139.31
1024.709	1129.36
1025	1106.31
1025.29	1122.13
1025.58	1140.21
1025.87	1095.24
1026.16	1079.65
1026.449	1096.6
1026.739	1116.48
1027.029	1102.02
1027.319	1038.07
1027.608	1083.26
1027.898	1089.14
1028.187	1053.43
1028.477	1063.6
1028.766	1035.35
1029.055	1018.18
1029.344	1045.75
1029.634	1043.94
1029.923	1036.48
1030.212	1007.11
1030.501	999.87
1030.79	996.94
1031.078	1017.5
1031.367	1001.91
1031.656	989.71
1031.945	995.58
1032.233	977.28
1032.522	954.45
1032.81	934.79
1033.099	947.22
1033.387	912.65
1033.675	934.34
1033.963	944.28
1034.251	958.29
1034.54	912.87
1034.828	916.71
1035.116	923.72
1035.403	898.86
1035.691	885.98
1035.979	909.26
1036.267	893.21
1036.554	875.13
1036.842	886.88
1037.129	865.19
1037.417	864.96
1037.704	860.22
1037.992	837.85
1038.279	849.82
1038.566	852.99
1038.853	852.99
1039.14	852.99
