Data from hue_300_FLMS001491_00063.txt Node
Date: Tue Feb 07 15:51:03 GMT 2017
User: dcchb
Spectrometer: FLMS00149
Trigger mode: 0
Integration Time (sec): 2.000000E-2
Scans to average: 10
Electric dark correction enabled: true
Nonlinearity correction enabled: false
Boxcar width: 0
XAxis mode: Wavelengths
Number of Pixels in Spectrum: 2048
>>>>>Begin Spectral Data<<<<<
341.393	-30.48
341.776	-30.48
342.16	-30.48
342.543	-71.61
342.927	-74.09
343.31	-63.47
343.693	-70.03
344.077	-63.47
344.46	-37.03
344.843	-28.9
345.226	-46.3
345.61	-46.3
345.993	-38.16
346.376	-0.65
346.759	-11.95
347.142	24.21
347.525	56.98
347.908	46.35
348.291	70.31
348.674	92.68
349.057	115.73
349.44	134.94
349.823	126.58
350.206	177.42
350.588	196.41
350.971	194.6
351.354	228.27
351.737	252.9
352.119	253.13
352.502	281.15
352.884	273.92
353.267	299.91
353.65	298.55
354.032	315.95
354.414	306.91
354.797	304.43
355.179	315.73
355.562	334.26
355.944	326.35
356.326	298.55
356.709	313.92
357.091	319.79
357.473	333.58
357.855	340.13
358.238	340.58
358.62	328.61
359.002	328.38
359.384	334.93
359.766	329.96
360.148	342.39
360.53	334.93
360.912	325.67
361.294	324.99
361.676	337.65
362.057	334.93
362.439	330.19
362.821	310.98
363.203	323.41
363.584	316.4
363.966	319.12
364.348	319.57
364.729	324.31
365.111	317.99
365.493	337.65
365.874	329.51
366.256	304.88
366.637	315.27
367.019	309.85
367.4	299.91
367.781	314.6
368.163	311.21
368.544	310.3
368.925	312.56
369.306	342.17
369.688	297.87
370.069	309.4
370.45	303.75
370.831	328.16
371.212	309.85
371.593	325.44
371.974	306.91
372.355	331.54
372.736	324.54
373.117	312.79
373.498	324.09
373.879	331.54
374.26	304.2
374.641	297.65
375.021	320.47
375.402	334.48
375.783	314.82
376.163	328.16
376.544	320.7
376.925	325.67
377.305	307.82
377.686	318.21
378.066	321.38
378.447	313.92
378.827	353.24
379.208	315.27
379.588	336.97
379.968	321.15
380.349	341.04
380.729	321.6
381.109	325.22
381.489	336.52
381.87	341.26
382.25	359.79
382.63	335.61
383.01	380.58
383.39	328.16
383.77	364.09
384.15	353.69
384.53	337.87
384.91	342.62
385.29	351.88
385.67	371.77
386.049	333.13
386.429	339.91
386.809	376.06
387.189	360.7
387.568	366.57
387.948	343.3
388.328	375.39
388.707	368.15
389.087	353.69
389.466	379
389.846	388.94
390.225	368.83
390.605	387.36
390.984	375.39
391.363	386.68
391.743	378.1
392.122	387.14
392.501	387.81
392.881	395.5
393.26	399.11
393.639	376.74
394.018	397.98
394.397	383.52
394.776	386.91
395.155	396.85
395.534	383.07
395.913	432.33
396.292	397.76
396.671	390.98
397.05	388.27
397.429	399.34
397.808	414.71
398.186	405.22
398.565	409.96
398.944	374.26
399.323	399.34
399.701	405.89
400.08	426.23
400.458	422.39
400.837	419.9
401.215	403.63
401.594	417.64
401.972	421.71
402.351	431.2
402.729	432.11
403.107	443.41
403.486	447.93
403.864	445.89
404.242	452.9
404.62	447.25
404.999	443.86
405.377	444.76
405.755	467.81
406.133	483.18
406.511	463.74
406.889	477.76
407.267	499.45
407.645	483.41
408.023	491.54
408.401	498.32
408.779	501.94
409.156	503.29
409.534	498.32
409.912	539.22
410.29	528.15
410.667	549.84
411.045	539.45
411.422	536.74
411.8	558.43
412.178	574.93
412.555	551.2
412.933	569.5
413.31	598.43
413.687	600.46
414.065	600.69
414.442	610.41
414.819	621.25
415.197	617.64
415.574	643.85
415.951	634.59
416.328	670.75
416.705	665.32
417.082	661.03
417.46	675.04
417.837	681.82
418.214	704.64
418.591	701.25
418.967	709.39
419.344	719.56
419.721	734.25
420.098	757.75
420.475	765.66
420.852	755.49
421.228	757.07
421.605	761.36
421.982	766.79
422.358	799.33
422.735	805.43
423.111	789.39
423.488	799.1
423.864	820.12
424.241	843.85
424.617	836.16
424.994	841.59
425.37	863.28
425.746	864.19
426.123	857.86
426.499	872.32
426.875	859.89
427.251	911.87
427.627	926.33
428.003	935.82
428.379	930.4
428.756	910.51
429.132	972.88
429.507	975.37
429.883	1000.23
430.259	983.73
430.635	1008.82
431.011	1005.65
431.387	1044.75
431.763	1044.07
432.138	1045.42
432.514	1023.28
432.89	1060.57
433.265	1120.9
433.641	1088.59
434.016	1122.03
434.392	1123.84
434.767	1140.56
435.143	1162.03
435.518	1191.41
435.894	1160.68
436.269	1164.52
436.644	1177.62
437.02	1219.66
437.395	1209.26
437.77	1234.35
438.145	1251.97
438.52	1242.71
438.895	1287
439.271	1270.28
439.646	1291.97
440.021	1301.46
440.395	1311.41
440.77	1257.85
441.145	1286.77
441.52	1334.46
441.895	1303.95
442.27	1338.98
442.645	1358.64
443.019	1353.89
443.394	1357.73
443.769	1381.23
444.143	1369.03
444.518	1366.77
444.892	1392.99
445.267	1375.81
445.641	1404.51
446.016	1408.35
446.39	1380.33
446.764	1408.58
447.139	1420.1
447.513	1404.29
447.887	1418.07
448.262	1418.97
448.636	1435.7
449.01	1436.37
449.384	1454
449.758	1469.14
450.132	1457.39
450.506	1489.71
450.88	1492.87
451.254	1485.64
451.628	1499.2
452.002	1517.95
452.376	1534.45
452.75	1527.9
453.123	1521.57
453.497	1556.82
453.871	1563.83
454.244	1564.05
454.618	1579.42
454.992	1598.86
455.365	1595.69
455.739	1623.71
456.112	1640.89
456.486	1653.32
456.859	1640.66
457.232	1652.41
457.606	1682.7
457.979	1675.69
458.352	1722.02
458.725	1716.37
459.099	1733.32
459.472	1758.63
459.845	1748.91
460.218	1769.02
460.591	1802.69
460.964	1785.29
461.337	1826.65
461.71	1825.52
462.083	1825.97
462.456	1838.4
462.829	1884.05
463.201	1850.38
463.574	1867.78
463.947	1890.83
464.32	1916.59
464.692	1929.47
465.065	1971.95
465.438	1949.81
465.81	1983.03
466.183	1988.22
466.555	2027.77
466.928	2015.34
467.3	1996.36
467.672	2082.46
468.045	2118.62
468.417	2127.2
468.789	2094.89
469.161	2112.97
469.534	2160.88
469.906	2166.3
470.278	2174.21
470.65	2186.86
471.022	2248.56
471.394	2263.25
471.766	2265.05
472.138	2314.77
472.51	2365.62
472.882	2349.35
473.253	2347.54
473.625	2382.34
473.997	2440.64
474.369	2452.62
474.74	2455.1
475.112	2495.33
475.484	2507.76
475.855	2548.89
476.227	2576.68
476.598	2611.03
476.97	2587.53
477.341	2646.74
477.713	2685.16
478.084	2676.34
478.455	2751.14
478.827	2824.36
479.198	2847.19
479.569	2825.94
479.94	2909.56
480.311	2918.82
480.682	2964.02
481.053	2993.4
481.424	3019.61
481.795	3032.04
482.166	3060.96
482.537	3116.78
482.908	3173.05
483.279	3168.98
483.65	3204.24
484.021	3219.83
484.391	3266.61
484.762	3326.04
485.133	3302.54
485.503	3371.92
485.874	3399.03
486.244	3416.89
486.615	3442.42
486.985	3495.76
487.356	3558.13
487.726	3575.08
488.097	3602.65
488.467	3615.75
488.837	3649.65
489.207	3666.82
489.578	3765.58
489.948	3784.34
490.318	3813.26
490.688	3810.32
491.058	3805.8
491.428	3905.69
491.798	3900.94
492.168	3984.1
492.538	3982.97
492.908	4045.57
493.278	4068.85
493.648	4040.83
494.017	4101.16
494.387	4135.29
494.757	4129.41
495.126	4143.87
495.496	4195.17
495.866	4227.26
496.235	4233.14
496.605	4270.2
496.974	4299.8
497.344	4331.89
497.713	4340.71
498.082	4342.74
498.452	4396.97
498.821	4412.79
499.19	4447.82
499.559	4446.47
499.928	4460.48
500.298	4490.31
500.667	4472
501.036	4517.2
501.405	4534.15
501.774	4529.85
502.143	4573.24
502.512	4599.46
502.88	4620.25
503.249	4593.81
503.618	4618.66
503.987	4653.47
504.356	4626.35
504.724	4678.1
505.093	4721.71
505.462	4719
505.83	4715.16
506.199	4726.01
506.567	4822.27
506.936	4787.25
507.304	4876.28
507.672	4833.8
508.041	4869.5
508.409	4898.66
508.777	4927.36
509.145	4974.81
509.514	4997.64
509.882	4963.74
510.25	4939.33
510.618	5000.12
510.986	4998.09
511.354	5035.38
511.722	5017.3
512.09	5061.14
512.458	5090.29
512.826	5113.11
513.193	5127.8
513.561	5092.1
513.929	5205.54
514.297	5220.68
514.664	5160.12
515.032	5221.59
515.4	5188.59
515.767	5245.99
516.135	5274.69
516.502	5241.02
516.869	5328.48
517.237	5336.16
517.604	5323.96
517.972	5381.58
518.339	5355.82
518.706	5393.78
519.073	5379.55
519.44	5389.27
519.808	5417.96
520.175	5412.77
520.542	5438.53
520.909	5521.46
521.276	5507.68
521.643	5521.92
522.009	5577.28
522.376	5559.66
522.743	5586.32
523.11	5624.74
523.477	5672.42
523.843	5692.31
524.21	5748.58
524.577	5753.32
524.943	5724.17
525.31	5787.67
525.676	5799.2
526.043	5878.74
526.409	5859.31
526.776	5902.7
527.142	5949.25
527.508	5954.45
527.874	5999.42
528.241	6059.08
528.607	6062.47
528.973	6129.36
529.339	6150.15
529.705	6156.7
530.071	6158.96
530.437	6205.74
530.803	6237.15
531.169	6209.81
531.535	6279.19
531.901	6255.23
532.267	6336.36
532.632	6332.74
532.998	6406.64
533.364	6388.56
533.73	6435.57
534.095	6466.52
534.461	6446.41
534.826	6493.19
535.192	6529.35
535.557	6628.55
535.923	6550.14
536.288	6613.41
536.653	6581.78
537.019	6654.77
537.384	6633.53
537.749	6721.66
538.114	6745.61
538.479	6738.16
538.845	6802.34
539.21	6758.72
539.575	6787.65
539.94	6818.61
540.305	6909.9
540.67	6841.88
541.034	6900.86
541.399	6899.73
541.764	6977.02
542.129	6961.65
542.494	7018.37
542.858	7058.83
543.223	7069.45
543.587	7133.63
543.952	7049.56
544.316	7150.35
544.681	7132.04
545.045	7203.91
545.41	7246.39
545.774	7266.28
546.138	7233.96
546.503	7301.53
546.867	7307.41
547.231	7330.23
547.595	7427.63
547.959	7432.38
548.324	7437.12
548.688	7471.24
549.052	7462.66
549.416	7496.33
549.779	7487.51
550.143	7543.78
550.507	7588.53
550.871	7657.45
551.235	7619.26
551.599	7606.38
551.962	7680.73
552.326	7663.78
552.689	7730.45
553.053	7675.31
553.417	7736.77
553.78	7805.25
554.143	7771.12
554.507	7836.43
554.87	7856.77
555.234	7935.41
555.597	7876.21
555.96	7953.27
556.323	7967.28
556.686	7984.9
557.05	8028.52
557.413	8042.98
557.776	8038.46
558.139	8078.91
558.502	8067.39
558.865	8076.43
559.228	8164.11
559.59	8201.85
559.953	8193.71
560.316	8216.76
560.679	8297.21
561.041	8318.68
561.404	8346.48
561.767	8364.55
562.129	8343.09
562.492	8401.62
562.854	8367.49
563.217	8399.81
563.579	8449.3
563.941	8482.97
564.304	8515.96
564.666	8567.03
565.028	8591.44
565.39	8586.92
565.753	8599.12
566.115	8677.31
566.477	8714.15
566.839	8743.53
567.201	8748.72
567.563	8808.38
567.925	8817.88
568.287	8905.1
568.648	8903.07
569.01	8965.22
569.372	8979.45
569.734	8968.15
570.095	9115.04
570.457	9020.13
570.819	9057.87
571.18	9094.03
571.542	9153.69
571.903	9214.7
572.265	9241.14
572.626	9281.14
572.987	9352.32
573.349	9369.95
573.71	9450.4
574.071	9495.6
574.432	9533.79
574.794	9625.09
575.155	9668.7
575.516	9674.8
575.877	9750.73
576.238	9876.6
576.599	9957.28
576.96	10002.25
577.32	10059.42
577.681	10183.94
578.042	10300.77
578.403	10334.9
578.763	10398.4
579.124	10547.55
579.485	10624.83
579.845	10811.27
580.206	10812.4
580.566	11022.34
580.927	11101.66
581.287	11305.27
581.648	11363.8
582.008	11518.14
582.368	11635.43
582.728	11765.14
583.089	11966.95
583.449	12145.92
583.809	12295.98
584.169	12471.34
584.529	12662.07
584.889	12987.26
585.249	13074.49
585.609	13220.02
585.969	13506.57
586.329	13661.14
586.688	13834.24
587.048	14166.21
587.408	14330.05
587.768	14541.57
588.127	14828.34
588.487	15068.56
588.846	15374.99
589.206	15571.14
589.565	15898.37
589.925	16150.56
590.284	16317.34
590.643	16636.65
591.003	17008.17
591.362	17228.5
591.721	17506.91
592.08	17686.12
592.44	18135.37
592.799	18331.3
593.158	18610.16
593.517	18922.47
593.876	19194.33
594.235	19484.94
594.593	19686.97
594.952	20170.8
595.311	20362.66
595.67	20643.78
596.029	21061.4
596.387	21429.3
596.746	21771.43
597.104	21929.85
597.463	22175.04
597.822	22533
598.18	22652.31
598.538	23113.54
598.897	23366.19
599.255	23519.64
599.613	24196.91
599.972	24242.78
600.33	24648.42
600.688	24861.52
601.046	25200.27
601.404	25549.19
601.762	25712.35
602.12	26105.56
602.478	26336.96
602.836	26673.68
603.194	26629.61
603.552	27057.62
603.91	27217.84
604.268	27493.32
604.625	27717.94
604.983	27926.53
605.341	28162.68
605.698	28480.86
606.056	28702.55
606.413	28999.49
606.771	29300.05
607.128	29521.29
607.485	29599.02
607.843	29831.11
608.2	30144.32
608.557	30577.3
608.914	30571.88
609.272	30944.53
609.629	31189.26
609.986	31370.28
610.343	31506.32
610.7	31895.91
611.057	31921.9
611.414	32188.11
611.771	32464.03
612.127	32658.83
612.484	32867.19
612.841	33154.18
613.198	33184.47
613.554	33399.15
613.911	33620.16
614.267	33876.2
614.624	33919.59
614.98	34031.68
615.337	34331.78
615.693	34399.8
616.05	34589.85
616.406	34862.39
616.762	34877.08
617.118	34982.61
617.475	34985.55
617.831	35388.48
618.187	35494.91
618.543	35536.72
618.899	35774.91
619.255	35848.58
619.611	36038.18
619.967	36166.31
620.323	36346.19
620.678	36393.87
621.034	36435.45
621.39	36490.59
621.746	36717.03
622.101	37032.73
622.457	36812.17
622.812	37146.62
623.168	37263.46
623.523	37268.65
623.879	37350.23
624.234	37418.03
624.589	37451.92
624.945	37535.09
625.3	37610.34
625.655	37787.96
626.01	37809.2
626.365	37874.74
626.72	37982.53
627.075	37872.93
627.43	37902.31
627.785	37916.09
628.14	38122.19
628.495	38110.44
628.85	38324.9
629.205	38048.29
629.559	38501.39
629.914	38200.15
630.269	38430.2
630.623	38211.45
630.978	38264.78
631.332	38446.25
631.687	38670.65
632.041	38550.2
632.396	38582.52
632.75	38521.73
633.104	38456.42
633.459	38442.86
633.813	38400.83
634.167	38542.07
634.521	38578.45
634.875	38610.31
635.229	38673.59
635.583	38422.29
635.937	38533.25
636.291	38572.12
636.645	38419.36
636.999	38520.6
637.352	38666.81
637.706	38466.59
638.06	38566.02
638.413	38545.46
638.767	38549.75
639.121	38530.99
639.474	38332.35
639.828	38415.74
640.181	38511.11
640.534	38494.84
640.888	38408.06
641.241	38349.08
641.594	38365.57
641.947	38576.19
642.301	38345.91
642.654	38606.47
643.007	38464.33
643.36	38400.83
643.713	38298.23
644.066	38537.32
644.419	38267.5
644.771	38047.62
645.124	37653.28
645.477	37740.5
645.83	37475.2
646.182	37503.22
646.535	37208.77
646.888	37396.11
647.24	37186.4
647.593	37360.4
647.945	37406.28
648.298	37147.98
648.65	37114.31
649.002	37059.39
649.355	37103.46
649.707	37033.86
650.059	37406.73
650.411	37783.67
650.763	37789.32
651.115	38170.78
651.467	38017.79
651.819	38021.63
652.171	38069.31
652.523	37942.53
652.875	37949.09
653.227	37873.61
653.578	38095.75
653.93	37986.15
654.282	37836.32
654.633	37790.45
654.985	37775.98
655.337	37904.57
655.688	37827.28
656.039	37976.66
656.391	37721.52
656.742	37785.7
657.094	37787.96
657.445	38039.48
657.796	37758.58
658.147	37855.53
658.498	37926.26
658.849	37855.76
659.2	37777.79
659.551	37687.4
659.902	37876.09
660.253	37845.36
660.604	37692.14
660.955	37611.02
661.306	37711.35
661.656	37715.87
662.007	37800.16
662.358	37734.63
662.708	37773.27
663.059	37701.86
663.409	37577.35
663.76	37761.07
664.11	37509.78
664.461	37798.13
664.811	37643.78
665.161	37870.67
665.511	37555.88
665.862	37728.3
666.212	37742.76
666.562	37749.77
666.912	37667.96
667.262	37526.73
667.612	37662.54
667.962	37700.73
668.312	37641.98
668.662	37814.63
669.011	37707.96
669.361	37604.01
669.711	37528.53
670.06	37515.43
670.41	37531.92
670.76	37440.4
671.109	37612.37
671.459	37506.61
671.808	37589.77
672.157	37557.01
672.507	37447.18
672.856	37394.3
673.205	37422.1
673.554	37476.33
673.904	37290.12
674.253	37489.44
674.602	37481.53
674.951	36872.05
675.3	36738.27
675.649	37257.81
675.998	37206.06
676.346	37319.27
676.695	37429.78
677.044	37125.61
677.393	37154.08
677.741	37281.08
678.09	37085.15
678.438	37134.65
678.787	37140.75
679.135	37137.81
679.484	36936.46
679.832	37065.27
680.181	36740.76
680.529	36971.26
680.877	36838.83
681.225	36769.23
681.573	37077.02
681.922	36689.46
682.27	36537.82
682.618	36547.09
682.966	36523.59
683.314	36638.84
683.661	36452.63
684.009	36430.26
684.357	36386.42
684.705	36248.34
685.053	36243.6
685.4	36319.3
685.748	36113.88
686.095	36083.37
686.443	35936.71
686.79	35899.65
687.138	36000.89
687.485	35980.78
687.832	35798.41
688.18	35769.26
688.527	35592.54
688.874	35564.97
689.221	35601.58
689.568	35376.27
689.915	35412.66
690.262	35357.74
690.609	35260.8
690.956	35007.02
691.303	35058.32
691.65	35038.2
691.997	34848.83
692.344	34819.23
692.69	34658.33
693.037	34753.01
693.383	34477.31
693.73	34705.1
694.077	34503.53
694.423	34367.26
694.769	34163.2
695.116	34125.23
695.462	34133.14
695.808	34118.91
696.155	34083.43
696.501	33820.61
696.847	33957.33
697.193	33606.83
697.539	33779.25
697.885	33488.41
698.231	33393.05
698.577	33423.78
698.923	33224.47
699.269	33236.22
699.614	33048.88
699.96	32909.67
700.306	32982.66
700.651	32914.64
700.997	32820.86
701.342	32714.65
701.688	32789.45
702.033	32573.18
702.379	32611.83
702.724	32497.93
703.069	32511.49
703.415	32020.66
703.76	32126.64
704.105	32227.43
704.45	32052.07
704.795	31933.65
705.14	31664.28
705.485	31772.75
705.83	31832.19
706.175	31746.09
706.52	31667.67
706.865	31420.45
707.209	31464.51
707.554	31346.55
707.899	31471.97
708.243	31142.94
708.588	31062.26
708.932	30996.5
709.277	30944.53
709.621	30912.89
709.966	30768.94
710.31	30752.44
710.654	30394.26
710.998	30646.68
711.342	30654.14
711.687	30580.02
712.031	30460.7
712.375	30389.06
712.719	30469.51
713.063	30315.84
713.407	30388.83
713.75	30206.92
714.094	30126.24
714.438	30130.08
714.782	30040.14
715.125	29889.86
715.469	30009.41
715.812	29820.71
716.156	29580.04
716.499	29730.55
716.843	29708.85
717.186	29564.45
717.53	29693.71
717.873	29759.47
718.216	29545.47
718.559	29381.85
718.902	29264.8
719.246	29330.1
719.589	29217.34
719.932	29138.25
720.275	29060.96
720.617	29152.71
720.96	28998.59
721.303	29045.37
721.646	29027.51
721.989	28944.8
722.331	28796.79
722.674	28924.24
723.016	28770.57
723.359	28671.82
723.701	28773.06
724.044	28606.51
724.386	28432.28
724.729	28646.96
725.071	28487.87
725.413	28467.75
725.755	28473.63
726.097	28313.63
726.439	28238.38
726.782	28131.72
727.124	28460.97
727.465	28266.18
727.807	28096.92
728.149	28083.13
728.491	28102.57
728.833	28136.24
729.175	27927.2
729.516	27999.52
729.858	27872.97
730.199	28020.53
730.541	27761.11
730.882	27922.91
731.224	27959.52
731.565	27702.12
731.906	27780.77
732.248	27766.76
732.589	27565.86
732.93	27555.01
733.271	27498.51
733.612	27526.54
733.953	27617.38
734.294	27426.65
734.635	27403.38
734.976	27449.7
735.317	27277.28
735.658	27256.94
735.999	27367.67
736.339	27203.15
736.68	27279.08
737.021	27217.17
737.361	27120.67
737.702	27323.15
738.042	27179.43
738.383	27014.46
738.723	27087.9
739.063	26961.13
739.404	27032.54
739.744	26918.64
740.084	26955.25
740.424	26843.62
740.764	26871.64
741.104	26836.61
741.444	26572.21
741.784	26644.53
742.124	26768.14
742.464	26604.3
742.804	26648.37
743.143	26517.98
743.483	26559.33
743.823	26445.21
744.162	26395.94
744.502	26506.68
744.841	26387.13
745.181	26436.4
745.52	26377.64
745.86	26426.23
746.199	26332.44
746.538	26245.44
746.877	26482.27
747.216	26347.36
747.556	26363.85
747.895	26352.1
748.234	26162.73
748.573	26166.57
748.911	26145.33
749.25	26099.68
749.589	26019.68
749.928	26065.11
750.267	26164.31
750.605	25971.77
750.944	25983.98
751.283	25828.05
751.621	26046.12
751.96	25871.89
752.298	25748.5
752.636	25737.66
752.975	25743.53
753.313	25717.77
753.651	25746.02
753.989	25631.9
754.327	25590.54
754.666	25458.57
755.004	25550.77
755.342	25519.13
755.679	25494.95
756.017	25362.98
756.355	25535.63
756.693	25362.07
757.031	25369.53
757.368	25149.2
757.706	25282.3
758.044	25188.29
758.381	25111.23
758.719	25077.11
759.056	25195.75
759.394	25009.31
759.731	24899.49
760.068	24824.23
760.405	24840.28
760.743	24751.24
761.08	24840.05
761.417	24612.94
761.754	24686.38
762.091	24625.6
762.428	24575.2
762.765	24373.85
763.102	24536.78
763.438	24437.8
763.775	24305.83
764.112	24264.02
764.449	24309.9
764.785	24212.5
765.122	24111.48
765.458	23950.81
765.795	23909.68
766.131	23911.04
766.467	23864.26
766.804	23678.05
767.14	23646.64
767.476	23680.08
767.812	23455.46
768.148	23564.83
768.485	23367.78
768.821	23356.48
769.157	23190.38
769.492	23203.03
769.828	23151.06
770.164	22882.59
770.5	22912.42
770.836	22924.85
771.171	22811.63
771.507	22754.68
771.842	22670.39
772.178	22553.11
772.513	22481.25
772.849	22416.16
773.184	22350.85
773.519	22358.76
773.855	22174.81
774.19	22086.68
774.525	22055.27
774.86	21977.76
775.195	21962.39
775.53	21857.76
775.865	21837.87
776.2	21640.82
776.535	21528.95
776.87	21600.36
777.205	21455.74
777.539	21311.33
777.874	21385
778.209	21171.9
778.543	21212.35
778.878	21083.54
779.212	21013.04
779.547	20906.82
779.881	20916.77
780.215	20764.23
780.55	20893.04
780.884	20670.45
781.218	20469.77
781.552	20639.49
781.886	20509.32
782.22	20288.99
782.554	20297.57
782.888	20151.14
783.222	20120.63
783.556	20060.52
783.889	19940.75
784.223	19804.25
784.557	19736.91
784.89	19804.25
785.224	19642.45
785.557	19662.11
785.891	19573.98
786.224	19522
786.558	19467.54
786.891	19283.36
787.224	19231.84
787.557	19248.34
787.891	19088.34
788.224	19117.04
788.557	19084.27
788.89	18964.28
789.223	18909.81
789.556	18849.48
789.888	18754.79
790.221	18720.89
790.554	18538.3
790.887	18584.85
791.219	18574.91
791.552	18491.07
791.884	18364.52
792.217	18402.48
792.549	18331.07
792.882	18131.98
793.214	18175.82
793.546	18131.98
793.879	17973.34
794.211	17879.11
794.543	17943.74
794.875	17852.44
795.207	17826
795.539	17724.99
795.871	17822.16
796.203	17579.23
796.535	17512.34
796.867	17449.06
797.198	17407.03
797.53	17420.81
797.862	17289.97
798.193	17313.25
798.525	17179.92
798.856	17213.59
799.188	17079.81
799.519	16990.32
799.85	16829.19
800.182	16852.92
800.513	16885.46
800.844	16741.73
801.175	16807.04
801.506	16706.03
801.837	16687.05
802.168	16647.73
802.499	16635.98
802.83	16468.07
803.161	16441.86
803.491	16418.35
803.822	16452.48
804.153	16302.42
804.483	16252.93
804.814	16183.56
805.145	16189.66
805.475	16175.42
805.805	16085.71
806.136	16081.19
806.466	16088.19
806.796	16028.53
807.126	15904.69
807.457	15821.31
807.787	15876.45
808.117	15830.57
808.447	15766.39
808.777	15761.2
809.107	15712.38
809.436	15655.66
809.766	15588.09
810.096	15578.38
810.426	15510.58
810.755	15458.15
811.085	15441.88
811.414	15440.53
811.744	15317.37
812.073	15289.8
812.403	15262.45
812.732	15091.16
813.061	15205.5
813.39	15156.92
813.719	15070.59
814.049	15022.01
814.378	14950.14
814.707	15088.9
815.036	14994.44
815.365	14915.12
815.693	14714.22
816.022	14723.48
816.351	14700.66
816.68	14672.86
817.008	14728.91
817.337	14589.02
817.665	14548.57
817.994	14520.32
818.322	14545.86
818.651	14500.66
818.979	14477.39
819.307	14454.79
819.636	14470.38
819.964	14349.03
820.292	14324.62
820.62	14335.92
820.948	14278.07
821.276	14356.94
821.604	14334.57
821.932	14318.75
822.259	14284.17
822.587	14220.22
822.915	14236.72
823.243	14240.11
823.57	14180.9
823.898	14313.78
824.225	14201.46
824.553	14171.63
824.88	14210.05
825.207	14191.29
825.535	14162.82
825.862	14229.94
826.189	14112.43
826.516	14284.4
826.843	14225.42
827.17	14300.9
827.497	14222.71
827.824	14189.49
828.151	14275.13
828.478	14175.93
828.805	14217.28
829.131	14157.62
829.458	14192.42
829.785	14163.95
830.111	14128.02
830.438	14227.9
830.764	14138.19
831.09	14217.96
831.417	14125.31
831.743	14165.08
832.069	14136.61
832.395	14077.85
832.722	14047.57
833.048	14110.62
833.374	14167.79
833.7	14048.25
834.026	14062.26
834.351	14001.24
834.677	13996.95
835.003	13979.32
835.329	13992.65
835.654	13950.85
835.98	13941.81
836.306	13872.88
836.631	13943.62
836.956	13962.37
837.282	13941.81
837.607	13860.45
837.932	13862.49
838.258	13729.16
838.583	13833.11
838.908	13691.42
839.233	13700.68
839.558	13690.74
839.883	13602.16
840.208	13615.04
840.533	13569.16
840.858	13654.81
841.182	13580.46
841.507	13584.76
841.832	13408.49
842.156	13489.39
842.481	13382.5
842.805	13393.8
843.13	13499.11
843.454	13363.07
843.778	13292.11
844.103	13281.49
844.427	13221.83
844.751	13236.52
845.075	13211.66
845.399	13166.69
845.723	13126.46
846.047	13061.38
846.371	12949.97
846.695	12973.02
847.019	12952.46
847.343	12837.2
847.666	12765.12
847.99	12732.35
848.313	12684.44
848.637	12641.5
848.96	12640.37
849.284	12680.82
849.607	12514.5
849.931	12451.23
850.254	12389.76
850.577	12357.44
850.9	12275.64
851.223	12321.96
851.546	12231.12
851.869	12089.43
852.192	12233.38
852.515	12086.72
852.838	11984.8
853.161	12004.23
853.483	11898.47
853.806	11911.58
854.129	11910
854.451	11868.64
854.774	11789.32
855.096	11693.51
855.419	11643.79
855.741	11721.75
856.063	11616.9
856.385	11565.6
856.708	11520.86
857.03	11521.08
857.352	11486.96
857.674	11482.21
857.996	11465.94
858.318	11398.82
858.64	11359.73
858.961	11293.52
859.283	11283.12
859.605	11207.87
859.926	11325.83
860.248	11269.56
860.57	11122.9
860.891	11139.4
861.212	11118.83
861.534	11076.12
861.855	10991.83
862.176	11032.28
862.498	11066.86
862.819	11064.6
863.14	11033.41
863.461	10999.29
863.782	10941.21
864.103	10910.25
864.424	10853.3
864.745	10913.64
865.065	10831.61
865.386	10781.44
865.707	10834.77
866.027	10800.2
866.348	10742.57
866.668	10721.33
866.989	10751.38
867.309	10637.26
867.63	10695.11
867.95	10671.39
868.27	10577.83
868.59	10584.16
868.91	10575.57
869.23	10590.48
869.55	10541.22
869.87	10554.1
870.19	10504.16
870.51	10538.06
870.83	10517.94
871.15	10416.93
871.469	10452.86
871.789	10435.23
872.109	10436.14
872.428	10351.62
872.748	10419.19
873.067	10407.44
873.386	10389.59
873.706	10397.72
874.025	10322.69
874.344	10319.53
874.663	10358.4
874.982	10239.98
875.301	10246.54
875.62	10217.61
875.939	10240.44
876.258	10179.87
876.577	10183.94
876.896	10182.81
877.214	10133.77
877.533	10076.37
877.852	10158.63
878.17	10091.29
878.489	10108.24
878.807	10110.27
879.125	10018.3
879.444	10037.96
879.762	10014.68
880.08	9940.11
880.398	9937.62
880.716	9945.98
881.034	9925.64
881.352	9943.95
881.67	9909.15
881.988	9864.85
882.306	9806.32
882.624	9798.19
882.941	9835.02
883.259	9808.58
883.577	9760.68
883.894	9709.15
884.212	9746.89
884.529	9728.36
884.846	9703.28
885.164	9662.83
885.481	9582.6
885.798	9633
886.115	9559.55
886.432	9569.04
886.75	9587.12
887.067	9513.68
887.383	9502.38
887.7	9505.99
888.017	9435.03
888.334	9520.91
888.651	9422.15
888.967	9394.58
889.284	9377.41
889.6	9311.42
889.917	9294.02
890.233	9277.3
890.55	9215.83
890.866	9248.15
891.182	9223.74
891.498	9143.74
891.815	9092.44
892.131	9082.95
892.447	9126.57
892.763	9084.08
893.079	9042.5
893.395	9021.49
893.71	8968.83
894.026	8992.33
894.342	8884.77
894.657	8806.12
894.973	8820.36
895.289	8863.75
895.604	8786.24
895.92	8822.4
896.235	8772.68
896.55	8715.05
896.865	8666.02
897.181	8646.13
897.496	8629.41
897.811	8548.05
898.126	8603.19
898.441	8544.89
898.756	8514.61
899.071	8469.86
899.386	8560.93
899.7	8410.2
900.015	8380.82
900.33	8333.82
900.644	8307.83
900.959	8296.53
901.273	8263.77
901.588	8174.5
901.902	8143.99
902.216	8194.62
902.531	8128.4
902.845	8167.05
903.159	8130.89
903.473	8030.1
903.787	8015.86
904.101	7991.91
904.415	7939.71
904.729	7920.95
905.042	7904.23
905.356	7859.93
905.67	7812.48
905.984	7810.22
906.297	7783.78
906.611	7789.43
906.924	7735.64
907.237	7698.36
907.551	7667.17
907.864	7692.93
908.177	7641.64
908.491	7637.57
908.804	7513.5
909.117	7561.19
909.43	7466.72
909.743	7503.79
910.056	7459.95
910.368	7433.51
910.681	7414.07
910.994	7368.42
911.307	7340.17
911.619	7288.2
911.932	7268.31
912.244	7212.95
912.557	7248.43
912.869	7181.53
913.181	7156.9
913.494	7119.16
913.806	7053.18
914.118	7028.77
914.43	7005.04
914.742	7010.47
915.054	7021.76
915.366	6969.79
915.678	6905.84
915.99	6880.53
916.302	6786.97
916.613	6771.83
916.925	6817.7
917.236	6800.75
917.548	6749.68
917.859	6718.5
918.171	6667.42
918.482	6702.22
918.794	6638.95
919.105	6607.76
919.416	6508.56
919.727	6578.16
920.038	6535.68
920.349	6518.05
920.66	6454.77
920.971	6455
921.282	6433.31
921.593	6378.62
921.903	6302.24
922.214	6326.42
922.525	6292.29
922.835	6260.65
923.146	6276.02
923.456	6225.4
923.767	6178.17
924.077	6209.13
924.387	6127.1
924.697	6121.9
925.008	6074.67
925.318	6050.26
925.628	6058.85
925.938	6048.91
926.248	5957.84
926.558	5946.09
926.867	5956.03
927.177	5970.72
927.487	5887.56
927.796	5866.09
928.106	5828.58
928.416	5809.59
928.725	5840.1
929.034	5728.24
929.344	5780.44
929.653	5751.06
929.962	5680.33
930.271	5674.68
930.581	5664.96
930.89	5612.76
931.199	5617.51
931.508	5606.66
931.817	5538.41
932.125	5533.67
932.434	5477.85
932.743	5430.62
933.051	5411.41
933.36	5436.72
933.669	5385.65
933.977	5343.16
934.286	5364.41
934.594	5343.84
934.902	5261.81
935.21	5297.52
935.519	5255.03
935.827	5276.95
936.135	5232.43
936.443	5186.11
936.751	5204.64
937.059	5184.75
937.367	5161.47
937.674	5117.63
937.982	5093.23
938.29	5082.15
938.597	5053.91
938.905	5037.18
939.213	4917.19
939.52	5020.01
939.827	4963.06
940.135	4963.74
940.442	4913.8
940.749	4885.55
941.056	4905.89
941.363	4831.09
941.67	4852.1
941.977	4854.36
942.284	4796.29
942.591	4813.01
942.898	4726.01
943.205	4729.4
943.511	4736.85
943.818	4679.68
944.125	4666.12
944.431	4684.2
944.738	4657.08
945.044	4642.17
945.35	4602.17
945.657	4605.33
945.963	4556.07
946.269	4565.11
946.575	4514.03
946.881	4493.24
947.187	4516.29
947.493	4469.97
947.799	4409.63
948.105	4471.55
948.41	4384.77
948.716	4423.64
949.022	4333.7
949.327	4357.88
949.633	4334.6
949.938	4286.7
950.244	4285.57
950.549	4289.63
950.854	4266.81
951.16	4249.86
951.465	4193.59
951.77	4154.27
952.075	4191.1
952.38	4135.06
952.685	4105.68
952.99	4090.09
953.294	4090.09
953.599	4086.02
953.904	4047.61
954.209	4050.54
954.513	4020.04
954.818	3999.25
955.122	3963.77
955.426	4006.93
955.731	3976.19
956.035	3914.95
956.339	3929.64
956.643	3945.91
956.948	3851.45
957.252	3862.98
957.556	3881.28
957.86	3824.33
958.163	3822.3
958.467	3818.01
958.771	3798.57
959.075	3807.39
959.378	3747.73
959.682	3738.24
959.985	3725.13
960.289	3721.96
960.592	3654.85
960.896	3650.55
961.199	3649.88
961.502	3635.41
961.805	3613.27
962.108	3604.68
962.411	3629.99
962.714	3578.47
963.017	3535.53
963.32	3572.59
963.623	3528.52
963.926	3551.57
964.228	3509.31
964.531	3488.98
964.833	3462.31
965.136	3449.66
965.438	3460.05
965.741	3413.95
966.043	3381.63
966.345	3447.62
966.648	3344.35
966.95	3371.92
967.252	3309.77
967.554	3344.35
967.856	3344.57
968.158	3266.61
968.46	3293.95
968.761	3278.81
969.063	3268.87
969.365	3240.85
969.666	3264.8
969.968	3225.03
970.269	3190
970.571	3186.84
970.872	3205.59
971.174	3161.08
971.475	3114.97
971.776	3126.05
972.077	3121.53
972.378	3137.8
972.679	3137.12
972.98	3093.28
973.281	3055.54
973.582	3079.27
973.883	3037.46
974.183	3042.89
974.484	3011.02
974.785	3006.95
975.085	2997.01
975.386	3001.53
975.686	2959.27
975.986	2954.07
976.287	2919.95
976.587	2900.97
976.887	2881.31
977.187	2895.77
977.487	2881.08
977.787	2873.4
978.087	2859.84
978.387	2868.88
978.687	2837.02
978.987	2831.14
979.286	2796.34
979.586	2788.2
979.885	2812.38
980.185	2819.16
980.484	2773.74
980.784	2753.18
981.083	2756.34
981.382	2718.15
981.682	2725.38
981.981	2731.93
982.28	2676.57
982.579	2632.5
982.878	2644.93
983.177	2656
983.475	2665.49
983.774	2635.89
984.073	2609.9
984.372	2593.86
984.67	2602.9
984.969	2574.65
985.267	2600.19
985.566	2559.06
985.864	2565.84
986.162	2557.93
986.461	2533.29
986.759	2539.17
987.057	2557.02
987.355	2459.4
987.653	2476.57
987.951	2467.53
988.249	2442.45
988.547	2471.6
988.844	2420.98
989.142	2445.16
989.44	2434.31
989.737	2391.38
990.035	2394.77
990.332	2402.9
990.63	2349.12
990.927	2376.91
991.224	2351.38
991.521	2333.3
991.819	2309.8
992.116	2319.74
992.413	2283.36
992.71	2292.85
993.006	2329.23
993.303	2294.43
993.6	2245.17
993.897	2268.44
994.193	2216.92
994.49	2263.25
994.787	2229.57
995.083	2192.74
995.379	2233.87
995.676	2183.7
995.972	2194.77
996.268	2143.25
996.565	2166.3
996.861	2183.02
997.157	2133.76
997.453	2139.63
997.749	2119.52
998.044	2117.26
998.34	2088.56
998.636	2099.18
998.932	2081.78
999.227	2053.76
999.523	2046.75
999.818	2068.67
1000.114	2026.19
1000.409	2043.36
1000.704	2000.88
1001	2008.34
1001.295	1979.41
1001.59	1990.94
1001.885	1985.29
1002.18	1958.39
1002.475	1951.16
1002.77	1907.32
1003.065	1939.41
1003.359	1918.85
1003.654	1887.66
1003.949	1921.56
1004.243	1896.93
1004.538	1897.38
1004.832	1865.97
1005.127	1876.36
1005.421	1845.86
1005.715	1823.94
1006.009	1811.73
1006.304	1809.02
1006.598	1806.76
1006.892	1809.25
1007.186	1770.15
1007.48	1744.62
1007.773	1772.64
1008.067	1728.57
1008.361	1743.03
1008.655	1699.87
1008.948	1701
1009.242	1689.93
1009.535	1706.88
1009.829	1667.78
1010.122	1683.15
1010.415	1670.04
1010.708	1630.72
1011.001	1635.69
1011.295	1643.6
1011.588	1644.73
1011.881	1609.7
1012.173	1597.95
1012.466	1603.83
1012.759	1588.24
1013.052	1605.18
1013.344	1572.42
1013.637	1578.52
1013.93	1548.01
1014.222	1536.03
1014.514	1542.36
1014.807	1536.71
1015.099	1534.68
1015.391	1508.01
1015.683	1521.34
1015.976	1519.54
1016.268	1491.97
1016.56	1495.81
1016.851	1476.15
1017.143	1493.1
1017.435	1438.86
1017.727	1429.6
1018.018	1456.49
1018.31	1479.76
1018.602	1431.63
1018.893	1404.29
1019.185	1430.95
1019.476	1387.34
1019.767	1374
1020.058	1397.05
1020.35	1362.25
1020.641	1395.25
1020.932	1339.43
1021.223	1312.31
1021.514	1345.76
1021.804	1320.45
1022.095	1301.01
1022.386	1323.38
1022.677	1327
1022.967	1282.25
1023.258	1258.07
1023.548	1288.13
1023.839	1275.7
1024.129	1260.79
1024.419	1252.65
1024.709	1247.91
1025	1228.47
1025.29	1219.88
1025.58	1214.23
1025.87	1216.95
1026.16	1199.32
1026.449	1207.91
1026.739	1192.31
1027.029	1178.98
1027.319	1182.82
1027.608	1181.92
1027.898	1139.43
1028.187	1151.41
1028.477	1145.99
1028.766	1127.23
1029.055	1143.95
1029.344	1132.2
1029.634	1098.3
1029.923	1095.37
1030.212	1107.34
1030.501	1068.7
1030.79	1106.44
1031.078	1076.61
1031.367	1077.97
1031.656	1063.5
1031.945	1080.68
1032.233	1032.77
1032.522	1044.52
1032.81	1028.48
1033.099	1020.57
1033.387	1028.93
1033.675	1023.73
1033.963	1027.57
1034.251	1010.62
1034.54	1000.23
1034.828	1007.01
1035.116	981.02
1035.403	972.66
1035.691	991.64
1035.979	981.47
1036.267	944.64
1036.554	977.4
1036.842	945.54
1037.129	953.68
1037.417	930.4
1037.704	931.53
1037.992	936.27
1038.279	914.13
1038.566	910.06
1038.853	910.06
1039.14	910.06
