Data from hue_240_FLMS001491_00039.txt Node
Date: Tue Feb 07 16:35:24 GMT 2017
User: dcchb
Spectrometer: FLMS00149
Trigger mode: 0
Integration Time (sec): 2.000000E-2
Scans to average: 10
Electric dark correction enabled: true
Nonlinearity correction enabled: false
Boxcar width: 0
XAxis mode: Wavelengths
Number of Pixels in Spectrum: 2048
>>>>>Begin Spectral Data<<<<<
341.393	-27.53
341.776	-27.53
342.16	-27.53
342.543	-57.58
342.927	-65.72
343.31	-62.78
343.693	-71.82
344.077	-83.8
344.46	-26.85
344.843	-47.87
345.226	-39.05
345.61	-42.22
345.993	-37.92
346.376	-1.31
346.759	14.96
347.142	24
347.525	27.39
347.908	64
348.291	72.36
348.674	94.28
349.057	116.65
349.44	146.03
349.823	141.06
350.206	158
350.588	202.97
350.971	206.14
351.354	203.2
351.737	227.16
352.119	256.76
352.502	262.41
352.884	273.93
353.267	271
353.65	292.24
354.032	310.32
354.414	312.58
354.797	310.09
355.179	305.57
355.562	308.06
355.944	319.13
356.326	325.01
356.709	351.45
357.091	324.33
357.473	334.95
357.855	325.23
358.238	339.92
358.62	332.24
359.002	324.33
359.384	320.26
359.766	341.95
360.148	315.51
360.53	332.46
360.912	326.14
361.294	312.35
361.676	315.06
362.057	341.95
362.439	345.34
362.821	333.82
363.203	326.81
363.584	326.81
363.966	309.41
364.348	307.15
364.729	329.75
365.111	321.16
365.493	312.35
365.874	308.96
366.256	333.82
366.637	308.73
367.019	301.28
367.4	328.4
367.781	292.01
368.163	322.29
368.544	292.92
368.925	301.28
369.306	347.38
369.688	301.73
370.069	302.86
370.45	303.09
370.831	301.73
371.212	302.86
371.593	310.99
371.974	322.07
372.355	314.84
372.736	309.64
373.117	312.35
373.498	308.51
373.879	315.97
374.26	308.06
374.641	299.02
375.021	300.37
375.402	319.36
375.783	332.46
376.163	308.51
376.544	309.64
376.925	315.51
377.305	319.13
377.686	321.84
378.066	329.98
378.447	325.91
378.827	322.07
379.208	308.51
379.588	311.22
379.968	324.55
380.349	330.66
380.729	335.85
381.109	308.96
381.489	320.49
381.87	312.58
382.25	325.23
382.63	334.04
383.01	348.28
383.39	321.39
383.77	335.17
384.15	355.06
384.53	352.35
384.91	340.82
385.29	328.17
385.67	341.28
386.049	334.72
386.429	357.32
386.809	334.27
387.189	342.63
387.568	338.11
387.948	349.41
388.328	362.97
388.707	359.58
389.087	363.87
389.466	350.77
389.846	373.82
390.225	371.56
390.605	358.23
390.984	348.73
391.363	364.55
391.743	344.89
392.122	356.19
392.501	371.78
392.881	370.2
393.26	377.89
393.639	385.12
394.018	367.94
394.397	369.3
394.776	363.42
395.155	371.56
395.534	379.24
395.913	371.11
396.292	394.16
396.671	368.62
397.05	391.9
397.429	404.33
397.808	389.41
398.186	381.5
398.565	379.47
398.944	400.48
399.323	408.62
399.701	394.16
400.08	405.91
400.458	395.06
400.837	401.61
401.215	407.94
401.594	399.35
401.972	419.01
402.351	432.8
402.729	419.69
403.107	423.31
403.486	416.08
403.864	437.77
404.242	443.65
404.62	462.63
404.999	417.66
405.377	449.07
405.755	466.47
406.133	421.05
406.511	445.45
406.889	438.22
407.267	454.27
407.645	462.63
408.023	455.17
408.401	458.11
408.779	433.25
409.156	460.6
409.534	485.91
409.912	492.23
410.29	485.45
410.667	460.82
411.045	508.73
411.422	503.53
411.8	528.62
412.178	520.03
412.555	535.85
412.933	536.75
413.31	526.13
413.687	563.87
414.065	558.67
414.442	531.1
414.819	558.45
415.197	560.93
415.574	570.42
415.951	586.02
416.328	587.15
416.705	602.96
417.082	596.86
417.46	590.54
417.837	603.87
418.214	592.12
418.591	601.38
418.967	620.59
419.344	597.54
419.721	634.38
420.098	653.81
420.475	673.25
420.852	653.13
421.228	658.33
421.605	659.91
421.982	699.01
422.358	672.57
422.735	694.04
423.111	722.96
423.488	710.76
423.864	719.8
424.241	723.41
424.617	734.26
424.994	749.63
425.37	743.3
425.746	751.21
426.123	773.58
426.499	779.23
426.875	802.96
427.251	816.07
427.627	824.2
428.003	810.64
428.379	820.81
428.756	828.04
429.132	814.48
429.507	850.87
429.883	876.4
430.259	868.27
430.635	907.14
431.011	863.75
431.387	898.78
431.763	902.62
432.138	918.66
432.514	951.2
432.89	944.42
433.265	993.69
433.641	962.5
434.016	984.88
434.392	1003.18
434.767	1016.06
435.143	1024.65
435.518	1026.23
435.894	1066.23
436.269	1074.59
436.644	1098.32
437.02	1119.56
437.395	1108.26
437.77	1129.05
438.145	1159.56
438.52	1142.84
438.895	1195.49
439.271	1198.43
439.646	1204.08
440.021	1209.73
440.395	1228.03
440.77	1214.25
441.145	1249.28
441.52	1261.25
441.895	1263.51
442.27	1267.35
442.645	1263.06
443.019	1329.72
443.394	1303.28
443.769	1313.68
444.143	1321.82
444.518	1362.27
444.892	1337.41
445.267	1344.41
445.641	1379.44
446.016	1386.45
446.39	1355.49
446.764	1362.72
447.139	1376.5
447.513	1419.44
447.887	1408.82
448.262	1418.31
448.636	1455.37
449.01	1439.1
449.384	1481.59
449.758	1487.01
450.132	1481.36
450.506	1479.55
450.88	1493.11
451.254	1516.84
451.628	1510.96
452.002	1537.4
452.376	1585.09
452.75	1556.16
453.123	1544.86
453.497	1597.97
453.871	1618.3
454.244	1624.41
454.618	1661.47
454.992	1660.79
455.365	1670.73
455.739	1716.16
456.112	1708.25
456.486	1691.75
456.859	1746.44
457.232	1779.2
457.606	1739.43
457.979	1797.74
458.352	1825.53
458.725	1847.23
459.099	1860.78
459.472	1906.43
459.845	1875.7
460.218	1924.29
460.591	1924.29
460.964	1932.42
461.337	1961.57
461.71	1971.97
462.083	2031.18
462.456	2019.2
462.829	2041.12
463.201	2043.15
463.574	2085.41
463.947	2109.59
464.32	2138.52
464.692	2190.27
465.065	2175.13
465.438	2208.57
465.81	2244.05
466.183	2247.21
466.555	2296.03
466.928	2293.77
467.3	2327.66
467.672	2332.41
468.045	2370.38
468.417	2390.94
468.789	2422.13
469.161	2433.42
469.534	2451.96
469.906	2537.38
470.278	2555.91
470.65	2552.29
471.022	2637.49
471.394	2646.75
471.766	2639.52
472.138	2672.06
472.51	2720.2
472.882	2771.72
473.253	2821.44
473.625	2814.66
473.997	2896.01
474.369	2910.7
474.74	2881.77
475.112	2941.66
475.484	2990.02
475.855	3080.64
476.227	3089.68
476.598	3159.96
476.97	3188.66
477.341	3216.23
477.713	3255.78
478.084	3294.19
478.455	3364.25
478.827	3405.38
479.198	3465.26
479.569	3490.35
479.94	3548.65
480.311	3610.34
480.682	3672.71
481.053	3730.57
481.424	3773.5
481.795	3776.44
482.166	3804.01
482.537	3893.27
482.908	3968.3
483.279	4027.28
483.65	4061.4
484.021	4118.58
484.391	4139.14
484.762	4193.6
485.133	4191.8
485.503	4274.51
485.874	4349.53
486.244	4388.63
486.615	4478.57
486.985	4472.02
487.356	4531.9
487.726	4589.53
488.097	4680.82
488.467	4709.75
488.837	4746.13
489.207	4812.12
489.578	4882.4
489.948	4919.69
490.318	4963.08
490.688	4962.4
491.058	4998.78
491.428	5147.25
491.798	5132.34
492.168	5237.42
492.538	5235.61
492.908	5282.62
493.278	5308.6
493.648	5367.13
494.017	5379.11
494.387	5445.32
494.757	5463.85
495.126	5569.84
495.496	5553.12
495.866	5599.44
496.235	5674.7
496.605	5672.66
496.974	5720.57
497.344	5759.89
497.713	5789.04
498.082	5809.38
498.452	5770.06
498.821	5848.25
499.19	5821.13
499.559	5913.11
499.928	5976.61
500.298	5986.55
500.667	6041.47
501.036	5995.82
501.405	6110.16
501.774	6098.19
502.143	6084.4
502.512	6107.9
502.88	6167.79
503.249	6219.77
503.618	6227.68
503.987	6222.03
504.356	6203.04
504.724	6274.68
505.093	6304.74
505.462	6293.21
505.83	6332.08
506.199	6373.66
506.567	6422.02
506.936	6428.12
507.304	6481.91
507.672	6458.18
508.041	6476.93
508.409	6519.42
508.777	6562.36
509.145	6602.35
509.514	6544.5
509.882	6611.85
510.25	6669.47
510.618	6641.9
510.986	6670.83
511.354	6724.39
511.722	6730.94
512.09	6790.6
512.458	6782.46
512.826	6815.46
513.193	6801.45
513.561	6822.01
513.929	6829.02
514.297	6893.42
514.664	6946.53
515.032	6917.83
515.4	6921.89
515.767	6963.7
516.135	6992.17
516.502	6921.67
516.869	7052.96
517.237	7048.9
517.604	7032.63
517.972	6996.92
518.339	7041.21
518.706	7080.08
519.073	7095.9
519.44	7115.79
519.808	7148.55
520.175	7127.31
520.542	7155.11
520.909	7175.67
521.276	7179.29
521.643	7225.16
522.009	7289.57
522.376	7249.57
522.743	7268.1
523.11	7337.7
523.477	7353.75
523.843	7338.83
524.21	7450.24
524.577	7438.49
524.943	7412.73
525.31	7533.4
525.676	7496.34
526.043	7476.68
526.409	7560.75
526.776	7557.58
527.142	7581.54
527.508	7617.24
527.874	7654.98
528.241	7633.29
528.607	7597.81
528.973	7651.59
529.339	7639.39
529.705	7664.7
530.071	7746.05
530.437	7724.13
530.803	7772.72
531.169	7668.09
531.535	7737.69
531.901	7768.88
532.267	7721.65
532.632	7711.03
532.998	7766.62
533.364	7746.51
533.73	7741.08
534.095	7757.13
534.461	7743.12
534.826	7806.39
535.192	7764.58
535.557	7782.21
535.923	7773.4
536.288	7828.99
536.653	7785.37
537.019	7758.48
537.384	7783.34
537.749	7808.88
538.114	7768.2
538.479	7733.17
538.845	7802.1
539.21	7752.15
539.575	7779.05
539.94	7685.72
540.305	7767.52
540.67	7773.17
541.034	7746.51
541.399	7742.89
541.764	7772.04
542.129	7743.34
542.494	7728.65
542.858	7714.64
543.223	7712.83
543.587	7754.87
543.952	7721.65
544.316	7686.62
544.681	7739.27
545.045	7713.06
545.41	7719.39
545.774	7741.53
546.138	7688.43
546.503	7693.63
546.867	7669.22
547.231	7704.25
547.595	7712.38
547.959	7725.49
548.324	7666.06
548.688	7655.66
549.052	7617.47
549.416	7661.76
549.779	7628.32
550.143	7678.71
550.507	7622.89
550.871	7624.93
551.235	7607.53
551.599	7660.18
551.962	7592.16
552.326	7588.77
552.689	7679.84
553.053	7606.85
553.417	7612.05
553.78	7674.64
554.143	7608.88
554.507	7649.78
554.87	7657.92
555.234	7687.75
555.597	7604.81
555.96	7602.1
556.323	7654.98
556.686	7618.37
557.05	7646.62
557.413	7713.74
557.776	7654.53
558.139	7671.25
558.502	7741.08
558.865	7658.6
559.228	7769.33
559.59	7716.9
559.953	7734.98
560.316	7810.01
560.679	7767.97
561.041	7741.31
561.404	7803.23
561.767	7847.07
562.129	7779.72
562.492	7923.9
562.854	7857.69
563.217	7847.97
563.579	7894.98
563.941	7919.38
564.304	7865.15
564.666	7936.33
565.028	7984.92
565.39	7998.7
565.753	7984.69
566.115	8063.56
566.477	8046.38
566.839	8089.55
567.201	8106.72
567.563	8109.66
567.925	8111.24
568.287	8152.37
568.648	8122.54
569.01	8147.85
569.372	8229.2
569.734	8205.7
570.095	8242.76
570.457	8254.06
570.819	8219.49
571.18	8188.98
571.542	8301.52
571.903	8241.18
572.265	8278.02
572.626	8336.55
572.987	8335.87
573.349	8381.74
573.71	8403.66
574.071	8453.83
574.432	8427.39
574.794	8568.18
575.155	8498.35
575.516	8514.85
575.877	8507.62
576.238	8563.21
576.599	8552.59
576.96	8538.8
577.32	8583.55
577.681	8606.14
578.042	8584.9
578.403	8565.47
578.763	8690.44
579.124	8605.24
579.485	8644.56
579.845	8692.02
580.206	8707.38
580.566	8700.83
580.927	8712.58
581.287	8738.34
581.648	8681.85
582.008	8762.07
582.368	8768.4
582.728	8799.13
583.089	8735.18
583.449	8796.2
583.809	8813.14
584.169	8833.26
584.529	8801.17
584.889	8894.95
585.249	8849.3
585.609	8788.06
585.969	8825.35
586.329	8939.24
586.688	8883.88
587.048	8833.03
587.408	8877.78
587.768	8936.3
588.127	8880.49
588.487	8885.23
588.846	9028.05
589.206	8915.97
589.565	8899.92
589.925	8952.58
590.284	8959.81
590.643	9006.81
591.003	9038.45
591.362	9068.28
591.721	8980.37
592.08	9015.17
592.44	9066.7
592.799	9027.83
593.158	9029.86
593.517	9018.79
593.876	9027.38
594.235	9033.7
594.593	9052.23
594.952	9088.39
595.311	8994.38
595.67	9064.44
596.029	9146.69
596.387	9135.17
596.746	9131.33
597.104	9105.34
597.463	9092.68
597.822	9132.68
598.18	9167.94
598.538	9080.48
598.897	9125.45
599.255	9066.7
599.613	9177.65
599.972	9157.77
600.33	9162.74
600.688	9128.62
601.046	9172.68
601.404	9219.46
601.762	9167.94
602.12	9228.73
602.478	9193.7
602.836	9203.19
603.194	9180.59
603.552	9180.59
603.91	9149.86
604.268	9228.27
604.625	9146.69
604.983	9242.29
605.341	9242.96
605.698	9229.86
606.056	9267.14
606.413	9238.9
606.771	9298.55
607.128	9272.79
607.485	9241.16
607.843	9285.67
608.2	9290.19
608.557	9363.41
608.914	9333.36
609.272	9382.85
609.629	9312.57
609.986	9402.51
610.343	9411.09
610.7	9428.72
611.057	9339.91
611.414	9340.59
611.771	9336.97
612.127	9385.11
612.484	9367.25
612.841	9521.15
613.198	9423.07
613.554	9382.17
613.911	9464.88
614.267	9464.43
614.624	9482.05
614.98	9451.55
615.337	9468.95
615.693	9467.82
616.05	9445.67
616.406	9495.39
616.762	9458.32
617.118	9520.92
617.475	9543.29
617.831	9554.37
618.187	9609.28
618.543	9572.9
618.899	9634.59
619.255	9566.12
619.611	9591.43
619.967	9617.64
620.323	9594.14
620.678	9507.59
621.034	9547.14
621.39	9553.92
621.746	9532.45
622.101	9621.94
622.457	9548.04
622.812	9558.21
623.168	9601.37
623.523	9611.54
623.879	9631.2
624.234	9534.71
624.589	9562.05
624.945	9570.41
625.3	9597.3
625.655	9626.46
626.01	9636.4
626.365	9534.71
626.72	9608.83
627.075	9557.76
627.43	9595.5
627.785	9513.01
628.14	9543.97
628.495	9548.72
628.85	9511.43
629.205	9521.83
629.559	9565.67
629.914	9474.14
630.269	9494.71
630.623	9508.72
630.978	9459.23
631.332	9497.19
631.687	9516.63
632.041	9429.85
632.396	9469.62
632.75	9486.35
633.104	9503.07
633.459	9364.32
633.813	9394.37
634.167	9375.16
634.521	9381.72
634.875	9365.45
635.229	9388.72
635.583	9403.86
635.937	9321.38
636.291	9370.64
636.645	9357.08
636.999	9292.23
637.352	9315.5
637.706	9241.83
638.06	9295.84
638.413	9258.33
638.767	9285.45
639.121	9217.88
639.474	9192.12
639.828	9171.55
640.181	9227.6
640.534	9261.49
640.888	9200.93
641.241	9201.38
641.594	9080.48
641.947	9240.25
642.301	9194.83
642.654	9148.05
643.007	9195.05
643.36	9148.5
643.713	9103.53
644.066	9109.18
644.419	9083.19
644.771	9046.13
645.124	8896.76
645.477	8974.04
645.83	8883.65
646.182	8870.32
646.535	8798.46
646.888	8811.11
647.24	8799.81
647.593	8862.86
647.945	8830.09
648.298	8805.69
648.65	8785.57
649.002	8734.95
649.355	8780.83
649.707	8790.55
650.059	8745.12
650.411	8899.7
650.763	8959.58
651.115	9025.34
651.467	8976.98
651.819	8962.74
652.171	8905.12
652.523	9027.83
652.875	8979.02
653.227	8918.68
653.578	8942.63
653.93	8966.13
654.282	8880.71
654.633	8928.62
654.985	8930.66
655.337	8939.92
655.688	8885.46
656.039	8982.63
656.391	8914.84
656.742	8880.26
657.094	8907.15
657.445	8969.52
657.796	8874.39
658.147	8899.92
658.498	8903.99
658.849	8947.38
659.2	8856.08
659.551	8887.72
659.902	8900.37
660.253	8846.82
660.604	8958.22
660.955	8927.49
661.306	8882.97
661.656	8868.06
662.007	8917.55
662.358	8946.93
662.708	8914.61
663.059	8899.92
663.409	8852.69
663.76	8919.81
664.11	8862.18
664.461	8951.67
664.811	8961.84
665.161	8898.11
665.511	8924.33
665.862	8912.58
666.212	8950.99
666.562	8917.32
666.912	8842.52
667.262	8927.04
667.612	8930.66
667.962	8976.53
668.312	8912.58
668.662	8908.06
669.011	8970.43
669.361	8870.32
669.711	8930.2
670.06	8919.58
670.41	8797.33
670.76	8848.85
671.109	8846.82
671.459	8863.09
671.808	8857.21
672.157	8833.93
672.507	8805.01
672.856	8804.33
673.205	8756.42
673.554	8786.93
673.904	8781.51
674.253	8882.07
674.602	8792.35
674.951	8676.2
675.3	8665.58
675.649	8736.08
675.998	8767.04
676.346	8764.78
676.695	8769.98
677.044	8698.57
677.393	8738.57
677.741	8778.57
678.09	8698.12
678.438	8702.41
678.787	8668.06
679.135	8745.12
679.484	8632.58
679.832	8646.59
680.181	8624
680.529	8619.25
680.877	8610.44
681.225	8584.45
681.573	8676.42
681.922	8576.77
682.27	8531.12
682.618	8536.09
682.966	8531.57
683.314	8584.68
683.661	8528.41
684.009	8385.81
684.357	8464.68
684.705	8444.11
685.053	8449.76
685.4	8466.49
685.748	8348.98
686.095	8383.32
686.443	8387.17
686.79	8299.26
687.138	8318.02
687.485	8306.72
687.832	8277.11
688.18	8294.51
688.527	8266.72
688.874	8286.38
689.221	8191.01
689.568	8147.17
689.915	8141.98
690.262	8177.91
690.609	8118.47
690.956	8078.02
691.303	8089.1
691.65	8047.74
691.997	8019.72
692.344	8056.33
692.69	7961.87
693.037	7964.8
693.383	7895.88
693.73	7904.24
694.077	7884.13
694.423	7899.72
694.769	7871.47
695.116	7812.94
695.462	7835.54
695.808	7830.57
696.155	7866.05
696.501	7680.29
696.847	7697.69
697.193	7704.7
697.539	7659.05
697.885	7629.45
698.231	7635.55
698.577	7683
698.923	7551.93
699.269	7490.92
699.614	7415.67
699.96	7483.24
700.306	7445.95
700.651	7482.78
700.997	7452.28
701.342	7403.69
701.688	7392.84
702.033	7362.11
702.379	7354.88
702.724	7289.34
703.069	7266.97
703.415	7212.06
703.76	7242.79
704.105	7218.38
704.45	7207.76
704.795	7181.1
705.14	7159.85
705.485	7179.29
705.83	7157.14
706.175	7146.75
706.52	7038.5
706.865	7020.2
707.209	7027.65
707.554	7003.47
707.899	7037.15
708.243	6981.55
708.588	6994.66
708.932	6935.45
709.277	6937.94
709.621	6900.2
709.966	6835.79
710.31	6846.19
710.654	6780.88
710.998	6835.34
711.342	6813.2
711.687	6827.89
712.031	6795.8
712.375	6737.49
712.719	6807.1
713.063	6770.71
713.407	6772.52
713.75	6735.91
714.094	6717.61
714.438	6688
714.782	6654.78
715.125	6665.63
715.469	6639.42
715.812	6647.33
716.156	6647.55
716.499	6628.34
716.843	6628.57
717.186	6592.19
717.53	6618.63
717.873	6689.81
718.216	6581.79
718.559	6560.1
718.902	6514.9
719.246	6553.77
719.589	6501.11
719.932	6504.73
720.275	6511.74
720.617	6433.32
720.96	6496.59
721.303	6474
721.646	6459.99
721.989	6415.47
722.331	6498.85
722.674	6428.12
723.016	6481.23
723.359	6451.85
723.701	6480.55
724.044	6459.53
724.386	6365.07
724.729	6429.25
725.071	6380.44
725.413	6382.25
725.755	6363.04
726.097	6359.65
726.439	6382.93
726.782	6350.84
727.124	6400.33
727.465	6368.69
727.807	6384.28
728.149	6363.04
728.491	6253.21
728.833	6324.4
729.175	6307.45
729.516	6353.77
729.858	6342.25
730.199	6351.06
730.541	6298.18
730.882	6307
731.224	6335.47
731.565	6263.15
731.906	6294.79
732.248	6298.63
732.589	6224.74
732.93	6221.12
733.271	6234
733.612	6216.6
733.953	6315.36
734.294	6211.63
734.635	6245.53
734.976	6293.21
735.317	6242.36
735.658	6248.92
735.999	6253.89
736.339	6223.16
736.68	6317.84
737.021	6287.79
737.361	6251.18
737.702	6222.7
738.042	6208.01
738.383	6245.98
738.723	6271.52
739.063	6245.75
739.404	6296.6
739.744	6297.73
740.084	6218.86
740.424	6262.25
740.764	6248.69
741.104	6267.67
741.444	6283.72
741.784	6290.5
742.124	6299.76
742.464	6325.98
742.804	6293.89
743.143	6300.89
743.483	6352.19
743.823	6305.87
744.162	6295.92
744.502	6403.26
744.841	6367.11
745.181	6410.27
745.52	6398.97
745.86	6495.24
746.199	6465.64
746.538	6432.42
746.877	6490.49
747.216	6541.11
747.556	6595.12
747.895	6590.83
748.234	6584.73
748.573	6650.94
748.911	6679.19
749.25	6687.32
749.589	6741.33
749.928	6790.37
750.267	6824.72
750.605	6801.67
750.944	6893.65
751.283	6859.52
751.621	7010.71
751.96	6986.3
752.298	7071.95
752.636	7136.35
752.975	7162.79
753.313	7193.07
753.651	7240.98
753.989	7341.09
754.327	7372.96
754.666	7451.82
755.004	7506.96
755.342	7634.42
755.679	7668.54
756.017	7701.99
756.355	7822.21
756.693	7926.84
757.031	7978.36
757.368	8010
757.706	8125.7
758.044	8139.04
758.381	8299.49
758.719	8351.69
759.056	8471.68
759.394	8562.76
759.731	8595.75
760.068	8661.74
760.405	8733.82
760.743	8892.69
761.08	9000.03
761.417	9013.14
761.754	9113.25
762.091	9225.11
762.428	9325.67
762.765	9353.02
763.102	9515.27
763.438	9532.45
763.775	9628.26
764.112	9790.07
764.449	9895.38
764.785	9909.39
765.122	9950.74
765.458	10048.14
765.795	10076.16
766.131	10268.47
766.467	10293.33
766.804	10409.26
767.14	10401.35
767.476	10511.4
767.812	10557.96
768.148	10624.17
768.485	10612.64
768.821	10759.31
769.157	10834.33
769.492	10879.53
769.828	10946.65
770.164	10966.08
770.5	10995.69
770.836	11123.82
771.171	11095.57
771.507	11101.45
771.842	11138.05
772.178	11284.49
772.513	11222.35
772.849	11370.82
773.184	11353.64
773.519	11401.1
773.855	11405.39
774.19	11353.64
774.525	11334.21
774.86	11442.45
775.195	11498.72
775.53	11510.93
775.865	11486.52
776.2	11431.15
776.535	11512.28
776.87	11586.18
777.205	11470.48
777.539	11549.57
777.874	11573.75
778.209	11471.61
778.543	11550.93
778.878	11474.77
779.212	11516.12
779.547	11550.25
779.881	11614.2
780.215	11549.8
780.55	11643.35
780.884	11509.8
781.218	11521.55
781.552	11534.88
781.886	11590.02
782.22	11542.56
782.554	11604.48
782.888	11425.96
783.222	11469.12
783.556	11435.22
783.889	11443.13
784.223	11401.78
784.557	11319.74
784.89	11416.24
785.224	11376.47
785.557	11313.64
785.891	11421.44
786.224	11315.68
786.558	11396.8
786.891	11280.65
787.224	11222.8
787.557	11180.31
787.891	11258.73
788.224	11204.49
788.557	11182.57
788.89	11171.95
789.223	11206.53
789.556	11168.11
789.888	11100.09
790.221	11096.93
790.554	11079.53
790.887	11079.53
791.219	11005.63
791.552	11056.7
791.884	11016.7
792.217	10972.86
792.549	10952.75
792.882	10982.35
793.214	10857.16
793.546	10853.99
793.879	10809.93
794.211	10738.29
794.543	10861.68
794.875	10777.39
795.207	10806.54
795.539	10728.35
795.871	10662.59
796.203	10672.98
796.535	10556.15
796.867	10602.93
797.198	10626.43
797.53	10594.11
797.862	10530.61
798.193	10584.17
798.525	10443.38
798.856	10537.62
799.188	10351.63
799.519	10381.69
799.85	10345.76
800.182	10370.62
800.513	10380.56
800.844	10331.07
801.175	10352.76
801.506	10297.4
801.837	10272.99
802.168	10294.23
802.499	10242.26
802.83	10147.8
803.161	10187.57
803.491	10158.42
803.822	10083.62
804.153	10098.53
804.483	10074.58
804.814	9948.48
805.145	10045.65
805.475	9997.97
805.805	9911.65
806.136	9943.28
806.466	9910.29
806.796	9934.7
807.126	9892.21
807.457	9774.47
807.787	9819.45
808.117	9797.75
808.447	9767.02
808.777	9742.39
809.107	9726.79
809.436	9696.06
809.766	9734.25
810.096	9645.21
810.426	9640.24
810.755	9601.15
811.085	9564.76
811.414	9606.8
811.744	9560.92
812.073	9553.01
812.403	9547.59
812.732	9541.94
813.061	9486.35
813.39	9409.06
813.719	9374.03
814.049	9412
814.378	9357.31
814.707	9362.06
815.036	9349.18
815.365	9405.67
815.693	9237.31
816.022	9329.06
816.351	9226.69
816.68	9202.29
817.008	9252.91
817.337	9169.97
817.665	9225.56
817.994	9190.76
818.322	9178.33
818.651	9180.59
818.979	9094.72
819.307	9205
819.636	9180.14
819.964	9065.34
820.292	9169.52
820.62	9136.07
820.948	9054.27
821.276	9066.02
821.604	9086.81
821.932	9118.45
822.259	9110.54
822.587	9072.57
822.915	9028.73
823.243	9081.39
823.57	9096.98
823.898	9074.61
824.225	9075.96
824.553	9071.89
824.88	9041.61
825.207	9126.13
825.535	9101.72
825.862	9108.5
826.189	9084.55
826.516	9172.46
826.843	9055.85
827.17	9074.83
827.497	9110.31
827.824	9119.8
828.151	9122.06
828.478	9087.94
828.805	9087.04
829.131	9088.84
829.458	9096.75
829.785	9082.29
830.111	9065.11
830.438	9084.1
830.764	9089.29
831.09	9086.81
831.417	9011.56
831.743	9066.02
832.069	9119.12
832.395	8968.62
832.722	8990.31
833.048	9017.43
833.374	9005.23
833.7	8972.01
834.026	8944.44
834.351	8990.99
834.677	8985.12
835.003	8995.06
835.329	9000.48
835.654	8972.91
835.98	8927.27
836.306	8936.76
836.631	8906.47
836.956	8905.12
837.282	8951.22
837.607	8895.4
837.932	8884.33
838.258	8854.72
838.583	8854.5
838.908	8864.89
839.233	8834.61
839.558	8875.06
839.883	8800.26
840.208	8725.01
840.533	8744.9
840.858	8791.68
841.182	8736.54
841.507	8768.63
841.832	8699.25
842.156	8695.63
842.481	8722.3
842.805	8702.41
843.13	8663.54
843.454	8618.8
843.778	8605.24
844.103	8541.96
844.427	8532.47
844.751	8558.91
845.075	8508.07
845.399	8552.59
845.723	8562.08
846.047	8431.23
846.371	8419.71
846.695	8452.25
847.019	8342.2
847.343	8313.04
847.666	8228.75
847.99	8271.69
848.313	8169.77
848.637	8248.41
848.96	8243.89
849.284	8177
849.607	8130
849.931	8132.94
850.254	8017.68
850.577	7977.01
850.9	7995.54
851.223	7987.4
851.546	7906.05
851.869	7827.18
852.192	7896.56
852.515	7775.66
852.838	7800.29
853.161	7783.11
853.483	7727.97
853.806	7751.03
854.129	7687.3
854.451	7650.24
854.774	7636.9
855.096	7616.79
855.419	7589.22
855.741	7608.88
856.063	7522.1
856.385	7478.49
856.708	7521.88
857.03	7474.2
857.352	7470.58
857.674	7422.22
857.996	7453.63
858.318	7335.67
858.64	7403.92
858.961	7388.32
859.283	7300.87
859.605	7327.31
859.926	7292.51
860.248	7269.23
860.57	7215.22
860.891	7242.11
861.212	7246.63
861.534	7195.11
861.855	7157.82
862.176	7174.32
862.498	7211.83
862.819	7144.04
863.14	7163.24
863.461	7160.76
863.782	7110.36
864.103	7096.58
864.424	7080.99
864.745	7143.81
865.065	7077.37
865.386	7005.96
865.707	7036.69
866.027	7066.98
866.348	7017.94
866.668	6998.28
866.989	7003.02
867.309	7006.64
867.63	7026.52
867.95	6972.06
868.27	6885.06
868.59	6898.84
868.91	6888
869.23	6904.49
869.55	6880.99
869.87	6900.2
870.19	6940.42
870.51	6912.18
870.83	6896.58
871.15	6822.01
871.469	6840.09
871.789	6868.34
872.109	6794.89
872.428	6827.21
872.748	6814.1
873.067	6806.42
873.386	6776.81
873.706	6724.61
874.025	6784.5
874.344	6743.59
874.663	6728.9
874.982	6698.62
875.301	6720.54
875.62	6740.2
875.939	6734.1
876.258	6724.61
876.577	6677.38
876.896	6673.99
877.214	6673.31
877.533	6670.83
877.852	6641.9
878.17	6630.6
878.489	6603.71
878.807	6592.86
879.125	6627.89
879.444	6619.98
879.762	6577.27
880.08	6573.43
880.398	6587.89
880.716	6570.49
881.034	6483.94
881.352	6528.23
881.67	6512.87
881.988	6474.22
882.306	6512.64
882.624	6492.75
882.941	6434.68
883.259	6439.87
883.577	6347.22
883.894	6405.52
884.212	6390.83
884.529	6374.11
884.846	6353.1
885.164	6366.43
885.481	6307.22
885.798	6295.92
886.115	6311.06
886.432	6339.99
886.75	6258.86
887.067	6311.74
887.383	6303.38
887.7	6276.26
888.017	6214.79
888.334	6179.54
888.651	6154.91
888.967	6203.72
889.284	6111.97
889.6	6102.48
889.917	6097.96
890.233	6062.03
890.55	6063.39
890.866	6082.14
891.182	6059.09
891.498	6045.08
891.815	6048.02
892.131	6062.48
892.447	5962.6
892.763	5985.42
893.079	5968.7
893.395	5927.57
893.71	5952.65
894.026	5968.25
894.342	5907.01
894.657	5877.85
894.973	5821.36
895.289	5839.66
895.604	5818.65
895.92	5801.02
896.235	5783.39
896.55	5768.25
896.865	5759.66
897.181	5737.74
897.496	5774.81
897.811	5728.48
898.126	5684.86
898.441	5668.59
898.756	5702.49
899.071	5593.57
899.386	5593.57
899.7	5570.52
900.015	5548.37
900.33	5518.54
900.644	5520.35
900.959	5524.64
901.273	5490.52
901.588	5447.58
901.902	5389.51
902.216	5399.45
902.531	5426.11
902.845	5407.58
903.159	5352.22
903.473	5357.19
903.787	5320.58
904.101	5294.59
904.415	5296.63
904.729	5293.24
905.042	5220.02
905.356	5223.18
905.67	5205.33
905.984	5185.22
906.297	5215.5
906.611	5141.38
906.924	5149.06
907.237	5102.51
907.551	5098.44
907.864	5035.84
908.177	5046.46
908.491	5070.87
908.804	5040.14
909.117	4955.39
909.43	4977.54
909.743	4914.94
910.056	4911.1
910.368	4934.6
910.681	4879.46
910.994	4895.73
911.307	4828.16
911.619	4841.95
911.932	4894.15
912.244	4837.43
912.557	4835.17
912.869	4788.84
913.181	4761.27
913.494	4765.57
913.806	4724.66
914.118	4702.07
914.43	4676.76
914.742	4630.88
915.054	4622.07
915.366	4647.38
915.678	4621.84
915.99	4578.91
916.302	4552.69
916.613	4574.16
916.925	4560.15
917.236	4552.47
917.548	4501.17
917.859	4530.32
918.171	4482.18
918.482	4480.6
918.794	4425.24
919.105	4459.59
919.416	4393.37
919.727	4433.15
920.038	4363.77
920.349	4387.5
920.66	4322.41
920.971	4363.54
921.282	4324
921.593	4319.48
921.903	4208.52
922.214	4284.9
922.525	4235.19
922.835	4245.81
923.146	4228.63
923.456	4164
923.767	4182.08
924.077	4182.98
924.387	4175.75
924.697	4138.01
925.008	4098.47
925.318	4114.74
925.628	4088.07
925.938	4081.97
926.248	4051.24
926.558	4037.45
926.867	4038.58
927.177	3999.26
927.487	3988.41
927.796	3983.21
928.106	3945.25
928.416	3941.18
928.725	3931.92
929.034	3891.01
929.344	3903.22
929.653	3869.77
929.962	3858.02
930.271	3833.61
930.581	3841.52
930.89	3785.03
931.199	3794.97
931.508	3773.5
931.817	3756.1
932.125	3740.73
932.434	3766.72
932.743	3721.98
933.051	3703.9
933.36	3678.36
933.669	3683.34
933.977	3661.64
934.286	3656.44
934.594	3658.25
934.902	3591.81
935.21	3608.08
935.519	3579.16
935.827	3597.46
936.135	3572.15
936.443	3528.99
936.751	3513.4
937.059	3558.14
937.367	3506.84
937.674	3482.89
937.982	3512.72
938.29	3459.39
938.597	3486.28
938.905	3409.44
939.213	3422.1
939.52	3378.48
939.827	3437.69
940.135	3398.82
940.442	3350.01
940.749	3364.02
941.056	3355.89
941.363	3357.69
941.67	3318.37
941.977	3323.12
942.284	3279.73
942.591	3265.49
942.898	3217.13
943.205	3239.51
943.511	3234.99
943.818	3242.67
944.125	3213.29
944.431	3172.39
944.738	3170.58
945.044	3181.2
945.35	3152.5
945.657	3129.45
945.963	3114.54
946.269	3119.06
946.575	3122.22
946.881	3080.64
947.187	3054.2
947.493	3034.31
947.799	3072.28
948.105	3055.56
948.41	3027.53
948.716	3012.84
949.022	3001.09
949.327	3000.87
949.633	2950.47
949.938	2982.79
950.244	2961.32
950.549	2922.9
950.854	2913.19
951.16	2932.39
951.465	2916.12
951.77	2879.74
952.075	2884.26
952.38	2859.4
952.685	2833.87
952.99	2846.3
953.294	2854.88
953.599	2804.26
953.904	2808.56
954.209	2806.75
954.513	2796.35
954.818	2799.74
955.122	2776.24
955.426	2751.61
955.731	2743.47
956.035	2747.31
956.339	2728.78
956.643	2725.85
956.948	2704.15
957.252	2692.17
957.556	2687.66
957.86	2685.85
958.163	2686.3
958.467	2625.74
958.771	2628.22
959.075	2649.46
959.378	2602.01
959.682	2599.52
959.985	2597.71
960.289	2565.85
960.592	2569.92
960.896	2558.17
961.199	2574.89
961.502	2573.53
961.805	2554.55
962.108	2539.41
962.411	2529.69
962.714	2494.21
963.017	2484.04
963.32	2471.62
963.623	2481.33
963.926	2481.11
964.228	2451.96
964.531	2413.99
964.833	2411.5
965.136	2411.96
965.438	2428
965.741	2419.87
966.043	2420.32
966.345	2382.8
966.648	2402.69
966.95	2399.75
967.252	2359.3
967.554	2333.09
967.856	2330.15
968.158	2318.4
968.46	2311.17
968.761	2296.48
969.063	2325.18
969.365	2346.2
969.666	2301
969.968	2290.6
970.269	2268.46
970.571	2250.83
970.872	2275.69
971.174	2232.53
971.475	2228.01
971.776	2197.95
972.077	2204.05
972.378	2183.49
972.679	2198.4
972.98	2190.95
973.281	2194.56
973.582	2169.02
973.883	2143.49
974.183	2168.35
974.484	2116.82
974.785	2146.88
975.085	2139.65
975.386	2105.3
975.686	2147.1
975.986	2102.59
976.287	2087.45
976.587	2098.52
976.887	2052.19
977.187	2084.28
977.487	2058.97
977.787	2034.79
978.087	2034.34
978.387	2042.7
978.687	2026.43
978.987	2009.48
979.286	2016.03
979.586	2002.48
979.885	1989.59
980.185	1991.63
980.484	1960.89
980.784	1963.15
981.083	1979.2
981.382	1939.43
981.682	1954.34
981.981	1918.18
982.28	1928.58
982.579	1919.77
982.878	1950.73
983.177	1877.96
983.475	1870.73
983.774	1862.82
984.073	1895.13
984.372	1870.73
984.67	1901.01
984.969	1852.88
985.267	1815.59
985.566	1828.02
985.864	1829.37
986.162	1819.88
986.461	1809.94
986.759	1801.8
987.057	1790.5
987.355	1785.31
987.653	1798.41
987.951	1745.99
988.249	1775.36
988.547	1775.59
988.844	1771.52
989.142	1720.68
989.44	1722.71
989.737	1707.79
990.035	1716.61
990.332	1713.44
990.63	1715.03
990.927	1688.81
991.224	1706.66
991.521	1673.67
991.819	1637.29
992.116	1714.8
992.413	1674.8
992.71	1642.94
993.006	1654.01
993.303	1682.94
993.6	1648.59
993.897	1629.38
994.193	1644.29
994.49	1638.87
994.787	1636.38
995.083	1616.27
995.379	1597.29
995.676	1598.42
995.972	1606.1
996.268	1574.46
996.565	1572.66
996.861	1530.4
997.157	1547.8
997.453	1548.93
997.749	1556.84
998.044	1538.53
998.34	1516.16
998.636	1519.32
998.932	1517.29
999.227	1485.65
999.523	1493.79
999.818	1492.66
1000.114	1482.49
1000.409	1501.92
1000.704	1479.78
1001	1468.93
1001.295	1443.17
1001.59	1459.67
1001.885	1466.44
1002.18	1427.12
1002.475	1417.41
1002.77	1423.28
1003.065	1412.66
1003.359	1397.97
1003.654	1388.25
1003.949	1383.96
1004.243	1418.31
1004.538	1368.14
1004.832	1351.87
1005.127	1349.84
1005.421	1362.94
1005.715	1330.18
1006.009	1346.9
1006.304	1338.76
1006.598	1310.97
1006.892	1315.49
1007.186	1317.52
1007.48	1310.06
1007.773	1308.71
1008.067	1296.28
1008.361	1272.78
1008.655	1292.66
1008.948	1290.86
1009.242	1284.08
1009.535	1251.31
1009.829	1258.09
1010.122	1271.87
1010.415	1250.63
1010.708	1250.4
1011.001	1269.61
1011.295	1201.59
1011.588	1207.69
1011.881	1213.12
1012.173	1216.96
1012.466	1212.67
1012.759	1186
1013.052	1194.59
1013.344	1190.07
1013.637	1178.99
1013.93	1197.07
1014.222	1154.59
1014.514	1166.34
1014.807	1141.26
1015.099	1134.93
1015.391	1140.13
1015.683	1131.09
1015.976	1121.82
1016.268	1096.96
1016.56	1108.49
1016.851	1103.74
1017.143	1106.23
1017.435	1109.39
1017.727	1096.96
1018.018	1066.68
1018.31	1051.54
1018.602	1084.53
1018.893	1071.43
1019.185	1080.92
1019.476	1069.39
1019.767	1063.29
1020.058	1072.1
1020.35	1011.99
1020.641	1035.95
1020.932	1012.67
1021.223	1023.74
1021.514	988.04
1021.804	981.49
1022.095	998.89
1022.386	994.14
1022.677	967.7
1022.967	999.11
1023.258	957.08
1023.548	976.29
1023.839	955.27
1024.129	943.97
1024.419	954.14
1024.709	949.4
1025	945.1
1025.29	931.09
1025.58	920.47
1025.87	928.83
1026.16	918.21
1026.449	924.76
1026.739	925.44
1027.029	907.14
1027.319	884.99
1027.608	920.47
1027.898	908.72
1028.187	896.97
1028.477	898.78
1028.766	887.25
1029.055	850.19
1029.344	871.43
1029.634	844.54
1029.923	858.55
1030.212	834.6
1030.501	857.65
1030.79	871.21
1031.078	861.71
1031.367	827.59
1031.656	833.69
1031.945	831.43
1032.233	827.37
1032.522	823.98
1032.81	805.44
1033.099	807.7
1033.387	814.03
1033.675	805.22
1033.963	789.85
1034.251	810.42
1034.54	786.91
1034.828	799.34
1035.116	761.6
1035.403	795.5
1035.691	763.86
1035.979	772.45
1036.267	767.48
1036.554	758.44
1036.842	766.8
1037.129	741.94
1037.417	719.35
1037.704	754.82
1037.992	746.92
1038.279	735.16
1038.566	726.35
1038.853	726.35
1039.14	726.35
