Data from hue_32_FLMS001491_00069.txt Node
Date: Tue Feb 07 17:23:45 GMT 2017
User: dcchb
Spectrometer: FLMS00149
Trigger mode: 0
Integration Time (sec): 2.000000E-2
Scans to average: 10
Electric dark correction enabled: true
Nonlinearity correction enabled: false
Boxcar width: 0
XAxis mode: Wavelengths
Number of Pixels in Spectrum: 2048
>>>>>Begin Spectral Data<<<<<
341.393	-34.31
341.776	-34.31
342.16	-34.31
342.543	-64.59
342.927	-45.38
343.31	-55.78
343.693	-67.3
344.077	-65.94
344.46	-64.14
344.843	-52.16
345.226	-39.96
345.61	-26.85
345.993	-14.87
346.376	-12.16
346.759	17.9
347.142	23.54
347.525	32.58
347.908	61.96
348.291	56.54
348.674	81.17
349.057	125.46
349.44	132.69
349.823	166.37
350.206	179.25
350.588	191.22
350.971	214.27
351.354	227.61
351.737	267.15
352.119	259.92
352.502	260.6
352.884	272.8
353.267	289.07
353.65	322.97
354.032	311.67
354.414	313.03
354.797	326.59
355.179	340.37
355.562	326.81
355.944	348.96
356.326	338.79
356.709	334.5
357.091	363.65
357.473	327.94
357.855	332.46
358.238	344.67
358.62	339.47
359.002	328.4
359.384	354.84
359.766	365.68
360.148	329.98
360.53	336.3
360.912	354.84
361.294	331.11
361.676	321.62
362.057	333.59
362.439	344.89
362.821	352.12
363.203	336.3
363.584	323.42
363.966	315.74
364.348	328.85
364.729	313.03
365.111	330.88
365.493	322.07
365.874	322.75
366.256	318
366.637	312.35
367.019	331.56
367.4	315.06
367.781	318.45
368.163	319.13
368.544	324.33
368.925	313.25
369.306	328.17
369.688	320.26
370.069	322.52
370.45	340.37
370.831	322.07
371.212	315.29
371.593	315.51
371.974	312.58
372.355	318.45
372.736	323.42
373.117	340.82
373.498	332.01
373.879	302.86
374.26	324.33
374.641	311.67
375.021	318
375.402	329.75
375.783	306.7
376.163	330.66
376.544	333.82
376.925	334.27
377.305	346.93
377.686	339.02
378.066	348.51
378.447	348.73
378.827	344.89
379.208	333.14
379.588	333.14
379.968	318.23
380.349	328.17
380.729	332.24
381.109	318
381.489	341.5
381.87	353.03
382.25	369.52
382.63	347.83
383.01	325.01
383.39	343.76
383.77	349.41
384.15	353.93
384.53	360.71
384.91	354.38
385.29	326.36
385.67	384.67
386.049	360.94
386.429	363.2
386.809	348.51
387.189	349.86
387.568	353.93
387.948	369.07
388.328	368.39
388.707	362.07
389.087	360.26
389.466	367.72
389.846	373.14
390.225	377.43
390.605	370.2
390.984	386.02
391.363	376.08
391.743	359.35
392.122	363.2
392.501	343.54
392.881	369.52
393.26	380.6
393.639	379.24
394.018	384.67
394.397	388.96
394.776	370.88
395.155	368.39
395.534	376.3
395.913	384.89
396.292	387.6
396.671	394.61
397.05	370.2
397.429	405.68
397.808	405.23
398.186	386.7
398.565	414.49
398.944	383.54
399.323	407.94
399.701	405.46
400.08	407.26
400.458	405.68
400.837	390.09
401.215	432.35
401.594	396.19
401.972	406.81
402.351	413.36
402.729	423.31
403.107	424.21
403.486	409.98
403.864	413.59
404.242	436.64
404.62	413.36
404.999	436.42
405.377	417.43
405.755	444.78
406.133	417.88
406.511	427.83
406.889	435.06
407.267	430.77
407.645	450.65
408.023	441.16
408.401	434.61
408.779	445.23
409.156	433.48
409.534	468.05
409.912	479.13
410.29	462.4
410.667	454.72
411.045	464.66
411.422	458.56
411.8	461.73
412.178	481.16
412.555	478.45
412.933	478.45
413.31	482.97
413.687	503.31
414.065	487.94
414.442	487.71
414.819	489.07
415.197	499.24
415.574	484.32
415.951	481.61
416.328	523.19
416.705	485.23
417.082	500.37
417.46	527.94
417.837	518.45
418.214	528.84
418.591	529.29
418.967	531.78
419.344	535.62
419.721	532.23
420.098	540.82
420.475	525.9
420.852	553.7
421.228	550.54
421.605	546.92
421.982	569.97
422.358	565.9
422.735	581.5
423.111	557.54
423.488	578.11
423.864	566.13
424.241	582.4
424.617	569.07
424.994	577.65
425.37	575.62
425.746	582.85
426.123	556.64
426.499	597.54
426.875	605.22
427.251	599.57
427.627	619.69
428.003	608.61
428.379	617.43
428.756	607.26
429.132	641.61
429.507	629.4
429.883	628.95
430.259	657.65
430.635	654.04
431.011	638.9
431.387	636.18
431.763	667.14
432.138	674.37
432.514	683.41
432.89	671.21
433.265	687.71
433.641	709.18
434.016	705.33
434.392	697.2
434.767	715.73
435.143	736.97
435.518	710.53
435.894	725
436.269	726.12
436.644	738.78
437.02	730.19
437.395	736.75
437.77	760.93
438.145	766.58
438.52	770.42
438.895	761.83
439.271	748.95
439.646	788.95
440.021	774.26
440.395	781.26
440.77	774.94
441.145	781.04
441.52	823.3
441.895	808.61
442.27	791.21
442.645	810.87
443.019	798.89
443.394	819.46
443.769	828.27
444.143	809.74
444.518	837.08
444.892	826.01
445.267	821.04
445.641	836.4
446.016	825.33
446.39	867.14
446.764	863.52
447.139	860.13
447.513	884.99
447.887	863.3
448.262	863.07
448.636	884.76
449.01	895.84
449.384	894.03
449.758	899
450.132	914.14
450.506	913.69
450.88	934.93
451.254	902.84
451.628	940.36
452.002	932.67
452.376	932.9
452.75	964.99
453.123	969.51
453.497	941.49
453.871	977.42
454.244	1005.89
454.618	997.53
454.992	1015.16
455.365	1010.19
455.739	1051.99
456.112	1045.66
456.486	1047.02
456.859	1045.21
457.232	1060.35
457.606	1052.9
457.979	1091.77
458.352	1101.71
458.725	1105.78
459.099	1100.35
459.472	1130.41
459.845	1145.77
460.218	1143.97
460.591	1174.93
460.964	1169.5
461.337	1178.54
461.71	1197.75
462.083	1199.78
462.456	1207.47
462.829	1223.51
463.201	1243.63
463.574	1246.34
463.947	1276.17
464.32	1287.92
464.692	1305.09
465.065	1337.41
465.438	1357.07
465.81	1364.98
466.183	1355.94
466.555	1422.6
466.928	1452.21
467.3	1431.87
467.672	1422.6
468.045	1461.02
468.417	1452.43
468.789	1498.08
469.161	1517.06
469.534	1544.63
469.906	1585.76
470.278	1581.47
470.65	1623.95
471.022	1656.95
471.394	1698.53
471.766	1680
472.138	1700.56
472.51	1760.9
472.882	1774.46
473.253	1773.78
473.625	1848.13
473.997	1878.64
474.369	1871.18
474.74	1929.94
475.112	1946.66
475.484	2000.44
475.855	2061.91
476.227	2050.38
476.598	2149.36
476.97	2180.32
477.341	2244.05
477.713	2263.49
478.084	2294.67
478.455	2355.01
478.827	2375.35
479.198	2457.6
479.569	2503.48
479.94	2579.41
480.311	2618.5
480.682	2700.54
481.053	2769.69
481.424	2846.07
481.795	2869.57
482.166	2894.66
482.537	2966.97
482.908	3113.18
483.279	3115.67
483.65	3197.7
484.021	3315.66
484.391	3378.71
484.762	3418.48
485.133	3489.67
485.503	3543.68
485.874	3653.51
486.244	3694.41
486.615	3804.01
486.985	3855.53
487.356	4003.33
487.726	4035.42
488.097	4133.94
488.467	4211.01
488.837	4298.23
489.207	4385.46
489.578	4495.97
489.948	4591.11
490.318	4647.38
490.688	4726.47
491.058	4796.3
491.428	4927.82
491.798	4926.24
492.168	5147.48
492.538	5175.05
492.908	5230.41
493.278	5400.13
493.648	5388.83
494.017	5448.49
494.387	5588.14
494.757	5678.99
495.126	5739.55
495.496	5813.9
495.866	5948.36
496.235	5973.22
496.605	6112.2
496.974	6117.17
497.344	6238.3
497.713	6287.56
498.082	6384.51
498.452	6431.29
498.821	6484.84
499.19	6540.89
499.559	6658.62
499.928	6737.04
500.298	6796.25
500.667	6821.11
501.036	6894.32
501.405	6985.17
501.774	7064.72
502.143	7109.69
502.512	7153.75
502.88	7230.59
503.249	7238.72
503.618	7340.19
503.987	7381.54
504.356	7432.62
504.724	7556
505.093	7562.1
505.462	7619.5
505.83	7688.43
506.199	7765.04
506.567	7858.82
506.936	7919.61
507.304	7998.93
507.672	8079.38
508.041	8139.49
508.409	8173.84
508.777	8289.32
509.145	8280.5
509.514	8319.37
509.882	8336.09
510.25	8413.61
510.618	8427.39
510.986	8485.69
511.354	8618.8
511.722	8628.29
512.09	8751.45
512.458	8716.65
512.826	8888.62
513.193	8914.84
513.561	8903.54
513.929	9019.92
514.297	9082.74
514.664	9093.81
515.032	9113.25
515.4	9215.85
515.767	9230.53
516.135	9270.08
516.502	9226.92
516.869	9439.57
517.237	9409.96
517.604	9399.12
517.972	9541.71
518.339	9541.71
518.706	9580.36
519.073	9632.78
519.44	9745.77
519.808	9878.43
520.175	9783.74
520.542	9924.98
520.909	9967.24
521.276	9937.63
521.643	10043.85
522.009	10124.75
522.376	10182.6
522.743	10198.19
523.11	10293.78
523.477	10337.17
523.843	10455.13
524.21	10505.08
524.577	10479.09
524.943	10598.86
525.31	10682.02
525.676	10729.7
526.043	10760.89
526.409	10895.35
526.776	10950.71
527.142	11013.31
527.508	10996.59
527.874	11118.62
528.241	11196.13
528.607	11268.67
528.973	11316.58
529.339	11304.38
529.705	11458.72
530.071	11562.9
530.437	11508.89
530.803	11675.89
531.169	11711.82
531.535	11663.01
531.901	11726.06
532.267	11744.14
532.632	11850.13
532.998	11868.2
533.364	11988.2
533.73	12048.31
534.095	12120.63
534.461	12261.41
534.826	12158.82
535.192	12176.22
535.557	12399.26
535.923	12385.93
536.288	12422.54
536.653	12434.97
537.019	12501.41
537.384	12542.76
537.749	12576.21
538.114	12678.13
538.479	12705.92
538.845	12694.62
539.21	12658.01
539.575	12763.1
539.94	12839.03
540.305	12881.74
540.67	12910.44
541.034	13050.32
541.399	13062.3
541.764	13158.34
542.129	13124.44
542.494	13199.92
542.858	13288.51
543.223	13320.82
543.587	13369.18
543.952	13364.44
544.316	13447.82
544.681	13546.8
545.045	13548.84
545.41	13613.7
545.774	13636.97
546.138	13757.87
546.503	13697.76
546.867	13762.84
547.231	13832.67
547.595	13826.8
547.959	13897.3
548.324	13966.23
548.688	13932.33
549.052	14055.04
549.416	14022.05
549.779	14156.28
550.143	14187.24
550.507	14256.62
550.871	14280.34
551.235	14370.51
551.599	14416.16
551.962	14432.66
552.326	14509.49
552.689	14629.71
553.053	14587.68
553.417	14648.7
553.78	14742.03
554.143	14724.4
554.507	14822.25
554.87	14864.96
555.234	15007.33
555.597	14881.68
555.96	14964.39
556.323	15043.94
556.686	15040.32
557.05	15256.14
557.413	15179.98
557.776	15178.63
558.139	15322.8
558.502	15305.4
558.865	15313.31
559.228	15500.43
559.59	15535
559.953	15495.23
560.316	15713.3
560.679	15614.32
561.041	15804.82
561.404	15873.98
561.767	15923.01
562.129	15880.98
562.492	16018.6
562.854	16011.37
563.217	16113.97
563.579	16125.49
563.941	16223.8
564.304	16193.97
564.666	16391.93
565.028	16419.27
565.39	16444.36
565.753	16500.4
566.115	16544.92
566.477	16661.53
566.839	16622.43
567.201	16767.96
567.563	16729.55
567.925	16890.67
568.287	16862.42
568.648	16888.41
569.01	17011.12
569.372	17158.24
569.734	17124.11
570.095	17262.64
570.457	17372.24
570.819	17352.13
571.18	17466.02
571.542	17476.42
571.903	17617.21
572.265	17613.14
572.626	17684.78
572.987	17826.69
573.349	17849.52
573.71	17946.24
574.071	18040.7
574.432	18032.34
574.794	18266.23
575.155	18263.29
575.516	18391.65
575.877	18546.22
576.238	18571.31
576.599	18700.34
576.96	18808.36
577.32	18917.29
577.681	19029.82
578.042	19270.72
578.403	19286.54
578.763	19346.65
579.124	19597.27
579.485	19764.27
579.845	19888.11
580.206	20039.06
580.566	20054.2
580.927	20242
581.287	20466.4
581.648	20496.45
582.008	20783.9
582.368	20928.98
582.728	21157.9
583.089	21293.72
583.449	21500.04
583.809	21795.4
584.169	21925.12
584.529	21993.14
584.889	22465.89
585.249	22509.51
585.609	22685.1
585.969	23073.79
586.329	23191.75
586.688	23430.39
587.048	23630.83
587.408	23745.86
587.768	23993.08
588.127	24187.2
588.487	24336.8
588.846	24819.28
589.206	24818.6
589.565	25241.19
589.925	25558.69
590.284	25772.7
590.643	26146.93
591.003	26310.31
591.362	26639.12
591.721	26883.63
592.08	27107.58
592.44	27362.03
592.799	27633.89
593.158	27857.39
593.517	28171.51
593.876	28509.58
594.235	28647.65
594.593	28917.25
594.952	29253.28
595.311	29352.04
595.67	29689.21
596.029	30193.6
596.387	30218.68
596.746	30470.65
597.104	30679.01
597.463	30892.79
597.822	31253.91
598.18	31453.68
598.538	31555.37
598.897	32184.51
599.255	32081.91
599.613	32786.07
599.972	32746.3
600.33	33093.18
600.688	33055.9
601.046	33469.9
601.404	33864.46
601.762	33977.23
602.12	34173.38
602.478	34421.74
602.836	34633.03
603.194	34799.35
603.552	34879.58
603.91	35029.4
604.268	35487.7
604.625	35502.84
604.983	35865.31
605.341	35781.47
605.698	36239.54
606.056	36512.98
606.413	36561.34
606.771	37007.88
607.128	36973.99
607.485	37022.35
607.843	37220.76
608.2	37606.96
608.557	37835.88
608.914	37749.11
609.272	38144.35
609.629	38249.21
609.986	38559.25
610.343	38523.32
610.7	38993.82
611.057	38992.46
611.414	39181.39
611.771	39208.5
612.127	39284.43
612.484	39587.7
612.841	39748.38
613.198	39698.89
613.554	39980.01
613.911	40148.59
614.267	40335.48
614.624	40422.03
614.98	40543.16
615.337	40769.14
615.693	40760.55
616.05	40803.26
616.406	41112.18
616.762	41261.33
617.118	41112.63
617.475	41290.93
617.831	41415.22
618.187	41765.05
618.543	41694.54
618.899	42052.04
619.255	41965.94
619.611	42101.08
619.967	42141.76
620.323	42344.69
620.678	42180.85
621.034	42289.55
621.39	42401.64
621.746	42364.8
622.101	42865.58
622.457	42672.82
622.812	42817.45
623.168	43000.72
623.523	42979.7
623.879	43044.11
624.234	42959.36
624.589	43201.62
624.945	43117.33
625.3	43236.65
625.655	43258.34
626.01	43407.94
626.365	43427.6
626.72	43507.15
627.075	43438.22
627.43	43521.38
627.785	43403.87
628.14	43546.92
628.495	43664.21
628.85	43622.85
629.205	43517.54
629.559	43786.01
629.914	43591.44
630.269	43677.99
630.623	43581.04
630.978	43487.71
631.332	43750.76
631.687	43823.3
632.041	43826.91
632.396	43756.18
632.75	43693.81
633.104	43722.06
633.459	43662.4
633.813	43760.7
634.167	43792.56
634.521	43690.42
634.875	43809.06
635.229	43704.43
635.583	43629.4
635.937	43501.95
636.291	43620.59
636.645	43640.7
636.999	43555.96
637.352	43724.32
637.706	43337.89
638.06	43676.18
638.413	43567.03
638.767	43527.26
639.121	43589.4
639.474	43404.55
639.828	43426.92
640.181	43499.46
640.534	43478.45
640.888	43387.83
641.241	43104.67
641.594	43273.48
641.947	43381.05
642.301	43365.23
642.654	43311.9
643.007	43243.65
643.36	43279.36
643.713	43175.18
644.066	43401.16
644.419	43020.38
644.771	43074.39
645.124	42528.87
645.477	42512.37
645.83	42372.26
646.182	42073.96
646.535	42051.82
646.888	42064.93
647.24	41898.38
647.593	42154.87
647.945	42070.8
648.298	41963.46
648.65	41849.11
649.002	41879.39
649.355	42028.54
649.707	41843.01
650.059	42091.82
650.411	42475.31
650.763	42569.77
651.115	42799.82
651.467	42744.46
651.819	42762.08
652.171	42611.8
652.523	42532.26
652.875	42657
653.227	42479.38
653.578	42787.39
653.93	42637.79
654.282	42500.62
654.633	42492.48
654.985	42602.99
655.337	42554.4
655.688	42532.71
656.039	42612.71
656.391	42358.93
656.742	42442.99
657.094	42520.96
657.445	42686.15
657.796	42428.31
658.147	42565.02
658.498	42413.84
658.849	42483.67
659.2	42365.26
659.551	42385.59
659.902	42415.65
660.253	42363.9
660.604	42430.34
660.955	42152.15
661.306	42327.29
661.656	42225.15
662.007	42258.37
662.358	42380.17
662.708	42387.18
663.059	42375.43
663.409	41923.46
663.76	42207.52
664.11	42210.68
664.461	42264.92
664.811	42303.11
665.161	42238.93
665.511	42292.04
665.862	42196.22
666.212	42288.42
666.562	42277.12
666.912	42140.86
667.262	42165.49
667.612	42182.21
667.962	42160.74
668.312	42121.42
668.662	42359.61
669.011	42106.05
669.361	42222.66
669.711	42176.56
670.06	41967.3
670.41	42021.76
670.76	41861.54
671.109	42030.35
671.459	42076.45
671.808	42040.29
672.157	42090.91
672.507	41747.42
672.856	41889.34
673.205	41954.65
673.554	41988.32
673.904	41839.17
674.253	42116
674.602	42029.45
674.951	41347.2
675.3	41218.39
675.649	41806.4
675.998	41780.41
676.346	41877.59
676.695	41913.06
677.044	41588.55
677.393	41690.7
677.741	41708.78
678.09	41594.2
678.438	41698.83
678.787	41709
679.135	41777.47
679.484	41430.14
679.832	41436.24
680.181	41226.53
680.529	41334.1
680.877	41092.97
681.225	41223.82
681.573	41470.14
681.922	41024.95
682.27	41092.75
682.618	41083.03
682.966	40957.61
683.314	40972.75
683.661	40782.02
684.009	40663.15
684.357	40765.52
684.705	40678.97
685.053	40707.45
685.4	40777.73
685.748	40402.37
686.095	40466.77
686.443	40402.37
686.79	40323.28
687.138	40294.35
687.485	40325.08
687.832	40105.65
688.18	40158.31
688.527	39884.87
688.874	39928.48
689.221	39866.11
689.568	39709.96
689.915	39709.73
690.262	39707.7
690.609	39535.27
690.956	39513.35
691.303	39295.28
691.65	39184.77
691.997	39263.87
692.344	39075.63
692.69	38978.45
693.037	39015.51
693.383	38700.95
693.73	38780.72
694.077	38579.59
694.423	38606.03
694.769	38422.31
695.116	38338.92
695.462	38431.35
695.808	38348.86
696.155	38267.06
696.501	38123.33
696.847	38081.98
697.193	37813.29
697.539	37980.51
697.885	37650.8
698.231	37460.07
698.577	37670.24
698.923	37483.58
699.269	37336.69
699.614	37105.96
699.96	37165.17
700.306	37090.82
700.651	36994.1
700.997	36845.63
701.342	36792.07
701.688	36706.2
702.033	36600.66
702.379	36570.38
702.724	36608.57
703.069	36500.1
703.415	36065.76
703.76	36133.33
704.105	36069.38
704.45	35943.73
704.795	35808.37
705.14	35814.24
705.485	35726.56
705.83	35652.66
706.175	35665.32
706.52	35595.49
706.865	35377.64
707.209	35453.8
707.554	35395.5
707.899	35389.85
708.243	35079.12
708.588	34967.26
708.932	34969.97
709.277	34847.94
709.621	34928.84
709.966	34648.4
710.31	34650.43
710.654	34327.05
710.998	34601.84
711.342	34545.8
711.687	34363.43
712.031	34340.83
712.375	34123.89
712.719	34143.55
713.063	34018.36
713.407	34171.57
713.75	34087.96
714.094	33854.52
714.438	33774.75
714.782	33840.06
715.125	33809.55
715.469	33740.62
715.812	33638.03
716.156	33325.49
716.499	33462.67
716.843	33336.79
717.186	33165.27
717.53	33371.14
717.873	33444.59
718.216	33236.46
718.559	33058.61
718.902	33013.64
719.246	33134.76
719.589	32914.21
719.932	32820.2
720.275	32794.43
720.617	32775.45
720.96	32713.53
721.303	32702.01
721.646	32664.27
721.989	32530.26
722.331	32558.96
722.674	32500.2
723.016	32554.44
723.359	32459.75
723.701	32401.45
724.044	32128.46
724.386	32094.79
724.729	32236.26
725.071	32253.43
725.413	32027.9
725.755	32158.52
726.097	31901.35
726.439	31743.61
726.782	31767.79
727.124	31817.74
727.465	31714.01
727.807	31621.36
728.149	31658.42
728.491	31584.75
728.833	31533.45
729.175	31546.78
729.516	31486.45
729.858	31467.92
730.199	31435.6
730.541	31235.61
730.882	31282.16
731.224	31362.61
731.565	30988.38
731.906	31181.82
732.248	31129.85
732.589	31014.14
732.93	30869.74
733.271	30878.33
733.612	30971.43
733.953	30856.63
734.294	30790.42
734.635	30764.43
734.976	30842.4
735.317	30599.01
735.658	30610.54
735.999	30605.34
736.339	30591.1
736.68	30596.75
737.021	30470.43
737.361	30346.82
737.702	30481.95
738.042	30268.63
738.383	30319.7
738.723	30326.7
739.063	30291.68
739.404	30310.66
739.744	30115.41
740.084	30163.32
740.424	30281.51
740.764	30081.74
741.104	30107.5
741.444	29942.31
741.784	29964.68
742.124	29879.48
742.464	29879.26
742.804	29837.68
743.143	29802.42
743.483	29861.18
743.823	29695.31
744.162	29607.17
744.502	29687.62
744.841	29443.56
745.181	29705.48
745.52	29512.71
745.86	29559.94
746.199	29608.53
746.538	29406.73
746.877	29559.04
747.216	29419.61
747.556	29349.33
747.895	29412.38
748.234	29243.34
748.573	29178.26
748.911	29105.04
749.25	29004.03
749.589	28903.92
749.928	28944.14
750.267	29089
750.605	28980.75
750.944	28788.44
751.283	28783.92
751.621	28839.06
751.96	28621.21
752.298	28536.69
752.636	28686.97
752.975	28477.94
753.313	28500.31
753.651	28644.49
753.989	28289.69
754.327	28354.1
754.666	28247.89
755.004	28317.94
755.342	28266.64
755.679	28198.17
756.017	27976.48
756.355	28038.63
756.693	28008.57
757.031	28060.32
757.368	27797.73
757.706	27854.68
758.044	27779.2
758.381	27705.75
758.719	27626.89
759.056	27756.37
759.394	27432.09
759.731	27423.05
760.068	27298.53
760.405	27289.72
760.743	27195.94
761.08	27246.78
761.417	27008.82
761.754	26933.8
762.091	27057.18
762.428	26871.88
762.765	26612.9
763.102	26799.34
763.438	26660.81
763.775	26674.37
764.112	26708.27
764.449	26522.06
764.785	26456.75
765.122	26294.27
765.458	26120.49
765.795	26086.81
766.131	26096.53
766.467	25974.73
766.804	25827.39
767.14	25855.63
767.476	25826.71
767.812	25704.68
768.148	25643.44
768.485	25449.54
768.821	25400.28
769.157	25343.1
769.492	25246.61
769.828	25272.6
770.164	24954.87
770.5	24936.56
770.836	24960.29
771.171	24765.04
771.507	24709.68
771.842	24572.96
772.178	24565.95
772.513	24531.83
772.849	24407.31
773.184	24364.83
773.519	24275.34
773.855	24161.89
774.19	24175.23
774.525	24003.48
774.86	23964.38
775.195	23982.01
775.53	23817.5
775.865	23623.6
776.2	23532.76
776.535	23269.71
776.87	23375.7
777.205	23199.21
777.539	23064.29
777.874	23207.57
778.209	22981.13
778.543	22964.86
778.878	22837.41
779.212	22831.08
779.547	22711.08
779.881	22806.45
780.215	22560.58
780.55	22523.74
780.884	22423.63
781.218	22419.34
781.552	22427.7
781.886	22117.2
782.22	22044.21
782.554	22123.53
782.888	21865.91
783.222	21823.2
783.556	21666.37
783.889	21674.5
784.223	21580.72
784.557	21453.49
784.89	21460.95
785.224	21408.29
785.557	21203.33
785.891	21298.47
786.224	21141.18
786.558	21168.3
786.891	20886.95
787.224	20809.66
787.557	20768.08
787.891	20878.36
788.224	20690.57
788.557	20738.25
788.89	20626.17
789.223	20577.13
789.556	20399.51
789.888	20424.36
790.221	20312.73
790.554	20194.77
790.887	20122.68
791.219	20061.21
791.552	20004.71
791.884	19856.7
792.217	19847.43
792.549	19841.55
792.882	19699.19
793.214	19591.17
793.546	19486.99
793.879	19449.25
794.211	19340.78
794.543	19522.47
794.875	19350.27
795.207	19371.74
795.539	19274.34
795.871	19153.89
796.203	19109.14
796.535	18882.71
796.867	18967
797.198	18871.18
797.53	18897.17
797.862	18801.36
798.193	18784.41
798.525	18736.5
798.856	18740.57
799.188	18501.48
799.519	18382.38
799.85	18362.5
800.182	18389.84
800.513	18325.89
800.844	18195.04
801.175	18252.67
801.506	18250.86
801.837	18045.44
802.168	18085.89
802.499	18018.33
802.83	17866.69
803.161	17863.3
803.491	17871.21
803.822	17838.9
804.153	17802.74
804.483	17560.94
804.814	17586.02
805.145	17540.15
805.475	17516.42
805.805	17469.19
806.136	17357.55
806.466	17376.76
806.796	17326.82
807.126	17239.14
807.457	17134.06
807.787	17151.23
808.117	17086.37
808.447	17001.86
808.777	17011.12
809.107	17043.21
809.436	16887.73
809.766	16854.06
810.096	16813.39
810.426	16752.82
810.755	16814.74
811.085	16724.8
811.414	16646.84
811.744	16463.11
812.073	16476.22
812.403	16465.15
812.732	16332.49
813.061	16343.34
813.39	16331.82
813.719	16303.79
814.049	16406.39
814.378	16289.78
814.707	16171.37
815.036	16157.13
815.365	16060.64
815.693	15857.48
816.022	15971.15
816.351	16013.86
816.68	15832.17
817.008	15919.85
817.337	15757.14
817.665	15692.96
817.994	15721.21
818.322	15789.46
818.651	15684.83
818.979	15593.3
819.307	15693.19
819.636	15586.07
819.964	15447.77
820.292	15560.76
820.62	15592.4
820.948	15452.97
821.276	15515.34
821.604	15511.5
821.932	15490.71
822.259	15522.12
822.587	15424.72
822.915	15502.69
823.243	15420.43
823.57	15413.2
823.898	15453.2
824.225	15290.26
824.553	15400.32
824.88	15396.7
825.207	15385.17
825.535	15261.34
825.862	15326.19
826.189	15343.37
826.516	15429.69
826.843	15372.52
827.17	15358.73
827.497	15349.24
827.824	15347.44
828.151	15368
828.478	15329.13
828.805	15483.93
829.131	15278.06
829.458	15359.64
829.785	15212.75
830.111	15310.15
830.438	15426.98
830.764	15254.1
831.09	15349.02
831.417	15208.23
831.743	15334.1
832.069	15338.85
832.395	15281.9
832.722	15270.83
833.048	15176.14
833.374	15306.98
833.7	15171.85
834.026	15191.73
834.351	15163.03
834.677	15145.86
835.003	15251.39
835.329	15152.41
835.654	15114.9
835.98	15041.91
836.306	15125.52
836.631	15065.18
836.956	15088.46
837.282	15146.76
837.607	15006.65
837.932	14938.18
838.258	14917.16
838.583	14881.46
838.908	14851.63
839.233	14801.24
839.558	14804.17
839.883	14742.71
840.208	14677.62
840.533	14707.68
840.858	14772.99
841.182	14727.56
841.507	14707.68
841.832	14605.08
842.156	14684.4
842.481	14525.99
842.805	14552.65
843.13	14467.23
843.454	14458.65
843.778	14471.53
844.103	14359.44
844.427	14400.57
844.751	14345.2
845.075	14306.33
845.399	14222.95
845.723	14166
846.047	14212.78
846.371	14104.76
846.695	14100.01
847.019	13939.56
847.343	13901.82
847.666	13737.76
847.99	13746.12
848.313	13806.46
848.637	13671.55
848.96	13708.38
849.284	13542.51
849.607	13513.36
849.931	13596.52
850.254	13387.04
850.577	13288.28
850.9	13331.44
851.223	13244.21
851.546	13207.15
851.869	13129.41
852.192	13136.65
852.515	13038.34
852.838	13047.16
853.161	13029.3
853.483	12979.81
853.806	12947.05
854.129	12845.58
854.451	12814.62
854.774	12749.76
855.096	12681.74
855.419	12683.1
855.741	12708.63
856.063	12557.68
856.385	12521.75
856.708	12484.23
857.03	12456.44
857.352	12508.19
857.674	12398.36
857.996	12431.58
858.318	12324.24
858.64	12291.02
858.961	12301.64
859.283	12151.14
859.605	12201.98
859.926	12184.13
860.248	12068.65
860.57	12084.92
860.891	12142.77
861.212	12054.19
861.534	11992.27
861.855	11986.85
862.176	11913.63
862.498	11916.57
862.819	11947.75
863.14	11849.9
863.461	11839.73
863.782	11789.79
864.103	11788.66
864.424	11768.32
864.745	11820.75
865.065	11705.95
865.386	11726.29
865.707	11635.67
866.027	11630.7
866.348	11526.97
866.668	11641.77
866.989	11541.43
867.309	11526.74
867.63	11532.85
867.95	11547.08
868.27	11416.24
868.59	11503.02
868.91	11494.88
869.23	11425.73
869.55	11388.44
869.87	11383.92
870.19	11402.68
870.51	11395.45
870.83	11469.8
871.15	11357.71
871.469	11374.66
871.789	11335.11
872.109	11291.5
872.428	11277.03
872.748	11409.23
873.067	11244.72
873.386	11208.34
873.706	11242.46
874.025	11136.25
874.344	11188.67
874.663	11213.31
874.982	11116.36
875.301	11077.94
875.62	11129.69
875.939	11069.36
876.258	10996.82
876.577	10993.43
876.896	11031.84
877.214	10938.06
877.533	10960.88
877.852	10934.9
878.17	10932.86
878.489	10950.26
878.807	10962.92
879.125	10888.57
879.444	10795.24
879.762	10871.62
880.08	10781
880.398	10825.97
880.716	10747.78
881.034	10759.99
881.352	10721.79
881.67	10750.72
881.988	10790.27
882.306	10677.73
882.624	10628.01
882.941	10576.94
883.259	10522.93
883.577	10545.53
883.894	10499.2
884.212	10531.74
884.529	10550.73
884.846	10413.1
885.164	10440.67
885.481	10441.12
885.798	10403.84
886.115	10314.8
886.432	10309.38
886.75	10316.16
887.067	10302.6
887.383	10295.36
887.7	10227.12
888.017	10189.83
888.334	10248.13
888.651	10155.48
888.967	10188.25
889.284	10112.09
889.6	10068.7
889.917	9927.46
890.233	10005.88
890.55	9936.73
890.866	9974.02
891.182	9891.99
891.498	9885.21
891.815	9859.9
892.131	9833.68
892.447	9811.99
892.763	9807.02
893.079	9711.65
893.395	9762.27
893.71	9685.66
894.026	9673.46
894.342	9674.82
894.657	9610.19
894.973	9534.93
895.289	9572.9
895.604	9645.66
895.92	9476.18
896.235	9446.12
896.55	9430.3
896.865	9373.36
897.181	9428.95
897.496	9430.3
897.811	9324.54
898.126	9257.2
898.441	9257.2
898.756	9217.2
899.071	9208.84
899.386	9189.41
899.7	9089.07
900.015	9099.01
900.33	9077.32
900.644	9026.47
900.959	9026.47
901.273	8964.55
901.588	8939.02
901.902	8882.29
902.216	8863.31
902.531	8891.79
902.845	8866.7
903.159	8774.73
903.473	8773.37
903.787	8749.87
904.101	8673.71
904.415	8668.29
904.729	8597.33
905.042	8582.87
905.356	8551.68
905.67	8494.06
905.984	8510.55
906.297	8446.37
906.611	8408.63
906.924	8354.17
907.237	8304
907.551	8349.43
907.864	8298.36
908.177	8324.57
908.491	8279.37
908.804	8228.53
909.117	8173.39
909.43	8122.54
909.743	8084.58
910.056	8072.6
910.368	8024.69
910.681	8053.39
910.994	7985.6
911.307	7917.8
911.619	7866.73
911.932	7951.47
912.244	7885.94
912.557	7834.19
912.869	7758.48
913.181	7782.44
913.494	7691.59
913.806	7721.87
914.118	7604.81
914.43	7606.17
914.742	7562.56
915.054	7570.69
915.366	7507.64
915.678	7506.96
915.99	7523.69
916.302	7432.62
916.613	7384.03
916.925	7363.92
917.236	7309.91
917.548	7303.35
917.859	7289.12
918.171	7234.43
918.482	7215.67
918.794	7197.82
919.105	7178.84
919.416	7122.11
919.727	7100.87
920.038	7097.26
920.349	7046.86
920.66	6990.14
920.971	6982.46
921.282	6980.65
921.593	6913.08
921.903	6836.25
922.214	6865.4
922.525	6823.37
922.835	6784.95
923.146	6713.99
923.456	6748.79
923.767	6664.05
924.077	6642.81
924.387	6635.12
924.697	6615.24
925.008	6592.41
925.318	6552.19
925.628	6522.36
925.938	6506.54
926.248	6450.95
926.558	6428.57
926.867	6408.24
927.177	6358.97
927.487	6348.35
927.796	6273.32
928.106	6270.39
928.416	6310.61
928.725	6270.39
929.034	6227.22
929.344	6256.83
929.653	6202.59
929.962	6154.91
930.271	6174.8
930.581	6069.26
930.89	6070.17
931.199	6022.71
931.508	5994.91
931.817	5960.79
932.125	5983.39
932.434	5945.42
932.743	5887.8
933.051	5890.06
933.36	5845.54
933.669	5804.41
933.977	5853.22
934.286	5773.68
934.594	5783.17
934.902	5715.6
935.21	5759.21
935.519	5703.17
935.827	5682.83
936.135	5656.39
936.443	5579.56
936.751	5607.58
937.059	5577.07
937.367	5542.95
937.674	5535.49
937.982	5519.67
938.29	5453.23
938.597	5471.54
938.905	5438.09
939.213	5398.54
939.52	5333.01
939.827	5353.35
940.135	5296.63
940.442	5326.23
940.749	5284.65
941.056	5315.16
941.363	5253.69
941.67	5202.39
941.977	5181.38
942.284	5159.68
942.591	5128.27
942.898	5136.86
943.205	5158.1
943.511	5111.55
943.818	5081.26
944.125	5034.49
944.431	4980.02
944.738	4988.84
945.044	4998.1
945.35	4984.54
945.657	4942.51
945.963	4876.75
946.269	4894.6
946.575	4941.61
946.881	4806.02
947.187	4822.51
947.493	4782.74
947.799	4773.7
948.105	4775.74
948.41	4742.06
948.716	4751.56
949.022	4719.92
949.327	4741.16
949.633	4628.4
949.938	4646.93
950.244	4648.96
950.549	4568.96
950.854	4578.68
951.16	4544.56
951.465	4530.32
951.77	4512.24
952.075	4502.97
952.38	4482.86
952.685	4524.44
952.99	4460.49
953.294	4415.29
953.599	4415.52
953.904	4373.94
954.209	4384.79
954.513	4368.52
954.818	4337.78
955.122	4335.3
955.426	4292.36
955.731	4315.18
956.035	4249.42
956.339	4256.43
956.643	4218.01
956.948	4185.24
957.252	4208.07
957.556	4192.02
957.86	4186.6
958.163	4170.55
958.467	4135.98
958.771	4112.48
959.075	4117.9
959.378	4086.26
959.682	4055.98
959.985	4075.64
960.289	3996.32
960.592	3993.84
960.896	3992.93
961.199	3937.11
961.502	3905.93
961.805	3919.71
962.108	3898.47
962.411	3920.84
962.714	3862.09
963.017	3848.75
963.32	3877.91
963.623	3840.85
963.926	3818.7
964.228	3840.17
964.531	3826.83
964.833	3763.11
965.136	3746.38
965.438	3701.64
965.741	3681.53
966.043	3674.97
966.345	3680.4
966.648	3716.78
966.95	3651.92
967.252	3605.6
967.554	3625.71
967.856	3582.77
968.158	3545.49
968.46	3543.45
968.761	3545.03
969.063	3524.47
969.365	3545.49
969.666	3505.03
969.968	3495.54
970.269	3475.66
970.571	3425.26
970.872	3451.93
971.174	3415.09
971.475	3378.03
971.776	3375.09
972.077	3370.8
972.378	3390.01
972.679	3381.2
972.98	3304.81
973.281	3338.26
973.582	3306.17
973.883	3310.46
974.183	3300.07
974.484	3284.48
974.785	3196.79
975.085	3260.52
975.386	3228.21
975.686	3232.27
975.986	3213.74
976.287	3163.58
976.587	3146.17
976.887	3149.11
977.187	3157.25
977.487	3111.6
977.787	3083.8
978.087	3093.07
978.387	3115.44
978.687	3109.11
978.987	3063.69
979.286	3020.3
979.586	3055.33
979.885	3009
980.185	2963.13
980.484	2944.82
980.784	2968.78
981.083	2960.87
981.382	2958.38
981.682	2959.29
981.981	2933.98
982.28	2908.21
982.579	2865.73
982.878	2896.24
983.177	2857.14
983.475	2854.2
983.774	2826.63
984.073	2828.67
984.372	2811.04
984.67	2821.66
984.969	2818.27
985.267	2794.09
985.566	2773.3
985.864	2764.49
986.162	2754.32
986.461	2733.08
986.759	2725.17
987.057	2702.57
987.355	2690.59
987.653	2685.17
987.951	2668.45
988.249	2665.28
988.547	2652.4
988.844	2650.82
989.142	2620.54
989.44	2612.63
989.737	2596.58
990.035	2581.44
990.332	2599.3
990.63	2543.7
990.927	2564.27
991.224	2520.65
991.521	2517.49
991.819	2526.3
992.116	2490.82
992.413	2475.01
992.71	2511.16
993.006	2458.73
993.303	2432.52
993.6	2449.47
993.897	2454.67
994.193	2421.9
994.49	2432.29
994.787	2405.85
995.083	2373.09
995.379	2339.42
995.676	2368.79
995.972	2385.52
996.268	2357.49
996.565	2348.68
996.861	2292.64
997.157	2320.89
997.453	2302.35
997.749	2301.45
998.044	2245.86
998.34	2231.85
998.636	2261.68
998.932	2229.14
999.227	2237.05
999.523	2200.21
999.818	2190.27
1000.114	2192.3
1000.409	2183.04
1000.704	2162.02
1001	2153.21
1001.295	2164.05
1001.59	2128.8
1001.885	2135.81
1002.18	2108.46
1002.475	2096.94
1002.77	2094
1003.065	2038.18
1003.359	2050.84
1003.654	2061.01
1003.949	2063.49
1004.243	2040.44
1004.538	2024.85
1004.832	1999.54
1005.127	1999.09
1005.421	2001.8
1005.715	1962.25
1006.009	1981.91
1006.304	1956.15
1006.598	1931.74
1006.892	1929.94
1007.186	1903.04
1007.48	1914.34
1007.773	1913.66
1008.067	1903.04
1008.361	1869.6
1008.655	1841.35
1008.948	1839.32
1009.242	1876.38
1009.535	1844.29
1009.829	1830.5
1010.122	1811.97
1010.415	1808.81
1010.708	1806.1
1011.001	1760.45
1011.295	1778.3
1011.588	1787.34
1011.881	1795.7
1012.173	1769.26
1012.466	1720.68
1012.759	1710.28
1013.052	1706.89
1013.344	1719.77
1013.637	1709.6
1013.93	1679.77
1014.222	1685.87
1014.514	1691.3
1014.807	1672.31
1015.099	1675.93
1015.391	1635.71
1015.683	1602.71
1015.976	1630.06
1016.268	1602.94
1016.56	1607.01
1016.851	1604.75
1017.143	1578.76
1017.435	1616.27
1017.727	1537.86
1018.018	1538.31
1018.31	1542.15
1018.602	1517.74
1018.893	1522.94
1019.185	1538.98
1019.476	1511.42
1019.767	1499.21
1020.058	1499.89
1020.35	1468.93
1020.641	1462.6
1020.932	1451.98
1021.223	1462.83
1021.514	1416.5
1021.804	1402.04
1022.095	1430.06
1022.386	1394.13
1022.677	1406.79
1022.967	1412.21
1023.258	1370.85
1023.548	1353.45
1023.839	1373.34
1024.129	1355.94
1024.419	1329.05
1024.709	1364.53
1025	1331.31
1025.29	1301.25
1025.58	1276.84
1025.87	1289.95
1026.16	1336.73
1026.449	1282.49
1026.739	1281.82
1027.029	1271.87
1027.319	1244.3
1027.608	1240.46
1027.898	1246.11
1028.187	1224.19
1028.477	1240.01
1028.766	1207.02
1029.055	1220.58
1029.344	1207.02
1029.634	1205.21
1029.923	1176.96
1030.212	1171.54
1030.501	1171.09
1030.79	1157.07
1031.078	1157.3
1031.367	1135.61
1031.656	1158.2
1031.945	1144.87
1032.233	1150.07
1032.522	1141.48
1032.81	1108.94
1033.099	1148.03
1033.387	1100.35
1033.675	1113.46
1033.963	1101.26
1034.251	1097.87
1034.54	1062.84
1034.828	1063.52
1035.116	1066.91
1035.403	1048.6
1035.691	1051.77
1035.979	1060.81
1036.267	1028.49
1036.554	1023.52
1036.842	1028.04
1037.129	984.42
1037.417	979.23
1037.704	1015.83
1037.992	967.02
1038.279	1005.89
1038.566	989.85
1038.853	989.85
1039.14	989.85
