Data from hue_170_FLMS001491_00013.txt Node
Date: Tue Feb 07 16:48:19 GMT 2017
User: dcchb
Spectrometer: FLMS00149
Trigger mode: 0
Integration Time (sec): 2.000000E-2
Scans to average: 10
Electric dark correction enabled: true
Nonlinearity correction enabled: false
Boxcar width: 0
XAxis mode: Wavelengths
Number of Pixels in Spectrum: 2048
>>>>>Begin Spectral Data<<<<<
341.393	-11.45
341.776	-11.45
342.16	-11.45
342.543	-52.58
342.927	-57.55
343.31	-88.29
343.693	-75.86
344.077	-60.49
344.46	-51
344.843	-59.36
345.226	-29.08
345.61	-23.88
345.993	-14.62
346.376	-25.92
346.759	19.28
347.142	51.59
347.525	31.71
347.908	53.18
348.291	73.52
348.674	97.47
349.057	101.76
349.44	113.97
349.823	168.88
350.206	156.9
350.588	187.18
350.971	219.5
351.354	237.8
351.737	253.17
352.119	266.73
352.502	270.8
352.884	279.84
353.267	262.66
353.65	280.29
354.032	280.52
354.414	308.99
354.797	312.15
355.179	318.25
355.562	317.8
355.944	332.27
356.326	343.79
356.709	334.98
357.091	334.07
357.473	362.09
357.855	349.44
358.238	347.41
358.62	326.62
359.002	334.3
359.384	348.76
359.766	340.17
360.148	324.81
360.53	360.74
360.912	348.31
361.294	345.6
361.676	336.56
362.057	335.66
362.439	344.47
362.821	334.07
363.203	323.23
363.584	337.69
363.966	331.36
364.348	340.85
364.729	306.96
365.111	325.71
365.493	332.04
365.874	318.71
366.256	340.17
366.637	289.78
367.019	316.9
367.4	324.58
367.781	305.37
368.163	314.86
368.544	313.06
368.925	320.97
369.306	318.93
369.688	327.97
370.069	310.12
370.45	326.62
370.831	329.1
371.212	338.59
371.593	320.97
371.974	312.6
372.355	304.02
372.736	323.45
373.117	339.27
373.498	332.27
373.879	307.41
374.26	300.85
374.641	349.21
375.021	310.12
375.402	304.47
375.783	342.66
376.163	345.82
376.544	355.77
376.925	311.47
377.305	321.42
377.686	331.14
378.066	337.01
378.447	352.38
378.827	351.93
379.208	333.17
379.588	337.46
379.968	336.78
380.349	321.87
380.729	347.63
381.109	350.8
381.489	338.82
381.87	336.78
382.25	356.22
382.63	347.41
383.01	326.39
383.39	331.14
383.77	364.58
384.15	354.86
384.53	370
384.91	337.24
385.29	348.76
385.67	354.19
386.049	359.38
386.429	358.93
386.809	358.93
387.189	373.62
387.568	358.93
387.948	362.77
388.328	353.96
388.707	355.99
389.087	363
389.466	366.84
389.846	355.32
390.225	350.57
390.605	350.57
390.984	388.99
391.363	383.11
391.743	382.43
392.122	368.2
392.501	360.06
392.881	389.89
393.26	354.86
393.639	374.3
394.018	395.31
394.397	374.98
394.776	378.82
395.155	391.02
395.534	387.41
395.913	410.23
396.292	402.77
396.671	400.06
397.05	407.74
397.429	396.44
397.808	380.17
398.186	387.86
398.565	378.82
398.944	395.31
399.323	406.84
399.701	398.03
400.08	397.8
400.458	408.87
400.837	408.87
401.215	416.78
401.594	418.59
401.972	421.75
402.351	418.82
402.729	421.75
403.107	416.56
403.486	424.01
403.864	420.4
404.242	417.23
404.62	439.16
404.999	417.01
405.377	414.07
405.755	428.76
406.133	429.21
406.511	449.1
406.889	459.04
407.267	414.97
407.645	474.86
408.023	473.73
408.401	455.2
408.779	482.32
409.156	484.35
409.534	488.87
409.912	481.87
410.29	494.97
410.667	491.81
411.045	512.83
411.422	504.46
411.8	512.15
412.178	479.83
412.555	504.46
412.933	537.01
413.31	535.2
413.687	517.35
414.065	534.52
414.442	538.14
414.819	543.33
415.197	570.68
415.574	543.33
415.951	575.2
416.328	574.52
416.705	563.9
417.082	563.22
417.46	583.11
417.837	597.57
418.214	593.73
418.591	583.56
418.967	590.34
419.344	600.28
419.721	616.33
420.098	600.96
420.475	619.49
420.852	619.94
421.228	613.16
421.605	644.57
421.982	632.37
422.358	636.89
422.735	656.78
423.111	661.3
423.488	658.81
423.864	682.54
424.241	671.69
424.617	687.06
424.994	690.22
425.37	690.67
425.746	695.87
426.123	711.46
426.499	749.88
426.875	751.92
427.251	766.83
427.627	740.84
428.003	778.81
428.379	749.43
428.756	776.55
429.132	809.77
429.507	794.85
429.883	805.02
430.259	807.73
430.635	793.27
431.011	852.7
431.387	811.12
431.763	851.57
432.138	890.22
432.514	867.62
432.89	857.9
433.265	915.53
433.641	892.93
434.016	907.62
434.392	921.85
434.767	936.77
435.143	919.14
435.518	953.72
435.894	967.5
436.269	962.76
436.644	986.71
437.02	1016.32
437.395	1016.54
437.77	1040.04
438.145	1035.3
438.52	1044.56
438.895	1053.6
439.271	1045.47
439.646	1086.14
440.021	1085.47
440.395	1102.64
440.77	1084.56
441.145	1119.82
441.52	1140.61
441.895	1162.3
442.27	1150.55
442.645	1165.92
443.019	1158.23
443.394	1195.07
443.769	1181.51
444.143	1172.7
444.518	1216.31
444.892	1230.09
445.267	1244.11
445.641	1251.79
446.016	1234.61
446.39	1275.29
446.764	1280.71
447.139	1260.38
447.513	1266.93
447.887	1264.44
448.262	1287.72
448.636	1302.18
449.01	1299.92
449.384	1330.43
449.758	1308.74
450.132	1355.74
450.506	1354.84
450.88	1381.5
451.254	1389.64
451.628	1419.24
452.002	1420.6
452.376	1425.34
452.75	1447.94
453.123	1449.98
453.497	1454.27
453.871	1471.67
454.244	1500.82
454.618	1507.6
454.992	1533.82
455.365	1564.1
455.739	1596.86
456.112	1615.62
456.486	1634.38
456.859	1617.43
457.232	1671.89
457.606	1660.14
457.979	1686.81
458.352	1727.03
458.725	1743.98
459.099	1753.92
459.472	1788.72
459.845	1830.53
460.218	1829.18
460.591	1835.28
460.964	1847.25
461.337	1908.5
461.71	1924.31
462.083	1972
462.456	1980.13
462.829	1978.55
463.201	2005.89
463.574	2040.92
463.947	2032.56
464.32	2097.87
464.692	2129.73
465.065	2150.52
465.438	2179.9
465.81	2207.24
466.183	2242.72
466.555	2276.85
466.928	2295.6
467.3	2302.38
467.672	2366.11
468.045	2431.19
468.417	2456.05
468.789	2468.03
469.161	2512.77
469.534	2560
469.906	2628.93
470.278	2656.05
470.65	2697.85
471.022	2723.84
471.394	2783.95
471.766	2804.97
472.138	2911.18
472.51	2956.38
472.882	3005.19
473.253	3052.42
473.625	3132.19
473.997	3223.49
474.369	3209.25
474.74	3289.48
475.112	3377.61
475.484	3457.38
475.855	3516.81
476.227	3548.68
476.598	3691.95
476.97	3739.63
477.341	3848.56
477.713	3899.86
478.084	3942.79
478.455	4118.61
478.827	4168.32
479.198	4343.69
479.569	4320.63
479.94	4492.38
480.311	4513.85
480.682	4689.66
481.053	4794.75
481.424	4923.78
481.795	4982.31
482.166	5057.79
482.537	5177.56
482.908	5337.11
483.279	5393.15
483.65	5578.91
484.021	5699.13
484.391	5823.65
484.762	5869.97
485.133	5956.3
485.503	6144.99
485.874	6267.25
486.244	6328.94
486.615	6556.28
486.985	6646.9
487.356	6781.14
487.726	6926.22
488.097	7095.25
488.467	7147
488.837	7365.75
489.207	7515.58
489.578	7581.57
489.948	7733.2
490.318	7917.83
490.688	7945.62
491.058	8154.66
491.428	8292.51
491.798	8381.09
492.168	8538.83
492.538	8680.97
492.908	8806.39
493.278	8876
493.648	9078.02
494.017	9102.88
494.387	9261.3
494.757	9371.8
495.126	9497
495.496	9554.62
495.866	9665.81
496.235	9784.9
496.605	9903.99
496.974	10016.98
497.344	10173.59
497.713	10208.62
498.082	10285.22
498.452	10444.77
498.821	10481.15
499.19	10532.68
499.559	10650.86
499.928	10745.1
500.298	10863.29
500.667	10949.84
501.036	10942.38
501.405	11047.69
501.774	11026.67
502.143	11210.4
502.512	11231.87
502.88	11401.58
503.249	11368.13
503.618	11495.59
503.987	11566.32
504.356	11662.36
504.724	11707.11
505.093	11769.03
505.462	11743.26
505.83	11845.86
506.199	11917.05
506.567	12049.25
506.936	12012.18
507.304	12160.65
507.672	12193.42
508.041	12276.13
508.409	12371.27
508.777	12431.83
509.145	12514.09
509.514	12503.02
509.882	12551.83
510.25	12599.74
510.618	12726.06
510.986	12613.98
511.354	12750.24
511.722	12773.97
512.09	12952.95
512.458	12889.9
512.826	12945.04
513.193	12961.54
513.561	12942.33
513.929	13114.53
514.297	13107.97
514.664	13129.89
515.032	13132.15
515.4	13255.99
515.767	13208.99
516.135	13270
516.502	13176.9
516.869	13336.67
517.237	13441.53
517.604	13233.62
517.972	13544.57
518.339	13568.98
518.706	13463.22
519.073	13543.22
519.44	13590.9
519.808	13669.54
520.175	13537.57
520.542	13743.21
520.909	13683.33
521.276	13728.75
521.643	13820.95
522.009	13843.55
522.376	13768.52
522.743	13968.29
523.11	13896.43
523.477	14029.98
523.843	14005.8
524.21	14141.85
524.577	14143.65
524.943	14136.65
525.31	14125.35
525.676	14269.07
526.043	14199.7
526.409	14225.46
526.776	14326.7
527.142	14285.12
527.508	14326.93
527.874	14337.32
528.241	14335.96
528.607	14231.33
528.973	14410.54
529.339	14307.27
529.705	14387.26
530.071	14463.42
530.437	14399.47
530.803	14322.63
531.169	14384.55
531.535	14324.21
531.901	14362.4
532.267	14385
532.632	14322.41
532.998	14293.48
533.364	14311.56
533.73	14393.82
534.095	14420.93
534.461	14294.84
534.826	14370.31
535.192	14318.11
535.557	14318.79
535.923	14171.45
536.288	14263.2
536.653	14261.84
537.019	14177.1
537.384	14188.17
537.749	14140.49
538.114	14103.88
538.479	13977.33
538.845	14076.31
539.21	13953.15
539.575	13934.17
539.94	13985.92
540.305	13898.24
540.67	13781.18
541.034	13874.06
541.399	13809.88
541.764	13721.97
542.129	13758.58
542.494	13664.12
542.858	13758.58
543.223	13607.4
543.587	13628.41
543.952	13568.3
544.316	13511.58
544.681	13511.35
545.045	13512.48
545.41	13499.15
545.774	13494.86
546.138	13297.57
546.503	13380.96
546.867	13298.03
547.231	13325.82
547.595	13279.27
547.959	13262.32
548.324	13197.01
548.688	13142.78
549.052	13100.29
549.416	13068.2
549.779	13045.83
550.143	13080.86
550.507	13001.31
550.871	13025.94
551.235	12914.08
551.599	12948.2
551.962	12843.35
552.326	12782.33
552.689	12843.8
553.053	12736.46
553.417	12717.93
553.78	12788.89
554.143	12654.65
554.507	12729.23
554.87	12703.47
555.234	12756.8
555.597	12604.26
555.96	12635.9
556.323	12630.92
556.686	12611.04
557.05	12628.44
557.413	12638.16
557.776	12567.42
558.139	12569.46
558.502	12524.71
558.865	12474.09
559.228	12517.93
559.59	12552.06
559.953	12550.48
560.316	12568.78
560.679	12527.42
561.041	12558.84
561.404	12533.07
561.767	12545.28
562.129	12437.03
562.492	12565.39
562.854	12475.45
563.217	12472.74
563.579	12436.35
563.941	12515.45
564.304	12544.37
564.666	12589.34
565.028	12468.9
565.39	12518.84
565.753	12557.03
566.115	12666.86
566.477	12669.34
566.839	12613.07
567.201	12608.33
567.563	12611.72
567.925	12756.57
568.287	12565.62
568.648	12759.06
569.01	12659.17
569.372	12691.94
569.734	12713.86
570.095	12670.92
570.457	12715.22
570.819	12771.71
571.18	12683.8
571.542	12738.72
571.903	12746.4
572.265	12773.52
572.626	12748.21
572.987	12805.38
573.349	12797.93
573.71	12805.16
574.071	12778.72
574.432	12818.94
574.794	12846.06
575.155	12827.3
575.516	12699.85
575.877	12872.05
576.238	12866.62
576.599	12899.39
576.96	12855.78
577.32	12802.9
577.681	12938.71
578.042	12916.12
578.403	12780.3
578.763	12853.74
579.124	12895.1
579.485	12904.36
579.845	12886.29
580.206	12857.13
580.566	12909.79
580.927	12853.52
581.287	12990.24
581.648	12827.53
582.008	12814.87
582.368	12806.97
582.728	12863.01
583.089	12756.35
583.449	12811.03
583.809	12758.15
584.169	12753.41
584.529	12771.26
584.889	12847.42
585.249	12809.9
585.609	12696.91
585.969	12830.92
586.329	12735.78
586.688	12817.59
587.048	12725.61
587.408	12666.4
587.768	12661.66
588.127	12624.6
588.487	12598.38
588.846	12759.96
589.206	12625.28
589.565	12639.96
589.925	12727.87
590.284	12634.77
590.643	12617.14
591.003	12635.67
591.362	12662.11
591.721	12546.41
592.08	12618.5
592.44	12679.74
592.799	12614.43
593.158	12597.93
593.517	12564.71
593.876	12561.55
594.235	12571.27
594.593	12531.04
594.952	12563.58
595.311	12545.28
595.67	12590.7
596.029	12601.32
596.387	12627.08
596.746	12589.12
597.104	12451.72
597.463	12526.52
597.822	12528.33
598.18	12474.09
598.538	12484.71
598.897	12550.02
599.255	12474.77
599.613	12619.85
599.972	12557.71
600.33	12535.56
600.688	12487.43
601.046	12518.61
601.404	12590.02
601.762	12513.41
602.12	12569.91
602.478	12477.93
602.836	12578.27
603.194	12453.08
603.552	12478.61
603.91	12545.73
604.268	12493.98
604.625	12505.96
604.983	12485.39
605.341	12399.74
605.698	12467.09
606.056	12494.66
606.413	12406.98
606.771	12503.92
607.128	12550.7
607.485	12467.31
607.843	12515.22
608.2	12494.66
608.557	12585.73
608.914	12532.17
609.272	12602.23
609.629	12509.12
609.986	12620.3
610.343	12559.97
610.7	12660.98
611.057	12590.47
611.414	12546.18
611.771	12682.9
612.127	12626.63
612.484	12638.38
612.841	12692.62
613.198	12631.6
613.554	12671.15
613.911	12714.76
614.267	12682.9
614.624	12731.49
614.98	12681.09
615.337	12774.42
615.693	12736.68
616.05	12722.67
616.406	12775.55
616.762	12776.68
617.118	12765.16
617.475	12769.45
617.831	12806.74
618.187	12813.29
618.543	12795.89
618.899	12862.78
619.255	12881.09
619.611	12845.83
619.967	12799.96
620.323	12873.18
620.678	12843.57
621.034	12822.56
621.39	12772.16
621.746	12763.8
622.101	12889.68
622.457	12838.6
622.812	12844.93
623.168	12874.31
623.523	12850.35
623.879	12901.65
624.234	12832.73
624.589	12823.69
624.945	12884.93
625.3	12877.92
625.655	12836.34
626.01	12856.68
626.365	12849.9
626.72	12847.42
627.075	12927.87
627.43	12894.19
627.785	12835.67
628.14	12907.3
628.495	12841.54
628.85	12794.08
629.205	12792.95
629.559	12824.14
629.914	12818.26
630.269	12777.36
630.623	12731.04
630.978	12769.68
631.332	12847.42
631.687	12766.29
632.041	12743.46
632.396	12702.34
632.75	12685.61
633.104	12619.63
633.459	12614.2
633.813	12571.04
634.167	12601.55
634.521	12594.09
634.875	12554.32
635.229	12583.47
635.583	12537.37
635.937	12470.7
636.291	12472.06
636.645	12498.5
636.999	12399.52
637.352	12505.96
637.706	12407.43
638.06	12474.32
638.413	12456.01
638.767	12430.93
639.121	12442.46
639.474	12343.47
639.828	12404.94
640.181	12300.54
640.534	12407.88
640.888	12367.88
641.241	12343.47
641.594	12261.9
641.947	12343.02
642.301	12300.76
642.654	12292.85
643.007	12324.49
643.36	12307.54
643.713	12330.37
644.066	12308.45
644.419	12249.92
644.771	12133.99
645.124	12051.96
645.477	12089.24
645.83	11957.27
646.182	11961.34
646.535	11922.69
646.888	11926.08
647.24	11812.87
647.593	11912.53
647.945	11867.56
648.298	11841.12
648.65	11778.97
649.002	11746.88
649.355	11886.99
649.707	11835.01
650.059	11908.46
650.411	12084.27
650.763	12019.87
651.115	12154.55
651.467	12112.07
651.819	12119.98
652.171	12105.52
652.523	12062.58
652.875	12123.14
653.227	12029.58
653.578	12222.8
653.93	12131.73
654.282	11982.13
654.633	12124.72
654.985	12169.24
655.337	12097.83
655.688	12113.65
656.039	12199.07
656.391	12008.79
656.742	12114.78
657.094	12086.53
657.445	12144.16
657.796	12152.52
658.147	12055.8
658.498	12159.07
658.849	12133.99
659.2	12164.27
659.551	12083.37
659.902	12111.84
660.253	12133.54
660.604	12144.16
660.955	12089.92
661.306	12193.2
661.656	12046.08
662.007	12169.02
662.358	12147.32
662.708	12210.6
663.059	12214.21
663.409	12144.84
663.76	12208.34
664.11	12258.96
664.461	12240.65
664.811	12197.49
665.161	12219.41
665.511	12171.5
665.862	12214.21
666.212	12211.5
666.562	12169.92
666.912	12158.17
667.262	12170.6
667.612	12258.51
667.962	12221.9
668.312	12267.32
668.662	12276.36
669.011	12129.7
669.361	12210.15
669.711	12126.98
670.06	12197.72
670.41	12080.88
670.76	12130.6
671.109	12182.8
671.459	12173.99
671.808	12037.95
672.157	12151.84
672.507	12056.48
672.856	12101
673.205	12095.8
673.554	12143.71
673.904	12130.37
674.253	12197.26
674.602	12098.96
674.951	11924.73
675.3	11882.47
675.649	12047.89
675.998	12032.07
676.346	12026.87
676.695	12093.09
677.044	11987.55
677.393	11988.91
677.741	12021
678.09	11973.77
678.438	11945.75
678.787	11862.58
679.135	11868.01
679.484	11818.74
679.832	11864.62
680.181	11767.67
680.529	11784.17
680.877	11812.42
681.225	11784.85
681.573	11830.95
681.922	11736.71
682.27	11672.76
682.618	11691.29
682.966	11678.41
683.314	11702.14
683.661	11671.18
684.009	11605.64
684.357	11613.55
684.705	11528.36
685.053	11526.32
685.4	11541.46
685.748	11435.25
686.095	11391.41
686.443	11445.19
686.79	11390.28
687.138	11415.14
687.485	11413.1
687.832	11308.02
688.18	11320.9
688.527	11338.53
688.874	11191.41
689.221	11206.1
689.568	11197.06
689.915	11200.91
690.262	11100.12
690.609	11124.52
690.956	11036.39
691.303	10997.75
691.65	10999.78
691.997	11019.67
692.344	10939.67
692.69	10858.09
693.037	10896.96
693.383	10837.98
693.73	10792.56
694.077	10781.93
694.423	10721.6
694.769	10734.25
695.116	10663.97
695.462	10647.25
695.808	10590.98
696.155	10567.25
696.501	10559.12
696.847	10440.25
697.193	10400.02
697.539	10460.59
697.885	10365.45
698.231	10333.36
698.577	10345.79
698.923	10316.64
699.269	10236.41
699.614	10186.24
699.96	10143.53
700.306	10209.97
700.651	10112.8
700.997	10063.76
701.342	10018.11
701.688	9977.21
702.033	9957.32
702.379	9959.36
702.724	9831.45
703.069	9908.96
703.415	9775.41
703.76	9818.8
704.105	9808.85
704.45	9733.15
704.795	9659.7
705.14	9604.11
705.485	9596.65
705.83	9571.34
706.175	9572.93
706.52	9599.59
706.865	9492.7
707.209	9468.07
707.554	9415.64
707.899	9448.41
708.243	9377.9
708.588	9348.98
708.932	9273.95
709.277	9279.6
709.621	9252.71
709.966	9302.65
710.31	9258.13
710.654	9145.82
710.998	9251.58
711.342	9197.79
711.687	9144.69
712.031	9084.13
712.375	9065.82
712.719	9080.28
713.063	9057.69
713.407	9094.97
713.75	9034.18
714.094	9027.63
714.438	8953.28
714.782	9027.4
715.125	9012.04
715.469	8920.29
715.812	8929.1
716.156	8857.24
716.499	8865.15
716.843	8876.22
717.186	8851.14
717.53	8855.88
717.873	8911.02
718.216	8834.64
718.559	8775.66
718.902	8769.11
719.246	8766.85
719.589	8746.51
719.932	8719.16
720.275	8692.72
720.617	8698.15
720.96	8727.98
721.303	8672.16
721.646	8679.16
721.989	8609.11
722.331	8616.12
722.674	8631.71
723.016	8656.79
723.359	8629.45
723.701	8647.98
724.044	8536.57
724.386	8476.46
724.729	8599.62
725.071	8545.83
725.413	8554.2
725.755	8525.95
726.097	8475.33
726.439	8407.76
726.782	8527.98
727.124	8546.74
727.465	8484.37
727.807	8494.99
728.149	8498.15
728.491	8459.51
728.833	8514.2
729.175	8516.68
729.516	8486.85
729.858	8483.24
730.199	8453.86
730.541	8427.87
730.882	8446.4
731.224	8482.79
731.565	8397.36
731.906	8391.26
732.248	8451.15
732.589	8423.8
732.93	8499.06
733.271	8391.04
733.612	8477.81
733.953	8462.45
734.294	8452.28
734.635	8427.65
734.976	8525.95
735.317	8413.18
735.658	8345.16
735.999	8485.5
736.339	8463.58
736.68	8514.87
737.021	8499.73
737.361	8450.92
737.702	8528.89
738.042	8481.66
738.383	8505.61
738.723	8526.17
739.063	8530.02
739.404	8496.8
739.744	8518.49
740.084	8533.63
740.424	8517.36
740.764	8536.57
741.104	8608.66
741.444	8548.77
741.784	8551.71
742.124	8675.32
742.464	8646.17
742.804	8634.87
743.143	8610.01
743.483	8662.89
743.823	8683.23
744.162	8698.6
744.502	8778.6
744.841	8826.73
745.181	8804.13
745.52	8828.54
745.86	8845.71
746.199	8903.57
746.538	8918.48
746.877	9026.27
747.216	9079.38
747.556	9073.5
747.895	9123.9
748.234	9118.7
748.573	9186.5
748.911	9225.59
749.25	9401.86
749.589	9372.48
749.928	9459.71
750.267	9528.63
750.605	9623.77
750.944	9647.05
751.283	9789.87
751.621	9769.53
751.96	9863.54
752.298	9977.21
752.636	10040.48
752.975	10150.31
753.313	10194.83
753.651	10392.79
753.989	10484.99
754.327	10556.63
754.666	10663.97
755.004	10856.06
755.342	10971.31
755.679	11015.15
756.017	11159.78
756.355	11327
756.693	11498.98
757.031	11605.19
757.368	11764.06
757.706	11903.94
758.044	12026.65
758.381	12229.81
758.719	12304.15
759.056	12616.69
759.394	12667.99
759.731	12768.1
760.068	12988.66
760.405	13106.62
760.743	13296.9
761.08	13506.16
761.417	13639.49
761.754	13777.34
762.091	13839.03
762.428	14101.17
762.765	14232.01
763.102	14537.32
763.438	14604.21
763.775	14690.53
764.112	14971.88
764.449	15065.44
764.785	15222.04
765.122	15361.25
765.458	15428.82
765.795	15608.25
766.131	15860.44
766.467	16001.91
766.804	16171.4
767.14	16247.78
767.476	16377.72
767.812	16542.01
768.148	16672.4
768.485	16692.29
768.821	16822.91
769.157	16985.61
769.492	17118.26
769.828	17277.36
770.164	17310.58
770.5	17487.29
770.836	17590.34
771.171	17606.39
771.507	17770
771.842	17831.01
772.178	17818.59
772.513	17983.33
772.849	18137.67
773.184	18148.29
773.519	18310.1
773.855	18266.48
774.19	18373.15
774.525	18299.48
774.86	18525.23
775.195	18574.72
775.53	18601.62
775.865	18693.59
776.2	18589.86
776.535	18579.24
776.87	18655.85
777.205	18771.55
777.539	18813.81
777.874	18910.31
778.209	18828.05
778.543	18942.4
778.878	18855.17
779.212	18927.03
779.547	18899.91
779.881	19030.76
780.215	19035.5
780.55	19097.87
780.884	19043.86
781.218	19082.73
781.552	19143.97
781.886	19073.47
782.22	19064.88
782.554	19029.85
782.888	18877.31
783.222	18854.26
783.556	18983.98
783.889	18906.69
784.223	18831.21
784.557	18786.24
784.89	18879.35
785.224	18827.82
785.557	18817.43
785.891	18792.8
786.224	18763.19
786.558	18792.12
786.891	18772.68
787.224	18672.12
787.557	18663.76
787.891	18738.79
788.224	18685.91
788.557	18643.65
788.89	18727.94
789.223	18761.61
789.556	18593.93
789.888	18576.31
790.221	18494.73
790.554	18464.9
790.887	18469.64
791.219	18449.53
791.552	18402.07
791.884	18350.77
792.217	18383.77
792.549	18315.52
792.882	18269.65
793.214	18275.3
793.546	18332.02
793.879	18089.31
794.211	18083.21
794.543	18141.06
794.875	18105.13
795.207	18125.47
795.539	18127.96
795.871	18138.35
796.203	17910.79
796.535	17831.92
796.867	17828.98
797.198	17763.22
797.53	17880.73
797.862	17716.67
798.193	17752.15
798.525	17642.77
798.856	17665.82
799.188	17502.66
799.519	17442.78
799.85	17390.8
800.182	17374.08
800.513	17436.67
800.844	17228.09
801.175	17418.6
801.506	17333.17
801.837	17197.81
802.168	17278.94
802.499	17104.25
802.83	17080.07
803.161	17019.74
803.491	16979.74
803.822	17112.62
804.153	16909.91
804.483	16904.94
804.814	16860.42
805.145	16829.01
805.475	16795.56
805.805	16711.5
806.136	16735.9
806.466	16698.16
806.796	16693.42
807.126	16505.85
807.457	16547.88
807.787	16620.2
808.117	16483.48
808.447	16459.3
808.777	16496.13
809.107	16393.54
809.436	16320.32
809.766	16344.5
810.096	16269.02
810.426	16188.57
810.755	16276.7
811.085	16201
811.414	16204.62
811.744	16013.21
812.073	16094.79
812.403	16048.69
812.732	15956.94
813.061	15977.05
813.39	15900.9
813.719	15876.26
814.049	15923.04
814.378	15835.36
814.707	15835.13
815.036	15839.88
815.365	15812.54
815.693	15644.18
816.022	15590.17
816.351	15612.54
816.68	15551.3
817.008	15624.07
817.337	15489.38
817.665	15429.72
817.994	15588.59
818.322	15402.15
818.651	15354.24
818.979	15266.79
819.307	15421.81
819.636	15318.76
819.964	15371.87
820.292	15381.36
820.62	15313.79
820.948	15245.77
821.276	15270.18
821.604	15242.83
821.932	15241.03
822.259	15304.75
822.587	15269.27
822.915	15301.82
823.243	15279.67
823.57	15102.05
823.898	15217.3
824.225	15157.41
824.553	15238.54
824.88	15198.09
825.207	15209.16
825.535	15182.27
825.862	15255.04
826.189	15198.99
826.516	15248.48
826.843	15341.14
827.17	15354.24
827.497	15286.45
827.824	15271.76
828.151	15335.49
828.478	15276.73
828.805	15308.37
829.131	15246.68
829.458	15204.19
829.785	15203.29
830.111	15245.77
830.438	15345.66
830.764	15267.69
831.09	15350.85
831.417	15227.69
831.743	15270.4
832.069	15323.96
832.395	15214.59
832.722	15248.94
833.048	15186.79
833.374	15305.43
833.7	15189.28
834.026	15155.83
834.351	15170.75
834.677	15213.91
835.003	15233.57
835.329	15095.27
835.654	15089.84
835.98	15025.89
836.306	15079.45
836.631	14982.73
836.956	15021.6
837.282	15057.08
837.607	15038.55
837.932	14946.57
838.258	15057.3
838.583	15014.59
838.908	14919.68
839.233	14953.35
839.558	14886.68
839.883	14782.96
840.208	14675.39
840.533	14715.39
840.858	14773.24
841.182	14781.15
841.507	14700.02
841.832	14676.29
842.156	14603.3
842.481	14601.95
842.805	14559.69
843.13	14545.68
843.454	14491.22
843.778	14466.36
844.103	14400.14
844.427	14406.47
844.751	14392.46
845.075	14317.66
845.399	14196.31
845.723	14225.01
846.047	14186.82
846.371	14192.47
846.695	14209.64
847.019	13974.84
847.343	14031.57
847.666	13875.19
847.99	13752.93
848.313	13812.36
848.637	13753.61
848.96	13697.34
849.284	13644.91
849.607	13495.08
849.931	13579.6
850.254	13451.92
850.577	13414.18
850.9	13371.02
851.223	13335.54
851.546	13198.37
851.869	13173.06
852.192	13173.51
852.515	13105.49
852.838	13050.12
853.161	13047.41
853.483	12990.92
853.806	12956.79
854.129	12875.89
854.451	12839.73
854.774	12791.82
855.096	12761.54
855.419	12734.43
855.741	12757.48
856.063	12626.86
856.385	12590.02
856.708	12558.61
857.03	12492.85
857.352	12497.14
857.674	12474.54
857.996	12445.85
858.318	12371.72
858.64	12362.68
858.961	12358.84
859.283	12294.44
859.605	12199.52
859.926	12248.11
860.248	12077.27
860.57	12166.98
860.891	12235.23
861.212	12096.93
861.534	12087.44
861.855	12036.59
862.176	11983.71
862.498	12037.04
862.819	11974.22
863.14	11947.1
863.461	11925.63
863.782	11814.22
864.103	11914.79
864.424	11876.82
864.745	11912.75
865.065	11833.66
865.386	11790.95
865.707	11814.45
866.027	11807.67
866.348	11688.58
866.668	11784.39
866.989	11729.25
867.309	11581.24
867.63	11702.14
867.95	11630.05
868.27	11571.29
868.59	11637.5
868.91	11606.09
869.23	11480.9
869.55	11437.51
869.87	11607.22
870.19	11541.69
870.51	11541.01
870.83	11514.12
871.15	11389.15
871.469	11498.75
871.789	11504.17
872.109	11420.79
872.428	11385.31
872.748	11349.38
873.067	11390.05
873.386	11389.15
873.706	11276.16
874.025	11258.98
874.344	11210.62
874.663	11308.02
874.982	11219.66
875.301	11192.32
875.62	11200.91
875.939	11167.01
876.258	11181.47
876.577	11170.4
876.896	11151.87
877.214	11074.13
877.533	11073
877.852	11030.52
878.17	11052.44
878.489	11003.62
878.807	11076.16
879.125	11002.49
879.444	10971.31
879.762	10932.21
880.08	10970.86
880.398	10954.81
880.716	10962.72
881.034	10942.83
881.352	10872.33
881.67	10877.98
881.988	10883.63
882.306	10783.52
882.624	10767.47
882.941	10784.87
883.259	10595.72
883.577	10680.92
883.894	10665.1
884.212	10556.18
884.529	10700.81
884.846	10567.02
885.164	10556.4
885.481	10498.33
885.798	10544.65
886.115	10448.16
886.432	10475.28
886.75	10446.35
887.067	10433.47
887.383	10462.62
887.7	10402.51
888.017	10390.53
888.334	10369.52
888.651	10297.65
888.967	10333.58
889.284	10143.98
889.6	10192.34
889.917	10107.38
890.233	10151.67
890.55	10155.74
890.866	10088.17
891.182	10045.91
891.498	10019.92
891.815	10008.17
892.131	10032.35
892.447	9967.49
892.763	9897.66
893.079	9875.52
893.395	9883.43
893.71	9747.61
894.026	9791
894.342	9815.18
894.657	9718.46
894.973	9688.63
895.289	9642.98
895.604	9613.15
895.92	9571.12
896.235	9539.93
896.55	9466.71
896.865	9489.09
897.181	9412.48
897.496	9423.33
897.811	9433.49
898.126	9399.82
898.441	9344.01
898.756	9252.03
899.071	9197.79
899.386	9241.64
899.7	9186.72
900.015	9126.84
900.33	8986.73
900.644	9084.8
900.959	9120.06
901.273	9040.06
901.588	9025.37
901.902	8963.45
902.216	8878.26
902.531	8866.05
902.845	8895.88
903.159	8796
903.473	8795.09
903.787	8777.24
904.101	8718.71
904.415	8753.51
904.729	8687.07
905.042	8644.59
905.356	8588.32
905.67	8588.32
905.984	8596.68
906.297	8495.21
906.611	8487.98
906.924	8506.74
907.237	8464.25
907.551	8454.09
907.864	8359.85
908.177	8305.16
908.491	8288.21
908.804	8255.67
909.117	8227.42
909.43	8161.66
909.743	8132.29
910.056	8111.72
910.368	8126.18
910.681	8026.53
910.994	8036.7
911.307	8021.78
911.619	7913.99
911.932	7974.78
912.244	7862.01
912.557	7859.3
912.869	7840.09
913.181	7758.74
913.494	7693.2
913.806	7643.49
914.118	7704.73
914.43	7627.67
914.742	7610.04
915.054	7616.82
915.366	7563.94
915.678	7546.54
915.99	7475.81
916.302	7446.88
916.613	7387.67
916.925	7422.93
917.236	7307.9
917.548	7330.73
917.859	7347
918.171	7250.28
918.482	7251.18
918.794	7185.64
919.105	7169.6
919.416	7152.65
919.727	7127.34
920.038	7084.18
920.349	7068.36
920.66	7032.88
920.971	7014.58
921.282	7014.8
921.593	6971.86
921.903	6854.58
922.214	6862.04
922.525	6892.09
922.835	6836.73
923.146	6792.43
923.456	6809.38
923.767	6749.05
924.077	6735.71
924.387	6682.61
924.697	6685.32
925.008	6619.56
925.318	6577.3
925.628	6598.99
925.938	6588.37
926.248	6468.83
926.558	6484.65
926.867	6470.63
927.177	6481.26
927.487	6410.07
927.796	6400.58
928.106	6369.62
928.416	6328.72
928.725	6396.96
929.034	6291.2
929.344	6259.79
929.653	6255.73
929.962	6195.39
930.271	6185.44
930.581	6195.39
930.89	6183.41
931.199	6118.78
931.508	6066.13
931.817	6099.57
932.125	6025.9
932.434	6066.13
932.743	5998.78
933.051	5953.13
933.36	5950.87
933.669	5902.74
933.977	5886.02
934.286	5936.86
934.594	5860.93
934.902	5787.72
935.21	5797.21
935.519	5771.9
935.827	5722.86
936.135	5691.67
936.443	5678.11
936.751	5674.27
937.059	5634.72
937.367	5646.93
937.674	5608.96
937.982	5596.76
938.29	5528.74
938.597	5532.13
938.905	5480.6
939.213	5478.57
939.52	5436.54
939.827	5507.95
940.135	5413.49
940.442	5392.92
940.749	5385.69
941.056	5369.65
941.363	5285.36
941.67	5317.44
941.977	5230.44
942.284	5239.48
942.591	5254.62
942.898	5163.32
943.205	5156.09
943.511	5168.75
943.818	5171.69
944.125	5060.95
944.431	5085.13
944.738	5079.03
945.044	5058.47
945.35	5007.17
945.657	5024.35
945.963	4934.86
946.269	4964.46
946.575	4959.04
946.881	4890.11
947.187	4901.64
947.493	4926.95
947.799	4867.51
948.105	4828.19
948.41	4794.29
948.716	4834.97
949.022	4820.73
949.327	4787.06
949.633	4709.1
949.938	4732.15
950.244	4736.9
950.549	4677.91
950.854	4714.52
951.16	4663.22
951.465	4619.38
951.77	4614.19
952.075	4582.1
952.38	4585.03
952.685	4564.92
952.99	4507.52
953.294	4493.51
953.599	4493.74
953.904	4461.65
954.209	4441.76
954.513	4431.37
954.818	4436.56
955.122	4361.09
955.426	4379.39
955.731	4389.11
956.035	4366.28
956.339	4332.16
956.643	4318.83
956.948	4264.14
957.252	4227.98
957.556	4231.15
957.86	4217.13
958.163	4226.85
958.467	4180.07
958.771	4184.82
959.075	4184.14
959.378	4102.79
959.682	4134.43
959.985	4098.95
960.289	4059.17
960.592	4075.44
960.896	4036.12
961.199	4011.49
961.502	4024.37
961.805	3972.85
962.108	3958.61
962.411	3981.66
962.714	3969.23
963.017	3911.38
963.32	3913.64
963.623	3875.45
963.926	3899.18
964.228	3870.48
964.531	3884.49
964.833	3809.24
965.136	3773.76
965.438	3795.68
965.741	3766.75
966.043	3760.2
966.345	3763.14
966.648	3763.14
966.95	3741.89
967.252	3669.13
967.554	3659.86
967.856	3667.77
968.158	3639.07
968.46	3628.68
968.761	3643.59
969.063	3576.47
969.365	3580.32
969.666	3579.19
969.968	3508.23
970.269	3528.57
970.571	3529.7
970.872	3493.76
971.174	3483.59
971.475	3469.13
971.776	3434.78
972.077	3413.77
972.378	3421.68
972.679	3403.6
972.98	3407.66
973.281	3391.85
973.582	3378.96
973.883	3357.5
974.183	3351.39
974.484	3323.6
974.785	3322.02
975.085	3336.71
975.386	3308.46
975.686	3268.69
975.986	3255.35
976.287	3281.34
976.587	3233.66
976.887	3233.43
977.187	3173.32
977.487	3202.92
977.787	3186.43
978.087	3154.56
978.387	3126.77
978.687	3112.31
978.987	3096.26
979.286	3089.48
979.586	3058.97
979.885	3065.98
980.185	3041.35
980.484	3038.41
980.784	3045.41
981.083	3003.83
981.382	3003.83
981.682	2986.66
981.981	2956.83
982.28	2969.71
982.579	2908.69
982.878	2930.84
983.177	2898.53
983.475	2968.58
983.774	2875.7
984.073	2868.02
984.372	2844.06
984.67	2858.75
984.969	2865.08
985.267	2847.23
985.566	2816.04
985.864	2823.05
986.162	2798.42
986.461	2760.45
986.759	2763.39
987.057	2741.69
987.355	2682.03
987.653	2761.81
987.951	2682.94
988.249	2704.86
988.547	2687.68
988.844	2700.11
989.142	2645.42
989.44	2630.96
989.737	2662.15
990.035	2618.31
990.332	2602.71
990.63	2574.47
990.927	2601.13
991.224	2559.55
991.521	2554.13
991.819	2540.79
992.116	2559.55
992.413	2532.21
992.71	2516.39
993.006	2502.38
993.303	2492.89
993.6	2505.32
993.897	2447.46
994.193	2465.99
994.49	2435.94
994.787	2457.41
995.083	2424.64
995.379	2361.82
995.676	2431.65
995.972	2390.97
996.268	2408.82
996.565	2351.87
996.861	2350.29
997.157	2365.43
997.453	2356.39
997.749	2335.83
998.044	2319.78
998.34	2298.32
998.636	2310.29
998.932	2268.94
999.227	2276.85
999.523	2280.69
999.818	2265.1
1000.114	2211.09
1000.409	2208.37
1000.704	2194.82
1001	2189.39
1001.295	2182.39
1001.59	2176.28
1001.885	2184.19
1002.18	2151.2
1002.475	2151.43
1002.77	2143.52
1003.065	2095.38
1003.359	2075.72
1003.654	2111.43
1003.949	2082.05
1004.243	2070.75
1004.538	2035.95
1004.832	2058.32
1005.127	2037.98
1005.421	2017.19
1005.715	1997.76
1006.009	1986.01
1006.304	1983.75
1006.598	1974.26
1006.892	1947.36
1007.186	1959.34
1007.48	1925.22
1007.773	1948.49
1008.067	1906.69
1008.361	1919.57
1008.655	1880.47
1008.948	1879.12
1009.242	1899
1009.535	1847.71
1009.829	1841.83
1010.122	1840.25
1010.415	1844.99
1010.708	1817.2
1011.001	1823.53
1011.295	1798.44
1011.588	1809.29
1011.881	1780.36
1012.173	1768.39
1012.466	1758.44
1012.759	1753.02
1013.052	1743.53
1013.344	1760.48
1013.637	1720.48
1013.93	1699.46
1014.222	1726.13
1014.514	1702.17
1014.807	1683.19
1015.099	1648.84
1015.391	1680.7
1015.683	1645.68
1015.976	1651.1
1016.268	1612.68
1016.56	1616.98
1016.851	1594.38
1017.143	1593.7
1017.435	1576.3
1017.727	1557.32
1018.018	1582.85
1018.31	1557.09
1018.602	1542.18
1018.893	1523.65
1019.185	1523.65
1019.476	1519.8
1019.767	1502.4
1020.058	1506.25
1020.35	1495.62
1020.641	1489.52
1020.932	1439.13
1021.223	1442.52
1021.514	1436.64
1021.804	1429.19
1022.095	1450.65
1022.386	1461.05
1022.677	1418.79
1022.967	1406.14
1023.258	1387.15
1023.548	1362.97
1023.839	1383.76
1024.129	1381.5
1024.419	1375.63
1024.709	1363.65
1025	1346.93
1025.29	1327.72
1025.58	1327.27
1025.87	1316.19
1026.16	1309.64
1026.449	1300.83
1026.739	1292.69
1027.029	1279.58
1027.319	1256.53
1027.608	1281.39
1027.898	1275.29
1028.187	1257.66
1028.477	1252.69
1028.766	1249.08
1029.055	1227.38
1029.344	1237.1
1029.634	1201.39
1029.923	1209.53
1030.212	1211.79
1030.501	1173.83
1030.79	1200.72
1031.078	1156.2
1031.367	1162.53
1031.656	1161.85
1031.945	1148.06
1032.233	1130.66
1032.522	1141.96
1032.81	1120.04
1033.099	1136.09
1033.387	1094.73
1033.675	1108.06
1033.963	1089.08
1034.251	1109.65
1034.54	1082.08
1034.828	1066.71
1035.116	1055.64
1035.403	1063.32
1035.691	1045.92
1035.979	1055.41
1036.267	1033.26
1036.554	1029.42
1036.842	1022.19
1037.129	1014.73
1037.417	984.23
1037.704	1001.85
1037.992	1004.11
1038.279	995.52
1038.566	991.68
1038.853	991.68
1039.14	991.68
