Data from hue_70_FLMS001491_31.txt Node
Date: Mon Feb 06 15:20:45 GMT 2017
User: dcchb
Spectrometer: FLMS00149
Trigger mode: 0
Integration Time (sec): 2.000000E-2
Scans to average: 10
Electric dark correction enabled: true
Nonlinearity correction enabled: false
Boxcar width: 0
XAxis mode: Wavelengths
Number of Pixels in Spectrum: 2048
>>>>>Begin Spectral Data<<<<<
341.393	3.73
341.776	3.73
342.16	3.73
342.543	-69.72
342.927	-56.83
343.31	-59.09
343.693	-75.37
344.077	-57.06
344.46	-71.52
344.843	-58.87
345.226	-46.67
345.61	-49.6
345.993	-45.99
346.376	10.73
346.759	24.52
347.142	22.94
347.525	43.5
347.908	63.84
348.291	90.51
348.674	86.44
349.057	121.69
349.44	118.53
349.823	146.32
350.206	161.01
350.588	181.35
350.971	208.92
351.354	218.64
351.737	241.24
352.119	257.28
352.502	262.7
352.884	262.25
353.267	270.39
353.65	280.56
354.032	287.11
354.414	310.61
354.797	322.59
355.179	308.58
355.562	306.09
355.944	325.98
356.326	329.37
356.709	330.05
357.091	333.44
357.473	337.05
357.855	347.9
358.238	353.55
358.62	336.6
359.002	351.97
359.384	351.29
359.766	351.74
360.148	345.87
360.53	338.86
360.912	339.54
361.294	328.69
361.676	346.54
362.057	333.21
362.439	337.51
362.821	330.27
363.203	299.54
363.584	319.65
363.966	329.82
364.348	313.33
364.729	328.01
365.111	309.94
365.493	320.1
365.874	318.97
366.256	311.97
366.637	336.38
367.019	318.52
367.4	324.85
367.781	327.56
368.163	287.56
368.544	323.72
368.925	316.49
369.306	314.91
369.688	318.52
370.069	325.75
370.45	316.71
370.831	322.82
371.212	315.81
371.593	296.6
371.974	321.91
372.355	318.07
372.736	335.92
373.117	309.71
373.498	317.62
373.879	328.92
374.26	313.1
374.641	318.3
375.021	304.06
375.402	311.29
375.783	323.72
376.163	322.36
376.544	332.31
376.925	331.86
377.305	324.62
377.686	332.31
378.066	319.2
378.447	365.75
378.827	323.95
379.208	317.84
379.588	324.4
379.968	328.69
380.349	344.74
380.729	347.9
381.109	336.6
381.489	341.57
381.87	323.95
382.25	336.83
382.63	312.42
383.01	330.95
383.39	337.51
383.77	341.57
384.15	331.18
384.53	330.5
384.91	346.32
385.29	337.96
385.67	359.2
386.049	333.44
386.429	331.63
386.809	346.54
387.189	362.14
387.568	337.51
387.948	344.51
388.328	331.86
388.707	333.21
389.087	352.42
389.466	350.84
389.846	360.1
390.225	344.28
390.605	363.49
390.984	367.56
391.363	361.23
391.743	342.25
392.122	358.97
392.501	359.88
392.881	362.59
393.26	361.69
393.639	361.01
394.018	388.8
394.397	363.49
394.776	361.91
395.155	369.59
395.534	384.74
395.913	378.63
396.292	387.45
396.671	388.13
397.05	362.59
397.429	378.86
397.808	374.11
398.186	372.08
398.565	376.37
398.944	367.33
399.323	381.12
399.701	357.62
400.08	371.85
400.458	378.63
400.837	396.26
401.215	390.84
401.594	389.03
401.972	389.71
402.351	398.52
402.729	384.06
403.107	394.45
403.486	398.75
403.864	394.9
404.242	402.14
404.62	384.28
404.999	390.16
405.377	408.24
405.755	406.2
406.133	408.01
406.511	398.52
406.889	398.29
407.267	415.7
407.645	393.55
408.023	404.62
408.401	425.64
408.779	407.79
409.156	391.06
409.534	406.2
409.912	420.67
410.29	417.28
410.667	435.13
411.045	445.98
411.422	441.23
411.8	424.51
412.178	413.44
412.555	433.77
412.933	432.87
413.31	447.56
413.687	460.67
414.065	469.71
414.442	443.04
414.819	440.33
415.197	456.6
415.574	478.97
415.951	455.02
416.328	469.48
416.705	482.59
417.082	466.99
417.46	485.3
417.837	495.69
418.214	465.19
418.591	462.25
418.967	497.5
419.344	471.29
419.721	481.68
420.098	496.37
420.475	461.8
420.852	500.44
421.228	504.05
421.605	494.11
421.982	504.96
422.358	509.93
422.735	487.11
423.111	488.91
423.488	516.48
423.864	539.31
424.241	513.09
424.617	532.08
424.994	518.74
425.37	528.91
425.746	547.22
426.123	533.66
426.499	522.36
426.875	534.56
427.251	534.56
427.627	539.76
428.003	529.14
428.379	530.27
428.756	549.93
429.132	548.35
429.507	563.49
429.883	565.52
430.259	574.34
430.635	564.39
431.011	604.84
431.387	608.46
431.763	594.45
432.138	579.53
432.514	598.52
432.89	588.12
433.265	606.65
433.641	611.4
434.016	615.24
434.392	617.72
434.767	626.09
435.143	623.6
435.518	608.68
435.894	639.19
436.269	644.39
436.644	633.77
437.02	662.24
437.395	629.25
437.77	672.19
438.145	658.17
438.52	678.51
438.895	670.15
439.271	671.51
439.646	685.74
440.021	687.55
440.395	700.43
440.77	706.31
441.145	713.99
441.52	716.25
441.895	715.12
442.27	698.17
442.645	714.67
443.019	713.31
443.394	706.54
443.769	739.75
444.143	728.46
444.518	728.46
444.892	733.65
445.267	731.17
445.641	729.59
446.016	755.12
446.39	738.85
446.764	757.38
447.139	749.92
447.513	753.09
447.887	743.82
448.262	790.6
448.636	771.39
449.01	773.43
449.384	776.59
449.758	779.53
450.132	808.68
450.506	791.28
450.88	789.7
451.254	790.37
451.628	818.17
452.002	824.5
452.376	828.57
452.75	840.32
453.123	837.15
453.497	857.72
453.871	864.72
454.244	868.34
454.618	896.13
454.992	884.61
455.365	885.06
455.739	890.94
456.112	889.36
456.486	901.56
456.859	889.58
457.232	908.56
457.606	919.64
457.979	939.07
458.352	944.49
458.725	968.68
459.099	976.81
459.472	1000.76
459.845	1009.35
460.218	1035.34
460.591	1001.67
460.964	1035.79
461.337	1035.34
461.71	1048.67
462.083	1061.55
462.456	1065.62
462.829	1066.98
463.201	1091.84
463.574	1109.91
463.947	1131.83
464.32	1136.81
464.692	1125.96
465.065	1139.29
465.438	1186.52
465.81	1191.72
466.183	1181.1
466.555	1206.86
466.928	1226.3
467.3	1255.22
467.672	1265.62
468.045	1284.82
468.417	1297.25
468.789	1325.05
469.161	1348.33
469.534	1375.22
469.906	1407.76
470.278	1438.04
470.65	1429.45
471.022	1461.32
471.394	1479.17
471.766	1496.8
472.138	1523.69
472.51	1581.99
472.882	1624.93
473.253	1653.85
473.625	1672.61
473.997	1712.16
474.369	1737.02
474.74	1764.36
475.112	1813.4
475.484	1841.19
475.855	1899.5
476.227	1933.17
476.598	1979.04
476.97	2007.74
477.341	2083.22
477.713	2160.51
478.084	2158.47
478.455	2268.98
478.827	2299.04
479.198	2400.95
479.569	2385.81
479.94	2521.85
480.311	2538.58
480.682	2656.31
481.053	2778.35
481.424	2793.49
481.795	2880.49
482.166	2977.89
482.537	3094.95
482.908	3141.5
483.279	3219.69
483.65	3294.49
484.021	3396.86
484.391	3519.34
484.762	3593.46
485.133	3670.52
485.503	3790.07
485.874	3915.94
486.244	3996.39
486.615	4131.3
486.985	4225.09
487.356	4433.44
487.726	4458.75
488.097	4576.49
488.467	4643.15
488.837	4848.8
489.207	5022.35
489.578	5139.19
489.948	5235.46
490.318	5386.64
490.688	5455.56
491.058	5638.83
491.428	5756.12
491.798	5847.64
492.168	6042.67
492.538	6178.26
492.908	6278.82
493.278	6454.18
493.648	6549.32
494.017	6726.26
494.387	6795.64
494.757	6914.96
495.126	7141.39
495.496	7231.79
495.866	7353.59
496.235	7529.86
496.605	7653.92
496.974	7767.82
497.344	7954.71
497.713	8106.57
498.082	8202.38
498.452	8342.72
498.821	8478.31
499.19	8556.72
499.559	8775.02
499.928	8866.32
500.298	8976.6
500.667	9154
501.036	9192.41
501.405	9367.1
501.774	9419.75
502.143	9530.48
502.512	9678.5
502.88	9823.36
503.249	9923.47
503.618	10033.07
503.987	10170.24
504.356	10271.03
504.724	10426.28
505.093	10491.59
505.462	10639.61
505.83	10727.51
506.199	10816.1
506.567	11077.34
506.936	11098.13
507.304	11215.86
507.672	11326.82
508.041	11376.54
508.409	11544.89
508.777	11651.78
509.145	11816.75
509.514	11820.14
509.882	11957.99
510.25	12054.71
510.618	12226.46
510.986	12202.5
511.354	12421.03
511.722	12515.04
512.09	12652.89
512.458	12647.69
512.826	12848.36
513.193	12933.33
513.561	12990.96
513.929	13118.86
514.297	13244.28
514.664	13396.37
515.032	13412.42
515.4	13586.2
515.767	13604.95
516.135	13681.34
516.502	13629.81
516.869	13917.26
517.237	13930.37
517.604	13979.63
517.972	14159.29
518.339	14195.9
518.706	14244.48
519.073	14371.49
519.44	14447.64
519.808	14630.69
520.175	14556.57
520.542	14786.62
520.909	14901.87
521.276	14895.54
521.643	15065.93
522.009	15192.93
522.376	15241.97
522.743	15373.04
523.11	15428.86
523.477	15619.59
523.843	15697.33
524.21	15843.54
524.577	15813.03
524.943	15961.95
525.31	16030.2
525.676	16160.82
526.043	16259.57
526.409	16287.59
526.776	16436.07
527.142	16515.38
527.508	16559.9
527.874	16749.5
528.241	16721.03
528.607	16766
528.973	16904.75
529.339	16899.33
529.705	17186.33
530.071	17203.05
530.437	17251.18
530.803	17278.3
531.169	17356.27
531.535	17261.58
531.901	17504.29
532.267	17477.17
532.632	17515.36
532.998	17596.49
533.364	17653.66
533.73	17704.05
534.095	17848.23
534.461	17861.79
534.826	17916.7
535.192	17995.8
535.557	18038.51
535.923	17942.69
536.288	18151.73
536.653	18149.47
537.019	18076.47
537.384	18174.55
537.749	18164.38
538.114	18174.32
538.479	18175.91
538.845	18470.14
539.21	18295
539.575	18319.41
539.94	18292.29
540.305	18466.52
540.67	18324.6
541.034	18464.03
541.399	18507.2
541.764	18552.85
542.129	18653.86
542.494	18622.9
542.858	18581.77
543.223	18551.94
543.587	18719.39
543.952	18586.29
544.316	18690.47
544.681	18682.56
545.045	18752.84
545.41	18769.34
545.774	18793.52
546.138	18850.24
546.503	18865.38
546.867	18857.92
547.231	18954.87
547.595	18994.87
547.959	18966.39
548.324	18874.64
548.688	18951.93
549.052	18969.33
549.416	18990.57
549.779	18988.31
550.143	19103.11
550.507	19123.9
550.871	19165.94
551.235	19056.79
551.599	19240.29
551.962	19189.44
552.326	19233.51
552.689	19274.63
553.053	19224.01
553.417	19314.86
553.78	19501.07
554.143	19389.89
554.507	19431.47
554.87	19493.39
555.234	19632.59
555.597	19512.82
555.96	19551.46
556.323	19619.48
556.686	19527.51
557.05	19714.85
557.413	19771.8
557.776	19714.4
558.139	19892.7
558.502	19849.31
558.865	19933.37
559.228	20009.98
559.59	20054.73
559.953	19999.36
560.316	20123.2
560.679	20247.04
561.041	20168.62
561.404	20300.82
561.767	20395.73
562.129	20376.75
562.492	20532.23
562.854	20542.17
563.217	20552.11
563.579	20625.79
563.941	20716.4
564.304	20695.39
564.666	20781.04
565.028	20891.77
565.39	20903.29
565.753	21071.2
566.115	21099.22
566.477	21190.52
566.839	21136.73
567.201	21188.26
567.563	21225.32
567.925	21365.65
568.287	21371.3
568.648	21454.46
569.01	21626.21
569.372	21597.06
569.734	21499.43
570.095	21729.71
570.457	21716.38
570.819	21728.13
571.18	21782.37
571.542	21791.86
571.903	21909.59
572.265	21908.92
572.626	21984.62
572.987	22053.09
573.349	21979.42
573.71	22118.18
574.071	22196.82
574.432	22150.94
574.794	22406.08
575.155	22294.44
575.516	22365.4
575.877	22299.19
576.238	22451.27
576.599	22457.6
576.96	22475.91
577.32	22430.71
577.681	22555.45
578.042	22601.78
578.403	22540.76
578.763	22607.65
579.124	22656.24
579.485	22759.06
579.845	22775.11
580.206	22680.42
580.566	22669.35
580.927	22771.04
581.287	22835.44
581.648	22762
582.008	22857.59
582.368	22797.71
582.728	22805.62
583.089	22817.37
583.449	22805.39
583.809	22895.33
584.169	22915.89
584.529	22919.51
584.889	22916.35
585.249	22849.68
585.609	22735.79
585.969	22935.1
586.329	22816.69
586.688	22836.57
587.048	22941.88
587.408	22849.46
587.768	22880.42
588.127	22894.88
588.487	22734.43
588.846	23022.56
589.206	22860.75
589.565	22797.48
589.925	23008.77
590.284	22855.56
590.643	22869.57
591.003	22946.63
591.362	22969.23
591.721	22874.54
592.08	22893.75
592.44	22988.44
592.799	23027.3
593.158	22862.34
593.517	22954.09
593.876	22884.03
594.235	22962
594.593	22914.99
594.952	22965.16
595.311	22899.4
595.67	22867.08
596.029	23034.76
596.387	23007.42
596.746	23035.44
597.104	22967.19
597.463	22893.97
597.822	23070.69
598.18	23009.23
598.538	22879.96
598.897	23019.62
599.255	22886.29
599.613	23228.65
599.972	23012.16
600.33	23065.27
600.688	22973.75
601.046	23005.16
601.404	23276.11
601.762	23095.32
602.12	23211.71
602.478	23157.92
602.836	23279.05
603.194	23180.52
603.552	23075.89
603.91	23048.32
604.268	23330.8
604.625	23255.09
604.983	23404.7
605.341	23216
605.698	23404.02
606.056	23374.19
606.413	23360.18
606.771	23458.25
607.128	23418.48
607.485	23359.95
607.843	23419.61
608.2	23478.59
608.557	23541.87
608.914	23530.34
609.272	23462.09
609.629	23671.58
609.986	23812.14
610.343	23580.06
610.7	23832.71
611.057	23720.39
611.414	23735.53
611.771	23791.58
612.127	23712.48
612.484	23876.55
612.841	23985.02
613.198	23783.22
613.554	23896.89
613.911	23928.52
614.267	24048.97
614.624	23889.43
614.98	24045.81
615.337	24196.09
615.693	24020.72
616.05	24098.69
616.406	24224.56
616.762	24208.97
617.118	24066.82
617.475	24236.54
617.831	24242.19
618.187	24181.85
618.543	24293.71
618.899	24327.83
619.255	24427.27
619.611	24313.82
619.967	24260.72
620.323	24448.06
620.678	24462.97
621.034	24349.3
621.39	24394.73
621.746	24347.27
622.101	24594.04
622.457	24442.41
622.812	24418
623.168	24591.1
623.523	24559.02
623.879	24671.33
624.234	24556.08
624.589	24493.03
624.945	24620.03
625.3	24621.84
625.655	24554.95
626.01	24580.26
626.365	24625.91
626.72	24546.36
627.075	24523.54
627.43	24560.82
627.785	24454.16
628.14	24549.75
628.495	24584.55
628.85	24593.59
629.205	24493.71
629.559	24583.2
629.914	24530.54
630.269	24592.46
630.623	24483.09
630.978	24576.19
631.332	24591.33
631.687	24522.86
632.041	24511.56
632.396	24491.9
632.75	24389.98
633.104	24464.1
633.459	24312.02
633.813	24440.83
634.167	24303.88
634.521	24287.16
634.875	24405.35
635.229	24285.35
635.583	24140.72
635.937	24350.89
636.291	24125.13
636.645	24155.41
636.999	24288.51
637.352	24186.82
637.706	24162.19
638.06	24206.03
638.413	24143.66
638.767	24118.57
639.121	24104.79
639.474	23907.06
639.828	23973.04
640.181	24044
640.534	24049.88
640.888	24057.11
641.241	23913.38
641.594	24042.42
641.947	24036.09
642.301	23862.76
642.654	23970.56
643.007	24020.95
643.36	23835.19
643.713	23813.27
644.066	23974.17
644.419	23711.58
644.771	23626.38
645.124	23505.48
645.477	23486.73
645.83	23238.82
646.182	23173.29
646.535	23031.37
646.888	23108.88
647.24	22952.73
647.593	23065.95
647.945	23142.1
648.298	23003.58
648.65	23018.94
649.002	22892.39
649.355	23055.33
649.707	23014.2
650.059	22962
650.411	23281.08
650.763	23373.51
651.115	23502.55
651.467	23449.67
651.819	23468.87
652.171	23438.59
652.523	23392.49
652.875	23296.9
653.227	23377.58
653.578	23511.36
653.93	23487.18
654.282	23441.76
654.633	23341.87
654.985	23404.47
655.337	23413.28
655.688	23369.44
656.039	23420.06
656.391	23275.21
656.742	23264.59
657.094	23364.47
657.445	23416.45
657.796	23311.82
658.147	23302.1
658.498	23382.32
658.849	23316.79
659.2	23277.92
659.551	23258.94
659.902	23413.73
660.253	23319.27
660.604	23344.58
660.955	23264.36
661.306	23309.56
661.656	23314.53
662.007	23292.38
662.358	23288.31
662.708	23280.18
663.059	23214.64
663.409	23132.39
663.76	23325.15
664.11	23371.7
664.461	23322.66
664.811	23394.98
665.161	23336.9
665.511	23245.15
665.862	23288.77
666.212	23329.67
666.562	23334.87
666.912	23256
667.262	23359.72
667.612	23349.1
667.962	23220.75
668.312	23309.78
668.662	23354.08
669.011	23293.96
669.361	23317.92
669.711	23305.04
670.06	23188.88
670.41	23215.55
670.76	23276.56
671.109	23305.94
671.459	23174.64
671.808	23128.54
672.157	23239.5
672.507	23075.21
672.856	23041.99
673.205	23131.71
673.554	23079.51
673.904	23154.53
674.253	23164.25
674.602	23062.56
674.951	22782.34
675.3	22630.03
675.649	23170.35
675.998	23055.33
676.346	22959.28
676.695	23021.65
677.044	22917.7
677.393	22914.31
677.741	22912.5
678.09	22886.29
678.438	22878.38
678.787	22970.58
679.135	22911.6
679.484	22689.23
679.832	22798.84
680.181	22771.27
680.529	22788.67
680.877	22626.41
681.225	22717.26
681.573	22827.31
681.922	22557.49
682.27	22616.47
682.618	22526.53
682.966	22576.47
683.314	22640.42
683.661	22417.38
684.009	22406.3
684.357	22351.39
684.705	22230.04
685.053	22295.12
685.4	22239.08
685.748	22200.66
686.095	22031.17
686.443	21952.53
686.79	21953.66
687.138	21998.63
687.485	21938.29
687.832	21910.05
688.18	21902.59
688.527	21725.19
688.874	21748.69
689.221	21656.04
689.568	21684.97
689.915	21658.07
690.262	21585.08
690.609	21464.18
690.956	21433.9
691.303	21375.82
691.65	21212.66
691.997	21290.85
692.344	21201.36
692.69	21071.42
693.037	21157.97
693.383	21070.52
693.73	21012.22
694.077	20904.2
694.423	20980.8
694.769	20925.44
695.116	20845.67
695.462	20786.46
695.808	20701.04
696.155	20750.75
696.501	20500.14
696.847	20550.53
697.193	20440.03
697.539	20441.61
697.885	20351.89
698.231	20127.49
698.577	20176.53
698.923	20090.66
699.269	20071.45
699.614	19891.12
699.96	19898.57
700.306	19918.69
700.651	19852.92
700.997	19784
701.342	19701.97
701.688	19687.73
702.033	19540.84
702.379	19528.87
702.724	19481.63
703.069	19494.52
703.415	19276.89
703.76	19224.69
704.105	19206.84
704.45	19274.41
704.795	19022.89
705.14	19088.42
705.485	19048.2
705.83	19044.58
706.175	19013.4
706.52	18926.4
706.865	18839.17
707.209	18854.76
707.554	18692.28
707.899	18743.35
708.243	18684.82
708.588	18603.01
708.932	18485.5
709.277	18436.69
709.621	18496.12
709.966	18300.87
710.31	18415.22
710.654	18194.44
710.998	18278.5
711.342	18349.46
711.687	18231.95
712.031	18095.91
712.375	17986.53
712.719	18143.14
713.063	18115.79
713.407	18076.7
713.75	17936.59
714.094	18046.19
714.438	17884.39
714.782	17890.04
715.125	17772.53
715.469	17881.9
715.812	17647.33
716.156	17728.46
716.499	17615.92
716.843	17657.73
717.186	17507.9
717.53	17629.03
717.873	17596.49
718.216	17553.55
718.559	17503.83
718.902	17359.2
719.246	17435.81
719.589	17351.3
719.932	17361.24
720.275	17318.08
720.617	17366.21
720.96	17286.44
721.303	17317.4
721.646	17312.43
721.989	17138.19
722.331	17264.52
722.674	17151.3
723.016	17191.07
723.359	17195.82
723.701	17096.16
724.044	17060
724.386	16916.96
724.729	17056.61
725.071	16990.17
725.413	16990.85
725.755	16927.8
726.097	16897.52
726.439	16880.8
726.782	16860.69
727.124	16863.4
727.465	16822.27
727.807	16736.85
728.149	16732.55
728.491	16827.69
728.833	16825.89
729.175	16735.72
729.516	16705.89
729.858	16725.32
730.199	16692.56
730.541	16648.04
730.882	16629.96
731.224	16731.2
731.565	16575.72
731.906	16613.69
732.248	16655.49
732.589	16580.02
732.93	16519.9
733.271	16460.92
733.612	16521.03
733.953	16545.21
734.294	16479.68
734.635	16447.59
734.976	16499.11
735.317	16458.66
735.658	16471.09
735.999	16422.96
736.339	16467.7
736.68	16432.45
737.021	16421.83
737.361	16311.1
737.702	16444.43
738.042	16339.34
738.383	16392.22
738.723	16383.86
739.063	16336.63
739.404	16418.89
739.744	16383.86
740.084	16339.57
740.424	16425.44
740.764	16226.58
741.104	16361.26
741.444	16283.75
741.784	16344.09
742.124	16329.63
742.464	16281.04
742.804	16313.81
743.143	16357.87
743.483	16384.31
743.823	16373.69
744.162	16365.33
744.502	16321.94
744.841	16312
745.181	16420.02
745.52	16381.6
745.86	16506.35
746.199	16434.71
746.538	16411.66
746.877	16463.63
747.216	16560.81
747.556	16553.35
747.895	16468.83
748.234	16533.24
748.573	16524.65
748.911	16603.07
749.25	16577.98
749.589	16695.49
749.928	16725.77
750.267	16796.28
750.605	16692.1
750.944	16766.68
751.283	16857.07
751.621	16884.19
751.96	16829.28
752.298	16952.44
752.636	16977.07
752.975	17149.27
753.313	17093.67
753.651	17205.54
753.989	17200.11
754.327	17254.8
754.666	17198.98
755.004	17264.29
755.342	17371.86
755.679	17536.15
756.017	17484.4
756.355	17591.74
756.693	17646.43
757.031	17768.01
757.368	17691.85
757.706	17731.85
758.044	17843.26
758.381	17930.94
758.719	18003.71
759.056	18057.27
759.394	18054.33
759.731	18066.76
760.068	18108.56
760.405	18167.54
760.743	18124.83
761.08	18306.52
761.417	18345.85
761.754	18307.88
762.091	18400.53
762.428	18372.29
762.765	18387.2
763.102	18498.84
763.438	18460.42
763.775	18463.36
764.112	18583.81
764.449	18633.3
764.785	18645.95
765.122	18589.23
765.458	18641.43
765.795	18647.08
766.131	18733.18
766.467	18717.36
766.804	18692.73
767.14	18619.74
767.476	18735.44
767.812	18697.47
768.148	18787.87
768.485	18696.34
768.821	18609.34
769.157	18700.41
769.492	18714.42
769.828	18705.61
770.164	18620.19
770.5	18717.36
770.836	18657.02
771.171	18640.98
771.507	18708.1
771.842	18579.06
772.178	18604.14
772.513	18600.98
772.849	18565.73
773.184	18494.09
773.519	18639.17
773.855	18434.2
774.19	18350.59
774.525	18346.52
774.86	18433.3
775.195	18479.18
775.53	18365.05
775.865	18254.1
776.2	18188.34
776.535	18132.07
776.87	18097.49
777.205	17970.04
777.539	18020.43
777.874	18068.79
778.209	17869.02
778.543	17983.14
778.878	17791.74
779.212	17780.89
779.547	17808.01
779.881	17822.7
780.215	17673.32
780.55	17752.41
780.884	17636.71
781.218	17602.59
781.552	17631.29
781.886	17512.87
782.22	17506.77
782.554	17294.57
782.888	17229.26
783.222	17189.27
783.556	17191.53
783.889	17088.03
784.223	17032.43
784.557	16956.73
784.89	17038.08
785.224	16931.19
785.557	16821.82
785.891	16882.38
786.224	16798.09
786.558	16840.12
786.891	16613.01
787.224	16709.73
787.557	16570.3
787.891	16542.73
788.224	16524.42
788.557	16571.88
788.89	16500.7
789.223	16447.36
789.556	16347.03
789.888	16295.5
790.221	16254.6
790.554	16111.33
790.887	16144.55
791.219	15995.62
791.552	16019.8
791.884	16083.31
792.217	15885.8
792.549	15905.01
792.882	15698.23
793.214	15729.87
793.546	15778.23
793.879	15534.62
794.211	15527.16
794.543	15616.43
794.875	15535.75
795.207	15534.17
795.539	15498.69
795.871	15431.57
796.203	15291.24
796.535	15213.72
796.867	15244.46
797.198	15198.13
797.53	15176.66
797.862	15057.8
798.193	15104.12
798.525	14995.2
798.856	15057.8
799.188	14870.23
799.519	14812.6
799.85	14799.5
800.182	14712.27
800.513	14807.63
800.844	14559.28
801.175	14711.82
801.506	14692.61
801.837	14489
802.168	14575.1
802.499	14540.75
802.83	14505.95
803.161	14381.66
803.491	14418.26
803.822	14348.66
804.153	14313.63
804.483	14239.06
804.814	14161.77
805.145	14150.48
805.475	14171.27
805.805	14080.19
806.136	14112.51
806.466	14004.72
806.796	14020.31
807.126	13941.89
807.457	13901.67
807.787	13850.82
808.117	13876.81
808.447	13736.47
808.777	13834.78
809.107	13689.24
809.436	13686.98
809.766	13742.8
810.096	13603.82
810.426	13524.5
810.755	13540.77
811.085	13456.26
811.414	13537.38
811.744	13387.33
812.073	13393.66
812.403	13423.26
812.732	13303.49
813.061	13281.57
813.39	13208.13
813.719	13164.96
814.049	13268.01
814.378	13212.42
814.707	13084.74
815.036	13043.16
815.365	13044.06
815.693	12979.21
816.022	13017.62
816.351	12875.03
816.68	12891.98
817.008	12911.41
817.337	12770.62
817.665	12668.25
817.994	12753.45
818.322	12811.53
818.651	12750.96
818.979	12743.73
819.307	12736.5
819.636	12701.7
819.964	12684.07
820.292	12673.9
820.62	12651.76
820.948	12650.18
821.276	12644.98
821.604	12606.34
821.932	12545.77
822.259	12623.96
822.587	12534.47
822.915	12520.01
823.243	12564.75
823.57	12540.57
823.898	12537.86
824.225	12503.51
824.553	12492.21
824.88	12521.14
825.207	12504.64
825.535	12531.76
825.862	12618.31
826.189	12569.73
826.516	12582.61
826.843	12551.87
827.17	12573.12
827.497	12568.82
827.824	12474.81
828.151	12590.74
828.478	12549.16
828.805	12560.69
829.131	12499.9
829.458	12478.88
829.785	12498.09
830.111	12352.56
830.438	12462.84
830.764	12481.14
831.09	12486.11
831.417	12438.66
831.743	12521.59
832.069	12443.4
832.395	12336.51
832.722	12421.03
833.048	12387.81
833.374	12395.49
833.7	12432.33
834.026	12376.06
834.351	12428.71
834.677	12385.32
835.003	12415.61
835.329	12332.22
835.654	12322.95
835.98	12255.84
836.306	12229.62
836.631	12296.29
836.956	12208.61
837.282	12250.86
837.607	12223.52
837.932	12206.8
838.258	12182.84
838.583	12174.71
838.908	12172
839.233	12054.03
839.558	12144.65
839.883	12031.44
840.208	12072.79
840.533	12007.03
840.858	12033.92
841.182	11986.92
841.507	12035.05
841.832	11900.14
842.156	11894.04
842.481	11937.43
842.805	11853.59
843.13	11800.93
843.454	11883.87
843.778	11778.56
844.103	11814.49
844.427	11739.24
844.751	11743.31
845.075	11677.32
845.399	11696.53
845.723	11572.46
846.047	11610.88
846.371	11521.39
846.695	11471
847.019	11395.75
847.343	11361.62
847.666	11315.52
847.99	11252.7
848.313	11235.3
848.637	11175.64
848.96	11130.44
849.284	11095.87
849.607	11019.71
849.931	11028.75
850.254	10970.9
850.577	10892.48
850.9	10840.73
851.223	10820.85
851.546	10686.61
851.869	10716.44
852.192	10700.85
852.515	10679.15
852.838	10625.6
853.161	10665.82
853.483	10650.68
853.806	10473.06
854.129	10463.79
854.451	10488.42
854.774	10394.19
855.096	10313.97
855.419	10312.16
855.741	10323.91
856.063	10282.33
856.385	10178.38
856.708	10176.79
857.03	10212.05
857.352	10195.55
857.674	10169.79
857.996	10057.02
858.318	10046.63
858.64	10110.13
858.961	9920.53
859.283	10016.12
859.605	9867.42
859.926	9905.16
860.248	9876.92
860.57	9892.06
860.891	9866.97
861.212	9830.59
861.534	9794.88
861.855	9825.39
862.176	9793.75
862.498	9775.45
862.819	9723.7
863.14	9650.71
863.461	9688.67
863.782	9678.05
864.103	9631.05
864.424	9555.34
864.745	9642.8
865.065	9555.79
865.386	9588.11
865.707	9582.46
866.027	9522.8
866.348	9540.65
866.668	9458.17
866.989	9488.45
867.309	9376.82
867.63	9410.49
867.95	9460.66
868.27	9419.07
868.59	9312.18
868.91	9410.26
869.23	9380.21
869.55	9318.96
869.87	9409.36
870.19	9401.45
870.51	9384.95
870.83	9320.32
871.15	9314.67
871.469	9283.71
871.789	9308.12
872.109	9291.17
872.428	9161.45
872.748	9272.64
873.067	9221.79
873.386	9180.21
873.706	9167.56
874.025	9167.1
874.344	9072.87
874.663	9156.48
874.982	9092.76
875.301	9030.84
875.62	9025.41
875.939	9038.52
876.258	9065.41
876.577	9022.93
876.896	9063.15
877.214	8978.18
877.533	8924.4
877.852	8999.42
878.17	8975.47
878.489	8922.14
878.807	8976.83
879.125	8828.13
879.444	8919.2
879.762	8859.09
880.08	8912.42
880.398	8838.75
880.716	8873.55
881.034	8835.36
881.352	8822.03
881.67	8770.96
881.988	8752.88
882.306	8746.78
882.624	8694.8
882.941	8635.59
883.259	8710.84
883.577	8615.48
883.894	8653.9
884.212	8596.27
884.529	8603.05
884.846	8581.81
885.164	8609.38
885.481	8501.81
885.798	8540.68
886.115	8511.75
886.432	8448.25
886.75	8444.18
887.067	8453.68
887.383	8405.09
887.7	8391.98
888.017	8345.66
888.334	8350.85
888.651	8369.84
888.967	8260.69
889.284	8256.17
889.6	8281.48
889.917	8198.32
890.233	8230.86
890.55	8135.94
890.866	8231.31
891.182	8088.49
891.498	8104.31
891.815	8127.36
892.131	8037.19
892.447	8010.98
892.763	8010.52
893.079	8037.64
893.395	7981.82
893.71	7952.45
894.026	7907.7
894.342	7947.47
894.657	7799.23
894.973	7824.31
895.289	7805.33
895.604	7837.87
895.92	7727.14
896.235	7683.53
896.55	7745.45
896.865	7719.46
897.181	7662.06
897.496	7668.39
897.811	7584.77
898.126	7648.05
898.441	7553.59
898.756	7543.64
899.071	7532.12
899.386	7517.66
899.7	7445.34
900.015	7467.26
900.33	7412.35
900.644	7405.12
900.959	7331.9
901.273	7322.63
901.588	7326.25
901.902	7294.38
902.216	7187.27
902.531	7228.85
902.845	7234.5
903.159	7175.07
903.473	7182.75
903.787	7119.7
904.101	7091.45
904.415	7084.22
904.729	7062.75
905.042	7027.05
905.356	7001.28
905.67	6955.64
905.984	6956.77
906.297	6990.66
906.611	6948.63
906.924	6915.64
907.237	6820.05
907.551	6782.99
907.864	6821.63
908.177	6721.29
908.491	6756.09
908.804	6783.44
909.117	6677
909.43	6627.74
909.743	6674.74
910.056	6622.99
910.368	6576.89
910.681	6583.22
910.994	6498.25
911.307	6456.67
911.619	6428.19
911.932	6450.56
912.244	6368.76
912.557	6453.95
912.869	6357.91
913.181	6346.16
913.494	6356.1
913.806	6291.7
914.118	6288.76
914.43	6252.6
914.742	6194.07
915.054	6175.32
915.366	6211.93
915.678	6134.19
915.99	6113.62
916.302	6075.21
916.613	6127.86
916.925	6040.63
917.236	5999.5
917.548	6025.72
917.859	5994.31
918.171	5946.85
918.482	5927.41
918.794	5879.73
919.105	5929
919.416	5861.43
919.727	5812.16
920.038	5840.64
920.349	5755.44
920.66	5712.96
920.971	5728.1
921.282	5693.75
921.593	5689.23
921.903	5652.62
922.214	5623.24
922.525	5599.51
922.835	5624.37
923.146	5555.67
923.456	5586.63
923.767	5527.2
924.077	5525.84
924.387	5505.28
924.697	5465.73
925.008	5410.14
925.318	5405.17
925.628	5394.32
925.938	5353.64
926.248	5375.56
926.558	5289.92
926.867	5273.65
927.177	5289.47
927.487	5225.74
927.796	5249.47
928.106	5196.36
928.416	5199.98
928.725	5164.5
929.034	5151.84
929.344	5134.44
929.653	5145.29
929.962	5109.13
930.271	5033.65
930.581	5045.18
930.89	5032.52
931.199	4948.91
931.508	4948.01
931.817	4948.01
932.125	4937.38
932.434	4933.09
932.743	4858.97
933.051	4875.47
933.36	4849.48
933.669	4815.13
933.977	4783.72
934.286	4792.53
934.594	4769.25
934.902	4764.96
935.21	4755.92
935.519	4704.85
935.827	4725.41
936.135	4637.05
936.443	4614.68
936.751	4600.67
937.059	4628.47
937.367	4602.03
937.674	4577.62
937.982	4568.58
938.29	4524.97
938.597	4538.07
938.905	4489.03
939.213	4506.44
939.52	4418.3
939.827	4437.74
940.135	4397.96
940.442	4411.07
940.749	4395.25
941.056	4399.77
941.363	4274.35
941.67	4334.01
941.977	4318.87
942.284	4324.97
942.591	4289.72
942.898	4244.3
943.205	4253.56
943.511	4191.42
943.818	4196.84
944.125	4166.56
944.431	4149.83
944.738	4138.31
945.044	4119.78
945.35	4122.94
945.657	4091.98
945.963	4115.03
946.269	4044.07
946.575	4031.65
946.881	3981.7
947.187	3992.1
947.493	4006.11
947.799	3965.88
948.105	3938.99
948.41	3974.7
948.716	3948.71
949.022	3922.5
949.327	3917.98
949.633	3843.85
949.938	3828.49
950.244	3855.83
950.549	3834.81
950.854	3807.47
951.16	3809.05
951.465	3777.19
951.77	3783.97
952.075	3791.65
952.38	3746.46
952.685	3707.59
952.99	3726.57
953.294	3692.22
953.599	3682.05
953.904	3664.42
954.209	3604.54
954.513	3622.84
954.818	3629.4
955.122	3562.05
955.426	3570.41
955.731	3575.16
956.035	3559.34
956.339	3531.09
956.643	3527.48
956.948	3502.85
957.252	3461.04
957.556	3475.28
957.86	3444.99
958.163	3448.61
958.467	3442.06
958.771	3409.74
959.075	3405.9
959.378	3369.74
959.682	3368.39
959.985	3361.61
960.289	3349.18
960.592	3304.43
960.896	3308.27
961.199	3304.21
961.502	3280.93
961.805	3283.87
962.108	3215.62
962.411	3230.54
962.714	3212.46
963.017	3206.58
963.32	3234.38
963.623	3176.3
963.926	3149.18
964.228	3163.87
964.531	3104.89
964.833	3105.57
965.136	3114.16
965.438	3089.52
965.741	3111.44
966.043	3112.12
966.345	3111.9
966.648	3039.81
966.95	3035.06
967.252	3012.01
967.554	3030.32
967.856	3054.04
968.158	3011.33
968.46	2959.36
968.761	2974.72
969.063	2968.62
969.365	2919.58
969.666	2930.43
969.968	2947.38
970.269	2894.27
970.571	2900.15
970.872	2851.79
971.174	2843.65
971.475	2875.97
971.776	2803.43
972.077	2812.92
972.378	2868.96
972.679	2775.18
972.98	2785.58
973.281	2797.78
973.582	2775.18
973.883	2752.81
974.183	2755.97
974.484	2729.31
974.785	2734.96
975.085	2727.95
975.386	2698.8
975.686	2672.13
975.986	2685.92
976.287	2695.86
976.587	2645.69
976.887	2631.68
977.187	2644.79
977.487	2629.65
977.787	2615.41
978.087	2584.9
978.387	2578.35
978.687	2584.68
978.987	2604.79
979.286	2538.8
979.586	2555.53
979.885	2514.85
980.185	2508.75
980.484	2484.57
980.784	2500.39
981.083	2468.75
981.382	2465.58
981.682	2441.86
981.981	2465.58
982.28	2419.71
982.579	2375.87
982.878	2399.6
983.177	2381.52
983.475	2366.38
983.774	2364.12
984.073	2347.17
984.372	2360.95
984.67	2357.11
984.969	2366.6
985.267	2319.37
985.566	2299.49
985.864	2316.44
986.162	2314.18
986.461	2292.71
986.759	2280.73
987.057	2247.96
987.355	2268.3
987.653	2252.71
987.951	2262.43
988.249	2231.01
988.547	2248.42
988.844	2193.05
989.142	2201.86
989.44	2247.51
989.737	2164.12
990.035	2148.08
990.332	2160.96
990.63	2139.49
990.927	2145.82
991.224	2137.46
991.521	2126.38
991.819	2129.55
992.116	2109.44
992.413	2109.21
992.71	2099.49
993.006	2081.19
993.303	2095.2
993.6	2072.37
993.897	2047.29
994.193	2038.25
994.49	2068.53
994.787	2005.03
995.083	2009.1
995.379	1992.38
995.676	2010.91
995.972	1987.63
996.268	1987.63
996.565	1983.56
996.861	1949.44
997.157	1975.2
997.453	1927.52
997.749	1949.67
998.044	1904.02
998.34	1889.55
998.636	1919.38
998.932	1927.97
999.227	1902.44
999.523	1881.65
999.818	1841.19
1000.114	1848.43
1000.409	1856.11
1000.704	1819.5
1001	1840.06
1001.295	1798.94
1001.59	1800.29
1001.885	1798.48
1002.18	1775.66
1002.475	1776.79
1002.77	1761.87
1003.065	1764.59
1003.359	1771.37
1003.654	1732.5
1003.949	1733.63
1004.243	1720.29
1004.538	1704.93
1004.832	1723.68
1005.127	1716.45
1005.421	1683.91
1005.715	1691.37
1006.009	1669.22
1006.304	1650.47
1006.598	1641.2
1006.892	1640.75
1007.186	1625.16
1007.48	1632.61
1007.773	1597.36
1008.067	1578.38
1008.361	1613.86
1008.655	1606.4
1008.948	1592.16
1009.242	1556
1009.535	1552.61
1009.829	1550.58
1010.122	1574.99
1010.415	1597.36
1010.708	1514.42
1011.001	1532.5
1011.295	1515.33
1011.588	1510.13
1011.881	1491.15
1012.173	1489.79
1012.466	1509.68
1012.759	1459.74
1013.052	1464.71
1013.344	1471.94
1013.637	1438.49
1013.93	1447.08
1014.222	1423.13
1014.514	1408.44
1014.807	1425.61
1015.099	1414.54
1015.391	1402.11
1015.683	1396.01
1015.976	1393.75
1016.268	1380.19
1016.56	1386.52
1016.851	1358.04
1017.143	1335.9
1017.435	1346.74
1017.727	1338.38
1018.018	1312.17
1018.31	1309.46
1018.602	1318.95
1018.893	1330.02
1019.185	1268.33
1019.476	1311.72
1019.767	1278.27
1020.058	1281.21
1020.35	1247.31
1020.641	1253.64
1020.932	1280.53
1021.223	1238.95
1021.514	1250.02
1021.804	1224.26
1022.095	1215.9
1022.386	1217.48
1022.677	1202.34
1022.967	1203.92
1023.258	1190.36
1023.548	1165.96
1023.839	1162.79
1024.129	1174.77
1024.419	1163.92
1024.709	1124.6
1025	1133.87
1025.29	1163.47
1025.58	1118.5
1025.87	1099.97
1026.16	1116.02
1026.449	1103.36
1026.739	1096.13
1027.029	1081.67
1027.319	1083.47
1027.608	1073.98
1027.898	1087.32
1028.187	1081.21
1028.477	1067.88
1028.766	1048
1029.055	1043.25
1029.344	1070.82
1029.634	1052.51
1029.923	1017.49
1030.212	1030.82
1030.501	1030.59
1030.79	1008
1031.078	1019.3
1031.367	994.44
1031.656	980.65
1031.945	991.27
1032.233	981.56
1032.522	994.21
1032.81	959.64
1033.099	986.75
1033.387	949.47
1033.675	970.71
1033.963	953.99
1034.251	923.03
1034.54	950.37
1034.828	926.64
1035.116	909.24
1035.403	901.56
1035.691	918.51
1035.979	921.9
1036.267	902.01
1036.554	868.79
1036.842	895
1037.129	886.19
1037.417	877.38
1037.704	870.37
1037.992	867.43
1038.279	868.56
1038.566	861.56
1038.853	861.56
1039.14	861.56
