Data from hue_300_FLMS001491_00074.txt Node
Date: Tue Feb 07 15:51:11 GMT 2017
User: dcchb
Spectrometer: FLMS00149
Trigger mode: 0
Integration Time (sec): 2.000000E-2
Scans to average: 10
Electric dark correction enabled: true
Nonlinearity correction enabled: false
Boxcar width: 0
XAxis mode: Wavelengths
Number of Pixels in Spectrum: 2048
>>>>>Begin Spectral Data<<<<<
341.393	16.81
341.776	16.81
342.16	16.81
342.543	-51.89
342.927	-62.96
343.31	-52.34
343.693	-48.28
344.077	-73.81
344.46	-71.1
344.843	-53.02
345.226	-38.11
345.61	-36.52
345.993	-13.25
346.376	-12.12
346.759	18.39
347.142	14.32
347.525	52.29
347.908	66.52
348.291	59.97
348.674	79.63
349.057	107.43
349.44	101.1
349.823	135.22
350.206	157.59
350.588	203.47
350.971	188.33
351.354	222.9
351.737	208.89
352.119	250.25
352.502	243.92
352.884	259.96
353.267	279.85
353.65	296.35
354.032	284.82
354.414	294.09
354.797	296.57
355.179	328.66
355.562	305.84
355.944	317.36
356.326	302
356.709	335.22
357.091	332.28
357.473	332.28
357.855	324.82
358.238	336.12
358.62	340.64
359.002	330.92
359.384	338.15
359.766	317.82
360.148	320.3
360.53	339.74
360.912	319.62
361.294	308.1
361.676	320.53
362.057	328.44
362.439	319.4
362.821	337.25
363.203	317.36
363.584	315.78
363.966	322.11
364.348	309
364.729	308.1
365.111	307.2
365.493	315.78
365.874	310.81
366.256	323.01
366.637	310.59
367.019	314.2
367.4	317.82
367.781	318.72
368.163	317.82
368.544	314.65
368.925	317.36
369.306	313.97
369.688	310.81
370.069	316.46
370.45	317.36
370.831	321.21
371.212	320.3
371.593	298.83
371.974	275.11
372.355	308.78
372.736	305.61
373.117	312.17
373.498	300.42
373.879	315.33
374.26	307.2
374.641	311.26
375.021	315.56
375.402	317.36
375.783	313.3
376.163	322.11
376.544	320.3
376.925	312.17
377.305	336.57
377.686	319.17
378.066	325.95
378.447	316.23
378.827	311.04
379.208	334.31
379.588	319.62
379.968	333.41
380.349	323.47
380.729	351.26
381.109	327.08
381.489	323.47
381.87	342.22
382.25	335.44
382.63	331.6
383.01	338.38
383.39	362.56
383.77	347.65
384.15	330.02
384.53	344.93
384.91	329.12
385.29	352.62
385.67	342.9
386.049	341.77
386.429	325.95
386.809	344.26
387.189	340.64
387.568	335.9
387.948	370.24
388.328	370.7
388.707	339.74
389.087	363.69
389.466	367.31
389.846	351.94
390.225	363.24
390.605	362.11
390.984	351.49
391.363	370.24
391.743	377.7
392.122	353.97
392.501	363.92
392.881	377.7
393.26	368.21
393.639	387.19
394.018	387.87
394.397	388.1
394.776	363.69
395.155	371.83
395.534	381.09
395.913	387.19
396.292	362.56
396.671	385.16
397.05	366.63
397.429	383.8
397.808	374.76
398.186	394.42
398.565	386.29
398.944	403.24
399.323	383.13
399.701	405.05
400.08	397.81
400.458	417.25
400.837	426.97
401.215	415.67
401.594	403.24
401.972	403.24
402.351	411.37
402.729	421.54
403.107	417.47
403.486	451.6
403.864	426.29
404.242	418.83
404.62	433.97
404.999	436.01
405.377	436.68
405.755	468.1
406.133	444.14
406.511	429
406.889	468.77
407.267	450.92
407.645	468.55
408.023	459.73
408.401	491.15
408.779	487.3
409.156	494.54
409.534	476
409.912	501.09
410.29	526.62
410.667	494.99
411.045	526.17
411.422	533.86
411.8	534.53
412.178	546.06
412.555	557.13
412.933	567.53
413.31	577.24
413.687	584.93
414.065	589
414.442	609.11
414.819	614.53
415.197	604.81
415.574	629.9
415.951	652.72
416.328	626.28
416.705	627.64
417.082	662.67
417.46	667.41
417.837	674.42
418.214	688.43
418.591	681.87
418.967	665.6
419.344	685.72
419.721	721.2
420.098	717.35
420.475	763.23
420.852	747.64
421.228	750.57
421.605	756.9
421.982	772.95
422.358	767.52
422.735	772.49
423.111	795.54
423.488	799.84
423.864	802.55
424.241	807.3
424.617	816.79
424.994	838.25
425.37	826.05
425.746	838.71
426.123	858.82
426.499	842.77
426.875	851.36
427.251	879.16
427.627	905.6
428.003	921.42
428.379	912.15
428.756	922.55
429.132	918.48
429.507	943.79
429.883	954.41
430.259	978.82
430.635	967.74
431.011	987.63
431.387	1003.22
431.763	1021.98
432.138	1013.39
432.514	1022.66
432.89	1039.61
433.265	1038.93
433.641	1088.42
434.016	1092.03
434.392	1098.81
434.767	1121.19
435.143	1134.74
435.518	1144.69
435.894	1148.76
436.269	1149.66
436.644	1176.78
437.02	1195.53
437.395	1186.95
437.77	1211.58
438.145	1211.35
438.52	1192.82
438.895	1231.92
439.271	1244.35
439.646	1282.99
440.021	1286.15
440.395	1256.77
440.77	1258.58
441.145	1274.85
441.52	1304.01
441.895	1297.23
442.27	1285.7
442.645	1316.66
443.019	1314.85
443.394	1343.78
443.769	1380.39
444.143	1341.29
444.518	1359.82
444.892	1330.45
445.267	1350.56
445.641	1365.02
446.016	1402.76
446.39	1368.86
446.764	1391.46
447.139	1364.79
447.513	1373.38
447.887	1393.95
448.262	1379.26
448.636	1392.59
449.01	1391.01
449.384	1419.48
449.758	1421.97
450.132	1429.2
450.506	1450.67
450.88	1415.87
451.254	1453.38
451.628	1483.89
452.002	1471.46
452.376	1435.53
452.75	1491.12
453.123	1473.94
453.497	1515.07
453.871	1515.53
454.244	1504.9
454.618	1558.01
454.992	1560.27
455.365	1554.17
455.739	1586.71
456.112	1577.44
456.486	1570.44
456.859	1600.04
457.232	1606.82
457.606	1618.8
457.979	1616.09
458.352	1644.34
458.725	1661.74
459.099	1663.32
459.472	1689.98
459.845	1718.91
460.218	1704.67
460.591	1715.75
460.964	1744.9
461.337	1755.07
461.71	1772.92
462.083	1776.54
462.456	1765.46
462.829	1777.89
463.201	1847.04
463.574	1800.94
463.947	1819.7
464.32	1872.8
464.692	1883.65
465.065	1853.6
465.438	1871.45
465.81	1894.05
466.183	1933.59
466.555	1946.93
466.928	1958.23
467.3	1979.24
467.672	1965.46
468.045	2036.19
468.417	1990.54
468.789	2035.06
469.161	2062.86
469.534	2067.38
469.906	2073.7
470.278	2097.88
470.65	2098.79
471.022	2149.86
471.394	2181.04
471.766	2170.42
472.138	2219.24
472.51	2233.92
472.882	2241.61
473.253	2296.3
473.625	2287.71
473.997	2343.75
474.369	2336.52
474.74	2302.62
475.112	2372.68
475.484	2432.34
475.855	2360.47
476.227	2428.04
476.598	2501.94
476.97	2494.71
477.341	2536.74
477.713	2558.89
478.084	2557.31
478.455	2577.64
478.827	2666.23
479.198	2683.4
479.569	2684.08
479.94	2781.03
480.311	2775.6
480.682	2813.8
481.053	2839.33
481.424	2890.86
481.795	2889.73
482.166	2906
482.537	2932.21
482.908	2974.7
483.279	2967.46
483.65	3029.84
484.021	3078.65
484.391	3087.91
484.762	3078.65
485.133	3102.6
485.503	3153
485.874	3192.54
486.244	3209.04
486.615	3248.81
486.985	3335.59
487.356	3293.78
487.726	3329.71
488.097	3415.81
488.467	3426.21
488.837	3460.56
489.207	3486.32
489.578	3526.09
489.948	3512.53
490.318	3557.05
490.688	3536.71
491.058	3617.84
491.428	3654
491.798	3693.77
492.168	3721.34
492.538	3725.18
492.908	3777.84
493.278	3815.35
493.648	3750.72
494.017	3852.41
494.387	3836.37
494.757	3874.11
495.126	3912.3
495.496	3910.94
495.866	3892.19
496.235	3946.65
496.605	4014.67
496.974	3976.48
497.344	3994.78
497.713	4009.7
498.082	4054.44
498.452	4085.85
498.821	4071.39
499.19	4108.68
499.559	4106.19
499.928	4145.06
500.298	4189.13
500.667	4195.68
501.036	4161.11
501.405	4187.77
501.774	4191.16
502.143	4237.94
502.512	4270.71
502.88	4256.02
503.249	4284.27
503.618	4304.83
503.987	4321.1
504.356	4314.77
504.724	4337.6
505.093	4360.65
505.462	4390.93
505.83	4391.61
506.199	4400.42
506.567	4412.62
506.936	4406.75
507.304	4449.01
507.672	4491.04
508.041	4514.09
508.409	4501.44
508.777	4532.62
509.145	4566.74
509.514	4556.58
509.882	4585.5
510.25	4594.99
510.618	4612.84
510.986	4642.67
511.354	4664.37
511.722	4683.8
512.09	4710.7
512.458	4705.95
512.826	4668.89
513.193	4707.31
513.561	4679.74
513.929	4735.33
514.297	4819.62
514.664	4736.01
515.032	4828.43
515.4	4829.34
515.767	4798.15
516.135	4850.13
516.502	4743.24
516.869	4881.99
517.237	4876.79
517.604	4827.3
517.972	4870.69
518.339	4911.59
518.706	4884.02
519.073	4935.1
519.44	4947.75
519.808	4957.02
520.175	4937.36
520.542	4975.1
520.909	5020.74
521.276	4970.8
521.643	5008.09
522.009	5112.04
522.376	5098.26
522.743	5098.71
523.11	5159.05
523.477	5161.08
523.843	5209.89
524.21	5205.6
524.577	5228.42
524.943	5262.77
525.31	5262.55
525.676	5309.1
526.043	5305.48
526.409	5359.27
526.776	5410.11
527.142	5408.3
527.508	5436.1
527.874	5481.07
528.241	5475.42
528.607	5476.1
528.973	5530.11
529.339	5477.68
529.705	5545.93
530.071	5583.44
530.437	5629.99
530.803	5627.06
531.169	5667.96
531.535	5719.03
531.901	5655.76
532.267	5712.7
532.632	5732.14
532.998	5771.46
533.364	5765.13
533.73	5829.99
534.095	5846.71
534.461	5909.31
534.826	5910.89
535.192	5916.77
535.557	5946.37
535.923	5999.7
536.288	5976.42
536.653	5999.93
537.019	5982.75
537.384	6051.68
537.749	6019.81
538.114	6081.51
538.479	6096.42
538.845	6077.21
539.21	6087.38
539.575	6165.12
539.94	6118.34
540.305	6159.24
540.67	6245.57
541.034	6261.84
541.399	6270.43
541.764	6323.53
542.129	6310.43
542.494	6350.88
542.858	6357.21
543.223	6408.73
543.587	6417.32
543.952	6459.12
544.316	6462.51
544.681	6450.99
545.045	6521.5
545.41	6558.56
545.774	6573.7
546.138	6602.4
546.503	6652.34
546.867	6650.08
547.231	6686.69
547.595	6737.76
547.959	6715.61
548.324	6707.93
548.688	6699.34
549.052	6792.67
549.416	6815.05
549.779	6772.34
550.143	6839.68
550.507	6870.64
550.871	6906.57
551.235	6906.57
551.599	6917.19
551.962	6984.31
552.326	6941.15
552.689	6961.26
553.053	6979.11
553.417	6974.82
553.78	7102.27
554.143	6996.74
554.507	7126.23
554.87	7071.76
555.234	7106.79
555.597	7147.69
555.96	7149.05
556.323	7158.09
556.686	7271.08
557.05	7195.38
557.413	7236.73
557.776	7288.93
558.139	7305.43
558.502	7335.71
558.865	7353.79
559.228	7360.12
559.59	7370.51
559.953	7452.77
560.316	7475.59
560.679	7451.64
561.041	7497.74
561.404	7515.37
561.767	7568.93
562.129	7502.03
562.492	7574.8
562.854	7594.91
563.217	7630.62
563.579	7608.47
563.941	7659.77
564.304	7680.33
564.666	7743.84
565.028	7746.77
565.39	7773.21
565.753	7819.54
566.115	7828.58
566.477	7871.29
566.839	7824.96
567.201	7907.9
567.563	7953.1
567.925	8014.11
568.287	8010.27
568.648	7995.81
569.01	8062.25
569.372	8106.76
569.734	8041
570.095	8177.95
570.457	8196.03
570.819	8175.24
571.18	8227.67
571.542	8311.28
571.903	8341.11
572.265	8349.02
572.626	8408.45
572.987	8384.05
573.349	8501.1
573.71	8561.22
574.071	8605.28
574.432	8645.06
574.794	8680.31
575.155	8766.86
575.516	8711.95
575.877	8892.05
576.238	8937.7
576.599	8964.82
576.96	9027.19
577.32	9061.09
577.681	9235.32
578.042	9347.41
578.403	9385.15
578.763	9488.42
579.124	9539.04
579.485	9760.96
579.845	9870.33
580.206	9833.5
580.566	10000.05
580.927	10158.69
581.287	10304.45
581.648	10405.01
582.008	10638
582.368	10712.57
582.728	10950.76
583.089	10968.38
583.449	11182.84
583.809	11370.18
584.169	11515.94
584.529	11752.09
584.889	11957.51
585.249	12124.74
585.609	12247.45
585.969	12501.9
586.329	12748
586.688	12945.96
587.048	13180.98
587.408	13374.65
587.768	13636.11
588.127	13880.85
588.487	14138.24
588.846	14470.89
589.206	14564.45
589.565	14863.2
589.925	15213.7
590.284	15368.49
590.643	15733.91
591.003	16016.61
591.362	16332.31
591.721	16550.84
592.08	16773.43
592.44	17136.81
592.799	17501.55
593.158	17760.75
593.517	17969.1
593.876	18339.49
594.235	18627.17
594.593	18864.67
594.952	19263.76
595.311	19400.25
595.67	19795.04
596.029	20098.54
596.387	20489.94
596.746	20822.36
597.104	20904.85
597.463	21261.67
597.822	21654.2
598.18	21893.52
598.538	22131.48
598.897	22537.8
599.255	22697.34
599.613	23112.25
599.972	23344.1
600.33	23804.43
600.688	23927.14
601.046	24267.02
601.404	24557.18
601.762	24882.37
602.12	25201.46
602.478	25488.68
602.836	25739.29
603.194	25886.41
603.552	26224.03
603.91	26412.72
604.268	26828.98
604.625	26789.21
604.983	27261.97
605.341	27278.01
605.698	27747.15
606.056	28082.06
606.413	28242.96
606.771	28560.01
607.128	28878.42
607.485	28829.38
607.843	29056.72
608.2	29512.98
608.557	29825.52
608.914	29936.25
609.272	30287.65
609.629	30454.43
609.986	30747.3
610.343	30750.24
610.7	31155.2
611.057	31257.12
611.414	31563.77
611.771	31698.91
612.127	31935.52
612.484	32054.84
612.841	32382.28
613.198	32260.48
613.554	32571.43
613.911	32941.14
614.267	32948.14
614.624	33086.22
614.98	33367.12
615.337	33556.26
615.693	33716.49
616.05	33733.66
616.406	33967.33
616.762	33979.08
617.118	34288.67
617.475	34412.29
617.831	34623.36
618.187	34757.14
618.543	34836.68
618.899	35170.91
619.255	35193.51
619.611	35255.88
619.967	35400.96
620.323	35757.79
620.678	35560.96
621.034	35621.07
621.39	35756.66
621.746	35834.17
622.101	36228.28
622.457	36087.5
622.812	36522.06
623.168	36476.41
623.523	36587.15
623.879	36684.09
624.234	36569.97
624.589	36795.28
624.945	36965.67
625.3	36965.89
625.655	37022.84
626.01	37046.79
626.365	36962.05
626.72	37250.18
627.075	37233
627.43	37211.31
627.785	37243.17
628.14	37278.65
628.495	37595.25
628.85	37517.97
629.205	37499.66
629.559	37734.23
629.914	37634.35
630.269	37624.18
630.623	37592.99
630.978	37591.19
631.332	37877.51
631.687	37770.39
632.041	37784.63
632.396	37851.74
632.75	37557.29
633.104	37834.34
633.459	37674.57
633.813	37858.98
634.167	37857.17
634.521	37918.86
634.875	37877.28
635.229	37918.64
635.583	37811.52
635.937	37794.12
636.291	37779.43
636.645	37892.65
636.999	37784.63
637.352	37934.91
637.706	37735.59
638.06	37887
638.413	37777.17
638.767	37782.14
639.121	37896.04
639.474	37630.28
639.828	37720
640.181	37767
640.534	37891.07
640.888	37662.15
641.241	37560.91
641.594	37641.13
641.947	37707.12
642.301	37789.37
642.654	37882.93
643.007	37788.24
643.36	37800.22
643.713	37560.91
644.066	37823.05
644.419	37632.54
644.771	37452.43
645.124	37126.11
645.477	37087.02
645.83	36952.79
646.182	36696.3
646.535	36617.65
646.888	36642.06
647.24	36703.53
647.593	36731.32
647.945	36703.3
648.298	36427.38
648.65	36498.33
649.002	36434.61
649.355	36662.85
649.707	36532.91
650.059	36703.75
650.411	37112.1
650.763	37134.48
651.115	37584.86
651.467	37335.6
651.819	37398.2
652.171	37314.13
652.523	37242.27
652.875	37407.24
653.227	37180.35
653.578	37355.03
653.93	37348.48
654.282	37124.08
654.633	37196.85
654.985	37062.84
655.337	37274.13
655.688	37232.1
656.039	37432.55
656.391	37107.81
656.742	37073.91
657.094	37156.85
657.445	37388.48
657.796	37110.52
658.147	37129.28
658.498	37198.88
658.849	37233.91
659.2	37246.56
659.551	37047.25
659.902	37118.43
660.253	37164.76
660.604	37223.29
660.955	36933.12
661.306	37125.44
661.656	37162.27
662.007	37036.4
662.358	37209.73
662.708	37126.57
663.059	37056.96
663.409	36864.43
663.76	37126.11
664.11	37057.42
664.461	37026.23
664.811	37089.51
665.161	37083.18
665.511	36837.76
665.862	36991.43
666.212	37052.67
666.562	37082.27
666.912	36937.42
667.262	36967.7
667.612	36921.6
667.962	36896.52
668.312	36918.89
668.662	37161.37
669.011	37107.13
669.361	37023.52
669.711	36851.55
670.06	36993.91
670.41	36820.59
670.76	36807.25
671.109	36929.51
671.459	36907.81
671.808	36727.93
672.157	36876.63
672.507	36646.13
672.856	36630.31
673.205	36802.05
673.554	36920.02
673.904	36744.43
674.253	36751.89
674.602	36724.09
674.951	36191
675.3	36093.6
675.649	36548.28
675.998	36648.84
676.346	36749.85
676.695	36758.21
677.044	36456.53
677.393	36609.74
677.741	36756.63
678.09	36440.03
678.438	36393.48
678.787	36454.72
679.135	36609.97
679.484	36229.64
679.832	36347.83
680.181	36142.19
680.529	36220.38
680.877	36208.17
681.225	36073.94
681.573	36412.23
681.922	36040.04
682.27	35993.71
682.618	36059.7
682.966	35948.52
683.314	36045.01
683.661	35951.91
684.009	35699.71
684.357	35761.86
684.705	35732.48
685.053	35629.2
685.4	35547.17
685.748	35448.19
686.095	35535.87
686.443	35353.51
686.79	35340.85
687.138	35505.59
687.485	35347.4
687.832	35067.41
688.18	35069.45
688.527	35118.03
688.874	34939.51
689.221	34894.08
689.568	34718.49
689.915	34781.09
690.262	34716.69
690.609	34600.76
690.956	34543.36
691.303	34598.5
691.65	34324.15
691.997	34349.92
692.344	34158.73
692.69	34132.29
693.037	34179.75
693.383	33780.21
693.73	34047.55
694.077	33879.42
694.423	33929.59
694.769	33755.81
695.116	33544.06
695.462	33523.05
695.808	33416.83
696.155	33567.56
696.501	33194.01
696.847	33256.84
697.193	33071.53
697.539	33093.9
697.885	32961.48
698.231	32886
698.577	32819.33
698.923	32788.38
699.269	32654.37
699.614	32415.28
699.96	32327.14
700.306	32398.78
700.651	32213.48
700.997	32086.02
701.342	32279.01
701.688	32086.02
702.033	31971.67
702.379	31952.69
702.724	31706.6
703.069	31879.02
703.415	31493.27
703.76	31502.31
704.105	31472.03
704.45	31390.67
704.795	31327.17
705.14	31177.12
705.485	31159.04
705.83	31026.16
706.175	31035.65
706.52	30990.68
706.865	30832.72
707.209	30877.24
707.554	30739.16
707.899	30728.32
708.243	30637.92
708.588	30685.38
708.932	30414.43
709.277	30445.16
709.621	30385.05
709.966	30354.31
710.31	30337.37
710.654	30134.21
710.998	30221.66
711.342	30135.56
711.687	30086.53
712.031	29943.03
712.375	29714.11
712.719	29839.75
713.063	29707.78
713.407	29877.94
713.75	29621.68
714.094	29650.83
714.438	29461.23
714.782	29611.06
715.125	29427.56
715.469	29459.88
715.812	29311.4
716.156	29064.86
716.499	29127.45
716.843	29169.94
717.186	28951.19
717.53	29214.01
717.873	29034.35
718.216	28974.46
718.559	28830.97
718.902	28716.17
719.246	28841.36
719.589	28718.43
719.932	28604.98
720.275	28588.94
720.617	28630.29
720.96	28492.44
721.303	28543.97
721.646	28493.12
721.989	28411.32
722.331	28432.33
722.674	28351.66
723.016	28400.02
723.359	28326.8
723.701	28091.1
724.044	27980.82
724.386	28033.47
724.729	28064.88
725.071	27896.3
725.413	27956.64
725.755	27918.9
726.097	27856.08
726.439	27650.66
726.782	27741.28
727.124	27784.44
727.465	27705.34
727.807	27647.27
728.149	27612.24
728.491	27630.32
728.833	27608.85
729.175	27503.99
729.516	27416.31
729.858	27422.41
730.199	27485.24
730.541	27383.55
730.882	27432.13
731.224	27413.15
731.565	27353.94
731.906	27264.68
732.248	27315.75
732.589	27180.16
732.93	27074.4
733.271	27125.47
733.612	27111.46
733.953	27122.31
734.294	26912.6
734.635	26979.26
734.976	27004.8
735.317	26917.57
735.658	26859.72
735.999	26806.39
736.339	26764.35
736.68	26806.16
737.021	26675.99
737.361	26704.02
737.702	26663.79
738.042	26703.56
738.383	26584.24
738.723	26625.83
739.063	26586.96
739.404	26634.86
739.744	26469.9
740.084	26426.96
740.424	26443.01
740.764	26300.18
741.104	26526.17
741.444	26358.94
741.784	26151.94
742.124	26320.3
742.464	26329.56
742.804	26137.02
743.143	26085.27
743.483	26130.7
743.823	26051.15
744.162	25949.68
744.502	25994.88
744.841	25891.38
745.181	26099.06
745.52	25882.57
745.86	25997.82
746.199	25920.53
746.538	25932.28
746.877	25939.97
747.216	25846.86
747.556	25753.31
747.895	25953.75
748.234	25746.75
748.573	25750.37
748.911	25660.2
749.25	25724.83
749.589	25511.73
749.928	25548.11
750.267	25655.68
750.605	25523.71
750.944	25364.16
751.283	25502.47
751.621	25502.01
751.96	25361.68
752.298	25446.65
752.636	25347.21
752.975	25327.33
753.313	25153.77
753.651	25320.32
753.989	25183.38
754.327	25135.47
754.666	25026.55
755.004	25140.89
755.342	25194.45
755.679	25091.4
756.017	25060.67
756.355	25055.7
756.693	24954.46
757.031	24948.81
757.368	24839.88
757.706	24827.23
758.044	24784.07
758.381	24730.06
758.719	24698.87
759.056	24704.75
759.394	24551.76
759.731	24477.63
760.068	24434.24
760.405	24357.64
760.743	24372.1
761.08	24468.59
761.417	24337.98
761.754	24258.88
762.091	24257.75
762.428	24180.01
762.765	24024.31
763.102	24134.14
763.438	23852.56
763.775	23829.74
764.112	23903.41
764.449	23935.27
764.785	23800.14
765.122	23665.45
765.458	23683.98
765.795	23533.7
766.131	23571.67
766.467	23507.72
766.804	23315.18
767.14	23273.6
767.476	23255.97
767.812	23139.36
768.148	23194.96
768.485	23093.94
768.821	22899.37
769.157	22867.73
769.492	22855.08
769.828	22819.82
770.164	22627.96
770.5	22565.37
770.836	22570.34
771.171	22434.3
771.507	22382.77
771.842	22195.43
772.178	22242.21
772.513	22213.29
772.849	21991.14
773.184	22016.23
773.519	22004.93
773.855	21799.06
774.19	21798.38
774.525	21823.69
774.86	21728.55
775.195	21653.07
775.53	21518.84
775.865	21472.06
776.2	21397.71
776.535	21214.67
776.87	21245.63
777.205	21129.7
777.539	21006.09
777.874	21059.19
778.209	20849.48
778.543	20834.79
778.878	20658.3
779.212	20670.28
779.547	20725.19
779.881	20657.39
780.215	20463.95
780.55	20478.87
780.884	20441.36
781.218	20208.14
781.552	20293.56
781.886	20196.84
782.22	20042.27
782.554	20026.22
782.888	19848.15
783.222	19935.38
783.556	19770.19
783.889	19669.85
784.223	19505.79
784.557	19579
784.89	19489.29
785.224	19440.48
785.557	19360.71
785.891	19334.04
786.224	19260.82
786.558	19241.61
786.891	19029.64
787.224	18910.1
787.557	18826.71
787.891	18940.38
788.224	18844.56
788.557	18830.1
788.89	18864.45
789.223	18697.22
789.556	18516.89
789.888	18596.21
790.221	18470.56
790.554	18295.65
790.887	18320.96
791.219	18330
791.552	18196.67
791.884	18116.9
792.217	18071.02
792.549	18012.27
792.882	17934.75
793.214	17803.91
793.546	17803.91
793.879	17680.07
794.211	17684.14
794.543	17708.32
794.875	17596.23
795.207	17667.42
795.539	17506.74
795.871	17576.12
796.203	17358.05
796.535	17345.84
796.867	17262.68
797.198	17214.55
797.53	17236.24
797.862	16978.62
798.193	17077.83
798.525	17021.33
798.856	17017.72
799.188	16826.31
799.519	16764.62
799.85	16655.69
800.182	16638.52
800.513	16679.19
800.844	16532.31
801.175	16577.28
801.506	16650.27
801.837	16417.28
802.168	16429.03
802.499	16309.03
802.83	16332.08
803.161	16189.49
803.491	16186.78
803.822	16144.97
804.153	16091.41
804.483	16012.32
804.814	15938.65
805.145	15858.65
805.475	15963.05
805.805	15795.83
806.136	15904.3
806.466	15792.66
806.796	15752.66
807.126	15617.98
807.457	15623.18
807.787	15635.61
808.117	15587.25
808.447	15423.41
808.777	15509.06
809.107	15418.89
809.436	15253.24
809.766	15330.08
810.096	15360.13
810.426	15192.68
810.755	15244.88
811.085	15221.15
811.414	15222.51
811.744	14976.19
812.073	14952.46
812.403	14984.78
812.732	14900.26
813.061	14868.62
813.39	14806.25
813.719	14770.09
814.049	14867.04
814.378	14858
814.707	14625.46
815.036	14733.03
815.365	14643.54
815.693	14533.26
816.022	14527.84
816.351	14464.34
816.68	14428.18
817.008	14465.92
817.337	14379.59
817.665	14288.3
817.994	14328.75
818.322	14343.21
818.651	14229.99
818.979	14208.07
819.307	14222.99
819.636	14146.83
819.964	14109.32
820.292	14194.51
820.62	14163.1
820.948	14055.53
821.276	14201.75
821.604	14116.78
821.932	14128.75
822.259	14141.63
822.587	14047.62
822.915	14025.25
823.243	14017.57
823.57	14030
823.898	14056.66
824.225	13993.16
824.553	13940.96
824.88	14058.47
825.207	13996.55
825.535	14007.4
825.862	14054.63
826.189	13956.1
826.516	14015.31
826.843	14020.28
827.17	14035.42
827.497	14063.22
827.824	14037.46
828.151	14107.06
828.478	13970.56
828.805	14106.83
829.131	13964.24
829.458	13955.65
829.785	13886.05
830.111	13855.31
830.438	13992.03
830.764	14001.3
831.09	13989.77
831.417	13886.95
831.743	13971.02
832.069	13890.57
832.395	13814.41
832.722	13845.82
833.048	13910.68
833.374	13895.31
833.7	13761.08
834.026	13799.72
834.351	13813.96
834.677	13821.42
835.003	13788.87
835.329	13780.06
835.654	13802.43
835.98	13700.52
836.306	13694.41
836.631	13693.51
836.956	13759.27
837.282	13755.43
837.607	13665.71
837.932	13611.7
838.258	13642.66
838.583	13607.41
838.908	13591.37
839.233	13598.37
839.558	13520.18
839.883	13439.96
840.208	13354.31
840.533	13403.35
840.858	13461.88
841.182	13509.79
841.507	13401.09
841.832	13343.91
842.156	13341.88
842.481	13316.12
842.805	13248.78
843.13	13211.04
843.454	13136.46
843.778	13098.27
844.103	13133.98
844.427	13120.87
844.751	13105.73
845.075	13085.39
845.399	13032.96
845.723	12902.12
846.047	12964.94
846.371	12762.01
846.695	12784.61
847.019	12719.98
847.343	12727.21
847.666	12566.08
847.99	12570.6
848.313	12611.96
848.637	12473.2
848.96	12440.66
849.284	12464.84
849.607	12336.71
849.931	12265.52
850.254	12244.73
850.577	12236.15
850.9	12122.03
851.223	12127.22
851.546	12036.38
851.869	11928.81
852.192	11978.07
852.515	11928.36
852.838	11774.69
853.161	11851.52
853.483	11767.01
853.806	11691.75
854.129	11654.69
854.451	11628.93
854.774	11585.32
855.096	11567.69
855.419	11560.23
855.741	11462.38
856.063	11454.7
856.385	11482.27
856.708	11382.16
857.03	11319.56
857.352	11325.66
857.674	11338.09
857.996	11287.92
858.318	11147.59
858.64	11174.25
858.961	11164.99
859.283	11129.51
859.605	11137.19
859.926	11120.92
860.248	11105.1
860.57	11003.41
860.891	11015.84
861.212	11007.25
861.534	10911.44
861.855	10989.63
862.176	10898.33
862.498	10879.57
862.819	10866.92
863.14	10850.19
863.461	10802.51
863.782	10779.01
864.103	10831.66
864.424	10665.57
864.745	10790.31
865.065	10710.09
865.386	10670.31
865.707	10663.76
866.027	10630.99
866.348	10652.23
866.668	10654.49
866.989	10560.26
867.309	10479.58
867.63	10593.48
867.95	10492.01
868.27	10444.1
868.59	10501.5
868.91	10424.9
869.23	10461.96
869.55	10402.52
869.87	10487.04
870.19	10500.6
870.51	10453.14
870.83	10448.17
871.15	10319.14
871.469	10358.91
871.789	10356.2
872.109	10299.25
872.428	10289.98
872.748	10294.28
873.067	10301.51
873.386	10268.97
873.706	10245.24
874.025	10118.24
874.344	10152.81
874.663	10164.56
874.982	10141.96
875.301	10156.2
875.62	10095.64
875.939	10073.94
876.258	10065.81
876.577	10069.65
876.896	10020.61
877.214	9970.44
877.533	10042.08
877.852	9989.2
878.17	9981.74
878.489	9967.28
878.807	9963.66
879.125	9880.73
879.444	9852.93
879.762	9846.83
880.08	9927.28
880.398	9809.54
880.716	9826.72
881.034	9768.42
881.352	9835.08
881.67	9726.38
881.988	9723.22
882.306	9691.13
882.624	9659.49
882.941	9676.67
883.259	9665.14
883.577	9650
883.894	9617.23
884.212	9626.72
884.529	9560.29
884.846	9559.16
885.164	9500.63
885.481	9517.57
885.798	9461.53
886.115	9401.42
886.432	9428.31
886.75	9447.97
887.067	9403.91
887.383	9379.5
887.7	9343.57
888.017	9288.43
888.334	9285.26
888.651	9294.08
888.967	9289.11
889.284	9196.23
889.6	9219.05
889.917	9124.14
890.233	9143.35
890.55	9170.69
890.866	9116.68
891.182	9140.86
891.498	9023.12
891.815	9039.4
892.131	8983.58
892.447	8958.95
892.763	8972.28
893.079	8946.74
893.395	8913.3
893.71	8867.87
894.026	8833.3
894.342	8810.47
894.657	8747.2
894.973	8749.69
895.289	8799.4
895.604	8710.82
895.92	8720.31
896.235	8657.71
896.55	8565.06
896.865	8609.35
897.181	8583.59
897.496	8575.45
897.811	8546.75
898.126	8480.31
898.441	8416.59
898.756	8415.91
899.071	8430.82
899.386	8423.14
899.7	8295.01
900.015	8278.29
900.33	8222.47
900.644	8168.68
900.959	8291.17
901.273	8209.13
901.588	8151.06
901.902	8078.29
902.216	8021.12
902.531	8052.3
902.845	8064.73
903.159	7971.4
903.473	7920.78
903.787	7923.04
904.101	7844.17
904.415	7850.95
904.729	7842.59
905.042	7800.56
905.356	7830.39
905.67	7736.38
905.984	7748.58
906.297	7696.15
906.611	7693.89
906.924	7604.4
907.237	7615.48
907.551	7631.97
907.864	7566.44
908.177	7518.08
908.491	7509.27
908.804	7454.58
909.117	7396.27
909.43	7421.36
909.743	7426.1
910.056	7397.63
910.368	7325.32
910.681	7291.19
910.994	7239.67
911.307	7247.35
911.619	7142.72
911.932	7164.64
912.244	7115.38
912.557	7087.58
912.869	7033.35
913.181	7053.23
913.494	7028.83
913.806	6913.58
914.118	6913.35
914.43	6881.94
914.742	6939.34
915.054	6896.63
915.366	6832
915.678	6794.48
915.99	6808.04
916.302	6705.45
916.613	6803.75
916.925	6666.35
917.236	6658.89
917.548	6597.88
917.859	6642.17
918.171	6568.5
918.482	6576.63
918.794	6514.49
919.105	6513.59
919.416	6472
919.727	6513.81
920.038	6480.82
920.349	6451.21
920.66	6420.48
920.971	6362.4
921.282	6323.76
921.593	6300.26
921.903	6239.69
922.214	6238.56
922.525	6217.32
922.835	6230.66
923.146	6173.71
923.456	6079.92
923.767	6107.49
924.077	6035.41
924.387	6063.2
924.697	6030.66
925.008	6014.16
925.318	6007.84
925.628	5936.65
925.938	5874.73
926.248	5857.11
926.558	5886.48
926.867	5869.31
927.177	5864.56
927.487	5818.24
927.796	5743.44
928.106	5746.15
928.416	5738.46
928.725	5719.26
929.034	5661.86
929.344	5708.41
929.653	5667.05
929.962	5568.3
930.271	5520.62
930.581	5544.8
930.89	5539.6
931.199	5517
931.508	5517.45
931.817	5517
932.125	5435.42
932.434	5434.29
932.743	5403.78
933.051	5329.21
933.36	5314.07
933.669	5310
933.977	5274.52
934.286	5280.17
934.594	5217.57
934.902	5249.44
935.21	5215.31
935.519	5208.99
935.827	5172.38
936.135	5148.88
936.443	5136.67
936.751	5137.8
937.059	5116.33
937.367	5036.79
937.674	5016.45
937.982	5032.49
938.29	4976.68
938.597	5020.29
938.905	4972.61
939.213	4896.45
939.52	4937.36
939.827	4878.37
940.135	4853.06
940.442	4832.05
940.749	4803.35
941.056	4875.66
941.363	4789.56
941.67	4795.44
941.977	4767.87
942.284	4728.77
942.591	4693.75
942.898	4675.89
943.205	4689.9
943.511	4635.9
943.818	4666.85
944.125	4580.53
944.431	4577.14
944.738	4608.78
945.044	4541.66
945.35	4503.02
945.657	4488.55
945.963	4487.65
946.269	4442
946.575	4435.67
946.881	4411.49
947.187	4388.44
947.493	4367.65
947.799	4355.9
948.105	4350.93
948.41	4325.85
948.716	4340.76
949.022	4310.48
949.327	4311.16
949.633	4243.59
949.938	4219.86
950.244	4282.23
950.549	4146.19
950.854	4188.68
951.16	4199.07
951.465	4145.51
951.77	4140.77
952.075	4112.29
952.38	4131.28
952.685	4103.93
952.99	4045.85
953.294	4007.44
953.599	4033.88
953.904	4001.79
954.209	3970.15
954.513	3933.31
954.818	3933.77
955.122	3937.61
955.426	3891.06
955.731	3895.58
956.035	3902.36
956.339	3856.93
956.643	3781.23
956.948	3823.94
957.252	3803.37
957.556	3769.7
957.86	3751.62
958.163	3772.64
958.467	3805.86
958.771	3735.35
959.075	3753.66
959.378	3732.42
959.682	3708.24
959.985	3673.43
960.289	3639.99
960.592	3575.58
960.896	3641.57
961.199	3630.27
961.502	3583.72
961.805	3563.15
962.108	3580.1
962.411	3564.74
962.714	3479.99
963.017	3491.07
963.32	3527.45
963.623	3473.89
963.926	3510.95
964.228	3472.99
964.531	3432.08
964.833	3423.05
965.136	3409.49
965.438	3360.67
965.741	3394.57
966.043	3350.05
966.345	3356.15
966.648	3303.95
966.95	3340.56
967.252	3297.63
967.554	3277.29
967.856	3265.54
968.158	3247.23
968.46	3248.81
968.761	3219.66
969.063	3216.95
969.365	3196.61
969.666	3200.68
969.968	3182.37
970.269	3124.07
970.571	3134.69
970.872	3124.07
971.174	3123.62
971.475	3111.42
971.776	3106.9
972.077	3078.2
972.378	3057.86
972.679	3027.35
972.98	3042.49
973.281	3007.92
973.582	3028.93
973.883	2997.97
974.183	2999.55
974.484	3006.79
974.785	2934.7
975.085	2977.41
975.386	2934.24
975.686	2934.92
975.986	2907.13
976.287	2918.65
976.587	2894.02
976.887	2888.14
977.187	2891.53
977.487	2855.38
977.787	2840.01
978.087	2790.97
978.387	2789.39
978.687	2793.68
978.987	2760.24
979.286	2746.45
979.586	2737.87
979.885	2718.21
980.185	2767.02
980.484	2724.98
980.784	2757.98
981.083	2670.07
981.382	2697.64
981.682	2680.01
981.981	2631.43
982.28	2673.91
982.579	2619.22
982.878	2618.32
983.177	2645.44
983.475	2613.58
983.774	2588.27
984.073	2616.97
984.372	2578.55
984.67	2514.82
984.969	2550.75
985.267	2511.21
985.566	2498.78
985.864	2482.96
986.162	2525.67
986.461	2490.64
986.759	2464.65
987.057	2493.58
987.355	2442.28
987.653	2456.07
987.951	2455.16
988.249	2432.11
988.547	2433.92
988.844	2386.91
989.142	2400.47
989.44	2355.05
989.737	2395.28
990.035	2355.73
990.332	2339.91
990.63	2368.16
990.927	2330.87
991.224	2323.19
991.521	2297.88
991.819	2318.89
992.116	2257.2
992.413	2282.74
992.71	2229.86
993.006	2263.3
993.303	2247.71
993.6	2251.1
993.897	2241.16
994.193	2225.34
994.49	2205.9
994.787	2211.55
995.083	2162.51
995.379	2169.29
995.676	2166.58
995.972	2143.76
996.268	2146.47
996.565	2121.84
996.861	2121.61
997.157	2120.03
997.453	2084.32
997.749	2082.52
998.044	2086.81
998.34	2066.02
998.636	2087.04
998.932	2043.87
999.227	2032.35
999.523	2006.36
999.818	2005.91
1000.114	1998
1000.409	1969.98
1000.704	1981.5
1001	2001.61
1001.295	1950.77
1001.59	1968.17
1001.885	1930.66
1002.18	1949.86
1002.475	1905.57
1002.77	1916.42
1003.065	1890.43
1003.359	1885.01
1003.654	1870.77
1003.949	1875.97
1004.243	1875.74
1004.538	1833.71
1004.832	1831.45
1005.127	1823.99
1005.421	1817.66
1005.715	1811.11
1006.009	1782.18
1006.304	1768.4
1006.598	1809.08
1006.892	1774.05
1007.186	1755.29
1007.48	1760.26
1007.773	1727.04
1008.067	1716.2
1008.361	1716.88
1008.655	1681.62
1008.948	1699.48
1009.242	1689.53
1009.535	1686.37
1009.829	1636.2
1010.122	1673.94
1010.415	1638.23
1010.708	1632.58
1011.001	1639.59
1011.295	1638.91
1011.588	1618.12
1011.881	1556.65
1012.173	1613.83
1012.466	1591
1012.759	1574.05
1013.052	1551.68
1013.344	1570.89
1013.637	1569.08
1013.93	1546.94
1014.222	1551
1014.514	1516.43
1014.807	1498.12
1015.099	1521.4
1015.391	1484.11
1015.683	1491.12
1015.976	1465.81
1016.268	1489.99
1016.56	1435.53
1016.851	1450.44
1017.143	1466.03
1017.435	1441.63
1017.727	1423.78
1018.018	1417.67
1018.31	1430.1
1018.602	1407.05
1018.893	1392.36
1019.185	1362.76
1019.476	1360.95
1019.767	1374.96
1020.058	1364.34
1020.35	1337.9
1020.641	1332.25
1020.932	1312.14
1021.223	1304.23
1021.514	1303.55
1021.804	1299.49
1022.095	1294.51
1022.386	1272.59
1022.677	1280.28
1022.967	1282.54
1023.258	1264.91
1023.548	1250.45
1023.839	1278.7
1024.129	1247.28
1024.419	1242.76
1024.709	1237.11
1025	1196.21
1025.29	1199.83
1025.58	1189.88
1025.87	1196.66
1026.16	1213.16
1026.449	1184.69
1026.739	1160.51
1027.029	1177.45
1027.319	1151.24
1027.608	1134.97
1027.898	1162.54
1028.187	1150.11
1028.477	1111.92
1028.766	1111.92
1029.055	1116.89
1029.344	1135.42
1029.634	1100.85
1029.923	1096.33
1030.212	1091.13
1030.501	1087.74
1030.79	1082.77
1031.078	1061.53
1031.367	1055.65
1031.656	1048.42
1031.945	1056.33
1032.233	1034.41
1032.522	1031.02
1032.81	1019.72
1033.099	1025.82
1033.387	1032.6
1033.675	995.54
1033.963	986.73
1034.251	991.47
1034.54	984.47
1034.828	998.25
1035.116	995.99
1035.403	948.76
1035.691	967.06
1035.979	961.87
1036.267	926.61
1036.554	948.08
1036.842	938.14
1037.129	939.95
1037.417	910.8
1037.704	888.42
1037.992	915.54
1038.279	920.29
1038.566	925.48
1038.853	925.48
1039.14	925.48
