Data from hue_38_FLMS001491_00060.txt Node
Date: Tue Feb 07 17:31:42 GMT 2017
User: dcchb
Spectrometer: FLMS00149
Trigger mode: 0
Integration Time (sec): 2.000000E-2
Scans to average: 10
Electric dark correction enabled: true
Nonlinearity correction enabled: false
Boxcar width: 0
XAxis mode: Wavelengths
Number of Pixels in Spectrum: 2048
>>>>>Begin Spectral Data<<<<<
341.393	-6.62
341.776	-6.62
342.16	-6.62
342.543	-66.06
342.927	-77.58
343.31	-69.45
343.693	-69.22
344.077	-68.77
344.46	-71.48
344.843	-52.27
345.226	-50.24
345.61	-22.89
345.993	-7.98
346.376	-5.49
346.759	16.88
347.142	39.48
347.525	19.14
347.908	52.36
348.291	91.23
348.674	94.62
349.057	104.11
349.44	130.32
349.823	136.65
350.206	156.54
350.588	200.83
350.971	209.19
351.354	232.01
351.737	228.62
352.119	246.48
352.502	258.45
352.884	259.81
353.267	301.39
353.65	293.48
354.032	306.36
354.414	317.44
354.797	296.19
355.179	317.89
355.562	338.23
355.944	333.48
356.326	345.68
356.709	335.29
357.091	327.38
357.473	344.33
357.855	331.67
358.238	354.95
358.62	353.14
359.002	317.89
359.384	334.38
359.766	349.98
360.148	314.5
360.53	320.82
360.912	334.84
361.294	334.61
361.676	336.64
362.057	333.48
362.439	336.87
362.821	342.52
363.203	318.79
363.584	326.7
363.966	318.79
364.348	316.31
364.729	345.68
365.111	319.02
365.493	314.5
365.874	324.67
366.256	308.85
366.637	341.39
367.019	324.44
367.4	320.37
367.781	333.03
368.163	325.57
368.544	317.66
368.925	319.69
369.306	307.72
369.688	286.02
370.069	311.11
370.45	316.98
370.831	299.81
371.212	322.41
371.593	290.54
371.974	300.94
372.355	316.76
372.736	307.72
373.117	319.24
373.498	297.77
373.879	311.11
374.26	313.59
374.641	309.07
375.021	320.37
375.402	339.81
375.783	340.26
376.163	341.62
376.544	326.7
376.925	313.82
377.305	328.51
377.686	331.22
378.066	345.91
378.447	327.83
378.827	330.77
379.208	332.12
379.588	343.65
379.968	336.19
380.349	332.58
380.729	334.84
381.109	336.42
381.489	340.71
381.87	345.46
382.25	329.86
382.63	334.84
383.01	332.8
383.39	353.37
383.77	342.29
384.15	348.17
384.53	363.99
384.91	339.13
385.29	340.71
385.67	357.66
386.049	346.81
386.429	368.51
386.809	387.26
387.189	370.32
387.568	365.57
387.948	345.01
388.328	351.33
388.707	347.26
389.087	347.49
389.466	373.7
389.846	354.95
390.225	393.14
390.605	364.67
390.984	384.78
391.363	393.37
391.743	379.81
392.122	389.52
392.501	371.67
392.881	370.99
393.26	368.06
393.639	382.74
394.018	382.97
394.397	371.67
394.776	390.43
395.155	378.68
395.534	373.93
395.913	393.14
396.292	375.06
396.671	376.64
397.05	391.33
397.429	381.84
397.808	390.88
398.186	387.94
398.565	381.16
398.944	412.35
399.323	386.13
399.701	399.92
400.08	399.92
400.458	402.63
400.837	410.54
401.215	412.12
401.594	413.03
401.972	396.76
402.351	431.1
402.729	418.22
403.107	399.24
403.486	423.42
403.864	417.77
404.242	435.4
404.62	422.74
404.999	416.42
405.377	411.9
405.755	429.97
406.133	443.76
406.511	445.12
406.889	432.01
407.267	452.35
407.645	457.09
408.023	448.28
408.401	439.69
408.779	460.03
409.156	442.4
409.534	436.75
409.912	441.73
410.29	458.22
410.667	450.76
411.045	461.39
411.422	472.69
411.8	476.53
412.178	464.32
412.555	482.85
412.933	491.67
413.31	486.47
413.687	495.06
414.065	498.67
414.442	497.54
414.819	495.74
415.197	494.38
415.574	497.77
415.951	499.8
416.328	521.72
416.705	480.14
417.082	491.67
417.46	537.99
417.837	498.9
418.214	526.02
418.591	509.97
418.967	526.24
419.344	533.7
419.721	542.51
420.098	515.4
420.475	526.02
420.852	554.49
421.228	535.51
421.605	551.55
421.982	550.65
422.358	545
422.735	560.37
423.111	568.95
423.488	577.99
423.864	574.38
424.241	581.38
424.617	558.11
424.994	571.44
425.37	574.6
425.746	584.55
426.123	592.46
426.499	571.44
426.875	594.04
427.251	603.76
427.627	634.71
428.003	598.56
428.379	622.51
428.756	632.91
429.132	614.6
429.507	631.33
429.883	609.63
430.259	651.21
430.635	642.4
431.011	643.53
431.387	642.62
431.763	671.32
432.138	665.45
432.514	670.19
432.89	670.87
433.265	691.44
433.641	691.66
434.016	691.44
434.392	705
434.767	707.93
435.143	693.47
435.518	708.84
435.894	711.1
436.269	743.64
436.644	764.66
437.02	744.99
437.395	724.88
437.77	767.82
438.145	757.42
438.52	767.14
438.895	780.47
439.271	787.93
439.646	760.81
440.021	793.35
440.395	779.57
440.77	791.55
441.145	817.76
441.52	798.55
441.895	817.08
442.27	840.59
442.645	806.91
443.019	832.22
443.394	807.14
443.769	849.17
444.143	836.74
444.518	848.04
444.892	856.4
445.267	843.97
445.641	853.69
446.016	843.07
446.39	866.35
446.764	852.79
447.139	868.83
447.513	889.4
447.887	869.29
448.262	872.67
448.636	870.87
449.01	903.18
449.384	895.5
449.758	917.19
450.132	915.61
450.506	942.28
450.88	940.02
451.254	948.61
451.628	974.59
452.002	961.26
452.376	970.07
452.75	948.15
453.123	946.57
453.497	993.12
453.871	944.09
454.244	994.25
454.618	1026.8
454.992	1012.11
455.365	1035.16
455.739	1036.96
456.112	1072.9
456.486	1038.55
456.859	1059.11
457.232	1080.35
457.606	1091.88
457.979	1093.23
458.352	1114.48
458.725	1135.27
459.099	1126.68
459.472	1126
459.845	1181.37
460.218	1163.51
460.591	1188.15
460.964	1215.26
461.337	1209.39
461.71	1232.21
462.083	1258.43
462.456	1233.34
462.829	1225.21
463.201	1295.71
463.574	1293
463.947	1284.87
464.32	1329.61
464.692	1344.98
465.065	1349.27
465.438	1389.27
465.81	1385.43
466.183	1392.89
466.555	1421.81
466.928	1444.19
467.3	1441.02
467.672	1520.79
468.045	1544.97
468.417	1520.34
468.789	1540.23
469.161	1556.72
469.534	1600.79
469.906	1608.93
470.278	1648.7
470.65	1664.29
471.022	1710.17
471.394	1731.41
471.766	1764.18
472.138	1784.97
472.51	1826.55
472.882	1853.21
473.253	1907.68
473.625	1934.12
473.997	1977.73
474.369	1988.58
474.74	2029.48
475.112	2073.77
475.484	2115.13
475.855	2164.62
476.227	2176.82
476.598	2268.8
476.97	2288.91
477.341	2340.88
477.713	2399.19
478.084	2433.54
478.455	2521.45
478.827	2548.56
479.198	2663.59
479.569	2699.75
479.94	2767.54
480.311	2849.12
480.682	2922.79
481.053	3033.75
481.424	3103.58
481.795	3149.45
482.166	3196.23
482.537	3285.94
482.908	3392.16
483.279	3471.02
483.65	3589.67
484.021	3656.56
484.391	3695.43
484.762	3777.23
485.133	3853.16
485.503	3951.24
485.874	4061.74
486.244	4150.1
486.615	4274.17
486.985	4366.82
487.356	4506.25
487.726	4551.22
488.097	4652.46
488.467	4752.35
488.837	4850.42
489.207	4981.27
489.578	5110.98
489.948	5193.47
490.318	5330.86
490.688	5367.92
491.058	5499.67
491.428	5630.29
491.798	5747.8
492.168	5924.97
492.538	6043.61
492.908	6082.71
493.278	6216.49
493.648	6273.89
494.017	6355.47
494.387	6522.92
494.757	6648.34
495.126	6676.59
495.496	6764.27
495.866	6860.09
496.235	7032.29
496.605	7094.88
496.974	7185.96
497.344	7355.67
497.713	7407.64
498.082	7481.99
498.452	7584.81
498.821	7732.61
499.19	7743
499.559	7884.02
499.928	7941.42
500.298	8080.85
500.667	8202.2
501.036	8230.45
501.405	8428.41
501.774	8402.87
502.143	8439.03
502.512	8573.49
502.88	8696.65
503.249	8684.9
503.618	8869.53
503.987	8927.6
504.356	9021.84
504.724	9059.58
505.093	9149.75
505.462	9211.89
505.83	9304.77
506.199	9344.09
506.567	9525.33
506.936	9542.5
507.304	9634.93
507.672	9701.14
508.041	9826.79
508.409	9950.85
508.777	9937.97
509.145	9986.56
509.514	10105.2
509.882	10206.44
510.25	10208.93
510.618	10347.91
510.986	10373.67
511.354	10457.73
511.722	10583.83
512.09	10643.04
512.458	10623.38
512.826	10763.49
513.193	10841.23
513.561	10820.44
513.929	10990.37
514.297	11058.85
514.664	11163.93
515.032	11200.76
515.4	11335.22
515.767	11377.48
516.135	11437.59
516.502	11413.64
516.869	11539.74
517.237	11608.66
517.604	11591.94
517.972	11770.69
518.339	11917.58
518.706	11828.54
519.073	11893.18
519.44	11939.05
519.808	12122.77
520.175	12134.98
520.542	12271.25
520.909	12362.09
521.276	12377.91
521.643	12470.34
522.009	12625.36
522.376	12654.51
522.743	12740.61
523.11	12799.59
523.477	12930.66
523.843	12969.08
524.21	13105.35
524.577	13183.76
524.943	13212.92
525.31	13368.17
525.676	13433.25
526.043	13640.02
526.409	13564.77
526.776	13758.66
527.142	13735.84
527.508	13828.72
527.874	13908.04
528.241	13934.25
528.607	14027.81
528.973	14121.14
529.339	14147.35
529.705	14385.09
530.071	14451.53
530.437	14478.42
530.803	14570.62
531.169	14681.13
531.535	14642.03
531.901	14728.58
532.267	14796.83
532.632	14914.57
532.998	14983.94
533.364	15052.19
533.73	15016.26
534.095	15188.91
534.461	15249.47
534.826	15347.1
535.192	15370.15
535.557	15519.3
535.923	15533.08
536.288	15585.73
536.653	15661.44
537.019	15711.15
537.384	15731.95
537.749	15775.33
538.114	15895.78
538.479	15905.5
538.845	15963.8
539.21	15998.38
539.575	16104.14
539.94	16212.38
540.305	16236.56
540.67	16240.63
541.034	16251.93
541.399	16412.83
541.764	16443.11
542.129	16521.53
542.494	16540.06
542.858	16578.7
543.223	16632.94
543.587	16773.95
543.952	16796.32
544.316	16796.55
544.681	16826.15
545.045	16916.77
545.41	17082.87
545.774	17107.95
546.138	17127.16
546.503	17168.97
546.867	17239.02
547.231	17349.76
547.595	17501.84
547.959	17533.25
548.324	17511.56
548.688	17567.15
549.052	17659.58
549.416	17600.6
549.779	17633.59
550.143	17674.94
550.507	17876.52
550.871	17800.37
551.235	17976.86
551.599	18013.92
551.962	18100.24
552.326	18168.27
552.689	18164.42
553.053	18273.8
553.417	18244.87
553.78	18452.33
554.143	18398.09
554.507	18521.93
554.87	18639.67
555.234	18782.26
555.597	18662.04
555.96	18688.03
556.323	18871.98
556.686	18862.71
557.05	19018.64
557.413	18975.48
557.776	18995.81
558.139	19115.13
558.502	19224.28
558.865	19299.99
559.228	19407.55
559.59	19505.63
559.953	19508.57
560.316	19661.33
560.679	19674.67
561.041	19788.11
561.404	19809.58
561.767	19958.5
562.129	19909.24
562.492	20097.25
562.854	20076.24
563.217	20127.08
563.579	20193.52
563.941	20288.44
564.304	20252.05
564.666	20379.28
565.028	20563.46
565.39	20588.54
565.753	20669.22
566.115	20706.28
566.477	20836.9
566.839	20928.87
567.201	21091.58
567.563	21047.06
567.925	21182.65
568.287	21188.52
568.648	21211.35
569.01	21353.04
569.372	21566.14
569.734	21487.95
570.095	21633.94
570.457	21838
570.819	21694.27
571.18	21806.14
571.542	21985.11
571.903	22075.73
572.265	22064.43
572.626	22314.14
572.987	22256.52
573.349	22453.12
573.71	22552.1
574.071	22582.16
574.432	22734.25
574.794	22917.29
575.155	22935.37
575.516	23002.49
575.877	23042.94
576.238	23161.35
576.599	23357.96
576.96	23458.52
577.32	23543.72
577.681	23723.83
578.042	23786.87
578.403	24019.64
578.763	23950.94
579.124	24221.89
579.485	24412.39
579.845	24569.9
580.206	24640.64
580.566	24799.96
580.927	24954.98
581.287	25201.75
581.648	25221.87
582.008	25519.71
582.368	25663.21
582.728	25801.96
583.089	26043.54
583.449	26110.88
583.809	26371.89
584.169	26520.14
584.529	26595.84
584.889	27020.69
585.249	27100.01
585.609	27343.39
585.969	27538.64
586.329	27616.15
586.688	28014.11
587.048	28235.57
587.408	28282.8
587.768	28536.58
588.127	28664.94
588.487	28838.49
588.846	29233.29
589.206	29136.79
589.565	29539.94
589.925	29835.08
590.284	30108.74
590.643	30313.26
591.003	30588.73
591.362	30767.48
591.721	30923.64
592.08	31165.66
592.44	31364.3
592.799	31547.57
593.158	31914.8
593.517	32008.81
593.876	32323.83
594.235	32336.93
594.593	32565.63
594.952	32907.76
595.311	33105.73
595.67	33353.4
596.029	33692.83
596.387	33843.56
596.746	34115.64
597.104	34142.08
597.463	34313.38
597.822	34778.22
598.18	34806.25
598.538	34853.93
598.897	35325.1
599.255	35161.49
599.613	35930.28
599.972	35707.92
600.33	36018.42
600.688	36167.11
601.046	36506.99
601.404	36721.9
601.762	36649.81
602.12	36953.31
602.478	37216.35
602.836	37367.31
603.194	37346.07
603.552	37423.8
603.91	37553.07
604.268	37864.24
604.625	37902.21
604.983	38217.46
605.341	38188.76
605.698	38567.28
606.056	38574.73
606.413	38706.03
606.771	38953.71
607.128	39096.98
607.485	39174.94
607.843	39276.86
608.2	39559.34
608.557	39758.21
608.914	39840.92
609.272	40168.36
609.629	40201.13
609.986	40486.1
610.343	40407.68
610.7	40726.54
611.057	40715.02
611.414	40866.88
611.771	40949.14
612.127	41245.4
612.484	41226.87
612.841	41433.19
613.198	41440.87
613.554	41545.96
613.911	41879.05
614.267	41841.54
614.624	41912.73
614.98	42032.27
615.337	42292.6
615.693	42410.79
616.05	42198.82
616.406	42662.31
616.762	42578.92
617.118	42725.59
617.475	42888.52
617.831	42853.04
618.187	42880.16
618.543	43035.18
618.899	43338
619.255	43335.51
619.611	43334.38
619.967	43491.22
620.323	43661.15
620.678	43538.45
621.034	43611.44
621.39	43612.57
621.746	43571.67
622.101	44140.24
622.457	43842.84
622.812	44033.8
623.168	44110.18
623.523	44119.22
623.879	44336.84
624.234	44124.64
624.589	44146.79
624.945	44233.34
625.3	44318.76
625.655	44348.59
626.01	44510.17
626.365	44464.3
626.72	44428.37
627.075	44434.47
627.43	44560.34
627.785	44474.47
628.14	44654.12
628.495	44725.99
628.85	44629.04
629.205	44560.57
629.559	44776.61
629.914	44527.35
630.269	44567.8
630.623	44654.12
630.978	44507.23
631.332	44704.29
631.687	44933.44
632.041	44706.32
632.396	44692.31
632.75	44671.07
633.104	44749.94
633.459	44690.73
633.813	44631.98
634.167	44798.98
634.521	44726.89
634.875	44732.31
635.229	44751.75
635.583	44637.63
635.937	44587.46
636.291	44636.04
636.645	44605.99
636.999	44536.84
637.352	44649.38
637.706	44475.82
638.06	44585.2
638.413	44648.02
638.767	44414.58
639.121	44524.63
639.474	44396.73
639.828	44433.11
640.181	44342.72
640.534	44330.52
640.888	44339.55
641.241	44176.85
641.594	44292.1
641.947	44252.78
642.301	44306.79
642.654	44305.88
643.007	44202.16
643.36	44251.87
643.713	44135.72
644.066	44356.5
644.419	44018.43
644.771	43846.23
645.124	43531.89
645.477	43412.8
645.83	43194.5
646.182	43132.58
646.535	43006.26
646.888	43146.14
647.24	42904.34
647.593	43074.28
647.945	42948.4
648.298	42760.84
648.65	42785.02
649.002	42786.83
649.355	42968.52
649.707	42730.33
650.059	43080.38
650.411	43514.27
650.763	43541.16
651.115	43853.24
651.467	43772.34
651.819	43733.02
652.171	43700.93
652.523	43595.17
652.875	43589.74
653.227	43508.62
653.578	43718.33
653.93	43656.63
654.282	43366.92
654.633	43299.81
654.985	43462.97
655.337	43396.75
655.688	43400.82
656.039	43604.21
656.391	43217.1
656.742	43353.37
657.094	43288.28
657.445	43561.04
657.796	43433.82
658.147	43278.34
658.498	43329.19
658.849	43438.56
659.2	43425
659.551	43174.84
659.902	43347.72
660.253	43246.02
660.604	43394.27
660.955	43138.68
661.306	43295.97
661.656	43155.63
662.007	43276.98
662.358	43158.34
662.708	43178.46
663.059	43155.18
663.409	43047.39
663.76	43171.22
664.11	43134.61
664.461	43171.9
664.811	43236.08
665.161	43175.52
665.511	43060.27
665.862	43080.6
666.212	43208.96
666.562	43125.58
666.912	43179.36
667.262	42985.92
667.612	43177.33
667.962	43124.9
668.312	43087.61
668.662	43170.77
669.011	43212.8
669.361	43009.65
669.711	43117.21
670.06	42911.34
670.41	42858.46
670.76	42953.38
671.109	43059.59
671.459	42954.51
671.808	42975.97
672.157	42971.45
672.507	42622.54
672.856	42741.4
673.205	42873.15
673.554	42813.04
673.904	42735.75
674.253	43051.45
674.602	42938.46
674.951	42293.05
675.3	42029.56
675.649	42614.85
675.998	42757
676.346	42645.59
676.695	42844.9
677.044	42521.3
677.393	42546.16
677.741	42615.53
678.09	42461.64
678.438	42515.87
678.787	42359.27
679.135	42563.78
679.484	42315.43
679.832	42373.73
680.181	42182.78
680.529	42457.34
680.877	42233.85
681.225	42082.89
681.573	42502.31
681.922	42143.45
682.27	42051.71
682.618	42031.82
682.966	41935.78
683.314	41855.78
683.661	41917.02
684.009	41640.64
684.357	41619.85
684.705	41541.89
685.053	41522.23
685.4	41466.86
685.748	41323.36
686.095	41441.78
686.443	41198.62
686.79	41258.73
687.138	41207.43
687.485	41185.06
687.832	41024.16
688.18	41138.96
688.527	40970.15
688.874	40933.32
689.221	40849.48
689.568	40708.69
689.915	40658.52
690.262	40741.23
690.609	40543.5
690.956	40364.07
691.303	40354.35
691.65	40170.4
691.997	40149.16
692.344	39827.81
692.69	39908.71
693.037	39941.03
693.383	39699.22
693.73	39632.56
694.077	39533.35
694.423	39486.57
694.769	39391.44
695.116	39372.23
695.462	39415.16
695.808	39095.4
696.155	39133.36
696.501	38920.26
696.847	39041.16
697.193	38753.71
697.539	38892.69
697.885	38520.5
698.231	38332.93
698.577	38567.95
698.923	38350.79
699.269	38214.97
699.614	37928.88
699.96	38069.66
700.306	38126.61
700.651	37916.22
700.997	37751.25
701.342	37735.21
701.688	37743.34
702.033	37624.25
702.379	37531.15
702.724	37339.51
703.069	37505.16
703.415	37086.64
703.76	37076.47
704.105	37152.62
704.45	37021.1
704.795	36722.81
705.14	36756.25
705.485	36744.05
705.83	36585.86
706.175	36535.92
706.52	36356.49
706.865	36406.43
707.209	36279.88
707.554	36194.01
707.899	36303.61
708.243	36032.2
708.588	36110.17
708.932	35757.86
709.277	35795.6
709.621	35847.35
709.966	35533.91
710.31	35549.73
710.654	35201.26
710.998	35370.3
711.342	35306.35
711.687	35253.01
712.031	35262.96
712.375	35000.14
712.719	35111.1
713.063	35111.1
713.407	35093.47
713.75	34813.48
714.094	34935.06
714.438	34664.55
714.782	34649.87
715.125	34613.71
715.469	34690.54
715.812	34429.98
716.156	34234.96
716.499	34142.31
716.843	34319.93
717.186	34069.99
717.53	34354.28
717.873	34073.84
718.216	34042.88
718.559	33925.59
718.902	33800.17
719.246	33902.77
719.589	33799.27
719.932	33599.95
720.275	33819.83
720.617	33572.15
720.96	33503.68
721.303	33544.81
721.646	33577.35
721.989	33253.07
722.331	33413.97
722.674	33346.62
723.016	33361.31
723.359	33233.41
723.701	33313.18
724.044	33035.67
724.386	32951.38
724.729	33072.73
725.071	32905.5
725.413	32904.37
725.755	32862.57
726.097	32676.58
726.439	32649.01
726.782	32597.26
727.124	32764.27
727.465	32562.01
727.807	32511.16
728.149	32529.24
728.491	32426.42
728.833	32389.13
729.175	32187.56
729.516	32265.3
729.858	32169.48
730.199	32109.82
730.541	32120.21
730.882	32046.54
731.224	32108.24
731.565	31868.92
731.906	31944.63
732.248	31911.18
732.589	31809.49
732.93	31697.85
733.271	31707.34
733.612	31910.05
733.953	31738.53
734.294	31663.5
734.635	31431.65
734.976	31668.25
735.317	31403.4
735.658	31355.72
735.999	31454.24
736.339	31320.46
736.68	31349.84
737.021	31313.91
737.361	31126.12
737.702	31340.35
738.042	31216.96
738.383	31099.45
738.723	31214.93
739.063	30979.68
739.404	31053.12
739.744	30917.31
740.084	30868.27
740.424	30871.21
740.764	30823.75
741.104	30856.07
741.444	30593.25
741.784	30665.56
742.124	30646.81
742.464	30631.44
742.804	30609.75
743.143	30460.82
743.483	30546.47
743.823	30288.4
744.162	30315.29
744.502	30261.73
744.841	30125.01
745.181	30390.32
745.52	30290.21
745.86	30172.02
746.199	30195.29
746.538	30066.26
746.877	30194.84
747.216	30194.84
747.556	29995.07
747.895	29961.18
748.234	29929.76
748.573	29865.13
748.911	29902.19
749.25	29766.15
749.589	29584.91
749.928	29674.63
750.267	29705.81
750.605	29632.6
750.944	29391.02
751.283	29476.89
751.621	29653.61
751.96	29434.86
752.298	29339.27
752.636	29416.78
752.975	29166.39
753.313	29061.54
753.651	29154.87
753.989	28995.78
754.327	28896.34
754.666	28890.24
755.004	28930.69
755.342	28911.49
755.679	28850.24
756.017	28714.65
756.355	28796.01
756.693	28626.75
757.031	28529.12
757.368	28429.01
757.706	28464.27
758.044	28339.52
758.381	28352.63
758.719	28215.23
759.056	28257.27
759.394	28091.17
759.731	28012.3
760.068	27920.78
760.405	27948.8
760.743	27851.4
761.08	27821.12
761.417	27630.84
761.754	27630.39
762.091	27555.82
762.428	27484.63
762.765	27340.23
763.102	27511.07
763.438	27220.23
763.775	27219.55
764.112	27088.93
764.449	27181.14
764.785	26981.59
765.122	26911.31
765.458	26839
765.795	26783.63
766.131	26530.53
766.467	26544.54
766.804	26424.09
767.14	26240.82
767.476	26382.06
767.812	26261.16
768.148	26117.89
768.485	26011
768.821	25858.68
769.157	25774.84
769.492	25717.45
769.828	25919.7
770.164	25583.66
770.5	25518.58
770.836	25395.65
771.171	25372.6
771.507	25276.78
771.842	25090.34
772.178	25005.83
772.513	25010.12
772.849	24852.84
773.184	24808.99
773.519	24902.33
773.855	24669.11
774.19	24575.1
774.525	24491.26
774.86	24418.27
775.195	24284.94
775.53	24305.05
775.865	24192.51
776.2	24098.28
776.535	23877.49
776.87	23865.52
777.205	23754.56
777.539	23703.49
777.874	23722.92
778.209	23499.42
778.543	23332.42
778.878	23357.28
779.212	23337.62
779.547	23253.56
779.881	23241.13
780.215	23053.33
780.55	23159.09
780.884	22953.45
781.218	22976.05
781.552	22858.99
781.886	22709.84
782.22	22543.29
782.554	22526.12
782.888	22336.74
783.222	22205
783.556	22067.37
783.889	22216.07
784.223	22036.86
784.557	21942.86
784.89	21953.93
785.224	21800.03
785.557	21698.34
785.891	21631.23
786.224	21614.95
786.558	21603.66
786.891	21306.49
787.224	21271.91
787.557	21222.65
787.891	21132.26
788.224	21193.95
788.557	21116.44
788.89	21081.18
789.223	21080.73
789.556	20888.42
789.888	20824.24
790.221	20805.71
790.554	20638.03
790.887	20605.72
791.219	20508.09
791.552	20434.42
791.884	20369.56
792.217	20255.89
792.549	20226.52
792.882	20167.76
793.214	20091.83
793.546	20193.3
793.879	19980.87
794.211	19786.08
794.543	19850.48
794.875	19818.84
795.207	19846.19
795.539	19726.87
795.871	19628.11
796.203	19384.5
796.535	19491.39
796.867	19284.39
797.198	19353.09
797.53	19215.7
797.862	19230.84
798.193	19137.05
798.525	19057.51
798.856	19132.08
799.188	18921.01
799.519	18903.61
799.85	18784.29
800.182	18734.35
800.513	18776.16
800.844	18493
801.175	18676.95
801.506	18581.14
801.837	18489.39
802.168	18342.05
802.499	18395.6
802.83	18273.35
803.161	18269.05
803.491	18241.71
803.822	18186.34
804.153	18106.57
804.483	18041.49
804.814	17956.29
805.145	17885.11
805.475	17962.62
805.805	17814.83
806.136	17892.34
806.466	17781.83
806.796	17781.16
807.126	17562.86
807.457	17557.21
807.787	17540.03
808.117	17443.09
808.447	17418.45
808.777	17401.96
809.107	17313.15
809.436	17253.04
809.766	17251.91
810.096	17145.92
810.426	17180.04
810.755	17115.86
811.085	17092.81
811.414	17028.18
811.744	16900.05
812.073	16837.68
812.403	16873.84
812.732	16725.37
813.061	16782.09
813.39	16628.87
813.719	16643.79
814.049	16754.74
814.378	16595.43
814.707	16466.16
815.036	16489.44
815.365	16398.82
815.693	16301.65
816.022	16396.79
816.351	16274.76
816.68	16210.8
817.008	16199.5
817.337	16124.03
817.665	16041.99
817.994	16029.56
818.322	16069.56
818.651	15909.79
818.979	15973.75
819.307	16032.5
819.636	15944.37
819.964	15816.46
820.292	15940.08
820.62	15842.9
820.948	15782.11
821.276	15806.97
821.604	15751.61
821.932	15824.37
822.259	15812.62
822.587	15698.73
822.915	15721.32
823.243	15688.78
823.57	15724.71
823.898	15749.8
824.225	15656.92
824.553	15691.72
824.88	15737.37
825.207	15756.58
825.535	15709.8
825.862	15680.42
826.189	15624.38
826.516	15801.77
826.843	15781.21
827.17	15732.17
827.497	15709.35
827.824	15691.27
828.151	15707.31
828.478	15718.39
828.805	15778.27
829.131	15676.81
829.458	15716.13
829.785	15575.79
830.111	15687.43
830.438	15687.43
830.764	15647.88
831.09	15655.79
831.417	15491.5
831.743	15593.42
832.069	15658.73
832.395	15585.06
832.722	15617.37
833.048	15604.72
833.374	15553.87
833.7	15544.38
834.026	15460.99
834.351	15559.75
834.677	15502.35
835.003	15604.72
835.329	15567.2
835.654	15456.02
835.98	15345.51
836.306	15414.21
836.631	15320.43
836.956	15342.58
837.282	15386.64
837.607	15356.81
837.932	15239.3
838.258	15296.02
838.583	15273.65
838.908	15130.83
839.233	15199.98
839.558	15123.83
839.883	15151.85
840.208	15033.21
840.533	14985.07
840.858	15039.53
841.182	15028.91
841.507	15025.75
841.832	14887
842.156	14890.16
842.481	14973.55
842.805	14884.06
843.13	14831.18
843.454	14869.59
843.778	14765.87
844.103	14658.98
844.427	14609.49
844.751	14683.84
845.075	14644.97
845.399	14546.44
845.723	14534.46
846.047	14509.15
846.371	14354.35
846.695	14405.88
847.019	14261.25
847.343	14219.89
847.666	14145.32
847.99	14091.76
848.313	14141.48
848.637	13934.25
848.96	14004.53
849.284	13912.56
849.607	13864.88
849.931	13774.03
850.254	13713.47
850.577	13716.86
850.9	13591.44
851.223	13542.4
851.546	13486.13
851.869	13416.53
852.192	13384.66
852.515	13340.14
852.838	13327.49
853.161	13233.48
853.483	13183.54
853.806	13162.97
854.129	13163.43
854.451	13085.24
854.774	13057.21
855.096	12933.6
855.419	12936.09
855.741	12870.78
856.063	12871.68
856.385	12795.98
856.708	12790.55
857.03	12714.4
857.352	12699.71
857.674	12642.31
857.996	12588.75
858.318	12541.07
858.64	12485.93
858.961	12496.1
859.283	12499.26
859.605	12335.65
859.926	12441.86
860.248	12381.98
860.57	12308.76
860.891	12337.46
861.212	12348.76
861.534	12263.56
861.855	12129.1
862.176	12225.6
862.498	12219.95
862.819	12184.47
863.14	12134.53
863.461	12110.57
863.782	12037.58
864.103	12036.9
864.424	12023.34
864.745	12011.59
865.065	12037.8
865.386	11918.03
865.707	11921.2
866.027	11973.63
866.348	11963.91
866.668	11879.39
866.989	11845.27
867.309	11760.52
867.63	11817.47
867.95	11791.48
868.27	11743.8
868.59	11720.07
868.91	11666.29
869.23	11714.42
869.55	11678.27
869.87	11674.2
870.19	11638.95
870.51	11585.39
870.83	11637.36
871.15	11554.65
871.469	11571.38
871.789	11535.45
872.109	11536.58
872.428	11488.21
872.748	11481.89
873.067	11449.8
873.386	11449.57
873.706	11460.87
874.025	11352.17
874.344	11374.32
874.663	11384.71
874.982	11366.18
875.301	11382.91
875.62	11312.63
875.939	11258.16
876.258	11261.33
876.577	11297.71
876.896	11279.18
877.214	11205.28
877.533	11231.27
877.852	11100.65
878.17	11111.05
878.489	11153.76
878.807	11129.13
879.125	11112.63
879.444	11095.91
879.762	11056.36
880.08	11080.54
880.398	10928
880.716	11050.49
881.034	10959.87
881.352	10979.98
881.67	10901.34
881.988	10930.94
882.306	10884.84
882.624	10946.99
882.941	10796.71
883.259	10724.85
883.577	10784.96
883.894	10777.95
884.212	10759.19
884.529	10782.24
884.846	10691.4
885.164	10673.55
885.481	10598.07
885.798	10610.5
886.115	10546.09
886.432	10540.9
886.75	10586.09
887.067	10491.63
887.383	10501.35
887.7	10498.41
888.017	10480.78
888.334	10416.6
888.651	10362.82
888.967	10380.45
889.284	10372.54
889.6	10261.13
889.917	10230.85
890.233	10251.64
890.55	10191.3
890.866	10178.64
891.182	10169.83
891.498	10178.42
891.815	10034.92
892.131	10076.05
892.447	10057.97
892.763	10039.21
893.079	9973.23
893.395	9914.7
893.71	9895.49
894.026	9852.78
894.342	9916.05
894.657	9843.06
894.973	9839.9
895.289	9739.33
895.604	9749.5
895.92	9692.56
896.235	9661.14
896.55	9649.17
896.865	9644.65
897.181	9587.47
897.496	9566.23
897.811	9492.56
898.126	9540.24
898.441	9425.22
898.756	9456.63
899.071	9404.88
899.386	9375.05
899.7	9328.05
900.015	9298.22
900.33	9209.86
900.644	9226.13
900.959	9181.61
901.273	9191.33
901.588	9152.91
901.902	9053.7
902.216	9116.3
902.531	9043.99
902.845	9001.95
903.159	8940.03
903.473	8907.49
903.787	8872.24
904.101	8833.37
904.415	8850.77
904.729	8787.95
905.042	8698.01
905.356	8733.49
905.67	8688.97
905.984	8731.45
906.297	8665.69
906.611	8617.1
906.924	8602.42
907.237	8515.86
907.551	8514.96
907.864	8521.51
908.177	8472.7
908.491	8408.97
908.804	8333.95
909.117	8286.49
909.43	8277.45
909.743	8274.06
910.056	8192.93
910.368	8195.19
910.681	8182.54
910.994	8112.03
911.307	8146.16
911.619	8014.63
911.932	8006.95
912.244	8001.07
912.557	7964.69
912.869	7883.34
913.181	7965.6
913.494	7868.88
913.806	7828.42
914.118	7863.23
914.43	7782.55
914.742	7789.33
915.054	7746.17
915.366	7614.19
915.678	7709.78
915.99	7598.6
916.302	7537.13
916.613	7566.28
916.925	7547.98
917.236	7530.8
917.548	7455.55
917.859	7443.58
918.171	7383.69
918.482	7335.78
918.794	7312.28
919.105	7301.21
919.416	7255.33
919.727	7250.81
920.038	7209.68
920.349	7115.45
920.66	7152.74
920.971	7110.25
921.282	7137.14
921.593	7047.43
921.903	7009.69
922.214	6962.91
922.525	6944.61
922.835	6986.41
923.146	6861.22
923.456	6872.52
923.767	6833.87
924.077	6797.72
924.387	6799.07
924.697	6793.2
925.008	6767.21
925.318	6711.39
925.628	6685.86
925.938	6722.46
926.248	6604.73
926.558	6597.5
926.867	6598.63
927.177	6536.25
927.487	6515.24
927.796	6499.42
928.106	6481.79
928.416	6394.11
928.725	6414.68
929.034	6354.11
929.344	6377.61
929.653	6296.71
929.962	6305.07
930.271	6192.76
930.581	6232.53
930.89	6186.43
931.199	6157.06
931.508	6165.42
931.817	6104.63
932.125	6074.57
932.434	6096.04
932.743	6012.65
933.051	6012.65
933.36	6002.94
933.669	5963.84
933.977	5903.5
934.286	5960.22
934.594	5911.19
934.902	5840.23
935.21	5837.29
935.519	5799.55
935.827	5819.89
936.135	5714.13
936.443	5703.96
936.751	5699.21
937.059	5698.54
937.367	5681.36
937.674	5662.61
937.982	5636.17
938.29	5616.96
938.597	5566.56
938.905	5544.19
939.213	5527.02
939.52	5477.3
939.827	5489.73
940.135	5410.63
940.442	5402.05
940.749	5406.34
941.056	5421.26
941.363	5321.37
941.67	5314.82
941.977	5321.15
942.284	5282.28
942.591	5242.05
942.898	5259.9
943.205	5234.14
943.511	5157.08
943.818	5172.67
944.125	5140.36
944.431	5128.16
944.738	5093.81
945.044	5076.86
945.35	5043.86
945.657	5063.75
945.963	5049.97
946.269	4989.18
946.575	4962.96
946.881	4922.29
947.187	4943.98
947.493	4934.94
947.799	4881.16
948.105	4861.72
948.41	4816.53
948.716	4839.12
949.022	4812.01
949.327	4784.66
949.633	4769.97
949.938	4746.02
950.244	4722.74
950.549	4699.24
950.854	4687.26
951.16	4689.75
951.465	4623.99
951.77	4637.55
952.075	4617.21
952.38	4579.7
952.685	4559.36
952.99	4546.02
953.294	4550.54
953.599	4500.6
953.904	4484.11
954.209	4426.25
954.513	4445.69
954.818	4419.02
955.122	4421.28
955.426	4379.25
955.731	4381.51
956.035	4330.66
956.339	4339.48
956.643	4318.23
956.948	4263.09
957.252	4284.11
957.556	4226.03
957.86	4254.96
958.163	4186.94
958.467	4187.62
958.771	4199.59
959.075	4179.48
959.378	4112.59
959.682	4170.22
959.985	4128.18
960.289	4119.37
960.592	4025.81
960.896	4071.46
961.199	4048.18
961.502	4041.63
961.805	3965.7
962.108	3924.57
962.411	3983.33
962.714	3953.72
963.017	3904.23
963.32	3950.33
963.623	3891.35
963.926	3890.45
964.228	3847.29
964.531	3887.96
964.833	3837.79
965.136	3813.39
965.438	3811.35
965.741	3800.51
966.043	3749.21
966.345	3728.42
966.648	3723.22
966.95	3732.94
967.252	3680.28
967.554	3689.78
967.856	3638.7
968.158	3660.62
968.46	3607.74
968.761	3606.16
969.063	3607.29
969.365	3562.77
969.666	3581.53
969.968	3544.02
970.269	3511.48
970.571	3519.38
970.872	3522.32
971.174	3493.62
971.475	3487.3
971.776	3488.88
972.077	3506.28
972.378	3495.88
972.679	3418.37
972.98	3461.53
973.281	3399.84
973.582	3381.31
973.883	3354.87
974.183	3345.6
974.484	3342.67
974.785	3314.64
975.085	3324.59
975.386	3281.43
975.686	3280.52
975.986	3225.61
976.287	3260.41
976.587	3232.61
976.887	3221.54
977.187	3250.47
977.487	3157.13
977.787	3166.4
978.087	3125.04
978.387	3157.59
978.687	3152.61
978.987	3079.85
979.286	3095.22
979.586	3083.46
979.885	3058.38
980.185	3060.41
980.484	3010.25
980.784	3031.04
981.083	2999.17
981.382	2994.43
981.682	3002.79
981.981	2963.02
982.28	2956.69
982.579	2951.94
982.878	2937.71
983.177	2901.77
983.475	2923.47
983.774	2919.4
984.073	2838.05
984.372	2866.97
984.67	2895.22
984.969	2860.65
985.267	2836.92
985.566	2877.37
985.864	2821.78
986.162	2800.99
986.461	2784.04
986.759	2801.89
987.057	2770.25
987.355	2718.95
987.653	2734.32
987.951	2723.25
988.249	2694.1
988.547	2682.57
988.844	2701.33
989.142	2672.85
989.44	2672.63
989.737	2640.31
990.035	2645.06
990.332	2643.02
990.63	2600.76
990.927	2626.98
991.224	2572.07
991.521	2563.7
991.819	2537.26
992.116	2555.79
992.413	2541.56
992.71	2536.36
993.006	2515.12
993.303	2530.71
993.6	2480.99
993.897	2464.72
994.193	2471.28
994.49	2466.08
994.787	2437.61
995.083	2432.86
995.379	2387.66
995.676	2407.32
995.972	2374.33
996.268	2390.6
996.565	2387.66
996.861	2354.22
997.157	2359.19
997.453	2322.35
997.749	2349.92
998.044	2327.33
998.34	2321.68
998.636	2265.86
998.932	2288
999.227	2235.58
999.523	2294.33
999.818	2252.3
1000.114	2217.27
1000.409	2234.45
1000.704	2196.03
1001	2172.75
1001.295	2196.71
1001.59	2163.26
1001.885	2187.44
1002.18	2153.32
1002.475	2106.99
1002.77	2078.52
1003.065	2092.98
1003.359	2104.73
1003.654	2112.42
1003.949	2092.08
1004.243	2100.67
1004.538	2075.36
1004.832	2058.63
1005.127	2069.25
1005.421	2013.21
1005.715	2021.57
1006.009	2002.36
1006.304	2014.57
1006.598	1973.66
1006.892	1950.16
1007.186	1951.97
1007.48	1996.71
1007.773	1928.01
1008.067	1933.44
1008.361	1923.04
1008.655	1880.78
1008.948	1898.18
1009.242	1869.94
1009.535	1859.32
1009.829	1878.07
1010.122	1862.25
1010.415	1843.27
1010.708	1854.12
1011.001	1819.77
1011.295	1798.07
1011.588	1791.52
1011.881	1802.37
1012.173	1800.79
1012.466	1779.54
1012.759	1753.78
1013.052	1735.25
1013.344	1735.03
1013.637	1751.3
1013.93	1718.98
1014.222	1716.27
1014.514	1680.11
1014.807	1644.41
1015.099	1665.42
1015.391	1671.98
1015.683	1649.6
1015.976	1636.04
1016.268	1592.2
1016.56	1655.25
1016.851	1588.14
1017.143	1638.53
1017.435	1606.44
1017.727	1552.2
1018.018	1562.37
1018.31	1551.98
1018.602	1556.72
1018.893	1542.94
1019.185	1532.09
1019.476	1510.17
1019.767	1537.06
1020.058	1527.12
1020.35	1469.04
1020.641	1476.5
1020.932	1494.13
1021.223	1483.05
1021.514	1473.79
1021.804	1442.83
1022.095	1426.78
1022.386	1455.03
1022.677	1424.52
1022.967	1424.98
1023.258	1410.74
1023.548	1394.69
1023.839	1382.72
1024.129	1374.81
1024.419	1377.52
1024.709	1366.22
1025	1339.33
1025.29	1337.52
1025.58	1323.51
1025.87	1309.95
1026.16	1316.73
1026.449	1318.54
1026.739	1304.08
1027.029	1276.05
1027.319	1260.69
1027.608	1256.62
1027.898	1284.64
1028.187	1270.4
1028.477	1239.22
1028.766	1269.95
1029.055	1234.25
1029.344	1244.42
1029.634	1227.69
1029.923	1220.46
1030.212	1194.47
1030.501	1202.16
1030.79	1193.8
1031.078	1155.15
1031.367	1168.26
1031.656	1169.62
1031.945	1126.23
1032.233	1138.66
1032.522	1139.11
1032.81	1125.55
1033.099	1111.99
1033.387	1123.29
1033.675	1099.79
1033.963	1072.67
1034.251	1101.6
1034.54	1083.74
1034.828	1070.64
1035.116	1068.83
1035.403	1054.59
1035.691	1057.53
1035.979	1066.12
1036.267	1031.77
1036.554	1030.86
1036.842	1036.29
1037.129	1022.5
1037.417	1017.98
1037.704	1025.67
1037.992	988.83
1038.279	1003.52
1038.566	1007.81
1038.853	1007.81
1039.14	1007.81
