Data from hue_310_FLMS001491_68.txt Node
Date: Mon Feb 06 15:50:01 GMT 2017
User: dcchb
Spectrometer: FLMS00149
Trigger mode: 0
Integration Time (sec): 2.000000E-2
Scans to average: 10
Electric dark correction enabled: true
Nonlinearity correction enabled: false
Boxcar width: 0
XAxis mode: Wavelengths
Number of Pixels in Spectrum: 2048
>>>>>Begin Spectral Data<<<<<
341.393	-3.21
341.776	-3.21
342.16	-3.21
342.543	-60.83
342.927	-78.46
343.31	-67.84
343.693	-62.41
344.077	-65.35
344.46	-51.11
344.843	-57.44
345.226	-68.97
345.61	-31.91
345.993	-9.08
346.376	3.12
346.759	15.55
347.142	25.72
347.525	49.67
347.908	57.36
348.291	78.83
348.674	90.58
349.057	93.29
349.44	139.16
349.823	142.78
350.206	162.21
350.588	193.17
350.971	207.41
351.354	237.47
351.737	238.37
352.119	236.34
352.502	250.12
352.884	277.69
353.267	278.14
353.65	295.77
354.032	290.57
354.414	310.68
354.797	303.68
355.179	325.15
355.562	341.42
355.944	336.45
356.326	343.45
356.709	332.6
357.091	332.15
357.473	333.96
357.855	316.79
358.238	328.99
358.62	337.12
359.002	342.55
359.384	339.61
359.766	322.66
360.148	317.46
360.53	336.45
360.912	361.76
361.294	343.68
361.676	306.84
362.057	300.74
362.439	336.67
362.821	330.12
363.203	321.31
363.584	329.89
363.966	313.4
364.348	323.11
364.729	321.31
365.111	305.94
365.493	312.72
365.874	324.24
366.256	329.67
366.637	327.86
367.019	304.81
367.4	311.59
367.781	334.86
368.163	308.42
368.544	302.32
368.925	317.46
369.306	312.72
369.688	323.79
370.069	298.71
370.45	308.42
370.831	304.58
371.212	308.2
371.593	319.05
371.974	293.51
372.355	309.33
372.736	308.88
373.117	325.6
373.498	319.5
373.879	310.23
374.26	305.94
374.641	306.84
375.021	321.31
375.402	321.53
375.783	314.3
376.163	316.33
376.544	307.07
376.925	334.41
377.305	320.85
377.686	313.17
378.066	318.59
378.447	343.9
378.827	307.29
379.208	338.03
379.588	320.18
379.968	306.84
380.349	329.44
380.729	322.21
381.109	338.93
381.489	348.2
381.87	329.44
382.25	325.15
382.63	336.22
383.01	315.2
383.39	330.8
383.77	346.16
384.15	363.79
384.53	333.28
384.91	359.5
385.29	351.13
385.67	355.43
386.049	334.41
386.429	358.14
386.809	349.1
387.189	348.65
387.568	344.58
387.948	370.57
388.328	354.52
388.707	372.6
389.087	351.59
389.466	366.73
389.846	352.94
390.225	372.6
390.605	348.88
390.984	342.55
391.363	361.53
391.743	377.8
392.122	377.57
392.501	368.76
392.881	387.29
393.26	375.09
393.639	364.92
394.018	363.11
394.397	385.03
394.776	365.6
395.155	374.86
395.534	393.17
395.913	366.28
396.292	382.32
396.671	392.49
397.05	377.57
397.429	381.19
397.808	379.83
398.186	392.72
398.565	387.29
398.944	389.55
399.323	414.18
399.701	395.88
400.08	391.13
400.458	385.94
400.837	426.84
401.215	424.13
401.594	397.69
401.972	417.12
402.351	414.86
402.729	413.73
403.107	413.05
403.486	443.56
403.864	420.06
404.242	409.44
404.62	400.85
404.999	424.35
405.377	430
405.755	444.69
406.133	432.26
406.511	434.75
406.889	446.95
407.267	434.3
407.645	453.73
408.023	459.83
408.401	468.19
408.779	480.85
409.156	476.78
409.534	474.75
409.912	487.4
410.29	472.26
410.667	486.72
411.045	512.94
411.422	477.01
411.8	480.4
412.178	506.84
412.555	525.37
412.933	511.13
413.31	532.82
413.687	550.45
414.065	547.06
414.442	572.6
414.819	562.2
415.197	566.04
415.574	581.64
415.951	570.11
416.328	589.32
416.705	577.8
417.082	604.46
417.46	606.5
417.837	614.63
418.214	637.68
418.591	643.33
418.967	651.69
419.344	644.91
419.721	635.87
420.098	649.66
420.475	675.19
420.852	660.51
421.228	679.94
421.605	663.44
421.982	688.3
422.358	691.46
422.735	677.23
423.111	688.98
423.488	735.08
423.864	724.68
424.241	752.03
424.617	734.85
424.994	744.8
425.37	768.52
425.746	745.02
426.123	781.86
426.499	774.63
426.875	808.98
427.251	801.97
427.627	792.93
428.003	804
428.379	816.66
428.756	812.37
429.132	843.78
429.507	854.85
429.883	838.13
430.259	856.88
430.635	881.74
431.011	886.71
431.387	902.98
431.763	916.09
432.138	919.93
432.514	925.13
432.89	936.88
433.265	958.12
433.641	941.85
434.016	949.09
434.392	987.28
434.767	970.78
435.143	1000.61
435.518	1009.65
435.894	1016.43
436.269	1032.47
436.644	1039.03
437.02	1065.92
437.395	1053.72
437.77	1081.51
438.145	1068.18
438.52	1095.75
438.895	1072.02
439.271	1098.69
439.646	1102.53
440.021	1110.66
440.395	1137.55
440.77	1126.48
441.145	1113.37
441.52	1161.06
441.895	1144.56
442.27	1173.03
442.645	1168.74
443.019	1176.2
443.394	1170.32
443.769	1172.81
444.143	1185.24
444.518	1188.17
444.892	1159.02
445.267	1205.35
445.641	1196.99
446.016	1225.91
446.39	1205.12
446.764	1212.81
447.139	1214.61
447.513	1227.5
447.887	1232.24
448.262	1224.33
448.636	1229.53
449.01	1251.22
449.384	1270.21
449.758	1259.81
450.132	1261.17
450.506	1258.91
450.88	1318.12
451.254	1292.8
451.628	1265.69
452.002	1278.79
452.376	1291
452.75	1302.52
453.123	1301.17
453.497	1326.93
453.871	1330.09
454.244	1353.82
454.618	1335.52
454.992	1328.96
455.365	1354.72
455.739	1392.01
456.112	1410.77
456.486	1394.27
456.859	1407.83
457.232	1401.73
457.606	1414.61
457.979	1416.19
458.352	1460.48
458.725	1476.75
459.099	1438.79
459.472	1474.95
459.845	1512.01
460.218	1511.1
460.591	1512.46
460.964	1495.96
461.337	1523.99
461.71	1551.56
462.083	1545.45
462.456	1565.57
462.829	1581.16
463.201	1589.97
463.574	1550.88
463.947	1638.11
464.32	1644.43
464.692	1628.84
465.065	1649.41
465.438	1672.91
465.81	1690.99
466.183	1691.66
466.555	1717.65
466.928	1731.44
467.3	1744.77
467.672	1739.8
468.045	1785
468.417	1767.82
468.789	1767.82
469.161	1793.36
469.534	1793.36
469.906	1865.67
470.278	1839.46
470.65	1856.86
471.022	1881.49
471.394	1897.31
471.766	1935.27
472.138	1924.2
472.51	1935.27
472.882	1972.79
473.253	2014.14
473.625	1981.15
473.997	2025.22
474.369	2031.99
474.74	2041.26
475.112	2055.04
475.484	2086.68
475.855	2130.75
476.227	2122.39
476.598	2177.3
476.97	2185.44
477.341	2243.51
477.713	2214.14
478.084	2257.07
478.455	2268.6
478.827	2271.08
479.198	2345.88
479.569	2381.59
479.94	2395.83
480.311	2406.22
480.682	2424.07
481.053	2478.31
481.424	2488.71
481.795	2513.34
482.166	2534.81
482.537	2554.92
482.908	2581.81
483.279	2617.06
483.65	2638.76
484.021	2687.57
484.391	2692.09
484.762	2699.55
485.133	2762.6
485.503	2773.44
485.874	2781.81
486.244	2814.8
486.615	2845.98
486.985	2898.19
487.356	2900.22
487.726	2899.54
488.097	2986.32
488.467	2995.13
488.837	3009.37
489.207	3029.03
489.578	3065.64
489.948	3109.48
490.318	3128.24
490.688	3117.16
491.058	3184.51
491.428	3211.4
491.798	3242.36
492.168	3282.81
492.538	3276.93
492.908	3279.87
493.278	3310.38
493.648	3337.5
494.017	3360.1
494.387	3359.87
494.757	3408.23
495.126	3449.81
495.496	3451.84
495.866	3489.13
496.235	3478.51
496.605	3515.57
496.974	3502.46
497.344	3560.09
497.713	3546.76
498.082	3597.15
498.452	3604.38
498.821	3659.3
499.19	3645.74
499.559	3652.52
499.928	3622.24
500.298	3681.67
500.667	3732.06
501.036	3692.29
501.405	3733.87
501.774	3690.48
502.143	3751.72
502.512	3773.87
502.88	3773.42
503.249	3801.89
503.618	3814.09
503.987	3784.49
504.356	3852.06
504.724	3826.98
505.093	3837.6
505.462	3861.55
505.83	3903.36
506.199	3951.04
506.567	3935.45
506.936	3911.04
507.304	3967.76
507.672	3980.87
508.041	3965.28
508.409	3999.4
508.777	4014.54
509.145	4016.8
509.514	3993.52
509.882	4053.86
510.25	4023.35
510.618	4070.36
510.986	4069.46
511.354	4073.75
511.722	4116.23
512.09	4120.08
512.458	4170.47
512.826	4131.83
513.193	4135.89
513.561	4192.16
513.929	4172.73
514.297	4210.69
514.664	4214.54
515.032	4221.54
515.4	4249.11
515.767	4240.75
516.135	4260.86
516.502	4234.2
516.869	4288.21
517.237	4296.12
517.604	4271.26
517.972	4280.75
518.339	4338.83
518.706	4332.73
519.073	4357.36
519.44	4356.91
519.808	4374.53
520.175	4343.57
520.542	4375.66
520.909	4454.53
521.276	4459.73
521.643	4466.96
522.009	4463.57
522.376	4481.2
522.743	4487.52
523.11	4518.93
523.477	4561.42
523.843	4597.12
524.21	4649.1
524.577	4659.5
524.943	4627.41
525.31	4687.52
525.676	4699.72
526.043	4677.8
526.409	4725.71
526.776	4730.91
527.142	4744.24
527.508	4774.75
527.874	4841.41
528.241	4868.08
528.607	4891.58
528.973	4838.02
529.339	4904.91
529.705	4923.9
530.071	4960.96
530.437	4930.9
530.803	5013.16
531.169	5030.79
531.535	4987.85
531.901	5006.38
532.267	5059.03
532.632	5072.14
532.998	5138.58
533.364	5146.26
533.73	5135.87
534.095	5164.57
534.461	5169.99
534.826	5180.16
535.192	5216.32
535.557	5270.78
535.923	5264
536.288	5301.29
536.653	5349.42
537.019	5285.24
537.384	5376.09
537.749	5364.34
538.114	5380.38
538.479	5395.07
538.845	5453.83
539.21	5472.81
539.575	5426.93
539.94	5487.95
540.305	5525.24
540.67	5526.14
541.034	5544.22
541.399	5576.08
541.764	5572.01
542.129	5580.38
542.494	5617.89
542.858	5699.47
543.223	5682.52
543.587	5689.53
543.952	5693.82
544.316	5734.72
544.681	5726.59
545.045	5797.55
545.41	5804.1
545.774	5857.2
546.138	5867.37
546.503	5885.23
546.867	5913.25
547.231	5916.19
547.595	5948.28
547.959	5981.27
548.324	5976.98
548.688	6036.41
549.052	6016.97
549.416	6100.14
549.779	6057.2
550.143	6083.64
550.507	6137.2
550.871	6137.42
551.235	6162.73
551.599	6175.61
551.962	6229.85
552.326	6200.92
552.689	6259.91
553.053	6210.42
553.417	6263.75
553.78	6306.01
554.143	6302.62
554.507	6344.65
554.87	6284.31
555.234	6366.57
555.597	6368.6
555.96	6374.93
556.323	6448.15
556.686	6426.23
557.05	6411.31
557.413	6487.92
557.776	6469.62
558.139	6568.82
558.502	6527.47
558.865	6550.75
559.228	6624.19
559.59	6574.02
559.953	6684.53
560.316	6647.92
560.679	6668.71
561.041	6738.54
561.404	6718.65
561.767	6785.54
562.129	6753.45
562.492	6772.89
562.854	6816.73
563.217	6846.33
563.579	6801.81
563.941	6878.87
564.304	6858.99
564.666	6931.3
565.028	6936.27
565.39	6901.7
565.753	6952.32
566.115	7002.71
566.477	6991.86
566.839	7018.08
567.201	7077.74
567.563	7103.27
567.925	7096.95
568.287	7164.97
568.648	7121.13
569.01	7218.3
569.372	7214.68
569.734	7237.28
570.095	7330.16
570.457	7369.93
570.819	7325.64
571.18	7386.43
571.542	7462.13
571.903	7453.32
572.265	7445.41
572.626	7544.17
572.987	7557.95
573.349	7529.7
573.71	7648.57
574.071	7687.21
574.432	7708.68
574.794	7852.86
575.155	7820.54
575.516	7912.52
575.877	7977.15
576.238	8036.13
576.599	8107.77
576.96	8156.58
577.32	8225.5
577.681	8297.37
578.042	8393.86
578.403	8403.8
578.763	8522.67
579.124	8571.94
579.485	8680.63
579.845	8756.34
580.206	8884.24
580.566	8936.67
580.927	9089.44
581.287	9250.79
581.648	9357.68
582.008	9526.71
582.368	9648.29
582.728	9789.3
583.089	9897.32
583.449	10064.55
583.809	10276.52
584.169	10378.22
584.529	10583.41
584.889	10756.96
585.249	10959.9
585.609	11095.26
585.969	11323.28
586.329	11469.94
586.688	11762.36
587.048	11942.92
587.408	12148.34
587.768	12347.88
588.127	12546.75
588.487	12814.08
588.846	13145.15
589.206	13322.77
589.565	13528.19
589.925	13809.76
590.284	14049.31
590.643	14398.9
591.003	14668.27
591.362	14887.48
591.721	15131.09
592.08	15461.92
592.44	15688.36
592.799	15997.05
593.158	16210.83
593.517	16473.2
593.876	16839.97
594.235	17114.99
594.593	17357.02
594.952	17708.64
595.311	17992.03
595.67	18338.91
596.029	18669.52
596.387	18938.89
596.746	19232.22
597.104	19525.55
597.463	19740.68
597.822	20168.01
598.18	20261.12
598.538	20590.15
598.897	21087.31
599.255	21164.15
599.613	21667.41
599.972	21882.09
600.33	22212.48
600.688	22448.86
601.046	22705.12
601.404	23094.49
601.762	23311.21
602.12	23698.32
602.478	24004.75
602.836	24248.13
603.194	24365.42
603.552	24725.64
603.91	24852.86
604.268	25243.81
604.625	25340.31
604.983	25825.04
605.341	25906.4
605.698	26272.71
606.056	26594.06
606.413	26741.85
606.771	26950.44
607.128	27236.53
607.485	27423.42
607.843	27610.53
608.2	28048.94
608.557	28337.07
608.914	28417.06
609.272	28780.22
609.629	28942.7
609.986	29288.68
610.343	29310.6
610.7	29607.54
611.057	29782.9
611.414	29965.05
611.771	30250.24
612.127	30474.18
612.484	30608.64
612.841	30925.92
613.198	31022.19
613.554	31175.41
613.911	31471.67
614.267	31506.02
614.624	31717.09
614.98	31936.29
615.337	32175.16
615.693	32220.58
616.05	32381.48
616.406	32723.62
616.762	32771.07
617.118	32861.69
617.475	33032.08
617.831	33149.37
618.187	33255.58
618.543	33637.72
618.899	33792.97
619.255	33875
619.611	34016.92
619.967	34125.16
620.323	34380.75
620.678	34335.1
621.034	34329
621.39	34421.88
621.746	34528.32
622.101	35114.06
622.457	34940.06
622.812	35080.39
623.168	35213.95
623.523	35229.99
623.879	35477.67
624.234	35321.97
624.589	35565.8
624.945	35566.93
625.3	35773.93
625.655	35808.51
626.01	35884.66
626.365	35867.26
626.72	35868.62
627.075	36165.33
627.43	36090.08
627.785	36040.82
628.14	36237.42
628.495	36269.96
628.85	36222.96
629.205	36384.76
629.559	36537.75
629.914	36423.63
630.269	36490.75
630.623	36488.04
630.978	36453.91
631.332	36652.55
631.687	36844.41
632.041	36599.45
632.396	36799.67
632.75	36595.15
633.104	36917.18
633.459	36557.41
633.813	36792.89
634.167	36790.4
634.521	36780.23
634.875	36874.69
635.229	36834.92
635.583	36691.65
635.937	36843.73
636.291	36823.17
636.645	36817.29
636.999	36790.63
637.352	36907.46
637.706	36767.13
638.06	36900.68
638.413	36843.51
638.767	36746.79
639.121	36891.87
639.474	36776.39
639.828	36651.88
640.181	36855.49
640.534	36685.55
640.888	36753.57
641.241	36570.97
641.594	36700.01
641.947	36931.87
642.301	36707.02
642.654	36732.78
643.007	36822.49
643.36	36736.84
643.713	36598.32
644.066	36825.88
644.419	36613.46
644.771	36421.6
645.124	36144.54
645.477	36029.52
645.83	35886.02
646.182	35704.78
646.535	35741.62
646.888	35736.87
647.24	35622.98
647.593	35848.28
647.945	35749.98
648.298	35632.69
648.65	35532.81
649.002	35413.26
649.355	35653.03
649.707	35641.96
650.059	35722.18
650.411	36145.45
650.763	36150.19
651.115	36597.19
651.467	36389.51
651.819	36424.76
652.171	36394.71
652.523	36226.58
652.875	36244.43
653.227	36093.25
653.578	36482.84
653.93	36358.1
654.282	36227.48
654.633	36118.56
654.985	36251.43
655.337	36212.56
655.688	36198.55
656.039	36362.84
656.391	36059.35
656.742	36121.27
657.094	36158.33
657.445	36290.08
657.796	36056.86
658.147	36111.55
658.498	36157.65
658.849	36027.26
659.2	36122.62
659.551	36108.84
659.902	36194.03
660.253	35970.54
660.604	36139.35
660.955	35911.1
661.306	36075.62
661.656	36104.77
662.007	36045.79
662.358	36066.58
662.708	36034.04
663.059	36007.82
663.409	35819.35
663.76	36079.91
664.11	36133.47
664.461	36103.64
664.811	36163.07
665.161	36142.74
665.511	35942.97
665.862	35952.91
666.212	36063.87
666.562	36182.06
666.912	35990.42
667.262	36021.84
667.612	36012.34
667.962	35952.91
668.312	36017.99
668.662	36073.81
669.011	35927.15
669.361	35936.19
669.711	35872.69
670.06	35919.69
670.41	35809.64
670.76	35811.22
671.109	35920.6
671.459	35892.35
671.808	35792.69
672.157	35961.72
672.507	35590.66
672.856	35736.42
673.205	35636.53
673.554	35825.23
673.904	35682.18
674.253	35927.37
674.602	35660.71
674.951	35240.84
675.3	35093.27
675.649	35583.88
675.998	35678.12
676.346	35537.33
676.695	35726.7
677.044	35551.79
677.393	35536.88
677.741	35552.47
678.09	35606.03
678.438	35480.83
678.787	35540.94
679.135	35491.23
679.484	35247.17
679.832	35546.37
680.181	35242.42
680.529	35328.29
680.877	35215.75
681.225	35237.68
681.573	35496.2
681.922	35246.04
682.27	35202.87
682.618	35108.19
682.966	35002.88
683.314	35177.11
683.661	35043.1
684.009	34857.8
684.357	34704.36
684.705	34754.75
685.053	34789.78
685.4	34723.56
685.748	34529.45
686.095	34557.47
686.443	34513.85
686.79	34424.59
687.138	34505.49
687.485	34447.64
687.832	34167.65
688.18	34370.58
688.527	34120.64
688.874	34108.89
689.221	34125.16
689.568	34017.82
689.915	33950.93
690.262	33903.25
690.609	33851.95
690.956	33667.55
691.303	33631.39
691.65	33419.42
691.997	33493.09
692.344	33382.81
692.69	33299.42
693.037	33341
693.383	33027.79
693.73	33282.92
694.077	32882.48
694.423	33017.62
694.769	32732.88
695.116	32853.78
695.462	32764.29
695.808	32630.06
696.155	32716.84
696.501	32354.59
696.847	32489.72
697.193	32213.8
697.539	32385.09
697.885	32051.32
698.231	32135.84
698.577	32129.51
698.923	32119.34
699.269	31821.27
699.614	31807.26
699.96	31781.49
700.306	31833.7
700.651	31615.85
700.997	31454.5
701.342	31614.04
701.688	31530.43
702.033	31392.58
702.379	31404.56
702.724	31197.78
703.069	31359.59
703.415	30946.04
703.76	30990.56
704.105	30917.56
704.45	30838.02
704.795	30536.33
705.14	30524.8
705.485	30592.83
705.83	30423.56
706.175	30500.4
706.52	30387.86
706.865	30338.37
707.209	30073.97
707.554	30168.66
707.899	30209.78
708.243	29987.42
708.588	30013.18
708.932	29779.29
709.277	29888.21
709.621	29860.19
709.966	29662
710.31	29716.46
710.654	29527.09
710.998	29622.68
711.342	29466.3
711.687	29358.06
712.031	29342.24
712.375	29156.03
712.719	29273.09
713.063	29184.28
713.407	29235.8
713.75	29170.04
714.094	29019.76
714.438	28928.91
714.782	28976.82
715.125	28799.43
715.469	28895.92
715.812	28707
716.156	28606.44
716.499	28569.6
716.843	28598.08
717.186	28524.86
717.53	28533.44
717.873	28540.9
718.216	28497.51
718.559	28358.76
718.902	28059.33
719.246	28239.89
719.589	28136.62
719.932	28002.39
720.275	28015.27
720.617	28036.28
720.96	28099.11
721.303	27934.82
721.646	28024.31
721.989	27742.73
722.331	27918.32
722.674	27850.52
723.016	27874.7
723.359	27739.57
723.701	27721.49
724.044	27536.18
724.386	27406.92
724.729	27602.4
725.071	27409.18
725.413	27324.89
725.755	27375.96
726.097	27260.26
726.439	27207.83
726.782	27212.58
727.124	27195.63
727.465	26978.91
727.807	27107.27
728.149	27069.3
728.491	26991.56
728.833	27031.34
729.175	26867.95
729.516	26791.57
729.858	26794.73
730.199	26963.77
730.541	26747.95
730.882	26687.17
731.224	26812.81
731.565	26592.93
731.906	26635.87
732.248	26624.34
732.589	26423.9
732.93	26403.78
733.271	26386.83
733.612	26476.55
733.953	26400.39
734.294	26329.66
734.635	26216.44
734.976	26315.65
735.317	26303.22
735.658	26255.99
735.999	26130.12
736.339	26185.71
736.68	26221.64
737.021	26081.98
737.361	26033.17
737.702	26088.99
738.042	26008.77
738.383	25993.17
738.723	25978.71
739.063	25832.72
739.404	25938.26
739.744	25919.05
740.084	25744.59
740.424	25786.85
740.764	25639.51
741.104	25763.35
741.444	25633.63
741.784	25513.41
742.124	25537.82
742.464	25513.86
742.804	25514.32
743.143	25435.22
743.483	25381.89
743.823	25223.93
744.162	25300.31
744.502	25266.19
744.841	25165.85
745.181	25257.6
745.52	25151.16
745.86	25152.74
746.199	25017.83
746.538	25080.88
746.877	25253.08
747.216	25019.19
747.556	24927.44
747.895	24983.48
748.234	24770.38
748.573	24748.69
748.911	24803.6
749.25	24765.63
749.589	24655.81
749.928	24608.35
750.267	24644.96
750.605	24641.8
750.944	24475.47
751.283	24539.88
751.621	24521.35
751.96	24337.17
752.298	24340.11
752.636	24369.94
752.975	24247.46
753.313	24148.7
753.651	24170.62
753.989	24107.8
754.327	24092.21
754.666	23888.37
755.004	24001.13
755.342	23993
755.679	24007.91
756.017	23729.96
756.355	23928.59
756.693	23776.06
757.031	23759.33
757.368	23603.18
757.706	23542.16
758.044	23437.76
758.381	23369.96
758.719	23347.59
759.056	23354.82
759.394	23329.29
759.731	23129.97
760.068	23114.15
760.405	23050.65
760.743	22976.98
761.08	23022.86
761.417	22891.33
761.754	22795.52
762.091	22774.5
762.428	22748.96
762.765	22563.43
763.102	22633.03
763.438	22509.87
763.775	22427.84
764.112	22421.74
764.449	22475.07
764.785	22297.45
765.122	22257
765.458	22164.35
765.795	22025.37
766.131	22035.99
766.467	21947.86
766.804	21850
767.14	21768.88
767.476	21792.38
767.812	21601.65
768.148	21792.38
768.485	21578.37
768.821	21399.62
769.157	21438.04
769.492	21326.4
769.828	21403.91
770.164	21119.85
770.5	21125.05
770.836	21014.32
771.171	20960.54
771.507	20882.57
771.842	20689.81
772.178	20708.57
772.513	20752.41
772.849	20612.3
773.184	20558.29
773.519	20514.9
773.855	20434.9
774.19	20331.85
774.525	20276.71
774.86	20285.75
775.195	20225.87
775.53	20122.59
775.865	19916.27
776.2	19781.81
776.535	19717.63
776.87	19782.49
777.205	19596.28
777.539	19517.41
777.874	19608.48
778.209	19523.74
778.543	19478.77
778.878	19256.85
779.212	19386.79
779.547	19224.76
779.881	19168.49
780.215	19055.28
780.55	19021.38
780.884	18893.02
781.218	18864.55
781.552	18845.34
781.886	18806.92
782.22	18704.78
782.554	18657.55
782.888	18406.93
783.222	18381.4
783.556	18216.43
783.889	18263.66
784.223	18143.44
784.557	18145.02
784.89	18116.32
785.224	18117.22
785.557	17966.94
785.891	17937.11
786.224	17788.64
786.558	17817.12
786.891	17676.55
787.224	17650.57
787.557	17572.83
787.891	17457.8
788.224	17491.02
788.557	17472.27
788.89	17438.6
789.223	17444.02
789.556	17210.8
789.888	17234.31
790.221	17129.68
790.554	17067.08
790.887	17051.94
791.219	16849.46
791.552	16895.78
791.884	16864.37
792.217	16790.7
792.549	16651.95
792.882	16546.64
793.214	16622.35
793.546	16528.11
793.879	16399.07
794.211	16356.14
794.543	16369.24
794.875	16400.88
795.207	16317.49
795.539	16166.99
795.871	16272.52
796.203	16054.68
796.535	16082.47
796.867	16010.84
797.198	15949.59
797.53	16021.68
797.862	15738.07
798.193	15878.41
798.525	15762.93
798.856	15832.54
799.188	15637.29
799.519	15543.73
799.85	15409.27
800.182	15517.52
800.513	15490.62
800.844	15275.71
801.175	15407.46
801.506	15294.24
801.837	15308.93
802.168	15240.91
802.499	15168.37
802.83	15081.14
803.161	15056.96
803.491	15065.78
803.822	15021.26
804.153	14872.11
804.483	14853.8
804.814	14802.73
805.145	14736.29
805.475	14744.43
805.805	14657.2
806.136	14719.34
806.466	14675.73
806.796	14689.06
807.126	14514.38
807.457	14496.07
807.787	14495.4
808.117	14448.39
808.447	14386.47
808.777	14408.62
809.107	14357.09
809.436	14405.91
809.766	14297.43
810.096	14217.66
810.426	14247.94
810.755	14228.96
811.085	14129.3
811.414	14093.82
811.744	13957.78
812.073	13903.32
812.403	13917.78
812.732	13842.53
813.061	13765.25
813.39	13839.14
813.719	13726.83
814.049	13838.24
814.378	13770.89
814.707	13698.58
815.036	13739.26
815.365	13630.11
815.693	13505.14
816.022	13477.8
816.351	13477.8
816.68	13402.77
817.008	13424.46
817.337	13263.79
817.665	13336.1
817.994	13333.84
818.322	13281.42
818.651	13264.47
818.979	13156.45
819.307	13250
819.636	13188.76
819.964	13176.79
820.292	13153.51
820.62	13089.56
820.948	13100.4
821.276	13109.67
821.604	13104.47
821.932	13117.8
822.259	13118.03
822.587	13028.77
822.915	13047.98
823.243	13106.51
823.57	13058.82
823.898	12982.67
824.225	12989.22
824.553	12980.86
824.88	12976.34
825.207	13033.74
825.535	12991.93
825.862	13036.9
826.189	12997.58
826.516	13027.41
826.843	13075.77
827.17	13072.38
827.497	12956.45
827.824	12974.53
828.151	13013.63
828.478	12919.62
828.805	13061.08
829.131	12958.26
829.458	13003.01
829.785	12898.6
830.111	12890.92
830.438	12953.74
830.764	12940.18
831.09	12921.2
831.417	12882.78
831.743	13000.75
832.069	12905.61
832.395	12882.78
832.722	12941.54
833.048	12832.39
833.374	12886.62
833.7	12851.6
834.026	12829.68
834.351	12864.25
834.677	12818.38
835.003	12889.79
835.329	12804.82
835.654	12798.27
835.98	12759.4
836.306	12700.19
836.631	12689.34
836.956	12719.17
837.282	12730.24
837.607	12652.05
837.932	12618.61
838.258	12709
838.583	12599.17
838.908	12542.23
839.233	12579.51
839.558	12496.13
839.883	12506.52
840.208	12400.76
840.533	12385.62
840.858	12429.69
841.182	12412.06
841.507	12447.54
841.832	12306.53
842.156	12329.35
842.481	12355.34
842.805	12316.92
843.13	12334.1
843.454	12266.3
843.778	12196.93
844.103	12232.63
844.427	12126.64
844.751	12177.26
845.075	12131.62
845.399	12064.95
845.723	12010.72
846.047	12015.23
846.371	11890.27
846.695	11920.32
847.019	11849.36
847.343	11720.78
847.666	11735.24
847.99	11677.62
848.313	11584.51
848.637	11627.9
848.96	11596.94
849.284	11578.64
849.607	11514.91
849.931	11387.91
850.254	11341.58
850.577	11291.19
850.9	11267.01
851.223	11207.8
851.546	11153.34
851.869	11102.04
852.192	11110.17
852.515	11014.81
852.838	10970.06
853.161	10980.01
853.483	10906.79
853.806	10852.33
854.129	10857.75
854.451	10782.72
854.774	10785.21
855.096	10702.73
855.419	10663.63
855.741	10615.72
856.063	10688.94
856.385	10636.74
856.708	10529.17
857.03	10547.02
857.352	10599.9
857.674	10488.5
857.996	10495.5
858.318	10424.77
858.64	10412.57
858.961	10360.14
859.283	10347.48
859.605	10318.78
859.926	10305.9
860.248	10213.7
860.57	10165.34
860.891	10174.61
861.212	10172.8
861.534	10152.91
861.855	10142.52
862.176	10064.1
862.498	10064.33
862.819	10138.22
863.14	10068.39
863.461	10065.68
863.782	9960.37
864.103	9970.54
864.424	9921.5
864.745	9977.77
865.065	9942.07
865.386	9883.99
865.707	9858
866.027	9865.91
866.348	9930.77
866.668	9812.13
866.989	9832.24
867.309	9695.3
867.63	9793.15
867.95	9763.32
868.27	9722.64
868.59	9709.98
868.91	9680.38
869.23	9650.78
869.55	9603.09
869.87	9718.57
870.19	9603.77
870.51	9635.18
870.83	9649.87
871.15	9593.38
871.469	9553.38
871.789	9620.5
872.109	9574.17
872.428	9477.9
872.748	9518.58
873.067	9557.67
873.386	9539.59
873.706	9549.99
874.025	9465.02
874.344	9411.91
874.663	9429.54
874.982	9347.51
875.301	9379.6
875.62	9364.91
875.939	9378.69
876.258	9401.07
876.577	9302.31
876.896	9333.05
877.214	9346.83
877.533	9324.68
877.852	9199.94
878.17	9239.26
878.489	9327.4
878.807	9255.08
879.125	9225.93
879.444	9199.94
879.762	9207.85
880.08	9175.31
880.398	9096.67
880.716	9132.37
881.034	9137.12
881.352	9116.55
881.67	9080.85
881.988	9067.06
882.306	9106.16
882.624	9035.43
882.941	8982.55
883.259	8926.28
883.577	8973.28
883.894	8951.36
884.212	8926.05
884.529	8915.88
884.846	8893.28
885.164	8883.57
885.481	8826.62
885.798	8860.06
886.115	8738.26
886.432	8797.69
886.75	8748.2
887.067	8722.21
887.383	8685.83
887.7	8715.89
888.017	8714.3
888.334	8646.74
888.651	8619.62
888.967	8640.86
889.284	8567.64
889.6	8528.09
889.917	8479.96
890.233	8425.27
890.55	8500.07
890.866	8518.83
891.182	8515.89
891.498	8421.21
891.815	8419.62
892.131	8366.07
892.447	8340.98
892.763	8259.63
893.079	8239.74
893.395	8236.35
893.71	8247.42
894.026	8264.15
894.342	8191.83
894.657	8198.61
894.973	8144.83
895.289	8135.79
895.604	8144.15
895.92	8027.77
896.235	8020.31
896.55	8020.99
896.865	7986.41
897.181	7969.69
897.496	7902.35
897.811	7946.64
898.126	7850.6
898.441	7821.22
898.756	7846.98
899.071	7810.83
899.386	7791.39
899.7	7698.51
900.015	7683.37
900.33	7660.32
900.644	7637.95
900.959	7689.92
901.273	7649.93
901.588	7555.69
901.902	7504.62
902.216	7580.55
902.531	7495.81
902.845	7486.99
903.159	7463.26
903.473	7400.44
903.787	7398.63
904.101	7370.39
904.415	7282.93
904.729	7345.08
905.042	7258.52
905.356	7212.88
905.67	7181.24
905.984	7240.67
906.297	7162.93
906.611	7114.8
906.924	7124.52
907.237	7115.93
907.551	7030.51
907.864	6990.06
908.177	7058.53
908.491	6992.09
908.804	6960
909.117	6935.82
909.43	6845.43
909.743	6838.42
910.056	6857.63
910.368	6819.89
910.681	6744.64
910.994	6757.75
911.307	6743.06
911.619	6681.36
911.932	6717.52
912.244	6600.24
912.557	6598.2
912.869	6565.66
913.181	6573.34
913.494	6545.1
913.806	6524.31
914.118	6473.69
914.43	6430.52
914.742	6454.03
915.054	6393.69
915.366	6360.69
915.678	6358.66
915.99	6339.68
916.302	6322.5
916.613	6257.65
916.925	6287.48
917.236	6223.97
917.548	6217.2
917.859	6216.07
918.171	6140.59
918.482	6123.41
918.794	6091.77
919.105	6026.69
919.416	6059.23
919.727	6048.84
920.038	6005.22
920.349	5961.38
920.66	5943.3
920.971	5907.6
921.282	5958.22
921.593	5894.04
921.903	5865.79
922.214	5787.38
922.525	5805.23
922.835	5789.18
923.146	5675.29
923.456	5744.89
923.767	5689.3
924.077	5689.53
924.387	5666.7
924.697	5591.9
925.008	5612.92
925.318	5611.11
925.628	5562.98
925.938	5576.53
926.248	5515.07
926.558	5468.51
926.867	5492.24
927.177	5451.11
927.487	5456.54
927.796	5405.69
928.106	5362.3
928.416	5321.17
928.725	5334.96
929.034	5324.79
929.344	5301.97
929.653	5297.45
929.962	5252.93
930.271	5256.32
930.581	5223.55
930.89	5118.92
931.199	5191.46
931.508	5165.02
931.817	5146.94
932.125	5131.8
932.434	5098.35
932.743	5039.83
933.051	5046.6
933.36	5030.56
933.669	4964.35
933.977	4948.53
934.286	4961.64
934.594	4978.36
934.902	4896.1
935.21	4924.12
935.519	4847.29
935.827	4847.06
936.135	4817.91
936.443	4746.73
936.751	4735.88
937.059	4790.11
937.367	4728.87
937.674	4732.94
937.982	4684.13
938.29	4664.69
938.597	4692.94
938.905	4603.9
939.213	4613.62
939.52	4600.74
939.827	4582.89
940.135	4565.49
940.442	4520.74
940.749	4529.33
941.056	4528.2
941.363	4452.04
941.67	4427.64
941.977	4464.25
942.284	4417.69
942.591	4425.6
942.898	4405.94
943.205	4373.18
943.511	4349.45
943.818	4327.53
944.125	4303.12
944.431	4292.73
944.738	4270.13
945.044	4263.12
945.35	4230.35
945.657	4216.8
945.963	4224.25
946.269	4194.42
946.575	4200.98
946.881	4127.76
947.187	4109.91
947.493	4137.7
947.799	4106.52
948.105	4075.1
948.41	4085.05
948.716	4036.46
949.022	4000.98
949.327	4042.34
949.633	3966.18
949.938	4031.94
950.244	3943.36
950.549	3953.75
950.854	3935.9
951.16	3893.64
951.465	3935.45
951.77	3914.43
952.075	3860.42
952.38	3845.05
952.685	3814.77
952.99	3779.29
953.294	3820.2
953.599	3798.28
953.904	3783.13
954.209	3757.37
954.513	3722.12
954.818	3689.58
955.122	3698.84
955.426	3694.55
955.731	3655.23
956.035	3661.33
956.339	3623.37
956.643	3587.21
956.948	3553.08
957.252	3626.53
957.556	3556.93
957.86	3541.79
958.163	3537.49
958.467	3520.32
958.771	3506.31
959.075	3532.29
959.378	3477.38
959.682	3502.24
959.985	3460.43
960.289	3430.38
960.592	3449.36
960.896	3387.21
961.199	3411.85
961.502	3415.24
961.805	3374.33
962.108	3351.51
962.411	3325.29
962.714	3328.01
963.017	3298.85
963.32	3303.37
963.623	3297.05
963.926	3318.51
964.228	3271.06
964.531	3228.12
964.833	3242.58
965.136	3174.34
965.438	3220.66
965.741	3149.71
966.043	3182.02
966.345	3138.63
966.648	3111.97
966.95	3136.82
967.252	3107.45
967.554	3119.65
967.856	3088.92
968.158	3048.92
968.46	3061.57
968.761	3044.85
969.063	3071.74
969.365	3027.22
969.666	2986.55
969.968	2988.81
970.269	3022.25
970.571	2962.14
970.872	2958.07
971.174	2914.23
971.475	2944.74
971.776	2900.9
972.077	2932.31
972.378	2880.79
972.679	2885.08
972.98	2856.83
973.281	2841.92
973.582	2874.68
973.883	2827.68
974.183	2839.43
974.484	2840.33
974.785	2767.34
975.085	2782.71
975.386	2835.59
975.686	2775.03
975.986	2758.08
976.287	2740.45
976.587	2707.68
976.887	2704.29
977.187	2690.73
977.487	2681.24
977.787	2676.27
978.087	2695.48
978.387	2653.9
978.687	2635.14
978.987	2639.89
979.286	2613
979.586	2617.97
979.885	2594.01
980.185	2578.19
980.484	2558.08
980.784	2596.95
981.083	2565.54
981.382	2525.54
981.682	2511.08
981.981	2494.36
982.28	2495.94
982.579	2501.59
982.878	2482.6
983.177	2487.8
983.475	2495.94
983.774	2452.1
984.073	2464.07
984.372	2418.65
984.67	2436.5
984.969	2395.37
985.267	2431.31
985.566	2388.37
985.864	2389.5
986.162	2405.54
986.461	2385.88
986.759	2349.5
987.057	2343.85
987.355	2343.85
987.653	2350.4
987.951	2326
988.249	2268.15
988.547	2300.91
988.844	2288.26
989.142	2260.01
989.44	2272.21
989.737	2240.12
990.035	2224.98
990.332	2228.15
990.63	2217.3
990.927	2185.44
991.224	2192.89
991.521	2157.87
991.819	2190.86
992.116	2183.86
992.413	2184.98
992.71	2141.14
993.006	2130.52
993.303	2155.83
993.6	2128.72
993.897	2116.74
994.193	2135.27
994.49	2122.39
994.787	2100.24
995.083	2058.66
995.379	2083.07
995.676	2086
995.972	2048.27
996.268	2067.7
996.565	2029.73
996.861	2013.46
997.157	2043.29
997.453	1993.58
997.749	2005.55
998.044	1982.73
998.34	1978.89
998.636	1944.54
998.932	1941.83
999.227	1945.9
999.523	1936.86
999.818	1916.74
1000.114	1901.38
1000.409	1888.27
1000.704	1890.98
1001	1913.81
1001.295	1837.2
1001.59	1822.28
1001.885	1869.06
1002.18	1844.88
1002.475	1842.85
1002.77	1804.88
1003.065	1824.99
1003.359	1829.29
1003.654	1773.24
1003.949	1779.12
1004.243	1769.4
1004.538	1766.92
1004.832	1768.5
1005.127	1757.88
1005.421	1747.71
1005.715	1721.72
1006.009	1735.28
1006.304	1679.91
1006.598	1716.07
1006.892	1719.69
1007.186	1683.76
1007.48	1660.48
1007.773	1641.72
1008.067	1652.57
1008.361	1666.58
1008.655	1642.17
1008.948	1644.21
1009.242	1618.22
1009.535	1633.14
1009.829	1610.08
1010.122	1574.83
1010.415	1543.87
1010.708	1589.07
1011.001	1558.56
1011.295	1552.91
1011.588	1559.24
1011.881	1558.79
1012.173	1560.59
1012.466	1501.61
1012.759	1499.35
1013.052	1511.33
1013.344	1490.09
1013.637	1499.13
1013.93	1488.05
1014.222	1462.97
1014.514	1470.43
1014.807	1472.91
1015.099	1441.05
1015.391	1468.39
1015.683	1445.57
1015.976	1438.79
1016.268	1395.63
1016.56	1413.48
1016.851	1407.38
1017.143	1403.31
1017.435	1385.91
1017.727	1371.45
1018.018	1355.18
1018.31	1373.93
1018.602	1350.2
1018.893	1327.38
1019.185	1332.35
1019.476	1317.66
1019.767	1333.26
1020.058	1319.7
1020.35	1297.55
1020.641	1280.6
1020.932	1278.57
1021.223	1266.82
1021.514	1270.43
1021.804	1252.81
1022.095	1272.24
1022.386	1210.1
1022.677	1250.32
1022.967	1224.11
1023.258	1210.77
1023.548	1234.05
1023.839	1199.25
1024.129	1193.15
1024.419	1172.81
1024.709	1175.07
1025	1170.77
1025.29	1158.8
1025.58	1176.2
1025.87	1159.02
1026.16	1147.27
1026.449	1153.6
1026.739	1142.07
1027.029	1114.5
1027.319	1109.76
1027.608	1117.44
1027.898	1093.26
1028.187	1110.66
1028.477	1110.66
1028.766	1078.35
1029.055	1076.99
1029.344	1057.56
1029.634	1077.44
1029.923	1064.56
1030.212	1059.14
1030.501	1047.84
1030.79	1039.03
1031.078	1038.57
1031.367	1031.34
1031.656	1027.05
1031.945	1010.55
1032.233	1018.91
1032.522	1033.15
1032.81	996.32
1033.099	1006.48
1033.387	973.49
1033.675	996.32
1033.963	977.56
1034.251	961.97
1034.54	919.93
1034.828	955.19
1035.116	944.34
1035.403	931.46
1035.691	954.96
1035.979	928.97
1036.267	920.16
1036.554	906.15
1036.842	894.4
1037.129	925.13
1037.417	896.21
1037.704	877.67
1037.992	884.91
1038.279	912.25
1038.566	902.53
1038.853	902.53
1039.14	902.53
