Data from hue_38_FLMS001491_00016.txt Node
Date: Tue Feb 07 17:31:07 GMT 2017
User: dcchb
Spectrometer: FLMS00149
Trigger mode: 0
Integration Time (sec): 2.000000E-2
Scans to average: 10
Electric dark correction enabled: true
Nonlinearity correction enabled: false
Boxcar width: 0
XAxis mode: Wavelengths
Number of Pixels in Spectrum: 2048
>>>>>Begin Spectral Data<<<<<
341.393	-12.92
341.776	-12.92
342.16	-12.92
342.543	-58.35
342.927	-66.03
343.31	-62.41
343.693	-61.28
344.077	-40.95
344.46	-74.62
344.843	-48.85
345.226	-40.72
345.61	-62.19
345.993	-6.37
346.376	-5.69
346.759	0.64
347.142	43.12
347.525	46.96
347.908	51.71
348.291	62.55
348.674	96
349.057	102.1
349.44	113.63
349.823	122.89
350.206	148.88
350.588	206.96
350.971	204.92
351.354	214.64
351.737	241.31
352.119	258.26
352.502	259.16
352.884	257.13
353.267	279.95
353.65	297.12
354.032	306.16
354.414	300.06
354.797	306.16
355.179	322.21
355.562	333.28
355.944	324.24
356.326	325.82
356.709	354.3
357.091	329.21
357.473	331.47
357.855	326.73
358.238	344.13
358.62	361.3
359.002	349.1
359.384	338.25
359.766	329.21
360.148	349.33
360.53	351.59
360.912	340.51
361.294	352.04
361.676	331.25
362.057	323.56
362.439	338.71
362.821	336.9
363.203	350.68
363.584	343.68
363.966	324.69
364.348	342.1
364.729	337.12
365.111	336.9
365.493	322.21
365.874	309.33
366.256	332.15
366.637	324.02
367.019	312.72
367.4	321.98
367.781	318.14
368.163	338.48
368.544	321.98
368.925	308.88
369.306	326.28
369.688	324.47
370.069	307.29
370.45	311.59
370.831	331.93
371.212	334.64
371.593	348.42
371.974	307.29
372.355	314.07
372.736	311.36
373.117	321.98
373.498	322.66
373.879	333.96
374.26	320.18
374.641	331.02
375.021	324.02
375.402	322.89
375.783	323.34
376.163	342.55
376.544	320.85
376.925	342.55
377.305	326.95
377.686	312.72
378.066	325.15
378.447	324.69
378.827	332.83
379.208	343.68
379.588	322.89
379.968	342.32
380.349	321.53
380.729	354.98
381.109	328.54
381.489	369.44
381.87	352.04
382.25	338.48
382.63	333.06
383.01	352.72
383.39	347.52
383.77	342.1
384.15	344.81
384.53	365.15
384.91	356.33
385.29	345.49
385.67	341.87
386.049	372.83
386.429	344.13
386.809	376.44
387.189	358.14
387.568	348.42
387.948	349.33
388.328	343.45
388.707	364.69
389.087	349.78
389.466	364.92
389.846	365.15
390.225	364.02
390.605	354.3
390.984	350.91
391.363	376.67
391.743	370.12
392.122	369.67
392.501	383.9
392.881	388.2
393.26	384.35
393.639	371.25
394.018	373.06
394.397	387.97
394.776	383.68
395.155	382.55
395.534	366.73
395.913	406.95
396.292	392.26
396.671	373.06
397.05	387.74
397.429	398.59
397.808	382.09
398.186	362.43
398.565	387.97
398.944	379.38
399.323	406.95
399.701	405.37
400.08	390.46
400.458	409.21
400.837	395.88
401.215	400.4
401.594	390.23
401.972	410.79
402.351	414.64
402.729	411.25
403.107	386.16
403.486	408.08
403.864	393.62
404.242	421.42
404.62	410.12
404.999	410.79
405.377	415.54
405.755	414.41
406.133	423.9
406.511	426.16
406.889	421.42
407.267	441.98
407.645	436.78
408.023	421.87
408.401	444.47
408.779	423
409.156	453.73
409.534	458.7
409.912	438.36
410.29	438.36
410.667	454.86
411.045	449.89
411.422	468.42
411.8	440.4
412.178	445.6
412.555	454.18
412.933	442.21
413.31	491.7
413.687	470
414.065	481.07
414.442	468.65
414.819	488.31
415.197	495.09
415.574	482.2
415.951	492.83
416.328	487.18
416.705	513.16
417.082	486.5
417.46	515.42
417.837	512.26
418.214	502.54
418.591	513.84
418.967	496.44
419.344	508.19
419.721	515.42
420.098	503.9
420.475	502.32
420.852	514.52
421.228	531.92
421.605	521.07
421.982	545.48
422.358	545.03
422.735	564.01
423.111	535.76
423.488	545.93
423.864	559.94
424.241	557.23
424.617	535.31
424.994	585.48
425.37	564.01
425.746	583.67
426.123	553.62
426.499	572.82
426.875	573.28
427.251	595.65
427.627	608.08
428.003	579.15
428.379	582.32
428.756	612.82
429.132	612.82
429.507	605.59
429.883	601.3
430.259	612.6
430.635	622.31
431.011	600.62
431.387	627.96
431.763	656.21
432.138	660.28
432.514	645.59
432.89	649.21
433.265	653.73
433.641	672.03
434.016	650.79
434.392	664.12
434.767	684.91
435.143	665.25
435.518	680.17
435.894	668.87
436.269	695.53
436.644	709.32
437.02	719.26
437.395	698.47
437.77	708.41
438.145	711.58
438.52	723.33
438.895	701.41
439.271	742.76
439.646	740.73
440.021	740.73
440.395	720.39
440.77	734.85
441.145	745.02
441.52	754.06
441.895	760.39
442.27	770.78
442.645	757.9
443.019	783.89
443.394	782.76
443.769	787.96
444.143	790.67
444.518	791.35
444.892	802.42
445.267	798.35
445.641	806.04
446.016	822.08
446.39	817.11
446.764	813.04
447.139	814.63
447.513	829.31
447.887	841.74
448.262	837.45
448.636	825.02
449.01	832.03
449.384	843.55
449.758	853.04
450.132	864.34
450.506	860.95
450.88	888.3
451.254	851.91
451.628	877.9
452.002	868.41
452.376	882.19
452.75	918.8
453.123	907.96
453.497	931.01
453.871	924.45
454.244	931.68
454.618	950.67
454.992	968.75
455.365	983.66
455.739	993.38
456.112	980.04
456.486	961.51
456.859	980.5
457.232	1033.38
457.606	1004.45
457.979	1028.18
458.352	1026.15
458.725	1050.1
459.099	1063.43
459.472	1102.98
459.845	1092.13
460.218	1084.22
460.591	1100.49
460.964	1115.63
461.337	1125.58
461.71	1163.32
462.083	1137.78
462.456	1156.31
462.829	1159.93
463.201	1185.92
463.574	1177.78
463.947	1209.64
464.32	1236.08
464.692	1230.21
465.065	1249.42
465.438	1261.85
465.81	1288.96
466.183	1334.84
466.555	1343.65
466.928	1346.36
467.3	1385.68
467.672	1386.59
468.045	1394.27
468.417	1403.76
468.789	1457.77
469.161	1468.39
469.534	1482.18
469.906	1521.27
470.278	1512.69
470.65	1544.32
471.022	1591.1
471.394	1594.27
471.766	1646.69
472.138	1662.29
472.51	1675.39
472.882	1740.02
473.253	1746.35
473.625	1778.89
473.997	1800.59
474.369	1861.6
474.74	1893.24
475.112	1901.83
475.484	1941.83
475.855	2007.59
476.227	2025.22
476.598	2097.53
476.97	2129.39
477.341	2207.81
477.713	2223.4
478.084	2266.79
478.455	2350.63
478.827	2371.19
479.198	2462.49
479.569	2482.83
479.94	2580.91
480.311	2645.54
480.682	2691.64
481.053	2749.94
481.424	2846.89
481.795	2908.81
482.166	2974.79
482.537	3019.54
482.908	3123.04
483.279	3194.9
483.65	3268.35
484.021	3371.62
484.391	3461.56
484.762	3528.68
485.133	3618.62
485.503	3687.09
485.874	3767.32
486.244	3867.88
486.615	3994.43
486.985	4033.75
487.356	4163.01
487.726	4215.67
488.097	4367.75
488.467	4434.19
488.837	4566.62
489.207	4664.69
489.578	4762.09
489.948	4843.45
490.318	4904.01
490.688	5040.28
491.058	5169.54
491.428	5320.04
491.798	5410.66
492.168	5532.92
492.538	5579.02
492.908	5690.2
493.278	5756.87
493.648	5875.06
494.017	5999.35
494.387	6107.59
494.757	6166.58
495.126	6343.07
495.496	6402.95
495.866	6517.07
496.235	6636.17
496.605	6719.33
496.974	6791.42
497.344	6908.25
497.713	6983.95
498.082	7065.31
498.452	7168.81
498.821	7278.18
499.19	7380.33
499.559	7450.38
499.928	7569.7
500.298	7582.58
500.667	7738.06
501.036	7755.01
501.405	7921.33
501.774	7892.18
502.143	8072.06
502.512	8132.63
502.88	8194.54
503.249	8281.1
503.618	8356.57
503.987	8475.44
504.356	8532.84
504.724	8591.82
505.093	8622.1
505.462	8783
505.83	8816.67
506.199	8914.98
506.567	9052.6
506.936	9082.66
507.304	9188.87
507.672	9271.58
508.041	9344.8
508.409	9448.07
508.777	9506.37
509.145	9573.49
509.514	9624.34
509.882	9688.29
510.25	9761.73
510.618	9812.35
510.986	9905.23
511.354	9973.25
511.722	10143.65
512.09	10189.75
512.458	10154.72
512.826	10294.6
513.193	10371.44
513.561	10423.41
513.929	10462.28
514.297	10587.25
514.664	10619.57
515.032	10737.08
515.4	10747.25
515.767	10875.38
516.135	10956.05
516.502	10837.86
516.869	11020.91
517.237	11071.76
517.604	11083.06
517.972	11191.3
518.339	11316.5
518.706	11325.31
519.073	11375.48
519.44	11420.67
519.808	11623.61
520.175	11579.99
520.542	11723.27
520.909	11781.34
521.276	11885.29
521.643	11932.53
522.009	12035.35
522.376	12027.89
522.743	12097.27
523.11	12290.71
523.477	12339.07
523.843	12418.16
524.21	12568.89
524.577	12609.12
524.943	12642.79
525.31	12769.79
525.676	12852.28
526.043	12953.74
526.409	12871.71
526.776	13145.83
527.142	13132.49
527.508	13229.21
527.874	13355.54
528.241	13381.53
528.607	13458.36
528.973	13608.64
529.339	13594.85
529.705	13724.34
530.071	13873.49
530.437	13928.4
530.803	13924.34
531.169	14025.35
531.535	14078.46
531.901	14104.9
532.267	14243.88
532.632	14285.91
532.998	14337.21
533.364	14393.93
533.73	14463.76
534.095	14530.65
534.461	14613.58
534.826	14633.47
535.192	14744.2
535.557	14730.42
535.923	14829.85
536.288	14894.03
536.653	14988.49
537.019	14890.41
537.384	15063.52
537.749	15234.59
538.114	15190.07
538.479	15197.75
538.845	15362.49
539.21	15254.7
539.575	15356.84
539.94	15450.62
540.305	15571.3
540.67	15511.87
541.034	15630.28
541.399	15700.34
541.764	15705.08
542.129	15797.06
542.494	15856.72
542.858	15874.57
543.223	15906.66
543.587	15963.15
543.952	15983.49
544.316	16088.35
544.681	16086.77
545.045	16209.25
545.41	16374.22
545.774	16357.27
546.138	16400.43
546.503	16507.09
546.867	16541.44
547.231	16664.38
547.595	16742.57
547.959	16664.83
548.324	16732.85
548.688	16794.54
549.052	16862.11
549.416	16879.74
549.779	16966.07
550.143	17042.22
550.507	17094.2
550.871	17137.13
551.235	17146.85
551.599	17303.68
551.962	17356.34
552.326	17321.08
552.689	17481.76
553.053	17432.04
553.417	17506.16
553.78	17711.81
554.143	17554.75
554.507	17747.29
554.87	17851.01
555.234	17983.21
555.597	17867.06
555.96	17956.55
556.323	18045.81
556.686	18093.95
557.05	18185.02
557.413	18239.03
557.776	18216.65
558.139	18475.18
558.502	18480.15
558.865	18371.23
559.228	18608.06
559.59	18624.78
559.953	18611.9
560.316	18815.96
560.679	18814.38
561.041	18891.89
561.404	19036.07
561.767	19038.1
562.129	18972.34
562.492	19195.16
562.854	19241.94
563.217	19189.06
563.579	19269.51
563.941	19408.94
564.304	19575.71
564.666	19637.86
565.028	19642.6
565.39	19746.11
565.753	19860
566.115	19987.23
566.477	20032.65
566.839	20023.39
567.201	20179.31
567.563	20207.79
567.925	20309.25
568.287	20357.84
568.648	20426.31
569.01	20524.39
569.372	20658.4
569.734	20610.04
570.095	20771.84
570.457	20940.88
570.819	21007.77
571.18	20947.43
571.542	21082.57
571.903	21043.7
572.265	21236.24
572.626	21347.64
572.987	21406.85
573.349	21411.37
573.71	21632.61
574.071	21646.62
574.432	21769.33
574.794	22057.46
575.155	21933.84
575.516	21947.18
575.877	22148.3
576.238	22241.63
576.599	22378.8
576.96	22457.22
577.32	22502.42
577.681	22667.16
578.042	22885.91
578.403	22920.03
578.763	22976.53
579.124	23210.87
579.485	23385.78
579.845	23520.47
580.206	23539.23
580.566	23686.79
580.927	23929.5
581.287	24001.81
581.648	24133.79
582.008	24301.47
582.368	24423.72
582.728	24638.41
583.089	24684.28
583.449	24882.69
583.809	24995.46
584.169	25307.77
584.529	25362
584.889	25672.28
585.249	25702.33
585.609	25819.84
585.969	26235.43
586.329	26368.98
586.688	26514.29
587.048	26590.44
587.408	26891.68
587.768	27034.95
588.127	27170.09
588.487	27410.31
588.846	27853.24
589.206	27876.06
589.565	28015.04
589.925	28264.98
590.284	28419.78
590.643	28647.57
591.003	28835.36
591.362	29148.34
591.721	29345.17
592.08	29565.06
592.44	29772.96
592.799	30042.78
593.158	30162.33
593.517	30359.39
593.876	30578.14
594.235	30708.75
594.593	30871.69
594.952	31116.65
595.311	31313.71
595.67	31456.76
596.029	31936.97
596.387	31963.18
596.746	32296.74
597.104	32262.16
597.463	32480.46
597.822	32789.6
598.18	32864.63
598.538	33023.04
598.897	33376.71
599.255	33290.38
599.613	33792.29
599.972	33844.27
600.33	33937.6
600.688	34050.36
601.046	34356.34
601.404	34637.01
601.762	34675.88
602.12	35059.83
602.478	35026.16
602.836	35368.75
603.194	35281.97
603.552	35516.09
603.91	35518.57
604.268	35803.31
604.625	35871.33
604.983	36037.65
605.341	36053.92
605.698	36344.54
606.056	36561.26
606.413	36742.27
606.771	37048.02
607.128	37022.71
607.485	37005.99
607.843	37206.44
608.2	37469.25
608.557	37814.1
608.914	37646.88
609.272	37902.46
609.629	38062.23
609.986	38213.87
610.343	38182.91
610.7	38489.34
611.057	38485.95
611.414	38679.17
611.771	38823.57
612.127	39048.65
612.484	39186.27
612.841	39300.85
613.198	39103.34
613.554	39278.02
613.911	39644.79
614.267	39591.23
614.624	39739.25
614.98	39793.71
615.337	40052.46
615.693	40086.36
616.05	40016.98
616.406	40313.47
616.762	40357.09
617.118	40333.13
617.475	40429.63
617.831	40724.99
618.187	40612.9
618.543	40830.07
618.899	41070.97
619.255	40937.64
619.611	40942.38
619.967	41156.84
620.323	41360.68
620.678	41273
621.034	41161.36
621.39	41305.99
621.746	41311.41
622.101	41694.45
622.457	41437.29
622.812	41604.51
623.168	41756.37
623.523	41863.26
623.879	41994.79
624.234	41778.07
624.589	41875.92
624.945	41917.27
625.3	42225.74
625.655	42063.03
626.01	42195.01
626.365	42342.35
626.72	42183.93
627.075	42250.37
627.43	42276.59
627.785	42195.91
628.14	42329.24
628.495	42351.61
628.85	42358.17
629.205	42326.08
629.559	42431.38
629.914	42190.71
630.269	42395
630.623	42308.22
630.978	42265.96
631.332	42459.63
631.687	42575.34
632.041	42345.96
632.396	42549.35
632.75	42305.51
633.104	42528.78
633.459	42305.29
633.813	42354.32
634.167	42184.61
634.521	42288.79
634.875	42518.39
635.229	42398.16
635.583	42202.46
635.937	42291.95
636.291	42197.72
636.645	42462.12
636.999	42211.73
637.352	42280.2
637.706	42097.61
638.06	42306.87
638.413	42112.07
638.767	42079.98
639.121	42103.71
639.474	41911.62
639.828	42101.45
640.181	41986.88
640.534	41963.6
640.888	42076.82
641.241	41968.57
641.594	41870.95
641.947	42104.84
642.301	41789.37
642.654	41841.57
643.007	42003.6
643.36	41921.12
643.713	41898.97
644.066	42002.7
644.419	41686.32
644.771	41487
645.124	41103.28
645.477	41166.56
645.83	41035.94
646.182	40720.24
646.535	40687.7
646.888	40810.41
647.24	40451.55
647.593	40750.75
647.945	40697.42
648.298	40425.11
648.65	40499.01
649.002	40279.8
649.355	40513.69
649.707	40575.61
650.059	40711.43
650.411	41227.8
650.763	41351.64
651.115	41621.69
651.467	41454.23
651.819	41402.26
652.171	41356.38
652.523	41229.83
652.875	41197.97
653.227	41142.83
653.578	41315.48
653.93	41350.96
654.282	41132.21
654.633	41046.11
654.985	41007.01
655.337	40946
655.688	41113
656.039	41337.85
656.391	40924.53
656.742	41113.45
657.094	41102.61
657.445	41282.26
657.796	41024.42
658.147	40929.5
658.498	40991.87
658.849	41030.74
659.2	41001.37
659.551	40894.7
659.902	41101.25
660.253	41002.04
660.604	40994.59
660.955	40869.17
661.306	41087.46
661.656	40939.67
662.007	40950.07
662.358	41049.27
662.708	40988.26
663.059	41012.21
663.409	40649.74
663.76	41033.45
664.11	40839.79
664.461	40972.89
664.811	40974.47
665.161	40856.06
665.511	40781.71
665.862	40842.73
666.212	40926.11
666.562	40826
666.912	40901.03
667.262	40933.57
667.612	40668.27
667.962	40825.32
668.312	40829.62
668.662	40997.52
669.011	40866.23
669.361	40878.2
669.711	40771.31
670.06	40689.74
670.41	40629.62
670.76	40547.37
671.109	40712.56
671.459	40437.31
671.808	40660.81
672.157	40627.59
672.507	40339.91
672.856	40424.21
673.205	40525.45
673.554	40581.72
673.904	40392.57
674.253	40729.28
674.602	40567.48
674.951	40026.7
675.3	39830.32
675.649	40534.71
675.998	40320.71
676.346	40393.25
676.695	40520.25
677.044	40158.22
677.393	40362.06
677.741	40414.04
678.09	40322.06
678.438	40256.75
678.787	40357.09
679.135	40226.47
679.484	39990.77
679.832	40189.64
680.181	39939.92
680.529	40033.03
680.877	39936.08
681.225	39965.46
681.573	40084.33
681.922	39651.8
682.27	39703.09
682.618	39826.48
682.966	39654.06
683.314	39570.22
683.661	39626.71
684.009	39608.18
684.357	39254.52
684.705	39250.23
685.053	39400.5
685.4	39299.26
685.748	39149.89
686.095	39057.91
686.443	39109.44
686.79	39067.63
687.138	39153.05
687.485	38992.6
687.832	38944.47
688.18	38885.04
688.527	38665.16
688.874	38739.05
689.221	38596.68
689.568	38413.86
689.915	38513.07
690.262	38588.1
690.609	38465.84
690.956	38142.68
691.303	38265.17
691.65	38047.09
691.997	38033.99
692.344	37787.44
692.69	37797.16
693.037	37894.1
693.383	37504.96
693.73	37671.28
694.077	37475.58
694.423	37463.38
694.769	37380.9
695.116	37334.8
695.462	37232.65
695.808	37102.26
696.155	37176.16
696.501	36942.94
696.847	36949.49
697.193	36619.11
697.539	36758.31
697.885	36581.59
698.231	36405.33
698.577	36429.06
698.923	36482.84
699.269	36121.72
699.614	35989.29
699.96	35919.01
700.306	36013.93
700.651	35759.7
700.997	35683.54
701.342	35805.34
701.688	35543.88
702.033	35369.42
702.379	35504.33
702.724	35483.54
703.069	35488.06
703.415	35057.34
703.76	35046.27
704.105	35041.75
704.45	34958.59
704.795	34805.6
705.14	34783
705.485	34642.66
705.83	34563.12
706.175	34573.29
706.52	34524.93
706.865	34366.74
707.209	34328.55
707.554	34226.63
707.899	34311.15
708.243	34091.72
708.588	34109.8
708.932	33780.99
709.277	33741.22
709.621	33892.4
709.966	33649.69
710.31	33631.39
710.654	33471.39
710.998	33524.95
711.342	33366.09
711.687	33433.43
712.031	33155.47
712.375	32998.64
712.719	33145.07
713.063	33059.88
713.407	33263.04
713.75	32939.2
714.094	32918.64
714.438	32740.11
714.782	32839.09
715.125	32528.82
715.469	32745.31
715.812	32541.93
716.156	32451.76
716.499	32496.73
716.843	32405.21
717.186	32208.38
717.53	32405.21
717.873	32364.76
718.216	32251.09
718.559	32150.07
718.902	31995.5
719.246	32033.01
719.589	31900.81
719.932	31800.25
720.275	31819.23
720.617	31925.67
720.96	31627.15
721.303	31773.36
721.646	31702.85
721.989	31453.14
722.331	31609.75
722.674	31494.5
723.016	31480.94
723.359	31344.44
723.701	31424.44
724.044	31198.23
724.386	31157.78
724.729	31234.16
725.071	31121.63
725.413	31061.06
725.755	31140.16
726.097	30936.32
726.439	30944.68
726.782	30817
727.124	31053.38
727.465	30757.57
727.807	30792.82
728.149	30793.72
728.491	30659.04
728.833	30707.62
729.175	30537.91
729.516	30507.63
729.858	30447.07
730.199	30487.29
730.541	30367.29
730.882	30464.69
731.224	30264.92
731.565	30144.93
731.906	30231.03
732.248	30222.89
732.589	30064.48
732.93	29961.2
733.271	30057.92
733.612	29997.36
733.953	30127.75
734.294	29931.37
734.635	29766.86
734.976	29950.36
735.317	29773.41
735.658	29641.89
735.999	29772.73
736.339	29716.46
736.68	29707.65
737.021	29544.04
737.361	29461.56
737.702	29618.61
738.042	29532.51
738.383	29427.88
738.723	29432.4
739.063	29361.9
739.404	29377.26
739.744	29334.33
740.084	29138.17
740.424	29263.37
740.764	29179.3
741.104	29203.94
741.444	29001
741.784	28742.7
742.124	29078.52
742.464	28917.84
742.804	28881.68
743.143	28784.06
743.483	28910.38
743.823	28732.76
744.162	28764.63
744.502	28805.08
744.841	28634.23
745.181	28653.22
745.52	28480.79
745.86	28702.25
746.199	28590.39
746.538	28406.22
746.877	28509.49
747.216	28504.97
747.556	28519.43
747.895	28461.13
748.234	28323.28
748.573	28234.47
748.911	28196.96
749.25	28249.16
749.589	28158.09
749.928	28090.07
750.267	28029.28
750.605	28003.06
750.944	28020.24
751.283	27835.84
751.621	27960.35
751.96	27751.09
752.298	27743.86
752.636	27660.02
752.975	27645.11
753.313	27543.41
753.651	27599.23
753.989	27562.62
754.327	27337.32
754.666	27293.7
755.004	27273.14
755.342	27370.09
755.679	27283.76
756.017	27127.61
756.355	27159.7
756.693	27007.61
757.031	27134.16
757.368	26926.48
757.706	26922.41
758.044	26755.86
758.381	26761.51
758.719	26693.49
759.056	26740.27
759.394	26649.88
759.731	26385.03
760.068	26486.72
760.405	26286.5
760.743	26230.91
761.08	26392.26
761.417	26139.16
761.754	26175.99
762.091	26057.13
762.428	25980.07
762.765	25884.7
763.102	25917.92
763.438	25888.54
763.775	25591.38
764.112	25706.85
764.449	25604.93
764.785	25458.72
765.122	25246.98
765.458	25170.82
765.795	25271.16
766.131	25129.47
766.467	25001.56
766.804	24935.8
767.14	24773.32
767.476	24789.36
767.812	24772.64
768.148	24715.69
768.485	24525.41
768.821	24559.31
769.157	24404.97
769.492	24378.3
769.828	24417.85
770.164	24039.78
770.5	24110.96
770.836	24084.97
771.171	23920.23
771.507	23738.09
771.842	23800.24
772.178	23598.21
772.513	23643.4
772.849	23541.26
773.184	23519.79
773.519	23418.1
773.855	23246.13
774.19	23238.22
774.525	23115.28
774.86	23083.42
775.195	23032.12
775.53	22903.99
775.865	22780.38
776.2	22646.59
776.535	22537.9
776.87	22566.37
777.205	22478.01
777.539	22371.35
777.874	22397.79
778.209	22165.48
778.543	22233.72
778.878	22079.83
779.212	22014.29
779.547	21902.88
779.881	21878.03
780.215	21700.18
780.55	21868.08
780.884	21659.28
781.218	21557.81
781.552	21525.27
781.886	21383.35
782.22	21330.47
782.554	21313.75
782.888	21043.7
783.222	20977.26
783.556	20932.74
783.889	20912.4
784.223	20683.48
784.557	20757.38
784.89	20778.85
785.224	20642.13
785.557	20553.77
785.891	20405.97
786.224	20466.09
786.558	20490.04
786.891	20150.84
787.224	20184.51
787.557	20047.34
787.891	20003.5
788.224	20063.61
788.557	20036.49
788.89	19947.23
789.223	19877.18
789.556	19789.27
789.888	19710.17
790.221	19535.49
790.554	19460.46
790.887	19504.53
791.219	19393.12
791.552	19300.24
791.884	19240.13
792.217	19124.65
792.549	19068.61
792.882	19119.23
793.214	18907.94
793.546	18977.31
793.879	18804.43
794.211	18745
794.543	18793.59
794.875	18724.21
795.207	18719.92
795.539	18570.09
795.871	18520.15
796.203	18302.98
796.535	18363.54
796.867	18375.52
797.198	18305.24
797.53	18195.64
797.862	18109.09
798.193	18135.53
798.525	18029.77
798.856	18030.9
799.188	17824.12
799.519	17839.94
799.85	17752.49
800.182	17747.97
800.513	17720.85
800.844	17574.18
801.175	17668.87
801.506	17564.47
801.837	17409.44
802.168	17405.83
802.499	17352.04
802.83	17307.3
803.161	17328.09
803.491	17249.45
803.822	17199.51
804.153	17193.63
804.483	16987.08
804.814	16887.88
805.145	16875.22
805.475	16894.2
805.805	16921.55
806.136	16805.39
806.466	16859.63
806.796	16785.5
807.126	16618.28
807.457	16566.53
807.787	16496.92
808.117	16550.71
808.447	16486.3
808.777	16390.49
809.107	16397.49
809.436	16306.42
809.766	16315.01
810.096	16259.42
810.426	16133.32
810.755	16075.02
811.085	16168.8
811.414	16088.35
811.744	15920.22
812.073	15980.33
812.403	15956.83
812.732	15832.54
813.061	15875.02
813.39	15738.98
813.719	15734.01
814.049	15825.98
814.378	15718.87
814.707	15609.26
815.036	15687.91
815.365	15476.84
815.693	15417.18
816.022	15396.84
816.351	15442.72
816.68	15288.14
817.008	15452.21
817.337	15291.53
817.665	15087.47
817.994	15198.2
818.322	15185.32
818.651	15055.15
818.979	15010.41
819.307	15131.76
819.636	15002.95
819.964	14991.2
820.292	15089.73
820.62	15006.12
820.948	14960.02
821.276	14980.13
821.604	14983.29
821.932	14927.93
822.259	14973.35
822.587	14937.19
822.915	14874.59
823.243	14918.89
823.57	14877.08
823.898	14857.65
824.225	14818.33
824.553	14822.39
824.88	14841.6
825.207	14925.21
825.535	14865.56
825.862	14845.44
826.189	14819.68
826.516	14854.03
826.843	14910.07
827.17	14877.98
827.497	14903.97
827.824	14823.97
828.151	14930.19
828.478	14839.57
828.805	14956.63
829.131	14882.73
829.458	14820.81
829.785	14756.18
830.111	14717.76
830.438	14834.14
830.764	14894.03
831.09	14862.17
831.417	14760.93
831.743	14823.52
832.069	14858.1
832.395	14700.81
832.722	14842.73
833.048	14732.45
833.374	14739.68
833.7	14690.87
834.026	14696.97
834.351	14701.94
834.677	14652.45
835.003	14736.52
835.329	14735.62
835.654	14632.57
835.98	14537.2
836.306	14610.65
836.631	14455.4
836.956	14615.39
837.282	14540.59
837.607	14474.38
837.932	14336.76
838.258	14424.66
838.583	14427.15
838.908	14346.25
839.233	14325
839.558	14333.14
839.883	14248.85
840.208	14226.48
840.533	14210.21
840.858	14265.8
841.182	14166.14
841.507	14238.45
841.832	14104.45
842.156	14173.37
842.481	14101.96
842.805	14071.45
843.13	14094.95
843.454	14048.63
843.778	13886.6
844.103	13916.43
844.427	13901.96
844.751	13956.2
845.075	13803.66
845.399	13850.21
845.723	13762.08
846.047	13670.11
846.371	13618.81
846.695	13574.29
847.019	13477.34
847.343	13466.27
847.666	13406.61
847.99	13276.67
848.313	13325.03
848.637	13321.87
848.96	13224.47
849.284	13177.01
849.607	13075.77
849.931	13092.04
850.254	12959.39
850.577	12838.04
850.9	12843.91
851.223	12819.51
851.546	12789.9
851.869	12745.39
852.192	12735.22
852.515	12593.3
852.838	12537.71
853.161	12538.61
853.483	12462.91
853.806	12354.66
854.129	12455.45
854.451	12387.65
854.774	12293.87
855.096	12254.55
855.419	12206.87
855.741	12183.37
856.063	12103.37
856.385	11990.83
856.708	12017.95
857.03	11974.33
857.352	11972.3
857.674	11913.77
857.996	11902.47
858.318	11891.4
858.64	11870.61
858.961	11821.57
859.283	11850.27
859.605	11705.86
859.926	11791.51
860.248	11680.55
860.57	11621.12
860.891	11658.41
861.212	11633.1
861.534	11603.95
861.855	11537.96
862.176	11480.11
862.498	11503.38
862.819	11519.88
863.14	11410.05
863.461	11431.07
863.782	11448.24
864.103	11451.18
864.424	11381.81
864.745	11405.53
865.065	11366.44
865.386	11319.43
865.707	11250.51
866.027	11303.62
866.348	11277.85
866.668	11215.26
866.989	11236.5
867.309	11137.07
867.63	11167.35
867.95	11114.02
868.27	11074.92
868.59	11098.42
868.91	11039.89
869.23	11019.1
869.55	10998.76
869.87	11111.98
870.19	11008.03
870.51	11062.27
870.83	11023.62
871.15	10937.07
871.469	10954.25
871.789	10909.28
872.109	10964.87
872.428	10832.22
872.748	10861.59
873.067	10887.81
873.386	10937.52
873.706	10786.57
874.025	10740.24
874.344	10749.73
874.663	10761.26
874.982	10719.68
875.301	10735.27
875.62	10694.59
875.939	10707.02
876.258	10681.94
876.577	10593.35
876.896	10601.94
877.214	10565.78
877.533	10566.23
877.852	10516.52
878.17	10538.44
878.489	10567.36
878.807	10527.14
879.125	10581.15
879.444	10515.84
879.762	10439.23
880.08	10428.84
880.398	10387.48
880.716	10428.61
881.034	10356.52
881.352	10365.11
881.67	10358.1
881.988	10242.17
882.306	10288.05
882.624	10274.72
882.941	10275.39
883.259	10172.8
883.577	10190.42
883.894	10154.49
884.212	10113.14
884.529	10115.4
884.846	10144.32
885.164	10109.75
885.481	10098
885.798	10071.33
886.115	10004.44
886.432	9966.25
886.75	9983.2
887.067	9986.14
887.383	9969.41
887.7	9959.24
888.017	9920.6
888.334	9933.03
888.651	9799.47
888.967	9818
889.284	9799.25
889.6	9733.26
889.917	9637.9
890.233	9711.79
890.55	9648.29
890.866	9652.81
891.182	9631.34
891.498	9593.38
891.815	9554.28
892.131	9560.16
892.447	9468.86
892.763	9419.6
893.079	9457.79
893.395	9472.02
893.71	9346.6
894.026	9371.69
894.342	9338.02
894.657	9351.58
894.973	9274.29
895.289	9269.09
895.604	9255.99
895.92	9212.37
896.235	9234.07
896.55	9177.34
896.865	9104.58
897.181	9059.83
897.496	9041.98
897.811	9008.53
898.126	9004.92
898.441	8935.09
898.756	8961.53
899.071	8885.37
899.386	8833.85
899.7	8772.16
900.015	8790.91
900.33	8721.99
900.644	8748.43
900.959	8745.72
901.273	8765.15
901.588	8585.04
901.902	8633.18
902.216	8561.31
902.531	8541.88
902.845	8518.15
903.159	8451.49
903.473	8371.71
903.787	8392.28
904.101	8371.49
904.415	8373.75
904.729	8360.19
905.042	8333.98
905.356	8281.1
905.67	8208.1
905.984	8263.92
906.297	8226.63
906.611	8138.95
906.924	8097.37
907.237	8085.39
907.551	8070.93
907.864	8005.17
908.177	7987.32
908.491	7955.23
908.804	7911.61
909.117	7914.33
909.43	7819.19
909.743	7817.83
910.056	7804.95
910.368	7746.42
910.681	7717.95
910.994	7696.03
911.307	7603.15
911.619	7600.66
911.932	7552.3
912.244	7513.43
912.557	7567.44
912.869	7522.47
913.181	7489.25
913.494	7488.12
913.806	7386.66
914.118	7351.4
914.43	7356.83
914.742	7316.83
915.054	7307.34
915.366	7258.52
915.678	7212.42
915.99	7197.28
916.302	7161.8
916.613	7066.21
916.925	7088.58
917.236	7115.25
917.548	7036.61
917.859	7022.6
918.171	7011.75
918.482	6955.03
918.794	6956.16
919.105	6935.59
919.416	6871.42
919.727	6853.11
920.038	6847.46
920.349	6757.52
920.66	6734.92
920.971	6730.18
921.282	6743.06
921.593	6709.61
921.903	6656.73
922.214	6657.64
922.525	6579.67
922.835	6529.73
923.146	6482.95
923.456	6515.72
923.767	6453.8
924.077	6494.25
924.387	6428.49
924.697	6416.06
925.008	6317.08
925.318	6358.43
925.628	6302.16
925.938	6344.88
926.248	6233.47
926.558	6228.95
926.867	6207.7
927.177	6157.54
927.487	6162.28
927.796	6070.53
928.106	6124.09
928.416	6105.56
928.725	6075.96
929.034	5990.31
929.344	6088.16
929.653	5997.54
929.962	5844.1
930.271	5981.04
930.581	5910.76
930.89	5846.58
931.199	5816.3
931.508	5815.62
931.817	5806.81
932.125	5783.76
932.434	5756.19
932.743	5694.95
933.051	5721.62
933.36	5660.37
933.669	5649.75
933.977	5637.32
934.286	5576.08
934.594	5624.44
934.902	5570.43
935.21	5499.25
935.519	5488.17
935.827	5527.95
936.135	5472.58
936.443	5426.48
936.751	5351.91
937.059	5405.92
937.367	5384.67
937.674	5379.93
937.982	5356.43
938.29	5295.41
938.597	5305.13
938.905	5235.98
939.213	5229.42
939.52	5263.32
939.827	5242.53
940.135	5172.25
940.442	5130.67
940.749	5106.04
941.056	5172.48
941.363	5113.5
941.67	5078.24
941.977	5036.21
942.284	4979.04
942.591	4989.66
942.898	5005.93
943.205	4990.33
943.511	4917.57
943.818	4891.81
944.125	4861.07
944.431	4868.08
944.738	4849.32
945.044	4817.68
945.35	4819.04
945.657	4786.5
945.963	4792.15
946.269	4728.19
946.575	4697.91
946.881	4730
947.187	4701.53
947.493	4679.16
947.799	4653.62
948.105	4609.1
948.41	4592.61
948.716	4610.68
949.022	4645.94
949.327	4560.74
949.633	4506.96
949.938	4514.64
950.244	4506.73
950.549	4476.9
950.854	4445.04
951.16	4442.55
951.465	4428.77
951.77	4390.35
952.075	4386.06
952.38	4346.06
952.685	4355.78
952.99	4286.85
953.294	4321.2
953.599	4256.79
953.904	4253.41
954.209	4264.03
954.513	4224.03
954.818	4215.21
955.122	4179.51
955.426	4166.18
955.731	4140.19
956.035	4094.09
956.339	4116.23
956.643	4088.21
956.948	4094.54
957.252	4070.59
957.556	4031.04
957.86	4034.65
958.163	4022.68
958.467	3979.97
958.771	3928.89
959.075	3956.46
959.378	3913.75
959.682	3912.4
959.985	3903.58
960.289	3918.95
960.592	3833.98
960.896	3841.44
961.199	3831.95
961.502	3808.9
961.805	3801.44
962.108	3777.03
962.411	3746.75
962.714	3738.62
963.017	3747.88
963.32	3796.92
963.623	3683.02
963.926	3675.79
964.228	3667.88
964.531	3684.15
964.833	3641.9
965.136	3571.39
965.438	3593.54
965.741	3560.32
966.043	3539.98
966.345	3586.53
966.648	3513.99
966.95	3530.49
967.252	3495.23
967.554	3508.79
967.856	3478.96
968.158	3419.75
968.46	3467.21
968.761	3438.29
969.063	3430.15
969.365	3403.71
969.666	3405.29
969.968	3393.77
970.269	3372.07
970.571	3356.93
970.872	3342.47
971.174	3329.36
971.475	3308.8
971.776	3298.18
972.077	3262.02
972.378	3261.57
972.679	3273.32
972.98	3256.6
973.281	3232.64
973.582	3231.96
973.883	3174.56
974.183	3174.79
974.484	3179.99
974.785	3136.15
975.085	3137.95
975.386	3172.76
975.686	3099.54
975.986	3079.88
976.287	3057.96
976.587	3045.53
976.887	3038.07
977.187	3052.98
977.487	3013.44
977.787	3029.26
978.087	2977.28
978.387	2991.52
978.687	2972.99
978.987	2925.76
979.286	2941.35
979.586	2949.94
979.885	2936.83
980.185	2891.86
980.484	2867.45
980.784	2882.59
981.083	2856.38
981.382	2850.05
981.682	2868.36
981.981	2845.53
982.28	2800.79
982.579	2818.64
982.878	2829.71
983.177	2785.65
983.475	2812.31
983.774	2779.55
984.073	2724.86
984.372	2715.14
984.67	2730.96
984.969	2721.02
985.267	2718.3
985.566	2672.88
985.864	2718.53
986.162	2669.72
986.461	2664.52
986.759	2625.65
987.057	2608.02
987.355	2617.74
987.653	2638.76
987.951	2600.79
988.249	2552.88
988.547	2569.38
988.844	2536.84
989.142	2577.52
989.44	2527.35
989.737	2500.91
990.035	2541.81
990.332	2470.85
990.63	2485.54
990.927	2476.73
991.224	2454.36
991.521	2473.34
991.819	2437.41
992.116	2452.55
992.413	2414.13
992.71	2397.41
993.006	2412.78
993.303	2387.92
993.6	2387.92
993.897	2373
994.193	2348.37
994.49	2333.46
994.787	2368.93
995.083	2326
995.379	2318.31
995.676	2281.71
995.972	2316.73
996.268	2264.53
996.565	2302.72
996.861	2259.33
997.157	2234.93
997.453	2210.07
997.749	2203.97
998.044	2213.23
998.34	2172.56
998.636	2176.17
998.932	2175.72
999.227	2171.88
999.523	2147.7
999.818	2155.83
1000.114	2126.46
1000.409	2136.85
1000.704	2100.92
1001	2065.21
1001.295	2083.52
1001.59	2080.58
1001.885	2062.5
1002.18	2004.42
1002.475	2046.23
1002.77	2031.09
1003.065	1993.8
1003.359	1997.19
1003.654	2038.55
1003.949	1964.65
1004.243	1977.98
1004.538	1981.83
1004.832	1979.11
1005.127	1954.48
1005.421	1938.89
1005.715	1955.39
1006.009	1940.25
1006.304	1911.32
1006.598	1892.56
1006.892	1885.56
1007.186	1867.71
1007.48	1881.72
1007.773	1876.07
1008.067	1843.52
1008.361	1843.98
1008.655	1810.08
1008.948	1805.56
1009.242	1783.64
1009.535	1797.65
1009.829	1808.5
1010.122	1759.69
1010.415	1772.79
1010.708	1755.17
1011.001	1743.41
1011.295	1718.33
1011.588	1720.59
1011.881	1705.68
1012.173	1681.95
1012.466	1714.49
1012.759	1655.51
1013.052	1693.02
1013.344	1674.49
1013.637	1655.73
1013.93	1642.4
1014.222	1626.58
1014.514	1616.86
1014.807	1614.15
1015.099	1644.21
1015.391	1591.33
1015.683	1589.75
1015.976	1592.46
1016.268	1558.11
1016.56	1567.37
1016.851	1557.88
1017.143	1553.36
1017.435	1544.32
1017.727	1501.61
1018.018	1498.45
1018.31	1512.91
1018.602	1460.94
1018.893	1481.73
1019.185	1485.12
1019.476	1442.41
1019.767	1453.25
1020.058	1460.94
1020.35	1435.4
1020.641	1416.42
1020.932	1445.34
1021.223	1395.85
1021.514	1383.88
1021.804	1391.79
1022.095	1373.93
1022.386	1376.42
1022.677	1372.35
1022.967	1359.24
1023.258	1341.62
1023.548	1330.32
1023.839	1332.8
1024.129	1316.76
1024.419	1341.62
1024.709	1294.61
1025	1283.99
1025.29	1305.23
1025.58	1280.6
1025.87	1284.9
1026.16	1266.82
1026.449	1245.8
1026.739	1248.06
1027.029	1259.36
1027.319	1230.89
1027.608	1204.67
1027.898	1223.43
1028.187	1214.61
1028.477	1208.74
1028.766	1189.3
1029.055	1171
1029.344	1158.57
1029.634	1190.43
1029.923	1155.63
1030.212	1178.46
1030.501	1176.88
1030.79	1112.24
1031.078	1128.29
1031.367	1115.18
1031.656	1111.57
1031.945	1120.83
1032.233	1100.04
1032.522	1085.58
1032.81	1096.43
1033.099	1089.87
1033.387	1093.04
1033.675	1069.76
1033.963	1066.6
1034.251	1041.96
1034.54	1067.05
1034.828	1046.26
1035.116	1024.34
1035.403	1027.5
1035.691	1035.41
1035.979	987.28
1036.267	991.57
1036.554	1019.14
1036.842	979.37
1037.129	986.6
1037.417	995.64
1037.704	992.7
1037.992	971.91
1038.279	969.65
1038.566	966.03
1038.853	966.03
1039.14	966.03
