Data from hue_160_FLMS001491_00100.txt Node
Date: Tue Feb 07 16:51:58 GMT 2017
User: dcchb
Spectrometer: FLMS00149
Trigger mode: 0
Integration Time (sec): 2.000000E-2
Scans to average: 10
Electric dark correction enabled: true
Nonlinearity correction enabled: false
Boxcar width: 0
XAxis mode: Wavelengths
Number of Pixels in Spectrum: 2048
>>>>>Begin Spectral Data<<<<<
341.393	-38.13
341.776	-38.13
342.16	-38.13
342.543	-81.52
342.927	-57.12
343.31	-74.07
343.693	-109.55
344.077	-58.47
344.46	-43.11
344.843	-56.44
345.226	-42.2
345.61	-34.74
345.993	-4.24
346.376	20.62
346.759	6.38
347.142	36.67
347.525	30.11
347.908	64.46
348.291	70.79
348.674	96.1
349.057	97.68
349.44	123.9
349.823	148.08
350.206	181.29
350.588	189.2
350.971	224.46
351.354	218.58
351.737	236.66
352.119	229.88
352.502	258.81
352.884	281.63
353.267	275.3
353.65	297.68
354.032	292.48
354.414	307.85
354.797	312.14
355.179	321.63
355.562	313.27
355.944	310.33
356.326	343.1
356.709	332.25
357.091	325.25
357.473	336.77
357.855	329.54
358.238	350.56
358.62	319.82
359.002	344.91
359.384	344.68
359.766	356.21
360.148	336.54
360.53	353.72
360.912	348.3
361.294	320.5
361.676	339.03
362.057	339.26
362.439	333.83
362.821	324.79
363.203	322.08
363.584	321.86
363.966	333.83
364.348	322.08
364.729	345.81
365.111	314.85
365.493	324.34
365.874	308.97
366.256	319.37
366.637	322.08
367.019	329.54
367.4	312.59
367.781	291.8
368.163	316.43
368.544	300.61
368.925	304
369.306	331.35
369.688	311.91
370.069	317.79
370.45	302.65
370.831	311.01
371.212	313.72
371.593	311.23
371.974	310.1
372.355	318.47
372.736	318.01
373.117	320.73
373.498	319.82
373.879	332.48
374.26	309.2
374.641	330.22
375.021	337.45
375.402	326.83
375.783	332.48
376.163	319.37
376.544	337.45
376.925	320.5
377.305	325.25
377.686	329.31
378.066	318.47
378.447	348.07
378.827	340.39
379.208	331.12
379.588	333.38
379.968	343.32
380.349	333.38
380.729	317.34
381.109	318.92
381.489	357.56
381.87	346.94
382.25	328.41
382.63	332.7
383.01	342.87
383.39	342.87
383.77	331.57
384.15	351.46
384.53	353.27
384.91	341.29
385.29	329.09
385.67	332.48
386.049	346.49
386.429	340.84
386.809	362.53
387.189	358.47
387.568	344.68
387.948	331.35
388.328	370.22
388.707	363.66
389.087	356.21
389.466	361.4
389.846	345.36
390.225	362.98
390.605	363.66
390.984	377.22
391.363	368.63
391.743	378.58
392.122	354.85
392.501	352.82
392.881	377.22
393.26	374.28
393.639	376.54
394.018	387.62
394.397	373.38
394.776	367.73
395.155	382.87
395.534	385.58
395.913	396.88
396.292	380.84
396.671	390.78
397.05	398.92
397.429	393.49
397.808	387.84
398.186	388.75
398.565	405.7
398.944	376.77
399.323	394.62
399.701	391.01
400.08	391.23
400.458	396.43
400.837	403.44
401.215	415.64
401.594	393.49
401.972	390.1
402.351	407.05
402.729	398.01
403.107	416.32
403.486	408.63
403.864	411.57
404.242	415.86
404.62	419.03
404.999	397.33
405.377	441.17
405.755	431.01
406.133	438.92
406.511	424.9
406.889	426.49
407.267	438.46
407.645	453.15
408.023	452.47
408.401	443.66
408.779	451.34
409.156	446.15
409.534	437.79
409.912	451.12
410.29	457.45
410.667	456.77
411.045	451.8
411.422	472.59
411.8	479.14
412.178	482.98
412.555	475.3
412.933	468.52
413.31	482.3
413.687	486.6
414.065	468.29
414.442	461.29
414.819	494.28
415.197	504.22
415.574	503.77
415.951	515.75
416.328	505.35
416.705	499.48
417.082	523.66
417.46	506.94
417.837	531.34
418.214	521.17
418.591	504.22
418.967	522.3
419.344	543.32
419.721	527.5
420.098	525.69
420.475	542.19
420.852	543.55
421.228	533.83
421.605	549.65
421.982	564.34
422.358	557.78
422.735	560.49
423.111	580.15
423.488	579.93
423.864	568.4
424.241	555.07
424.617	585.35
424.994	580.38
425.37	587.61
425.746	598.01
426.123	602.53
426.499	601.17
426.875	603.2
427.251	624.9
427.627	639.81
428.003	627.38
428.379	618.35
428.756	622.41
429.132	647.72
429.507	670.1
429.883	654.05
430.259	649.3
430.635	666.03
431.011	660.6
431.387	654.28
431.763	691.79
432.138	678
432.514	683.43
432.89	677.78
433.265	697.89
433.641	707.61
434.016	690.43
434.392	713.48
434.767	733.37
435.143	724.56
435.518	749.42
435.894	745.35
436.269	733.6
436.644	756.19
437.02	759.36
437.395	771.34
437.77	796.87
438.145	773.6
438.52	794.61
438.895	785.35
439.271	781.05
439.646	818.79
440.021	814.27
440.395	833.48
440.77	848.85
441.145	836.42
441.52	858.11
441.895	827.15
442.27	840.49
442.645	866.02
443.019	869.86
443.394	852.92
443.769	859.24
444.143	876.42
444.518	897.43
444.892	926.36
445.267	912.8
445.641	897.66
446.016	911.9
446.39	904.89
446.764	925.23
447.139	880.03
447.513	941.5
447.887	908.06
448.262	924.55
448.636	937.66
449.01	960.03
449.384	955.74
449.758	968.17
450.132	979.24
450.506	976.53
450.88	992.57
451.254	987.6
451.628	1033.25
452.002	1008.17
452.376	1029.18
452.75	1032.35
453.123	1037.32
453.497	1041.39
453.871	1050.88
454.244	1063.76
454.618	1085.23
454.992	1102.63
455.365	1100.59
455.739	1132.46
456.112	1135.17
456.486	1140.82
456.859	1162.06
457.232	1194.38
457.606	1179.01
457.979	1187.37
458.352	1201.83
458.725	1224.66
459.099	1232.79
459.472	1243.87
459.845	1274.15
460.218	1290.42
460.591	1290.64
460.964	1308.27
461.337	1328.84
461.71	1349.85
462.083	1356.63
462.456	1397.08
462.829	1392.79
463.201	1416.52
463.574	1399.79
463.947	1425.1
464.32	1447.93
464.692	1487.25
465.065	1499.23
465.438	1536.51
465.81	1545.33
466.183	1562.28
466.555	1615.38
466.928	1644.98
467.3	1631.2
467.672	1640.47
468.045	1688.15
468.417	1715.27
468.789	1711.2
469.161	1769.5
469.534	1799.11
469.906	1806.79
470.278	1870.52
470.65	1873.68
471.022	1938.76
471.394	1962.49
471.766	1991.19
472.138	2026.22
472.51	2083.62
472.882	2127.01
473.253	2133.56
473.625	2200.45
473.997	2247.23
474.369	2240.9
474.74	2307.34
475.112	2317.74
475.484	2436.15
475.855	2472.76
476.227	2533.78
476.598	2634.34
476.97	2661.68
477.341	2745.97
477.713	2799.98
478.084	2820.77
478.455	2965.4
478.827	2962.01
479.198	3100.77
479.569	3123.14
479.94	3259.41
480.311	3320.65
480.682	3384.6
481.053	3531.72
481.424	3578.27
481.795	3655.1
482.166	3763.35
482.537	3861.65
482.908	3985.04
483.279	4032.72
483.65	4148.87
484.021	4298.93
484.391	4355.42
484.762	4416.66
485.133	4540.73
485.503	4678.35
485.874	4782.3
486.244	4845.8
486.615	4986.14
486.985	5146.14
487.356	5255.51
487.726	5370.99
488.097	5558.55
488.467	5588.61
488.837	5759
489.207	5886.91
489.578	6026.34
489.948	6106.11
490.318	6229.5
490.688	6378.42
491.058	6507.68
491.428	6646.44
491.798	6742.03
492.168	6948.57
492.538	6968.69
492.908	7132.98
493.278	7241.67
493.648	7354.44
494.017	7506.07
494.387	7695.9
494.757	7735.22
495.126	7919.62
495.496	7963.69
495.866	8034.2
496.235	8139.05
496.605	8320.52
496.974	8419.27
497.344	8525.93
497.713	8591.47
498.082	8739.04
498.452	8875.53
498.821	8921.63
499.19	8984.23
499.559	9129.76
499.928	9167.73
500.298	9316.42
500.667	9431.45
501.036	9387.15
501.405	9522.97
501.774	9549.64
502.143	9772.45
502.512	9786.69
502.88	9928.38
503.249	9922.73
503.618	10050.41
503.987	10115.04
504.356	10191.88
504.724	10279.11
505.093	10311.88
505.462	10328.15
505.83	10457.63
506.199	10492.44
506.567	10669.15
506.936	10605.43
507.304	10686.33
507.672	10835.03
508.041	10882.03
508.409	10891.75
508.777	11031.18
509.145	11114.79
509.514	11057.17
509.882	11217.39
510.25	11225.52
510.618	11242.25
510.986	11268.69
511.354	11353.88
511.722	11427.1
512.09	11568.34
512.458	11484.95
512.826	11630.26
513.193	11597.94
513.561	11677.49
513.929	11702.57
514.297	11787.77
514.664	11838.39
515.032	11893.76
515.4	11965.62
515.767	11980.53
516.135	11999.06
516.502	11869.57
516.869	12056.91
517.237	12080.42
517.604	12034.32
517.972	12148.66
518.339	12185.27
518.706	12168.78
519.073	12226.63
519.44	12215.55
519.808	12281.54
520.175	12308.21
520.542	12399.96
520.909	12422.33
521.276	12342.33
521.643	12541.87
522.009	12535.09
522.376	12572.61
522.743	12539.16
523.11	12638.59
523.477	12714.75
523.843	12748.2
524.21	12726.73
524.577	12836.33
524.943	12783.22
525.31	12800.85
525.676	12890.57
526.043	12907.97
526.409	12937.8
526.776	13011.69
527.142	12932.15
527.508	13005.14
527.874	13034.29
528.241	12979.6
528.607	13020.05
528.973	13049.2
529.339	13056.89
529.705	13028.19
530.071	13059.15
530.437	13049.2
530.803	13106.83
531.169	13169.2
531.535	12915.42
531.901	13026.15
532.267	12966.27
532.632	13086.49
532.998	12998.58
533.364	13060.73
533.73	12986.61
534.095	13125.36
534.461	13111.35
534.826	13058.92
535.192	13059.15
535.557	12964.01
535.923	12989.32
536.288	12973.05
536.653	12960.39
537.019	12855.09
537.384	12949.55
537.749	12979.38
538.114	12909.32
538.479	12828.42
538.845	12853.73
539.21	12765.82
539.575	12772.83
539.94	12819.15
540.305	12730.34
540.67	12785.26
541.034	12678.82
541.399	12656.22
541.764	12602.89
542.129	12590.01
542.494	12531.93
542.858	12592.95
543.223	12530.8
543.587	12473.17
543.952	12389.11
544.316	12378.04
544.681	12378.71
545.045	12326.74
545.41	12384.14
545.774	12353.86
546.138	12254.88
546.503	12259.4
546.867	12147.31
547.231	12203.58
547.595	12207.42
547.959	12201.32
548.324	12139.85
548.688	12040.42
549.052	12018.72
549.416	12071.83
549.779	12011.04
550.143	11984.37
550.507	11959.74
550.871	11947.54
551.235	11824.6
551.599	11899.18
551.962	11837.26
552.326	11850.37
552.689	11860.31
553.053	11805.17
553.417	11692.4
553.78	11819.18
554.143	11757.71
554.507	11720.65
554.87	11717.04
555.234	11761.1
555.597	11695.79
555.96	11662.57
556.323	11666.42
556.686	11672.52
557.05	11755
557.413	11655.8
557.776	11609.02
558.139	11623.03
558.502	11647.89
558.865	11608.34
559.228	11638.62
559.59	11562.92
559.953	11632.52
560.316	11673.2
560.679	11623.03
561.041	11640.65
561.404	11617.38
561.767	11738.28
562.129	11570.6
562.492	11672.07
562.854	11650.6
563.217	11620.09
563.579	11631.62
563.941	11657.15
564.304	11724.04
564.666	11785.51
565.028	11741.22
565.39	11665.29
565.753	11793.64
566.115	11838.62
566.477	11734.89
566.839	11667.55
567.201	11781.44
567.563	11797.49
567.925	11808.56
568.287	11691.95
568.648	11774.44
569.01	11851.27
569.372	11893.08
569.734	11786.64
570.095	11934.88
570.457	11872.51
570.819	11889.24
571.18	11882.68
571.542	11981.21
571.903	11972.17
572.265	11907.77
572.626	12019.63
572.987	11933.98
573.349	11889.69
573.71	11962
574.071	11989.35
574.432	11957.03
574.794	12075.45
575.155	11992.51
575.516	11967.65
575.877	12118.83
576.238	12000.87
576.599	12130.13
576.96	12043.13
577.32	12116.57
577.681	12032.96
578.042	12090.36
578.403	12086.07
578.763	12119.29
579.124	12069.34
579.485	12118.16
579.845	12127.2
580.206	12069.8
580.566	12092.62
580.927	12007.42
581.287	12150.92
581.648	12085.61
582.008	12128.55
582.368	12059.63
582.728	12046.52
583.089	12067.76
583.449	12074.77
583.809	12065.05
584.169	12077.93
584.529	12033.64
584.889	12130.36
585.249	12009.01
585.609	11956.13
585.969	12017.37
586.329	12041.77
586.688	12035.67
587.048	11973.98
587.408	11957.48
587.768	11897.6
588.127	11983.24
588.487	11899.86
588.846	12004.03
589.206	11912.06
589.565	11846.07
589.925	12037.03
590.284	11970.59
590.643	11923.36
591.003	11994.77
591.362	11904.38
591.721	11924.04
592.08	11969.46
592.44	11945.73
592.799	11934.21
593.158	11848.33
593.517	11861.44
593.876	11816.47
594.235	11870.48
594.593	11889.24
594.952	11821.89
595.311	11823.47
595.67	11858.28
596.029	11964.04
596.387	11910.25
596.746	11941.44
597.104	11751.16
597.463	11815.57
597.822	11793.87
598.18	11802.68
598.538	11790.25
598.897	11933.75
599.255	11779.63
599.613	11880.42
599.972	11773.53
600.33	11751.16
600.688	11704.16
601.046	11824.15
601.404	11856.92
601.762	11851.04
602.12	11827.32
602.478	11832.06
602.836	11821.44
603.194	11735.12
603.552	11831.16
603.91	11848.33
604.268	11865.73
604.625	11677.72
604.983	11873.42
605.341	11798.62
605.698	11797.71
606.056	11883.81
606.413	11832.74
606.771	11862.8
607.128	11876.13
607.485	11809.92
607.843	11876.35
608.2	11977.82
608.557	11822.34
608.914	11841.33
609.272	11935.79
609.629	11905.05
609.986	11929.91
610.343	11986.86
610.7	11977.14
611.057	11937.14
611.414	11894.21
611.771	12021.89
612.127	12015.79
612.484	12031.83
612.841	11954.54
613.198	12002
613.554	11993.87
613.911	12008.1
614.267	11941.44
614.624	12022.11
614.98	11968.33
615.337	12170.13
615.693	12104.82
616.05	11961.55
616.406	12069.34
616.762	12122.68
617.118	12017.14
617.475	12073.19
617.831	12136.91
618.187	12112.05
618.543	12091.94
618.899	12176.23
619.255	12187.08
619.611	12098.95
619.967	12214.65
620.323	12160.64
620.678	12176.69
621.034	12116.35
621.39	12084.94
621.746	12100.98
622.101	12235.44
622.457	12132.62
622.812	12140.53
623.168	12156.35
623.523	12117.93
623.879	12228.21
624.234	12150.02
624.589	12193.18
624.945	12178.49
625.3	12186.85
625.655	12171.49
626.01	12160.87
626.365	12210.36
626.72	12126.97
627.075	12108.44
627.43	12179.62
627.785	12129.23
628.14	12213.07
628.495	12196.12
628.85	12110.92
629.205	12119.06
629.559	12136.23
629.914	12053.07
630.269	12089.68
630.623	12154.31
630.978	11984.15
631.332	12105.5
631.687	12017.59
632.041	12077.71
632.396	12021.44
632.75	11957.48
633.104	11974.88
633.459	12009.91
633.813	11967.43
634.167	11999.51
634.521	11855.11
634.875	11960.65
635.229	12004.03
635.583	11900.99
635.937	11849.24
636.291	11879.97
636.645	11842.91
636.999	11806.07
637.352	11848.33
637.706	11808.79
638.06	11831.38
638.413	11792.06
638.767	11771.5
639.121	11854.43
639.474	11756.58
639.828	11660.54
640.181	11831.84
640.534	11747.77
640.888	11749.35
641.241	11694.66
641.594	11685.4
641.947	11664.83
642.301	11704.16
642.654	11663.25
643.007	11628.9
643.36	11669.81
643.713	11631.84
644.066	11569.47
644.419	11616.47
644.771	11496.25
645.124	11456.7
645.477	11416.25
645.83	11252.42
646.182	11243.15
646.535	11295.58
646.888	11234.79
647.24	11143.27
647.593	11284.73
647.945	11233.43
648.298	11217.39
648.65	11235.47
649.002	11183.94
649.355	11224.85
649.707	11257.84
650.059	11318.85
650.411	11418.74
650.763	11417.61
651.115	11576.93
651.467	11496.25
651.819	11407.67
652.171	11411.96
652.523	11466.2
652.875	11438.85
653.227	11473.88
653.578	11426.2
653.93	11488.12
654.282	11385.29
654.633	11371.73
654.985	11368.57
655.337	11498.74
655.688	11456.25
656.039	11493.77
656.391	11358.63
656.742	11400.89
657.094	11500.77
657.445	11509.81
657.796	11443.37
658.147	11483.37
658.498	11368.35
658.849	11450.38
659.2	11500.77
659.551	11435.91
659.902	11482.47
660.253	11536.02
660.604	11474.33
660.955	11482.92
661.306	11537.83
661.656	11468
662.007	11539.87
662.358	11524.73
662.708	11521.56
663.059	11509.13
663.409	11437.27
663.76	11509.13
664.11	11521.79
664.461	11527.89
664.811	11489.47
665.161	11544.16
665.511	11462.13
665.862	11493.09
666.212	11571.05
666.562	11500.77
666.912	11457.38
667.262	11447.44
667.612	11509.58
667.962	11466.65
668.312	11476.14
668.662	11546.65
669.011	11456.7
669.361	11517.72
669.711	11448.12
670.06	11495.12
670.41	11475.91
670.76	11421
671.109	11441.56
671.459	11406.76
671.808	11403.82
672.157	11371.96
672.507	11355.24
672.856	11393.66
673.205	11452.41
673.554	11405.18
673.904	11428.46
674.253	11438.4
674.602	11422.81
674.951	11293.77
675.3	11172.19
675.649	11346.65
675.998	11334.9
676.346	11397.5
676.695	11378.06
677.044	11280.44
677.393	11281.79
677.741	11295.8
678.09	11309.59
678.438	11174.68
678.787	11334.45
679.135	11195.47
679.484	11248.35
679.832	11245.64
680.181	11192.76
680.529	11177.16
680.877	11139.88
681.225	11153.21
681.573	11233.89
681.922	11117.28
682.27	11036.38
682.618	11034.57
682.966	11025.98
683.314	11050.61
683.661	11019.65
684.009	10915.93
684.357	10950.28
684.705	10887.45
685.053	10909.37
685.4	10890.84
685.748	10801.58
686.095	10872.31
686.443	10860.79
686.79	10760
687.138	10838.42
687.485	10856.27
687.832	10746.21
688.18	10705.76
688.527	10739.44
688.874	10711.19
689.221	10733.79
689.568	10631.87
689.915	10583.28
690.262	10582.6
690.609	10452.89
690.956	10498.31
691.303	10488.14
691.65	10443.62
691.997	10391.42
692.344	10380.35
692.69	10337.86
693.037	10294.93
693.383	10283.85
693.73	10284.31
694.077	10183.29
694.423	10134.25
694.769	10088.15
695.116	10056.06
695.462	10107.36
695.808	9967.25
696.155	10035.95
696.501	9999.79
696.847	9938.1
697.193	9854.49
697.539	9985.56
697.885	9857.42
698.231	9789.86
698.577	9793.02
698.923	9826.01
699.269	9731.78
699.614	9707.82
699.96	9659.01
700.306	9617.66
700.651	9470.99
700.997	9508.51
701.342	9506.25
701.688	9523.2
702.033	9385.8
702.379	9487.49
702.724	9475.06
703.069	9497.21
703.415	9325.01
703.76	9321.39
704.105	9287.27
704.45	9226.48
704.795	9206.14
705.14	9244.56
705.485	9207.05
705.83	9106.03
706.175	9149.42
706.52	9115.75
706.865	9066.94
707.209	9019.48
707.554	9038.91
707.899	9071
708.243	8981.74
708.588	8952.82
708.932	8883.89
709.277	8882.99
709.621	8873.95
709.966	8811.12
710.31	8871.69
710.654	8741.52
710.998	8779.49
711.342	8717.34
711.687	8731.58
712.031	8663.56
712.375	8640.51
712.719	8644.35
713.063	8667.63
713.407	8657
713.75	8603.22
714.094	8607.97
714.438	8563.45
714.782	8532.26
715.125	8555.54
715.469	8532.04
715.812	8505.14
716.156	8475.77
716.499	8448.42
716.843	8517.8
717.186	8484.81
717.53	8459.72
717.873	8447.52
718.216	8354.87
718.559	8394.19
718.902	8310.35
719.246	8390.12
719.589	8302.66
719.932	8368.88
720.275	8314.19
720.617	8288.88
720.96	8269.67
721.303	8272.16
721.646	8292.04
721.989	8215.21
722.331	8254.53
722.674	8277.13
723.016	8263.79
723.359	8229.22
723.701	8205.04
724.044	8192.61
724.386	8173.17
724.729	8209.33
725.071	8215.66
725.413	8218.15
725.755	8237.13
726.097	8172.27
726.439	8167.07
726.782	8080.97
727.124	8204.59
727.465	8191.03
727.807	8129.79
728.149	8085.27
728.491	8073.06
728.833	8107.64
729.175	8108.54
729.516	8070.8
729.858	8114.87
730.199	8072.39
730.541	8139.96
730.882	8055.21
731.224	8108.32
731.565	8058.15
731.906	8082.33
732.248	8051.82
732.589	8031.71
732.93	8012.05
733.271	8062.22
733.612	8044.36
733.953	8092.27
734.294	7993.07
734.635	8076.68
734.976	8142.44
735.317	8077.36
735.658	8024.93
735.999	8079.17
736.339	8035.78
736.68	8049.56
737.021	8096.34
737.361	8040.3
737.702	8063.8
738.042	8099.5
738.383	8102.22
738.723	8047.75
739.063	8095.89
739.404	8049.79
739.744	8170.92
740.084	8054.99
740.424	8098.83
740.764	8130.69
741.104	8190.8
741.444	8095.66
741.784	8191.71
742.124	8182.44
742.464	8265.83
742.804	8252.95
743.143	8243.91
743.483	8196.23
743.823	8211.59
744.162	8293.62
744.502	8280.29
744.841	8313.28
745.181	8410.68
745.52	8413.62
745.86	8480.06
746.199	8440.06
746.538	8497.69
746.877	8570
747.216	8615.88
747.556	8628.53
747.895	8655.2
748.234	8677.12
748.573	8765.02
748.911	8782.42
749.25	8842.99
749.589	8819.71
749.928	8966.6
750.267	8981.52
750.605	9079.82
750.944	9113.72
751.283	9133.83
751.621	9278.23
751.96	9277.33
752.298	9421.5
752.636	9548.96
752.975	9513.7
753.313	9662.4
753.651	9802.96
753.989	9867.59
754.327	10055.16
754.666	10034.37
755.004	10193.23
755.342	10286.34
755.679	10411.08
756.017	10489.95
756.355	10621.25
756.693	10759.77
757.031	10898.98
757.368	10973.78
757.706	11199.31
758.044	11209.71
758.381	11417.16
758.719	11623.93
759.056	11721.56
759.394	11867.09
759.731	11969.46
760.068	12089.46
760.405	12256.68
760.743	12447.86
761.08	12651.25
761.417	12733.96
761.754	12855.99
762.091	13046.72
762.428	13091.24
762.765	13301.4
763.102	13451.45
763.438	13606.03
763.775	13799.69
764.112	13863.65
764.449	14117.43
764.785	14222.73
765.122	14260.92
765.458	14424.54
765.795	14597.86
766.131	14799.67
766.467	14858.87
766.804	14932.55
767.14	15159.88
767.476	15284.85
767.812	15439.42
768.148	15548.57
768.485	15640.1
768.821	15629.25
769.157	15952.41
769.492	15976.81
769.828	16099.07
770.164	16082.8
770.5	16264.04
770.836	16265.62
771.171	16343.13
771.507	16621.31
771.842	16622.9
772.178	16711.26
772.513	16719.84
772.849	16930.23
773.184	16963
773.519	17099.49
773.855	17123.45
774.19	17181.98
774.525	17267.17
774.86	17419.26
775.195	17463.1
775.53	17469.65
775.865	17482.31
776.2	17371.58
776.535	17487.96
776.87	17498.13
777.205	17527.73
777.539	17502.87
777.874	17679.14
778.209	17627.62
778.543	17630.55
778.878	17676.43
779.212	17730.66
779.547	17713.49
779.881	17745.8
780.215	17724.11
780.55	17778.35
780.884	17712.36
781.218	17832.36
781.552	17838.68
781.886	17743.09
782.22	17765.01
782.554	17807.27
782.888	17572.7
783.222	17732.92
783.556	17587.84
783.889	17726.6
784.223	17653.6
784.557	17663.32
784.89	17653.6
785.224	17599.14
785.557	17588.97
785.891	17562.98
786.224	17541.97
786.558	17653.6
786.891	17518.69
787.224	17495.19
787.557	17481.63
787.891	17581.06
788.224	17476.89
788.557	17474.85
788.89	17493.38
789.223	17476.89
789.556	17416.32
789.888	17353.27
790.221	17374.29
790.554	17219.72
790.887	17230.79
791.219	17283.22
791.552	17263.78
791.884	17094.52
792.217	17078.48
792.549	17125.48
792.882	17074.86
793.214	16995.32
793.546	17058.14
793.879	16883.91
794.211	16872.61
794.543	16972.27
794.875	16885.04
795.207	16923.23
795.539	16846.62
795.871	16826.51
796.203	16746.06
796.535	16738.37
796.867	16716.91
797.198	16692.27
797.53	16621.77
797.862	16513.75
798.193	16632.16
798.525	16475.1
798.856	16558.27
799.188	16424.94
799.519	16404.82
799.85	16167.54
800.182	16325.05
800.513	16269.69
800.844	16186.07
801.175	16206.64
801.506	16275.33
801.837	16106.53
802.168	16115.79
802.499	16098.84
802.83	15994.89
803.161	15908.79
803.491	15945.17
803.822	15975.23
804.153	15859.07
804.483	15777.04
804.814	15759.42
805.145	15779.53
805.475	15680.77
805.805	15669.7
806.136	15745.63
806.466	15618.63
806.796	15678.74
807.126	15530.5
807.457	15478.29
807.787	15490.5
808.117	15446.2
808.447	15433.1
808.777	15450.95
809.107	15436.71
809.436	15332.31
809.766	15257.51
810.096	15198.98
810.426	15155.14
810.755	15211.63
811.085	15153.1
811.414	15071.98
811.744	15052.09
812.073	15015.25
812.403	15051.64
812.732	14949.04
813.061	14959.66
813.39	14890.74
813.719	14871.08
814.049	15003.73
814.378	14804.86
814.707	14831.76
815.036	14818.2
815.365	14744.08
815.693	14657.52
816.022	14618.88
816.351	14596.51
816.68	14501.6
817.008	14586.11
817.337	14506.57
817.665	14524.19
817.994	14437.19
818.322	14488.72
818.651	14371.43
818.979	14305.44
819.307	14452.78
819.636	14514.25
819.964	14300.92
820.292	14381.83
820.62	14351.09
820.948	14235.16
821.276	14444.42
821.604	14233.13
821.932	14307.25
822.259	14303.86
822.587	14282.62
822.915	14325.56
823.243	14369.62
823.57	14269.51
823.898	14304.09
824.225	14299.79
824.553	14202.39
824.88	14333.46
825.207	14360.36
825.535	14264.54
825.862	14252.56
826.189	14233.81
826.516	14287.59
826.843	14347.02
827.17	14313.13
827.497	14316.74
827.824	14312.67
828.151	14268.61
828.478	14277.65
828.805	14367.36
829.131	14280.36
829.458	14301.38
829.785	14224.32
830.111	14269.51
830.438	14352.67
830.764	14355.61
831.09	14334.14
831.417	14248.27
831.743	14363.07
832.069	14286.46
832.395	14220.93
832.722	14348.15
833.048	14201.94
833.374	14214.15
833.7	14249.85
834.026	14187.93
834.351	14141.61
834.677	14136.18
835.003	14162.17
835.329	14145.22
835.654	14164.66
835.98	14083.53
836.306	14173.92
836.631	13992
836.956	14121.27
837.282	14106.58
837.607	14053.92
837.932	14004.21
838.258	13949.29
838.583	13976.86
838.908	13875.85
839.233	13957.2
839.558	13889.41
839.883	13856.19
840.208	13827.26
840.533	13808.28
840.858	13855.51
841.182	13852.57
841.507	13791.78
841.832	13736.19
842.156	13651.45
842.481	13703.42
842.805	13738.68
843.13	13670.43
843.454	13646.25
843.778	13572.35
844.103	13492.13
844.427	13545.24
844.751	13518.12
845.075	13476.09
845.399	13349.08
845.723	13346.6
846.047	13382.98
846.371	13190.22
846.695	13229.99
847.019	13081.75
847.343	13105.7
847.666	13073.61
847.99	12968.3
848.313	12938.25
848.637	12854.41
848.96	12868.19
849.284	12825.26
849.607	12752.72
849.931	12665.94
850.254	12641.76
850.577	12560.63
850.9	12580.74
851.223	12486.06
851.546	12443.12
851.869	12353.86
852.192	12447.19
852.515	12291.03
852.838	12289.9
853.161	12253.07
853.483	12158.83
853.806	12069.12
854.129	12167.42
854.451	12069.57
854.774	12084.03
855.096	11922.68
855.419	11866.41
855.741	11820.54
856.063	11815.34
856.385	11849.91
856.708	11783.02
857.03	11697.38
857.352	11761.33
857.674	11686.3
857.996	11702.8
858.318	11539.19
858.64	11526.31
858.961	11636.59
859.283	11454.44
859.605	11396.82
859.926	11530.6
860.248	11415.35
860.57	11412.64
860.891	11340.78
861.212	11192.53
861.534	11312.75
861.855	11281.34
862.176	11246.31
862.498	11195.69
862.819	11241.57
863.14	11235.92
863.461	11078.18
863.782	11159.31
864.103	11117.73
864.424	11129.03
864.745	11084.74
865.065	11080.67
865.386	11034.34
865.707	11047.68
866.027	11054.68
866.348	10966.55
866.668	10971.97
866.989	10980.56
867.309	10918.64
867.63	10910.28
867.95	10944.63
868.27	10862.37
868.59	10822.6
868.91	10836.38
869.23	10768.81
869.55	10747.12
869.87	10839.77
870.19	10737.63
870.51	10761.13
870.83	10898.08
871.15	10627.57
871.469	10728.36
871.789	10749.83
872.109	10724.07
872.428	10621.25
872.748	10596.16
873.067	10589.61
873.386	10664.86
873.706	10588.25
874.025	10536.05
874.344	10455.6
874.663	10604.07
874.982	10501.48
875.301	10515.03
875.62	10424.42
875.939	10453.57
876.258	10417.64
876.577	10417.18
876.896	10430.06
877.214	10375.15
877.533	10393.68
877.852	10365.21
878.17	10355.49
878.489	10354.13
878.807	10354.81
879.125	10327.47
879.444	10301.03
879.762	10290.63
880.08	10296.73
880.398	10178.32
880.716	10248.37
881.034	10213.57
881.352	10145.1
881.67	10159.56
881.988	10140.81
882.306	10101.94
882.624	9997.08
882.941	10056.06
883.259	10031.88
883.577	9934.48
883.894	9974.26
884.212	9915.5
884.529	9972
884.846	9937.87
885.164	9897.65
885.481	9828.05
885.798	9877.54
886.115	9817.43
886.432	9820.36
886.75	9787.6
887.067	9762.29
887.383	9723.19
887.7	9720.93
888.017	9692.68
888.334	9696.52
888.651	9699.24
888.967	9596.87
889.284	9596.64
889.6	9551.44
889.917	9501.73
890.233	9553.93
890.55	9493.14
890.866	9491.56
891.182	9354.39
891.498	9418.79
891.815	9326.82
892.131	9353.03
892.447	9305.57
892.763	9306.93
893.079	9275.74
893.395	9247.04
893.71	9205.01
894.026	9212.7
894.342	9118.23
894.657	9069.65
894.973	9081.17
895.289	9007.5
895.604	9064.45
895.92	9007.96
896.235	8916.21
896.55	8916.66
896.865	8886.6
897.181	8903.78
897.496	8892.25
897.811	8826.49
898.126	8790.79
898.441	8748.75
898.756	8692.71
899.071	8716.89
899.386	8680.96
899.7	8588.98
900.015	8534.3
900.33	8583.33
900.644	8484.35
900.959	8496.56
901.273	8473.28
901.588	8375.88
901.902	8417.69
902.216	8348.09
902.531	8387.63
902.845	8314.19
903.159	8262.66
903.473	8201.65
903.787	8274.19
904.101	8196
904.415	8137.47
904.729	8106.28
905.042	8088.66
905.356	8072.16
905.67	8023.57
905.984	8054.53
906.297	8010.92
906.611	7910.36
906.924	7958.94
907.237	7854.54
907.551	7947.87
907.864	7902.22
908.177	7812.73
908.491	7775.9
908.804	7734.54
909.117	7654.77
909.43	7669.23
909.743	7646.18
910.056	7564.83
910.368	7538.84
910.681	7589.46
910.994	7458.84
911.307	7538.62
911.619	7451.61
911.932	7424.95
912.244	7290.71
912.557	7320.32
912.869	7376.59
913.181	7243.26
913.494	7250.49
913.806	7174.56
914.118	7213.2
914.43	7176.59
914.742	7192.64
915.054	7086.88
915.366	7099.98
915.678	7017.5
915.99	7029.93
916.302	6988.57
916.613	6930.95
916.925	6936.15
917.236	6909.71
917.548	6877.62
917.859	6916.48
918.171	6815.24
918.482	6763.04
918.794	6705.19
919.105	6821.57
919.416	6678.3
919.727	6625.64
920.038	6667.68
920.349	6623.16
920.66	6606.66
920.971	6614.57
921.282	6550.39
921.593	6551.97
921.903	6474.01
922.214	6437.85
922.525	6452.32
922.835	6404.63
923.146	6362.38
923.456	6337.52
923.767	6339.78
924.077	6344.75
924.387	6277.63
924.697	6225.43
925.008	6231.53
925.318	6245.32
925.628	6187.46
925.938	6203.96
926.248	6079.44
926.558	6118.54
926.867	6123.74
927.177	6073.34
927.487	6029.05
927.796	6041.48
928.106	6012.33
928.416	5936.4
928.725	5984.76
929.034	5914.7
929.344	5894.59
929.653	5862.95
929.962	5856.85
930.271	5805.33
930.581	5782.05
930.89	5773.69
931.199	5701.6
931.508	5753.8
931.817	5765.33
932.125	5723.75
932.434	5687.82
932.743	5620.47
933.051	5593.81
933.36	5629.29
933.669	5563.75
933.977	5528.05
934.286	5550.87
934.594	5465.9
934.902	5506.58
935.21	5450.53
935.519	5454.83
935.827	5394.04
936.135	5355.4
936.443	5353.59
936.751	5344.32
937.059	5349.07
937.367	5305
937.674	5272.91
937.982	5299.35
938.29	5272.69
938.597	5215.74
938.905	5147.72
939.213	5199.69
939.52	5138.45
939.827	5133.48
940.135	5075.63
940.442	5076.99
940.749	5062.07
941.056	5046.7
941.363	5007.83
941.67	5032.24
941.977	4967.38
942.284	4931.45
942.591	4951.11
942.898	4906.14
943.205	4866.14
943.511	4813.72
943.818	4825.01
944.125	4801.29
944.431	4787.5
944.738	4788.86
945.044	4774.17
945.35	4725.81
945.657	4716.32
945.963	4709.99
946.269	4665.47
946.575	4673.83
946.881	4648.07
947.187	4661.4
947.493	4627.51
947.799	4586.83
948.105	4561.52
948.41	4524.01
948.716	4524.68
949.022	4467.96
949.327	4462.31
949.633	4460.05
949.938	4456.44
950.244	4416.44
950.549	4390.9
950.854	4408.98
951.16	4340.06
951.465	4368.98
951.77	4343.22
952.075	4355.65
952.38	4277.46
952.685	4284.92
952.99	4253.05
953.294	4250.11
953.599	4215.31
953.904	4201.3
954.209	4157.69
954.513	4152.72
954.818	4162.43
955.122	4137.12
955.426	4118.82
955.731	4112.26
956.035	4031.59
956.339	4054.41
956.643	4089.44
956.948	3972.38
957.252	4002.44
957.556	3994.3
957.86	3958.6
958.163	3934.42
958.467	3988.2
958.771	3973.74
959.075	3910.91
959.378	3885.83
959.682	3878.6
959.985	3857.58
960.289	3836.57
960.592	3828.66
960.896	3825.49
961.199	3831.82
961.502	3772.39
961.805	3746.4
962.108	3724.48
962.411	3743.46
962.714	3725.61
963.017	3709.34
963.32	3689.45
963.623	3681.54
963.926	3683.8
964.228	3642.45
964.531	3623.92
964.833	3589.57
965.136	3552.05
965.438	3593.18
965.741	3526.52
966.043	3555.67
966.345	3503.24
966.648	3501.66
966.95	3487.2
967.252	3503.24
967.554	3470.02
967.856	3455.33
968.158	3446.29
968.46	3394.09
968.761	3401.55
969.063	3382.79
969.365	3385.5
969.666	3373.98
969.968	3359.52
970.269	3326.97
970.571	3276.35
970.872	3325.84
971.174	3301.66
971.475	3288.11
971.776	3272.06
972.077	3242.23
972.378	3231.61
972.679	3251.27
972.98	3189.35
973.281	3196.58
973.582	3194.55
973.883	3129.69
974.183	3178.5
974.484	3131.73
974.785	3144.61
975.085	3136.02
975.386	3120.65
975.686	3109.13
975.986	3034.33
976.287	3079.07
976.587	3030.94
976.887	3054.89
977.187	3034.33
977.487	2984.38
977.787	2954.33
978.087	2971.96
978.387	2947.1
978.687	2928.34
978.987	2946.19
979.286	2912.75
979.586	2915.46
979.885	2920.66
980.185	2861.9
980.484	2866.65
980.784	2856.25
981.083	2845.86
981.382	2847.67
981.682	2792.53
981.981	2830.26
982.28	2771.51
982.579	2791.17
982.878	2789.81
983.177	2746.88
983.475	2757.5
983.774	2729.7
984.073	2704.84
984.372	2706.88
984.67	2686.77
984.969	2686.09
985.267	2641.34
985.566	2680.44
985.864	2612.64
986.162	2627.78
986.461	2630.04
986.759	2614.23
987.057	2586.88
987.355	2596.6
987.653	2576.71
987.951	2545.3
988.249	2554.34
988.547	2537.39
988.844	2511.18
989.142	2563.38
989.44	2507.11
989.737	2483.16
990.035	2457.39
990.332	2480.22
990.63	2448.58
990.927	2443.61
991.224	2470.73
991.521	2431.63
991.819	2391.63
992.116	2400.22
992.413	2370.62
992.71	2379.43
993.006	2381.01
993.303	2377.4
993.6	2357.06
993.897	2345.98
994.193	2372.65
994.49	2336.49
994.787	2300.11
995.083	2277.28
995.379	2305.98
995.676	2243.39
995.972	2279.54
996.268	2264.18
996.565	2236.83
996.861	2217.4
997.157	2225.53
997.453	2209.72
997.749	2180.11
998.044	2172.2
998.34	2185.99
998.636	2167.46
998.932	2177.85
999.227	2126.33
999.523	2113.9
999.818	2128.59
1000.114	2087.23
1000.409	2109.38
1000.704	2058.31
1001	2089.49
1001.295	2070.51
1001.59	2070.74
1001.885	2049.72
1002.18	2033
1002.475	1995.26
1002.77	2017.63
1003.065	1984.64
1003.359	1972.89
1003.654	1977.86
1003.949	1970.4
1004.243	1957.97
1004.538	1928.82
1004.832	1906
1005.127	1945.54
1005.421	1894.24
1005.715	1920.23
1006.009	1946.22
1006.304	1852.89
1006.598	1881.14
1006.892	1869.16
1007.186	1862.15
1007.48	1828.03
1007.773	1812.66
1008.067	1806.56
1008.361	1811.76
1008.655	1807.69
1008.948	1781.93
1009.242	1799.56
1009.535	1738.09
1009.829	1777.18
1010.122	1745.32
1010.415	1739.67
1010.708	1704.19
1011.001	1755.04
1011.295	1717.98
1011.588	1703.06
1011.881	1713.01
1012.173	1663.74
1012.466	1660.58
1012.759	1641.6
1013.052	1652.89
1013.344	1662.84
1013.637	1615.83
1013.93	1639.79
1014.222	1614.25
1014.514	1611.54
1014.807	1603.86
1015.099	1601.14
1015.391	1574.7
1015.683	1575.38
1015.976	1540.58
1016.268	1543.07
1016.56	1535.16
1016.851	1529.51
1017.143	1525.89
1017.435	1482.05
1017.727	1490.86
1018.018	1505.55
1018.31	1523.41
1018.602	1474.14
1018.893	1468.72
1019.185	1451.54
1019.476	1433.92
1019.767	1447.02
1020.058	1400.92
1020.35	1410.87
1020.641	1394.37
1020.932	1417.87
1021.223	1388.04
1021.514	1367.93
1021.804	1349.17
1022.095	1369.29
1022.386	1367.93
1022.677	1343.98
1022.967	1333.13
1023.258	1347.37
1023.548	1306.46
1023.839	1321.6
1024.129	1289.06
1024.419	1289.74
1024.709	1286.8
1025	1288.84
1025.29	1270.08
1025.58	1262.17
1025.87	1227.82
1026.16	1245.9
1026.449	1252.23
1026.739	1233.7
1027.029	1214.04
1027.319	1240.7
1027.608	1228.95
1027.898	1224.43
1028.187	1183.08
1028.477	1209.06
1028.766	1213.81
1029.055	1163.42
1029.344	1151.89
1029.634	1149.86
1029.923	1161.38
1030.212	1156.18
1030.501	1171.33
1030.79	1146.47
1031.078	1121.16
1031.367	1107.37
1031.656	1120.48
1031.945	1114.6
1032.233	1092.23
1032.522	1090.2
1032.81	1070.54
1033.099	1069.18
1033.387	1075.28
1033.675	1074.38
1033.963	1035.06
1034.251	1053.81
1034.54	1021.5
1034.828	1016.3
1035.116	1031.44
1035.403	1019.24
1035.691	1019.24
1035.979	995.28
1036.267	997.54
1036.554	987.6
1036.842	992.12
1037.129	996.41
1037.417	953.7
1037.704	968.17
1037.992	980.82
1038.279	943.76
1038.566	938.34
1038.853	938.34
1039.14	938.34
