Data from hue_290_FLMS001491_00012.txt Node
Date: Tue Feb 07 15:52:22 GMT 2017
User: dcchb
Spectrometer: FLMS00149
Trigger mode: 0
Integration Time (sec): 2.000000E-2
Scans to average: 10
Electric dark correction enabled: true
Nonlinearity correction enabled: false
Boxcar width: 0
XAxis mode: Wavelengths
Number of Pixels in Spectrum: 2048
>>>>>Begin Spectral Data<<<<<
341.393	-0.49
341.776	-0.49
342.16	-0.49
342.543	-57.67
342.927	-54.05
343.31	-84.56
343.693	-73.26
344.077	-69.87
344.46	-49.31
344.843	-44.33
345.226	-33.26
345.61	-30.78
345.993	-11.12
346.376	6.96
346.759	16.23
347.142	24.36
347.525	55.1
347.908	48.09
348.291	55.78
348.674	90.8
349.057	99.16
349.44	128.54
349.823	131.48
350.206	165.6
350.588	181.2
350.971	211.48
351.354	222.55
351.737	237.69
352.119	248.09
352.502	244.24
352.884	267.3
353.267	260.52
353.65	254.64
354.032	303
354.414	300.51
354.797	310.68
355.179	321.53
355.562	312.27
355.944	309.1
356.326	338.48
356.709	319.5
357.091	339.61
357.473	335.09
357.855	336.9
358.238	312.94
358.62	337.35
359.002	349.33
359.384	340.51
359.766	345.94
360.148	340.51
360.53	327.86
360.912	338.25
361.294	334.41
361.676	316.79
362.057	325.15
362.439	313.85
362.821	316.79
363.203	322.89
363.584	317.01
363.966	321.53
364.348	318.14
364.729	303.23
365.111	318.37
365.493	315.88
365.874	299.16
366.256	314.07
366.637	310.23
367.019	302.1
367.4	311.81
367.781	290.8
368.163	321.53
368.544	292.83
368.925	288.54
369.306	294.41
369.688	314.98
370.069	310.91
370.45	306.16
370.831	300.97
371.212	312.94
371.593	296.67
371.974	313.4
372.355	295.09
372.736	298.71
373.117	313.17
373.498	313.85
373.879	306.62
374.26	305.71
374.641	300.51
375.021	291.93
375.402	302.77
375.783	316.56
376.163	306.16
376.544	334.64
376.925	296.67
377.305	304.36
377.686	320.63
378.066	301.19
378.447	309.1
378.827	323.79
379.208	307.97
379.588	321.31
379.968	316.11
380.349	346.16
380.729	329.44
381.109	333.06
381.489	341.64
381.87	304.58
382.25	330.8
382.63	319.95
383.01	338.03
383.39	344.36
383.77	321.76
384.15	338.03
384.53	339.38
384.91	337.58
385.29	326.95
385.67	331.02
386.049	326.5
386.429	343.23
386.809	346.62
387.189	357.24
387.568	354.07
387.948	346.84
388.328	354.98
388.707	337.12
389.087	345.03
389.466	337.58
389.846	357.24
390.225	341.87
390.605	354.52
390.984	385.26
391.363	346.39
391.743	365.37
392.122	357.69
392.501	368.54
392.881	369.44
393.26	368.99
393.639	377.35
394.018	347.07
394.397	366.05
394.776	387.97
395.155	378.25
395.534	366.73
395.913	390.23
396.292	374.64
396.671	377.12
397.05	381.87
397.429	384.81
397.808	356.11
398.186	384.58
398.565	429.1
398.944	385.03
399.323	403.34
399.701	412.38
400.08	387.52
400.458	395.65
400.837	407.4
401.215	420.51
401.594	416.9
401.972	409.89
402.351	418.48
402.729	402.21
403.107	408.99
403.486	427.74
403.864	419.83
404.242	426.84
404.62	427.74
404.999	419.61
405.377	437.91
405.755	426.61
406.133	433.39
406.511	438.59
406.889	455.31
407.267	454.41
407.645	445.6
408.023	458.93
408.401	487.18
408.779	458.48
409.156	483.79
409.534	468.87
409.912	502.77
410.29	483.56
410.667	497.57
411.045	495.31
411.422	512.26
411.8	509.32
412.178	509.1
412.555	529.66
412.933	570.56
413.31	557.68
413.687	554.07
414.065	590.22
414.442	570.34
414.819	595.65
415.197	574.86
415.574	574.41
415.951	603.78
416.328	611.69
416.705	615.53
417.082	606.5
417.46	619.38
417.837	642.65
418.214	621.64
418.591	644.91
418.967	663.44
419.344	656.21
419.721	667.96
420.098	669.54
420.475	662.54
420.852	678.81
421.228	678.36
421.605	700.05
421.982	705.25
422.358	739.83
422.735	748.19
423.111	719.71
423.488	751.35
423.864	762.2
424.241	776.66
424.617	745.7
424.994	768.07
425.37	791.58
425.746	788.86
426.123	819.15
426.499	822.99
426.875	818.47
427.251	851.69
427.627	832.93
428.003	836.77
428.379	841.52
428.756	850.33
429.132	882.87
429.507	907.96
429.883	889.65
430.259	909.31
430.635	918.58
431.011	910.22
431.387	931.23
431.763	955.86
432.138	978.24
432.514	978.69
432.89	985.24
433.265	1003.55
433.641	1032.02
434.016	1011.46
434.392	1038.8
434.767	1079.25
435.143	1060.72
435.518	1069.53
435.894	1073.15
436.269	1095.97
436.644	1113.6
437.02	1117.22
437.395	1154.96
437.77	1133.26
438.145	1172.13
438.52	1161.06
438.895	1177.33
439.271	1189.98
439.646	1194.5
440.021	1203.99
440.395	1217.55
440.77	1229.53
441.145	1219.59
441.52	1258
441.895	1269.3
442.27	1239.47
442.645	1249.87
443.019	1274.05
443.394	1272.92
443.769	1273.82
444.143	1271.34
444.518	1282.86
444.892	1306.59
445.267	1326.02
445.641	1317.89
446.016	1302.52
446.39	1319.7
446.764	1330.09
447.139	1340.49
447.513	1340.94
447.887	1359.24
448.262	1349.75
448.636	1343.88
449.01	1361.73
449.384	1369.41
449.758	1412.35
450.132	1407.6
450.506	1415.74
450.88	1397.66
451.254	1370.32
451.628	1413.03
452.002	1413.48
452.376	1428.39
452.75	1450.54
453.123	1438.11
453.497	1473.14
453.871	1476.53
454.244	1485.34
454.618	1481.27
454.992	1512.46
455.365	1497.09
455.739	1539.58
456.112	1546.58
456.486	1563.76
456.859	1571.89
457.232	1557.88
457.606	1594.49
457.979	1591.33
458.352	1633.81
458.725	1657.32
459.099	1679.91
459.472	1688.5
459.845	1700.03
460.218	1683.3
460.591	1692.57
460.964	1688.27
461.337	1732.34
461.71	1759.23
462.083	1762.17
462.456	1767.59
462.829	1794.03
463.201	1811.44
463.574	1801.27
463.947	1850.53
464.32	1848.5
464.692	1879.68
465.065	1879.23
465.438	1879
465.81	1892.56
466.183	1898.44
466.555	1948.15
466.928	1949.06
467.3	1921.94
467.672	1940.47
468.045	2004.88
468.417	1983.18
468.789	2012.79
469.161	2010.53
469.534	2076.29
469.906	2098.43
470.278	2082.61
470.65	2070.64
471.022	2113.57
471.394	2192.22
471.766	2183.4
472.138	2226.57
472.51	2224.76
472.882	2242.16
473.253	2227.24
473.625	2324.42
473.997	2321.25
474.369	2316.28
474.74	2351.76
475.112	2386.56
475.484	2419.1
475.855	2422.27
476.227	2455.49
476.598	2455.94
476.97	2514.47
477.341	2583.39
477.713	2592.66
478.084	2573
478.455	2657.51
478.827	2653.9
479.198	2706.78
479.569	2713.56
479.94	2747.91
480.311	2785.2
480.682	2823.61
481.053	2885.53
481.424	2914.68
481.795	2936.83
482.166	2927.56
482.537	2967.79
482.908	3034.91
483.279	3044.85
483.65	3075.13
484.021	3106.54
484.391	3153.32
484.762	3120.33
485.133	3142.25
485.503	3189.25
485.874	3309.25
486.244	3271.74
486.615	3338.4
486.985	3307.89
487.356	3419.75
487.726	3402.13
488.097	3471.73
488.467	3457.49
488.837	3513.09
489.207	3559.19
489.578	3570.94
489.948	3589.02
490.318	3639.41
490.688	3654.1
491.058	3659.75
491.428	3713.76
491.798	3710.14
492.168	3813.19
492.538	3797.15
492.908	3851.38
493.278	3846.41
493.648	3897.71
494.017	3958.05
494.387	3956.46
494.757	3944.49
495.126	3991.04
495.496	4017.93
495.866	4043.02
496.235	4045.5
496.605	4083.92
496.974	4126.4
497.344	4081.21
497.713	4130.7
498.082	4184.93
498.452	4210.47
498.821	4189.9
499.19	4189.68
499.559	4245.72
499.928	4271.71
500.298	4268.77
500.667	4276
501.036	4300.41
501.405	4283.69
501.774	4312.61
502.143	4285.72
502.512	4353.29
502.88	4383.12
503.249	4350.35
503.618	4403.23
503.987	4445.26
504.356	4419.28
504.724	4447.98
505.093	4468.09
505.462	4481.87
505.83	4500.63
506.199	4518.71
506.567	4560.52
506.936	4517.13
507.304	4588.31
507.672	4593.51
508.041	4615.2
508.409	4645.49
508.777	4607.52
509.145	4688.65
509.514	4663.56
509.882	4666.73
510.25	4645.71
510.618	4708.76
510.986	4713.73
511.354	4752.6
511.722	4750.12
512.09	4750.57
512.458	4738.82
512.826	4825.82
513.193	4839.6
513.561	4843.22
513.929	4901.07
514.297	4880.51
514.664	4897.68
515.032	4896.1
515.4	4875.99
515.767	4933.39
516.135	4946.49
516.502	4916.44
516.869	4969.09
517.237	5015.42
517.604	4931.13
517.972	4973.16
518.339	5002.99
518.706	5002.99
519.073	5064.91
519.44	5052.93
519.808	5085.47
520.175	5069.2
520.542	5112.14
520.909	5077.34
521.276	5112.37
521.643	5137.68
522.009	5138.81
522.376	5166.83
522.743	5199.37
523.11	5243.89
523.477	5290.44
523.843	5290.89
524.21	5310.55
524.577	5340.83
524.943	5344.22
525.31	5347.16
525.676	5379.7
526.043	5407.5
526.409	5419.93
526.776	5499.7
527.142	5477.55
527.508	5536.54
527.874	5540.15
528.241	5628.74
528.607	5577.44
528.973	5633.48
529.339	5622.41
529.705	5692.92
530.071	5660.15
530.437	5726.36
530.803	5721.84
531.169	5712.8
531.535	5717.77
531.901	5702.41
532.267	5783.31
532.632	5762.52
532.998	5798.9
533.364	5843.19
533.73	5823.31
534.095	5827.38
534.461	5914.15
534.826	5951.44
535.192	5899.24
535.557	5963.87
535.923	5936.52
536.288	5941.5
536.653	5979.46
537.019	5986.24
537.384	6027.14
537.749	5957.32
538.114	6047.93
538.479	6038.44
538.845	6064.66
539.21	6055.84
539.575	6082.28
539.94	6146.01
540.305	6168.16
540.67	6111.21
541.034	6142.17
541.399	6211.32
541.764	6198.66
542.129	6215.16
542.494	6231.88
542.858	6261.49
543.223	6268.04
543.587	6281.15
543.952	6277.08
544.316	6316.18
544.681	6297.19
545.045	6348.94
545.41	6333.8
545.774	6359.79
546.138	6364.99
546.503	6432.1
546.867	6426.91
547.231	6474.82
547.595	6452.9
547.959	6489.05
548.324	6483.85
548.688	6498.54
549.052	6540.35
549.416	6453.57
549.779	6526.34
550.143	6581.93
550.507	6571.54
550.871	6615.6
551.235	6560.01
551.599	6597.52
551.962	6599.56
552.326	6567.47
552.689	6606.34
553.053	6595.26
553.417	6662.16
553.78	6746.9
554.143	6669.16
554.507	6686.79
554.87	6699.44
555.234	6793.68
555.597	6707.8
555.96	6774.92
556.323	6805.43
556.686	6743.51
557.05	6826.44
557.413	6803.17
557.776	6869.83
558.139	6909.83
558.502	6913.9
558.865	6891.98
559.228	6946.22
559.59	6976.5
559.953	6971.07
560.316	7003.16
560.679	7018.98
561.041	7031.64
561.404	7079.55
561.767	7104.63
562.129	7059.21
562.492	7129.71
562.854	7142.14
563.217	7130.62
563.579	7177.62
563.941	7162.48
564.304	7209.49
564.666	7246.09
565.028	7228.47
565.39	7253.78
565.753	7357.05
566.115	7282.03
566.477	7375.36
566.839	7319.31
567.201	7442.02
567.563	7366.54
567.925	7454.45
568.287	7426.88
568.648	7416.94
569.01	7525.41
569.372	7604.05
569.734	7540.55
570.095	7571.06
570.457	7640.21
570.819	7650.15
571.18	7677.27
571.542	7683.6
571.903	7734.67
572.265	7769.24
572.626	7738.06
572.987	7807.89
573.349	7848.56
573.71	7934.66
574.071	7931.05
574.432	7948.45
574.794	8047.2
575.155	8054.66
575.516	8041.78
575.877	8106.64
576.238	8091.95
576.599	8173.75
576.96	8203.36
577.32	8268.44
577.681	8360.87
578.042	8421.66
578.403	8415.78
578.763	8574.65
579.124	8582.56
579.485	8616.45
579.845	8674.31
580.206	8733.29
580.566	8765.83
580.927	8830.23
581.287	8959.27
581.648	9041.75
582.008	9132.37
582.368	9232.94
582.728	9291.24
583.089	9345.7
583.449	9422.99
583.809	9545.02
584.169	9583.89
584.529	9683.09
584.889	9860.72
585.249	9875.86
585.609	9986.81
585.969	10141.39
586.329	10211.89
586.688	10265.22
587.048	10350.65
587.408	10538.21
587.768	10583.18
588.127	10776.17
588.487	10891.87
588.846	11034.02
589.206	11079.21
589.565	11203.28
589.925	11399.43
590.284	11551.29
590.643	11638.75
591.003	11803.72
591.362	11929.14
591.721	12148.79
592.08	12224.04
592.44	12456.58
592.799	12482.79
593.158	12592.39
593.517	12784.03
593.876	12949.45
594.235	13073.06
594.593	13245.94
594.952	13345.82
595.311	13432.6
595.67	13640.28
596.029	13874.4
596.387	13927.28
596.746	14094.95
597.104	14116.2
597.463	14275.51
597.822	14405.91
598.18	14468.73
598.538	14671.66
598.897	14907.59
599.255	14851.77
599.613	15169.28
599.972	15195.26
600.33	15308.26
600.688	15324.07
601.046	15586.67
601.404	15765.42
601.762	15785.31
602.12	15969.71
602.478	16092.42
602.836	16141.23
603.194	16158.18
603.552	16261.68
603.91	16270.72
604.268	16482.69
604.625	16574.66
604.983	16698.95
605.341	16691.04
605.698	16870.25
606.056	16957.03
606.413	16982.11
606.771	17233.63
607.128	17253.29
607.485	17333.97
607.843	17362.66
608.2	17488.54
608.557	17712.94
608.914	17738.47
609.272	17748.64
609.629	17915.87
609.986	18054.62
610.343	17908.64
610.7	18235.86
611.057	18192.25
611.414	18303.21
611.771	18330.78
612.127	18489.64
612.484	18479.02
612.841	18622.29
613.198	18485.12
613.554	18637.43
613.911	18919.46
614.267	18970.98
614.624	18979.12
614.98	19024.09
615.337	19063.86
615.693	19162.84
616.05	19164.65
616.406	19276.74
616.762	19265.44
617.118	19318.77
617.475	19450.52
617.831	19481.93
618.187	19509.73
618.543	19494.81
618.899	19800.11
619.255	19644.41
619.611	19638.54
619.967	19723.51
620.323	19854.58
620.678	19848.7
621.034	19897.51
621.39	19887.34
621.746	19848.48
622.101	20066.55
622.457	19927.34
622.812	19956.5
623.168	20075.81
623.523	20154.46
623.879	20197.62
624.234	20036.27
624.589	20243.72
624.945	20186.77
625.3	20318.97
625.655	20267.67
626.01	20281.01
626.365	20353.55
626.72	20425.86
627.075	20377.05
627.43	20334.56
627.785	20322.14
628.14	20396.48
628.495	20479.65
628.85	20420.89
629.205	20410.72
629.559	20445.97
629.914	20396.03
630.269	20376.82
630.623	20434.9
630.978	20340.67
631.332	20493.88
631.687	20553.99
632.041	20318.07
632.396	20493.88
632.75	20424.51
633.104	20372.76
633.459	20279.42
633.813	20400.78
634.167	20240.33
634.521	20318.29
634.875	20319.42
635.229	20367.11
635.583	20323.49
635.937	20220.22
636.291	20260.89
636.645	20311.29
636.999	20205.53
637.352	20382.25
637.706	20168.24
638.06	20331.4
638.413	20260.67
638.767	20164.4
639.121	20321.91
639.474	20119.2
639.828	20102.71
640.181	20175.92
640.534	20225.87
640.888	20164.63
641.241	20056.38
641.594	20221.8
641.947	20195.36
642.301	20074.68
642.654	20175.92
643.007	20177.05
643.36	20161.69
643.713	20070.39
644.066	20268.58
644.419	20052.99
644.771	19901.81
645.124	19770.29
645.477	19714.24
645.83	19652.32
646.182	19599.22
646.535	19508.15
646.888	19557.18
647.24	19477.19
647.593	19540.69
647.945	19467.69
648.298	19519.22
648.65	19458.66
649.002	19500.01
649.355	19468.6
649.707	19485.77
650.059	19541.14
650.411	19811.41
650.763	19802.37
651.115	19999.88
651.467	19925.31
651.819	19964.18
652.171	19948.36
652.523	19784.07
652.875	19857.51
653.227	19737.74
653.578	19923.28
653.93	19875.14
654.282	19887.57
654.633	19778.42
654.985	19877.63
655.337	19918.3
655.688	19923.28
656.039	19957.17
656.391	19836.72
656.742	19967.79
657.094	19927.34
657.445	19950.85
657.796	19795.37
658.147	19840.79
658.498	19881.02
658.849	19863.62
659.2	19952.2
659.551	19858.19
659.902	19907
660.253	19915.82
660.604	20012.31
660.955	19901.13
661.306	19917.85
661.656	19899.77
662.007	19944.29
662.358	19995.36
662.708	19981.81
663.059	19950.39
663.409	19888.25
663.76	20024.97
664.11	20018.87
664.461	19975.03
664.811	20006.89
665.161	19969.6
665.511	19994.01
665.862	19950.17
666.212	20075.36
666.562	20067.9
666.912	20050.96
667.262	19984.06
667.612	19970.73
667.962	20058.64
668.312	19975.7
668.662	20082.37
669.011	20039.2
669.361	20035.81
669.711	19877.85
670.06	19883.73
670.41	19968.25
670.76	19899.55
671.109	19957.62
671.459	19961.92
671.808	19905.42
672.157	19986.55
672.507	19794.92
672.856	19904.74
673.205	19915.59
673.554	19864.29
673.904	19811.19
674.253	19956.95
674.602	19849.15
674.951	19603.28
675.3	19545.88
675.649	19784.52
675.998	19796.95
676.346	19685.54
676.695	19822.49
677.044	19709.95
677.393	19660.46
677.741	19746.11
678.09	19664.53
678.438	19472.21
678.787	19661.36
679.135	19642.15
679.484	19523.74
679.832	19544.08
680.181	19413.68
680.529	19543.85
680.877	19429.28
681.225	19350.41
681.573	19541.82
681.922	19297.08
682.27	19319.68
682.618	19288.26
682.966	19202.16
683.314	19266.57
683.661	19103.64
684.009	19217.31
684.357	19076.29
684.705	19152.45
685.053	19100.02
685.4	19090.3
685.748	18885.34
686.095	19008.72
686.443	18806.24
686.79	18789.52
687.138	18882.4
687.485	18919.23
687.832	18753.36
688.18	18771.44
688.527	18682.18
688.874	18658.68
689.221	18606.93
689.568	18597.43
689.915	18460.72
690.262	18491
690.609	18400.15
690.956	18334.39
691.303	18341.62
691.65	18188.41
691.997	18317.89
692.344	18081.52
692.69	18145.47
693.037	18098.69
693.383	18005.13
693.73	17991.57
694.077	17959.71
694.423	17945.47
694.769	17815.53
695.116	17829.77
695.462	17805.82
695.808	17704.8
696.155	17833.61
696.501	17594.52
696.847	17639.04
697.193	17437.69
697.539	17435.66
697.885	17384.36
698.231	17261.42
698.577	17347.75
698.923	17242.89
699.269	17087.87
699.614	17094.65
699.96	17037.25
700.306	16932.62
700.651	16918.16
700.997	16838.61
701.342	16846.97
701.688	16821.21
702.033	16681.33
702.379	16674.32
702.724	16616.92
703.069	16611.27
703.415	16469.36
703.76	16397.27
704.105	16489.02
704.45	16372.86
704.795	16343.71
705.14	16165.86
705.485	16195.24
705.83	16143.94
706.175	16173.09
706.52	15962.7
706.865	15935.13
707.209	15972.64
707.554	15832.54
707.899	15947.56
708.243	15805.19
708.588	15781.24
708.932	15654.24
709.277	15712.54
709.621	15714.12
709.966	15605.65
710.31	15629.6
710.654	15563.16
710.998	15514.13
711.342	15402.72
711.687	15455.82
712.031	15331.08
712.375	15237.98
712.719	15300.12
713.063	15369.27
713.407	15402.72
713.75	15268.48
714.094	15208.6
714.438	15127.92
714.782	15129.5
715.125	15025.78
715.469	15159.79
715.812	15093.8
716.156	14970.86
716.499	14955.72
716.843	14896.52
717.186	14885.44
717.53	14923.86
717.873	14928.38
718.216	14878.44
718.559	14858.78
718.902	14784.88
719.246	14750.3
719.589	14702.62
719.932	14739.01
720.275	14692.9
720.617	14720.47
720.96	14600.25
721.303	14732
721.646	14741.72
721.989	14551.21
722.331	14617.43
722.674	14588.5
723.016	14593.47
723.359	14616.3
723.701	14520.25
724.044	14476.41
724.386	14403.19
724.729	14512.34
725.071	14432.57
725.413	14367.49
725.755	14372.01
726.097	14309.86
726.439	14347.6
726.782	14335.4
727.124	14417.66
727.465	14249.07
727.807	14347.38
728.149	14293.82
728.491	14353.7
728.833	14348.96
729.175	14241.62
729.516	14257.21
729.858	14201.62
730.199	14245.68
730.541	14292.92
730.882	14232.8
731.224	14281.39
731.565	14227.15
731.906	14142.86
732.248	14248.17
732.589	14145.35
732.93	14056.31
733.271	14141.51
733.612	14161.85
733.953	14150.77
734.294	14133.6
734.635	14159.13
734.976	14090.66
735.317	14042.98
735.658	14048.18
735.999	14109.42
736.339	14042.53
736.68	14151.9
737.021	14090.89
737.361	14058.57
737.702	14148.51
738.042	14079.36
738.383	14063.99
738.723	14156.2
739.063	14064.22
739.404	14096.54
739.744	14084.11
740.084	14063.99
740.424	14127.5
740.764	14101.96
741.104	14220.6
741.444	14107.38
741.784	14157.33
742.124	14176.53
742.464	14194.16
742.804	14126.59
743.143	14144.67
743.483	14227.83
743.823	14114.16
744.162	14159.13
744.502	14253.37
744.841	14289.3
745.181	14313.25
745.52	14336.3
745.86	14342.86
746.199	14484.32
746.538	14418.56
746.877	14500.14
747.216	14521.16
747.556	14571.33
747.895	14587.6
748.234	14578.11
748.573	14710.98
748.911	14653.13
749.25	14786.01
749.589	14826.23
749.928	14844.54
750.267	14892.45
750.605	15032.78
750.944	14953.69
751.283	15057.19
751.621	15268.03
751.96	15159.33
752.298	15261.03
752.636	15371.98
752.975	15388.48
753.313	15474.8
753.651	15770.84
753.989	15724.52
754.327	15749.37
754.666	15795.7
755.004	15909.37
755.342	16088.12
755.679	16218.97
756.017	16206.76
756.355	16364.05
756.693	16361.34
757.031	16536.7
757.368	16551.39
757.706	16753.87
758.044	16790.25
758.381	16837.93
758.719	16956.35
759.056	17157.02
759.394	17197.02
759.731	17191.6
760.068	17347.98
760.405	17387.75
760.743	17480.4
761.08	17751.36
761.417	17669.1
761.754	17824.57
762.091	17860.5
762.428	17968.07
762.765	17970.56
763.102	18161.29
763.438	18113.15
763.775	18281.96
764.112	18326.93
764.449	18498.68
764.785	18503.43
765.122	18516.08
765.458	18544.33
765.795	18584.55
766.131	18755.85
766.467	18706.81
766.804	18769.18
767.14	18821.61
767.476	18924.21
767.812	18943.87
768.148	18970.98
768.485	18876.75
768.821	18977.99
769.157	19050.76
769.492	19012.79
769.828	19109.51
770.164	19066.35
770.5	19063.41
770.836	19109.74
771.171	19126.46
771.507	19194.03
771.842	19090.76
772.178	19232.22
772.513	19147.48
772.849	19158.55
773.184	19063.86
773.519	19201.26
773.855	19070.64
774.19	19100.47
774.525	19074.71
774.86	19107.03
775.195	19069.74
775.53	19144.31
775.865	19041.04
776.2	18902.06
776.535	18877.65
776.87	18912.68
777.205	18932.12
777.539	18898.9
777.874	18900.93
778.209	18800.82
778.543	18669.52
778.878	18709.3
779.212	18713.82
779.547	18660.03
779.881	18628.85
780.215	18589.53
780.55	18658.9
780.884	18551.11
781.218	18606.93
781.552	18516.31
781.886	18410.1
782.22	18385.01
782.554	18322.87
782.888	18161.06
783.222	18156.54
783.556	18082.87
783.889	18185.47
784.223	18066.6
784.557	18215.07
784.89	18103.21
785.224	17973.5
785.557	17900.96
785.891	17862.54
786.224	17879.94
786.558	17935.31
786.891	17694.63
787.224	17686.05
787.557	17544.58
787.891	17646.95
788.224	17554.52
788.557	17621.19
788.89	17558.82
789.223	17566.28
789.556	17415.77
789.888	17371.93
790.221	17313.17
790.554	17175.55
790.887	17206.96
791.219	17140.98
791.552	17151.37
791.884	16902.11
792.217	16949.79
792.549	16919.06
792.882	16863.47
793.214	16716.35
793.546	16851.72
793.879	16699.86
794.211	16664.38
794.543	16766.75
794.875	16601.1
795.207	16588
795.539	16506.42
795.871	16575.79
796.203	16369.47
796.535	16286.31
796.867	16223.71
797.198	16352.52
797.53	16225.75
797.862	16139.19
798.193	16167.89
798.525	16107.78
798.856	16055.58
799.188	15908.69
799.519	15819.88
799.85	15917.96
800.182	15847.22
800.513	15844.96
800.844	15654.01
801.175	15704.18
801.506	15748.02
801.837	15569.94
802.168	15539.44
802.499	15561.81
802.83	15444.75
803.161	15465.54
803.491	15362.27
803.822	15384.19
804.153	15257.64
804.483	15240.23
804.814	15202.04
805.145	15226
805.475	15176.96
805.805	15068.71
806.136	15030.3
806.466	14955.95
806.796	15038.88
807.126	14920.24
807.457	14877.53
807.787	14820.36
808.117	14855.39
808.447	14823.52
808.777	14814.48
809.107	14752.79
809.436	14709.18
809.766	14742.39
810.096	14619.46
810.426	14605.68
810.755	14578.56
811.085	14516.86
811.414	14498.33
811.744	14418.79
812.073	14312.58
812.403	14374.49
812.732	14339.69
813.061	14240.71
813.39	14252.01
813.719	14198.68
814.049	14254.27
814.378	14240.49
814.707	14077.33
815.036	14135.18
815.365	14026.26
815.693	13949.87
816.022	13913.49
816.351	13966.37
816.68	13942.87
817.008	13942.64
817.337	13812.7
817.665	13809.99
817.994	13881.63
818.322	13791.91
818.651	13707.62
818.979	13692.7
819.307	13691.58
819.636	13666.26
819.964	13583.1
820.292	13682.99
820.62	13607.51
820.948	13598.92
821.276	13561.41
821.604	13512.37
821.932	13577.91
822.259	13579.26
822.587	13480.51
822.915	13546.49
823.243	13554.4
823.57	13543.1
823.898	13495.2
824.225	13479.83
824.553	13474.18
824.88	13487.29
825.207	13546.95
825.535	13516.66
825.862	13486.16
826.189	13487.29
826.516	13574.52
826.843	13587.4
827.17	13539.94
827.497	13524.8
827.824	13527.06
828.151	13537.91
828.478	13546.95
828.805	13610.9
829.131	13480.28
829.458	13412.49
829.785	13413.39
830.111	13402.54
830.438	13538.36
830.764	13465.37
831.09	13457.68
831.417	13448.42
831.743	13435.08
832.069	13541.75
832.395	13414.29
832.722	13527.96
833.048	13345.14
833.374	13407.74
833.7	13298.37
834.026	13372.49
834.351	13466.72
834.677	13378.36
835.003	13379.04
835.329	13385.82
835.654	13325.03
835.98	13279.61
836.306	13177.01
836.631	13252.49
836.956	13312.38
837.282	13272.15
837.607	13237.12
837.932	13234.64
838.258	13193.51
838.583	13088.65
838.908	13132.95
839.233	13046.62
839.558	13059.5
839.883	13062.21
840.208	12959.39
840.533	12969.11
840.858	12960.75
841.182	12876.46
841.507	12960.52
841.832	12983.35
842.156	12905.38
842.481	12832.84
842.805	12817.93
843.13	12875.78
843.454	12750.58
843.778	12755.78
844.103	12678.95
844.427	12580.42
844.751	12618.61
845.075	12661.55
845.399	12507.88
845.723	12532.96
846.047	12492.96
846.371	12419.74
846.695	12420.42
847.019	12321.44
847.343	12266.08
847.666	12189.69
847.99	12135.23
848.313	12145.63
848.637	12131.39
848.96	12081.22
849.284	11953.32
849.607	11990.15
849.931	11992.64
850.254	11840.1
850.577	11805.97
850.9	11709.03
851.223	11723.94
851.546	11640.33
851.869	11513.78
852.192	11625.87
852.515	11461.35
852.838	11460.9
853.161	11460.22
853.483	11392.88
853.806	11308.36
854.129	11371.41
854.451	11251.41
854.774	11235.82
855.096	11261.36
855.419	11201.02
855.741	11165.09
856.063	11038.76
856.385	11064.53
856.708	11025.2
857.03	10989.27
857.352	10996.28
857.674	10972.32
857.996	10884.64
858.318	10807.58
858.64	10896.85
858.961	10820.24
859.283	10761.48
859.605	10737.08
859.926	10705.89
860.248	10747.7
860.57	10701.6
860.891	10655.5
861.212	10574.59
861.534	10531.88
861.855	10503.64
862.176	10562.39
862.498	10552.45
862.819	10537.08
863.14	10498.66
863.461	10470.42
863.782	10408.27
864.103	10450.76
864.424	10388.16
864.745	10431.1
865.065	10396.07
865.386	10322.85
865.707	10322.17
866.027	10331.89
866.348	10302.74
866.668	10256.86
866.989	10211.89
867.309	10193.14
867.63	10246.47
867.95	10171.44
868.27	10179.8
868.59	10208.95
868.91	10206.02
869.23	10094.83
869.55	10115.85
869.87	10195.62
870.19	10133.7
870.51	10116.3
870.83	10070.88
871.15	10056.87
871.469	10073.14
871.789	10025
872.109	10014.84
872.428	9893.03
872.748	10000.37
873.067	9955.18
873.386	9975.29
873.706	9892.58
874.025	9859.13
874.344	9843.31
874.663	9903.65
874.982	9795.41
875.301	9848.74
875.62	9838.57
875.939	9771
876.258	9802.41
876.577	9692.13
876.896	9732.36
877.214	9728.29
877.533	9760.38
877.852	9763.99
878.17	9685.8
878.489	9741.17
878.807	9717.67
879.125	9684
879.444	9632.25
879.762	9545.47
880.08	9566.49
880.398	9557.45
880.716	9505.24
881.034	9498.92
881.352	9498.69
881.67	9466.83
881.988	9460.73
882.306	9423.66
882.624	9411.91
882.941	9380.73
883.259	9414.4
883.577	9345.47
883.894	9358.81
884.212	9312.93
884.529	9258.25
884.846	9234.74
885.164	9257.79
885.481	9248.53
885.798	9288.75
886.115	9144.8
886.432	9141.19
886.75	9132.6
887.067	9094.63
887.383	9032.94
887.7	9147.51
888.017	9051.02
888.334	9036.33
888.651	9050.79
888.967	8966.05
889.284	8902.55
889.6	8869.33
889.917	8860.52
890.233	8826.39
890.55	8875.88
890.866	8838.6
891.182	8836.34
891.498	8760.63
891.815	8749.11
892.131	8705.04
892.447	8637.02
892.763	8679.5
893.079	8683.8
893.395	8645.15
893.71	8590.92
894.026	8593.86
894.342	8555.21
894.657	8520.64
894.973	8488.77
895.289	8496.01
895.604	8439.74
895.92	8406.74
896.235	8389.12
896.55	8359.96
896.865	8341.43
897.181	8292.62
897.496	8222.11
897.811	8262.34
898.126	8220.98
898.441	8207.88
898.756	8150.03
899.071	8127.65
899.386	8081.1
899.7	8091.27
900.015	7995.91
900.33	7990.93
900.644	7981.44
900.959	8003.14
901.273	7937.15
901.588	7874.1
901.902	7858.73
902.216	7808.34
902.531	7818.74
902.845	7767.89
903.159	7757.95
903.473	7680.66
903.787	7670.72
904.101	7603.83
904.415	7665.07
904.729	7579.19
905.042	7558.18
905.356	7591.62
905.67	7555.47
905.984	7525.18
906.297	7434.79
906.611	7438.63
906.924	7414.9
907.237	7410.38
907.551	7389.82
907.864	7310.27
908.177	7308.92
908.491	7348.46
908.804	7234.57
909.117	7191.41
909.43	7115.7
909.743	7105.08
910.056	7085.42
910.368	7078.19
910.681	7091.97
910.994	7029.6
911.307	6997.29
911.619	6951.64
911.932	6957.74
912.244	6898.31
912.557	6897.4
912.869	6845.65
913.181	6820.8
913.494	6796.16
913.806	6751.64
914.118	6675.71
914.43	6714.13
914.742	6698.54
915.054	6678.2
915.366	6633.91
915.678	6617.18
915.99	6588.03
916.302	6525.21
916.613	6560.24
916.925	6575.6
917.236	6544.19
917.548	6479.56
917.859	6438.21
918.171	6413.57
918.482	6427.81
918.794	6275.27
919.105	6305.1
919.416	6274.82
919.727	6256.29
920.038	6255.16
920.349	6143.3
920.66	6160.02
920.971	6157.76
921.282	6151.21
921.593	6102.85
921.903	6060.82
922.214	6049.06
922.525	6006.81
922.835	6019.69
923.146	5965.45
923.456	5979.69
923.767	5946.92
924.077	5982.85
924.387	5922.06
924.697	5887.49
925.008	5850.88
925.318	5812.23
925.628	5845.68
925.938	5734.27
926.248	5725.91
926.558	5642.07
926.867	5702.41
927.177	5674.61
927.487	5663.76
927.796	5638.68
928.106	5596.65
928.416	5576.76
928.725	5566.36
929.034	5506.93
929.344	5534.28
929.653	5508.29
929.962	5438.68
930.271	5464.45
930.581	5402.08
930.89	5386.03
931.199	5324.56
931.508	5397.33
931.817	5332.02
932.125	5308.52
932.434	5319.14
932.743	5222.19
933.051	5196.88
933.36	5210.67
933.669	5120.27
933.977	5135.19
934.286	5141.74
934.594	5117.34
934.902	5085.47
935.21	5053.84
935.519	5036.44
935.827	5040.28
936.135	4985.82
936.443	4945.82
936.751	4983.56
937.059	4966.61
937.367	4948.3
937.674	4928.19
937.982	4835.99
938.29	4876.21
938.597	4856.33
938.905	4786.27
939.213	4802.32
939.52	4806.38
939.827	4784.24
940.135	4710.12
940.442	4741.08
940.749	4706.73
941.056	4712.15
941.363	4697.24
941.67	4650.46
941.977	4631.25
942.284	4577.24
942.591	4534.3
942.898	4609.1
943.205	4548.09
943.511	4526.84
943.818	4581.53
944.125	4513.74
944.431	4471.7
944.738	4466.05
945.044	4411.59
945.35	4429.45
945.657	4381.09
945.963	4361.42
946.269	4332.95
946.575	4337.02
946.881	4340.41
947.187	4291.82
947.493	4298.6
947.799	4241.65
948.105	4246.85
948.41	4187.87
948.716	4228.77
949.022	4199.17
949.327	4188.55
949.633	4128.89
949.938	4129.11
950.244	4139.51
950.549	4050.7
950.854	4082.34
951.16	4104.03
951.465	4005.28
951.77	4051.15
952.075	3967.31
952.38	3996.46
952.685	3986.07
952.99	3942
953.294	3957.37
953.599	3908.1
953.904	3889.8
954.209	3862.23
954.513	3916.69
954.818	3812.29
955.122	3817.48
955.426	3829.01
955.731	3810.03
956.035	3795.11
956.339	3782.68
956.643	3773.19
956.948	3744.94
957.252	3720.31
957.556	3749.01
957.86	3705.17
958.163	3671.73
958.467	3668.79
958.771	3634.66
959.075	3623.37
959.378	3600.09
959.682	3606.42
959.985	3607.55
960.289	3591.73
960.592	3520.32
960.896	3589.92
961.199	3523.25
961.502	3443.93
961.805	3489.36
962.108	3410.72
962.411	3450.94
962.714	3461.11
963.017	3435.35
963.32	3454.33
963.623	3416.59
963.926	3410.72
964.228	3381.11
964.531	3386.31
964.833	3321.9
965.136	3311.51
965.438	3332.98
965.741	3300.44
966.043	3284.62
966.345	3310.15
966.648	3260.21
966.95	3250.49
967.252	3211.17
967.554	3223.15
967.856	3192.64
968.158	3189.7
968.46	3154.68
968.761	3209.14
969.063	3112.64
969.365	3166.88
969.666	3114.9
969.968	3103.6
970.269	3072.42
970.571	3029.48
970.872	3050.05
971.174	3036.04
971.475	3040.33
971.776	3035.13
972.077	3012.08
972.378	2982.03
972.679	2976.15
972.98	2964.4
973.281	3017.51
973.582	2942.71
973.883	2957.39
974.183	2879.2
974.484	2927.11
974.785	2921.01
975.085	2854.57
975.386	2892.54
975.686	2878.53
975.986	2833.1
976.287	2826.1
976.587	2810.51
976.887	2812.77
977.187	2797.4
977.487	2833.78
977.787	2767.34
978.087	2798.75
978.387	2754.91
978.687	2759.89
978.987	2739.09
979.286	2704.07
979.586	2721.69
979.885	2707.68
980.185	2673.11
980.484	2664.29
980.784	2695.71
981.083	2649.83
981.382	2614.58
981.682	2615.48
981.981	2621.81
982.28	2609.38
982.579	2568.03
982.878	2606.22
983.177	2554.47
983.475	2593.56
983.774	2538.2
984.073	2508.37
984.372	2513.79
984.67	2509.95
984.969	2488.03
985.267	2494.81
985.566	2464.75
985.864	2439.67
986.162	2454.13
986.461	2420.23
986.759	2460.01
987.057	2411.87
987.355	2421.14
987.653	2415.26
987.951	2385.66
988.249	2389.05
988.547	2407.35
988.844	2356.96
989.142	2372.55
989.44	2317.18
989.737	2325.77
990.035	2289.16
990.332	2286
990.63	2308.37
990.927	2275.15
991.224	2271.54
991.521	2280.8
991.819	2257.3
992.116	2234.7
992.413	2248.26
992.71	2220.69
993.006	2199.22
993.303	2209.84
993.6	2193.8
993.897	2200.8
994.193	2161.93
994.49	2165.1
994.787	2164.19
995.083	2116.51
995.379	2097.08
995.676	2088.04
995.972	2062.28
996.268	2078.32
996.565	2096.17
996.861	2041.26
997.157	2081.26
997.453	2045.33
997.749	2042.62
998.044	2022.28
998.34	2014.82
998.636	1999.45
998.932	1978.89
999.227	1962.62
999.523	1989.51
999.818	1967.14
1000.114	1971.43
1000.409	1933.01
1000.704	1947.25
1001	1927.59
1001.295	1930.53
1001.59	1926.69
1001.885	1907.25
1002.18	1845.33
1002.475	1880.81
1002.77	1855.73
1003.065	1880.81
1003.359	1881.94
1003.654	1852.56
1003.949	1827.71
1004.243	1816.63
1004.538	1778.89
1004.832	1790.65
1005.127	1791.55
1005.421	1757.43
1005.715	1785.67
1006.009	1737.09
1006.304	1770.08
1006.598	1754.94
1006.892	1751.1
1007.186	1726.24
1007.48	1716.3
1007.773	1730.53
1008.067	1729.63
1008.361	1693.25
1008.655	1656.41
1008.948	1678.11
1009.242	1642.17
1009.535	1660.48
1009.829	1614.38
1010.122	1593.36
1010.415	1627.03
1010.708	1626.58
1011.001	1606.92
1011.295	1566.7
1011.588	1590.88
1011.881	1592.23
1012.173	1579.8
1012.466	1561.5
1012.759	1542.29
1013.052	1538.67
1013.344	1551.33
1013.637	1516.53
1013.93	1519.92
1014.222	1506.81
1014.514	1508.62
1014.807	1523.31
1015.099	1456.87
1015.391	1479.92
1015.683	1482.18
1015.976	1462.74
1016.268	1449.19
1016.56	1425.68
1016.851	1424.33
1017.143	1404.89
1017.435	1394.05
1017.727	1422.29
1018.018	1394.95
1018.31	1362.63
1018.602	1372.35
1018.893	1335.29
1019.185	1360.83
1019.476	1338.45
1019.767	1354.95
1020.058	1330.32
1020.35	1350.88
1020.641	1317.89
1020.932	1307.95
1021.223	1304.78
1021.514	1289.87
1021.804	1258.68
1022.095	1274.73
1022.386	1285.12
1022.677	1253.03
1022.967	1255.29
1023.258	1234.95
1023.548	1227.72
1023.839	1232.69
1024.129	1230.21
1024.419	1206.48
1024.709	1188.63
1025	1199.47
1025.29	1199.7
1025.58	1197.89
1025.87	1161.73
1026.16	1171.9
1026.449	1177.33
1026.739	1161.96
1027.029	1137.78
1027.319	1125.35
1027.608	1128.29
1027.898	1096.65
1028.187	1122.41
1028.477	1096.43
1028.766	1099.14
1029.055	1086.48
1029.344	1083.09
1029.634	1072.7
1029.923	1053.26
1030.212	1055.52
1030.501	1044.45
1030.79	1071.79
1031.078	1040.38
1031.367	1047.84
1031.656	1047.39
1031.945	1030.44
1032.233	1041.29
1032.522	1011
1032.81	1032.25
1033.099	1019.59
1033.387	976.66
1033.675	988.18
1033.963	961.74
1034.251	989.08
1034.54	965.36
1034.828	963.1
1035.116	954.06
1035.403	955.41
1035.691	939.14
1035.979	958.58
1036.267	907.5
1036.554	905.02
1036.842	936.43
1037.129	929.88
1037.417	909.76
1037.704	902.53
1037.992	919.93
1038.279	920.39
1038.566	898.92
1038.853	898.92
1039.14	898.92
