Data from hue_260_FLMS001491_00024.txt Node
Date: Tue Feb 07 15:58:46 GMT 2017
User: dcchb
Spectrometer: FLMS00149
Trigger mode: 0
Integration Time (sec): 2.000000E-2
Scans to average: 10
Electric dark correction enabled: true
Nonlinearity correction enabled: false
Boxcar width: 0
XAxis mode: Wavelengths
Number of Pixels in Spectrum: 2048
>>>>>Begin Spectral Data<<<<<
341.393	-15.96
341.776	-15.96
342.16	-15.96
342.543	-62.74
342.927	-62.74
343.31	-76.98
343.693	-76.75
344.077	-73.59
344.46	-54.6
344.843	-46.02
345.226	-28.16
345.61	-33.13
345.993	-15.73
346.376	-6.92
346.759	17.03
347.142	22.01
347.525	50.25
347.908	63.36
348.291	77.6
348.674	77.14
349.057	104.49
349.44	136.58
349.823	133.19
350.206	149.91
350.588	183.13
350.971	192.85
351.354	233.3
351.737	226.97
352.119	236.01
352.502	254.54
352.884	255.67
353.267	274.43
353.65	289.57
354.032	301.32
354.414	302.45
354.797	302.45
355.179	311.04
355.562	311.26
355.944	338.38
356.326	322.56
356.709	316.46
357.091	337.03
357.473	321.43
357.855	337.93
358.238	342.22
358.62	329.34
359.002	334.09
359.384	333.64
359.766	339.28
360.148	353.97
360.53	336.57
360.912	311.94
361.294	307.2
361.676	329.12
362.057	344.71
362.439	330.92
362.821	325.5
363.203	312.17
363.584	331.15
363.966	312.62
364.348	317.59
364.729	304.94
365.111	297.7
365.493	295.22
365.874	305.84
366.256	318.49
366.637	288.21
367.019	313.97
367.4	321.21
367.781	308.33
368.163	309.23
368.544	315.1
368.925	294.09
369.306	304.94
369.688	301.77
370.069	297.25
370.45	296.8
370.831	289.12
371.212	291.15
371.593	307.87
371.974	310.81
372.355	309.46
372.736	317.36
373.117	318.72
373.498	305.16
373.879	308.1
374.26	318.27
374.641	311.94
375.021	303.58
375.402	312.84
375.783	308.78
376.163	303.13
376.544	338.38
376.925	333.41
377.305	329.34
377.686	307.65
378.066	323.47
378.447	334.99
378.827	316.91
379.208	327.76
379.588	331.15
379.968	317.59
380.349	320.98
380.729	346.06
381.109	321.88
381.489	322.56
381.87	338.38
382.25	321.66
382.63	317.36
383.01	326.4
383.39	324.6
383.77	347.65
384.15	320.98
384.53	327.76
384.91	341.09
385.29	323.92
385.67	356.23
386.049	349.45
386.429	328.66
386.809	358.72
387.189	362.79
387.568	346.06
387.948	344.71
388.328	346.97
388.707	352.62
389.087	351.26
389.466	364.59
389.846	337.48
390.225	366.63
390.605	363.69
390.984	370.47
391.363	365.95
391.743	374.09
392.122	362.56
392.501	365.27
392.881	368.89
393.26	380.87
393.639	365.05
394.018	386.06
394.397	374.99
394.776	381.77
395.155	414.31
395.534	374.09
395.913	371.37
396.292	388.78
396.671	372.96
397.05	392.16
397.429	389.91
397.808	382
398.186	380.87
398.565	386.97
398.944	405.05
399.323	392.84
399.701	394.42
400.08	423.12
400.458	407.98
400.837	409.34
401.215	425.16
401.594	425.16
401.972	404.82
402.351	417.7
402.729	417.7
403.107	429.45
403.486	449.11
403.864	433.07
404.242	417.25
404.62	463.58
404.999	454.99
405.377	444.82
405.755	444.59
406.133	464.25
406.511	488.21
406.889	479.85
407.267	477.36
407.645	459.51
408.023	481.2
408.401	490.47
408.779	507.87
409.156	485.04
409.534	506.96
409.912	506.74
410.29	509
410.667	531.37
411.045	508.77
411.422	534.99
411.8	522.78
412.178	540.18
412.555	530.24
412.933	570.92
413.31	573.85
413.687	583.57
414.065	570.01
414.442	606.85
414.819	584.48
415.197	603.46
415.574	600.75
415.951	604.59
416.328	622.44
416.705	612.05
417.082	626.96
417.46	636.68
417.837	649.33
418.214	653.85
418.591	668.09
418.967	658.15
419.344	692.27
419.721	699.05
420.098	675.77
420.475	689.56
420.852	694.98
421.228	705.83
421.605	724.81
421.982	749.9
422.358	753.06
422.735	760.74
423.111	764.81
423.488	760.74
423.864	778.14
424.241	803.45
424.617	806.39
424.994	826.28
425.37	823.34
425.746	837.35
426.123	852.72
426.499	841.42
426.875	866.28
427.251	905.6
427.627	880.06
428.003	895.2
428.379	908.08
428.756	931.59
429.132	943.79
429.507	934.52
429.883	941.08
430.259	977.01
430.635	971.13
431.011	987.86
431.387	990.34
431.763	1020.17
432.138	1006.84
432.514	1029.89
432.89	1061.3
433.265	1068.76
433.641	1079.38
434.016	1099.04
434.392	1130.22
434.767	1160.28
435.143	1154.86
435.518	1164.8
435.894	1208.87
436.269	1225.36
436.644	1222.88
437.02	1247.96
437.395	1268.53
437.77	1267.17
438.145	1288.19
438.52	1314.17
438.895	1321.63
439.271	1344
439.646	1358.92
440.021	1402.76
440.395	1397.11
440.77	1391.01
441.145	1400.27
441.52	1446.37
441.895	1442.98
442.27	1463.78
442.645	1466.71
443.019	1515.53
443.394	1505.81
443.769	1510.78
444.143	1495.86
444.518	1545.81
444.892	1520.72
445.267	1554.62
445.641	1546.48
446.016	1552.59
446.39	1542.19
446.764	1633.49
447.139	1598.46
447.513	1613.38
447.887	1617.22
448.262	1644.56
448.636	1658.57
449.01	1643.88
449.384	1703.32
449.758	1682.3
450.132	1719.36
450.506	1713.26
450.88	1728.4
451.254	1739.93
451.628	1732.92
452.002	1731.34
452.376	1800.94
452.75	1798.68
453.123	1811.56
453.497	1836.42
453.871	1850.21
454.244	1880.49
454.618	1894.95
454.992	1899.47
455.365	1879.13
455.739	1969.07
456.112	1964.78
456.486	1975.63
456.859	1996.87
457.232	2016.75
457.606	2052.91
457.979	2050.43
458.352	2080.93
458.725	2113.48
459.099	2105.34
459.472	2156.64
459.845	2189.63
460.218	2193.25
460.591	2252.23
460.964	2214.49
461.337	2253.81
461.71	2310.31
462.083	2303.75
462.456	2341.04
462.829	2321.15
463.201	2371.1
463.574	2379.23
463.947	2453.81
464.32	2481.15
464.692	2466.23
465.065	2504.2
465.438	2528.38
465.81	2548.72
466.183	2592.33
466.555	2632.78
466.928	2643.18
467.3	2628.04
467.672	2661.94
468.045	2750.52
468.417	2733.35
468.789	2755.04
469.161	2809.5
469.534	2866.9
469.906	2900.12
470.278	2933.57
470.65	2931.99
471.022	2979.44
471.394	3060.8
471.766	3069.16
472.138	3099.44
472.51	3136.5
472.882	3181.7
473.253	3211.98
473.625	3259.89
473.997	3327.68
474.369	3291.75
474.74	3337.85
475.112	3424.63
475.484	3444.51
475.855	3506.21
476.227	3551.86
476.598	3619.42
476.97	3595.02
477.341	3730.83
477.713	3771.06
478.084	3764.05
478.455	3884.05
478.827	3899.64
479.198	4005.18
479.569	3975.8
479.94	4067.1
480.311	4105.06
480.682	4184.61
481.053	4248.56
481.424	4302.8
481.795	4356.58
482.166	4380.53
482.537	4411.95
482.908	4491.49
483.279	4535.33
483.65	4622.79
484.021	4733.75
484.391	4742.33
484.762	4801.77
485.133	4821.88
485.503	4895.78
485.874	4969.22
486.244	4996.56
486.615	5078.82
486.985	5180.74
487.356	5218.25
487.726	5234.3
488.097	5337.12
488.467	5317.91
488.837	5435.87
489.207	5493.5
489.578	5609.2
489.948	5527.85
490.318	5674.96
490.688	5662.53
491.058	5758.35
491.428	5793.15
491.798	5861.4
492.168	5947.5
492.538	5972.36
492.908	6063.65
493.278	6122.41
493.648	6099.13
494.017	6206.25
494.387	6193.59
494.757	6209.64
495.126	6308.17
495.496	6300.26
495.866	6346.58
496.235	6384.55
496.605	6435.85
496.974	6477.2
497.344	6502.06
497.713	6502.74
498.082	6573.7
498.452	6621.15
498.821	6664.32
499.19	6679.68
499.559	6693.02
499.928	6751.55
500.298	6750.42
500.667	6824.09
501.036	6789.28
501.405	6841.03
501.774	6868.38
502.143	6936.63
502.512	6904.08
502.88	6959.22
503.249	6994.48
503.618	7047.13
503.987	7020.47
504.356	7072.89
504.724	7091.42
505.093	7112.21
505.462	7106.34
505.83	7151.99
506.199	7167.13
506.567	7251.65
506.936	7276.05
507.304	7324.86
507.672	7294.36
508.041	7384.75
508.409	7371.87
508.777	7422.26
509.145	7416.61
509.514	7389.49
509.882	7495.93
510.25	7450.74
510.618	7586.1
510.986	7490.96
511.354	7527.57
511.722	7577.06
512.09	7596.5
512.458	7560.34
512.826	7639.21
513.193	7626.1
513.561	7657.74
513.929	7742.71
514.297	7732.99
514.664	7775.93
515.032	7784.96
515.4	7764.4
515.767	7815.25
516.135	7837.84
516.502	7801.91
516.869	7918.07
517.237	7908.35
517.604	7934.34
517.972	7930.27
518.339	7998.29
518.706	7894.11
519.073	7964.62
519.44	8000.78
519.808	8020.21
520.175	8015.47
520.542	8118.06
520.909	8085.07
521.276	8081.45
521.643	8137.5
522.009	8154.45
522.376	8148.35
522.743	8229.25
523.11	8264.05
523.477	8226.99
523.843	8336.59
524.21	8317.15
524.577	8311.28
524.943	8337.27
525.31	8320.77
525.676	8422.91
526.043	8427.89
526.409	8414.33
526.776	8394.89
527.142	8466.3
527.508	8492.74
527.874	8520.54
528.241	8522.12
528.607	8476.92
528.973	8542.91
529.339	8534.55
529.705	8594.21
530.071	8656.81
530.437	8550.37
530.803	8591.05
531.169	8672.63
531.535	8616.36
531.901	8605.28
532.267	8640.54
532.632	8647.77
532.998	8649.12
533.364	8675.11
533.73	8709.91
534.095	8693.42
534.461	8702.68
534.826	8690.93
535.192	8684.15
535.557	8687.54
535.923	8709.91
536.288	8704.26
536.653	8746.52
537.019	8698.84
537.384	8637.37
537.749	8703.81
538.114	8695
538.479	8694.55
538.845	8718.05
539.21	8595.56
539.575	8704.94
539.94	8735.45
540.305	8713.53
540.67	8579.52
541.034	8646.64
541.399	8681.21
541.764	8683.02
542.129	8685.51
542.494	8669.24
542.858	8581.55
543.223	8564.15
543.587	8643.7
543.952	8611.38
544.316	8647.32
544.681	8636.47
545.045	8638.73
545.41	8586.07
545.774	8614.77
546.138	8621.1
546.503	8651.83
546.867	8527.54
547.231	8622.23
547.595	8575.68
547.959	8608.45
548.324	8580.2
548.688	8584.94
549.052	8568.67
549.416	8575
549.779	8522.35
550.143	8568.9
550.507	8597.15
550.871	8529.35
551.235	8569.58
551.599	8544.27
551.962	8530.93
552.326	8566.64
552.689	8562.57
553.053	8501.78
553.417	8521.67
553.78	8595.56
554.143	8561.22
554.507	8562.8
554.87	8508.34
555.234	8620.2
555.597	8556.47
555.96	8600.54
556.323	8614.1
556.686	8531.16
557.05	8551.27
557.413	8519.86
557.776	8601.67
558.139	8613.87
558.502	8614.55
558.865	8602.12
559.228	8631.04
559.59	8643.47
559.953	8686.18
560.316	8688.44
560.679	8639.63
561.041	8684.38
561.404	8697.48
561.767	8756.01
562.129	8740.87
562.492	8771.38
562.854	8785.84
563.217	8739.97
563.579	8711.72
563.941	8839.63
564.304	8803.24
564.666	8880.3
565.028	8878.95
565.39	8869.68
565.753	8839.17
566.115	8927.08
566.477	8922.56
566.839	8929.12
567.201	8983.35
567.563	8908.33
567.925	9097.7
568.287	9044.82
568.648	8997.14
569.01	9091.37
569.372	9047.08
569.734	9049.11
570.095	9164.59
570.457	9182.89
570.819	9201.65
571.18	9169.11
571.542	9228.32
571.903	9164.59
572.265	9244.14
572.626	9315.55
572.987	9226.06
573.349	9311.03
573.71	9386.5
574.071	9357.8
574.432	9401.42
574.794	9453.85
575.155	9445.94
575.516	9424.24
575.877	9433.06
576.238	9477.35
576.599	9534.07
576.96	9522.55
577.32	9507.18
577.681	9555.09
578.042	9551.92
578.403	9584.69
578.763	9596.44
579.124	9623.79
579.485	9657.46
579.845	9654.52
580.206	9687.51
580.566	9711.92
580.927	9725.93
581.287	9753.5
581.648	9660.85
582.008	9774.52
582.368	9796.44
582.728	9803.67
583.089	9870.56
583.449	9833.27
583.809	9907.62
584.169	9861.75
584.529	9914.85
584.889	10004.79
585.249	9913.04
585.609	9934.51
585.969	9980.84
586.329	9939.94
586.688	9955.3
587.048	10002.99
587.408	10013.83
587.768	9997.34
588.127	10024.68
588.487	10031.23
588.846	10106.49
589.206	10006.6
589.565	10099.71
589.925	10115.3
590.284	10104.68
590.643	10228.97
591.003	10226.03
591.362	10170.89
591.721	10254.73
592.08	10237.78
592.44	10254.5
592.799	10239.36
593.158	10386.03
593.517	10287.95
593.876	10265.13
594.235	10280.72
594.593	10249.31
594.952	10318.91
595.311	10259.93
595.67	10323.43
596.029	10416.08
596.387	10450.66
596.746	10348.97
597.104	10379.92
597.463	10377.89
597.822	10419.92
598.18	10378.12
598.538	10423.77
598.897	10420.6
599.255	10299.7
599.613	10488.4
599.972	10422.41
600.33	10437.78
600.688	10400.72
601.046	10476.65
601.404	10496.98
601.762	10484.33
602.12	10510.99
602.478	10493.14
602.836	10565.68
603.194	10563.42
603.552	10512.35
603.91	10463.54
604.268	10565.68
604.625	10546.93
604.983	10567.04
605.341	10514.16
605.698	10535.85
606.056	10607.26
606.413	10574.5
606.771	10636.87
607.128	10581.28
607.485	10603.65
607.843	10535.85
608.2	10576.3
608.557	10665.57
608.914	10656.08
609.272	10680.48
609.629	10685.91
609.986	10726.58
610.343	10645
610.7	10770.42
611.057	10723.87
611.414	10722.29
611.771	10737.43
612.127	10866.69
612.484	10827.14
612.841	10799.8
613.198	10707.15
613.554	10741.27
613.911	10810.2
614.267	10831.66
614.624	10782.85
614.98	10824.43
615.337	10914.83
615.693	10897.2
616.05	10787.15
616.406	10888.84
616.762	10863.08
617.118	10885.45
617.475	10869.4
617.831	10885.67
618.187	10906.24
618.543	10949.85
618.899	10959.8
619.255	10975.16
619.611	10959.8
619.967	10928.61
620.323	11015.84
620.678	10961.15
621.034	10953.02
621.39	10960.25
621.746	10901.94
622.101	10986.24
622.457	10982.39
622.812	10994.37
623.168	11006.8
623.523	10990.08
623.879	11059
624.234	10930.64
624.589	10970.42
624.945	10935.62
625.3	11024.43
625.655	10981.94
626.01	10891.1
626.365	10949.4
626.72	10917.76
627.075	10960.93
627.43	10955.28
627.785	10849.52
628.14	10908.72
628.495	10895.17
628.85	10899.69
629.205	10928.16
629.559	10947.59
629.914	10872.79
630.269	10859.01
630.623	10857.43
630.978	10860.14
631.332	10884.77
631.687	10855.84
632.041	10904.88
632.396	10777.88
632.75	10849.97
633.104	10855.62
633.459	10788.28
633.813	10728.62
634.167	10759.12
634.521	10710.31
634.875	10770.2
635.229	10703.98
635.583	10722.51
635.937	10706.47
636.291	10673.25
636.645	10668.28
636.999	10660.14
637.352	10685
637.706	10595.29
638.06	10653.82
638.413	10588.05
638.767	10599.58
639.121	10593.25
639.474	10558.68
639.828	10528.17
640.181	10632.8
640.534	10563.42
640.888	10568.39
641.241	10543.08
641.594	10503.09
641.947	10466.93
642.301	10497.21
642.654	10516.87
643.007	10409.75
643.36	10555.29
643.713	10456.31
644.066	10483.42
644.419	10419.25
644.771	10405.91
645.124	10303.99
645.477	10274.39
645.83	10130.44
646.182	10114.85
646.535	10128.86
646.888	10085.7
647.24	10049.09
647.593	10125.02
647.945	10111.23
648.298	10069.65
648.65	10127.73
649.002	9987.84
649.355	10100.84
649.707	10052.93
650.059	10197.1
650.411	10245.01
650.763	10241.4
651.115	10329.98
651.467	10384.44
651.819	10280.94
652.171	10349.64
652.523	10317.78
652.875	10238.01
653.227	10256.76
653.578	10318.23
653.93	10306.48
654.282	10223.09
654.633	10256.99
654.985	10335.86
655.337	10255.41
655.688	10319.59
656.039	10275.75
656.391	10238.91
656.742	10231.68
657.094	10180.61
657.445	10305.58
657.796	10232.13
658.147	10244.34
658.498	10282.75
658.849	10276.88
659.2	10259.02
659.551	10197.56
659.902	10273.03
660.253	10282.98
660.604	10248.85
660.955	10253.15
661.306	10306.25
661.656	10244.56
662.007	10350.77
662.358	10318.68
662.708	10286.37
663.059	10286.14
663.409	10262.64
663.76	10311.68
664.11	10288.85
664.461	10259.02
664.811	10257.67
665.161	10282.98
665.511	10260.61
665.862	10272.36
666.212	10362.07
666.562	10384.9
666.912	10338.12
667.262	10314.16
667.612	10354.84
667.962	10253.83
668.312	10312.81
668.662	10403.88
669.011	10330.43
669.361	10292.47
669.711	10274.62
670.06	10298.8
670.41	10352.13
670.76	10242.98
671.109	10289.98
671.459	10232.13
671.808	10278.68
672.157	10266.48
672.507	10184.45
672.856	10244.79
673.205	10217.9
673.554	10199.36
673.904	10153.94
674.253	10245.69
674.602	10215.64
674.951	10080.27
675.3	9996.88
675.649	10166.37
675.998	10122.3
676.346	10137.9
676.695	10195.75
677.044	10081.63
677.393	10125.02
677.741	10145.35
678.09	10087.05
678.438	10102.42
678.787	10014.96
679.135	10047.96
679.484	10019.71
679.832	10095.19
680.181	9985.13
680.529	10053.61
680.877	9931.35
681.225	9951.46
681.573	9993.95
681.922	9923.21
682.27	9921.18
682.618	9855.64
682.966	9824.23
683.314	9875.08
683.661	9869.2
684.009	9794.18
684.357	9807.74
684.705	9800.05
685.053	9719.83
685.4	9782.2
685.748	9659.04
686.095	9683.45
686.443	9643
686.79	9663.79
687.138	9688.42
687.485	9620.85
687.832	9687.51
688.18	9541.98
688.527	9457.24
688.874	9551.7
689.221	9434.41
689.568	9442.55
689.915	9432.61
690.262	9420.4
690.609	9388.31
690.956	9331.82
691.303	9338.14
691.65	9258.82
691.997	9302.44
692.344	9294.76
692.69	9171.6
693.037	9197.36
693.383	9128.88
693.73	9136.34
694.077	9096.79
694.423	9095.66
694.769	9051.15
695.116	9005.95
695.462	9084.37
695.808	9032.62
696.155	8987.87
696.501	8862.45
696.847	8941.32
697.193	8820.87
697.539	8915.78
697.885	8787.65
698.231	8799.4
698.577	8742.91
698.923	8802.11
699.269	8693.42
699.614	8659.74
699.96	8636.69
700.306	8647.99
700.651	8558.28
700.997	8538.17
701.342	8509.69
701.688	8500.88
702.033	8406.87
702.379	8497.26
702.724	8390.37
703.069	8389.02
703.415	8297.27
703.76	8313.99
704.105	8333.42
704.45	8293.2
704.795	8175.01
705.14	8157.61
705.485	8164.39
705.83	8123.04
706.175	8110.83
706.52	8072.19
706.865	8100.44
707.209	8076.26
707.554	8072.64
707.899	8045.75
708.243	7928.24
708.588	7895.02
708.932	7937.96
709.277	7927.11
709.621	7956.26
709.966	7881.69
710.31	7913.77
710.654	7765.08
710.998	7815.7
711.342	7847.11
711.687	7702.03
712.031	7741.35
712.375	7719.88
712.719	7690.73
713.063	7702.93
713.407	7696.61
713.75	7700
714.094	7671.3
714.438	7568.25
714.782	7641.24
715.125	7628.36
715.469	7572.77
715.812	7608.7
716.156	7500
716.499	7522.82
716.843	7603.73
717.186	7508.81
717.53	7545.88
717.873	7522.37
718.216	7518.98
718.559	7485.99
718.902	7402.6
719.246	7454.58
719.589	7443.28
719.932	7417.97
720.275	7334.13
720.617	7302.94
720.96	7375.48
721.303	7390.4
721.646	7363.96
721.989	7302.04
722.331	7382.04
722.674	7307.01
723.016	7283.51
723.359	7337.29
723.701	7372.09
724.044	7208.71
724.386	7253.23
724.729	7282.83
725.071	7210.29
725.413	7236.5
725.755	7203.29
726.097	7237.18
726.439	7223.85
726.782	7226.79
727.124	7256.17
727.465	7196.73
727.807	7236.28
728.149	7198.31
728.491	7253.23
728.833	7174.81
729.175	7194.02
729.516	7191.08
729.858	7165.32
730.199	7207.58
730.541	7175.49
730.882	7165.55
731.224	7167.35
731.565	7133.23
731.906	7167.81
732.248	7187.01
732.589	7146.34
732.93	7138.88
733.271	7144.3
733.612	7175.72
733.953	7100.91
734.294	7069.28
734.635	7090.97
734.976	7080.58
735.317	7088.71
735.658	7114.93
735.999	7150.18
736.339	7109.5
736.68	7201.48
737.021	7184.75
737.361	7084.64
737.702	7159.67
738.042	7126.45
738.383	7134.59
738.723	7136.62
739.063	7151.31
739.404	7237.86
739.744	7229.5
740.084	7137.52
740.424	7191.76
740.764	7148.6
741.104	7144.3
741.444	7149.28
741.784	7201.7
742.124	7236.73
742.464	7220.69
742.804	7182.72
743.143	7214.81
743.483	7277.63
743.823	7231.53
744.162	7253
744.502	7333
744.841	7330.97
745.181	7354.69
745.52	7385.65
745.86	7411.19
746.199	7449.83
746.538	7462.04
746.877	7518.76
747.216	7513.33
747.556	7520.11
747.895	7570.51
748.234	7581.35
748.573	7660
748.911	7699.77
749.25	7753.78
749.589	7735.25
749.928	7880.56
750.267	7995.35
750.605	7993.32
750.944	8017.05
751.283	8068.57
751.621	8151.06
751.96	8185.41
752.298	8298.62
752.636	8370.03
752.975	8337.27
753.313	8462.46
753.651	8576.81
753.989	8630.82
754.327	8696.81
754.666	8752.17
755.004	8887.76
755.342	9065.38
755.679	9091.15
756.017	9150.35
756.355	9287.07
756.693	9385.83
757.031	9512.83
757.368	9570
757.706	9693.62
758.044	9739.49
758.381	10011.12
758.719	10094.28
759.056	10196.88
759.394	10228.74
759.731	10343.77
760.068	10524.33
760.405	10722.97
760.743	10733.14
761.08	10934.71
761.417	10950.98
761.754	11117.76
762.091	11237.3
762.428	11346
762.765	11462.16
763.102	11655.37
763.438	11751.64
763.775	11853.56
764.112	12017.4
764.449	12187.79
764.785	12234.79
765.122	12259.65
765.458	12474.11
765.795	12496.93
766.131	12701.45
766.467	12779.41
766.804	12893.08
767.14	12945.73
767.476	13055.33
767.812	13185.95
768.148	13336.91
768.485	13362.9
768.821	13371.26
769.157	13592.04
769.492	13547.98
769.828	13699.61
770.164	13739.84
770.5	13828.87
770.836	13999.04
771.171	13991.58
771.507	14020.96
771.842	14022.31
772.178	14201.52
772.513	14214.85
772.849	14221.41
773.184	14313.83
773.519	14338.01
773.855	14380.5
774.19	14437.9
774.525	14409.88
774.86	14529.65
775.195	14607.16
775.53	14567.61
775.865	14662.52
776.2	14509.53
776.535	14544.56
776.87	14645.35
777.205	14633.15
777.539	14677.21
777.874	14729.41
778.209	14680.6
778.543	14778
778.878	14727.83
779.212	14794.5
779.547	14648.51
779.881	14857.1
780.215	14822.52
780.55	14906.13
780.884	14762.86
781.218	14865.68
781.552	14848.28
781.886	14782.52
782.22	14728.74
782.554	14761.5
782.888	14748.17
783.222	14693.48
783.556	14628.4
783.889	14677.21
784.223	14626.59
784.557	14733.93
784.89	14697.33
785.224	14680.38
785.557	14679.47
785.891	14556.99
786.224	14560.38
786.558	14663.65
786.891	14486.26
787.224	14537.1
787.557	14496.43
787.891	14494.62
788.224	14538.69
788.557	14535.07
788.89	14477.9
789.223	14465.47
789.556	14345.47
789.888	14392.93
790.221	14310.22
790.554	14243.78
790.887	14272.48
791.219	14267.28
791.552	14247.39
791.884	14214.63
792.217	14117.91
792.549	14148.41
792.882	14005.82
793.214	14045.59
793.546	14060.96
793.879	13952.71
794.211	13965.59
794.543	13983.22
794.875	13944.58
795.207	13978.7
795.539	13892.37
795.871	14013.05
796.203	13828.42
796.535	13850.57
796.867	13781.64
797.198	13808.54
797.53	13722.44
797.862	13698.71
798.193	13702.1
798.525	13586.17
798.856	13636.79
799.188	13491.26
799.519	13495.55
799.85	13310.92
800.182	13379.62
800.513	13501.65
800.844	13368.09
801.175	13416.91
801.506	13438.83
801.837	13345.72
802.168	13216.46
802.499	13178.04
802.83	13197.03
803.161	13172.39
803.491	13155.22
803.822	13120.42
804.153	13159.51
804.483	13041.55
804.814	12971.27
805.145	12951.38
805.475	12969.01
805.805	12911.16
806.136	12953.42
806.466	12837.49
806.796	12851.05
807.126	12794.32
807.457	12717.49
807.787	12737.6
808.117	12722.69
808.447	12611.96
808.777	12726.53
809.107	12673.42
809.436	12622.35
809.766	12610.83
810.096	12588.68
810.426	12569.92
810.755	12550.94
811.085	12492.64
811.414	12478.63
811.744	12438.85
812.073	12341.91
812.403	12375.13
812.732	12296.48
813.061	12364.05
813.39	12258.52
813.719	12205.41
814.049	12292.64
814.378	12213.55
814.707	12205.19
815.036	12300.78
815.365	12119.31
815.693	12060.56
816.022	12075.47
816.351	12050.84
816.68	12018.3
817.008	12042.71
817.337	11992.31
817.665	11922.48
817.994	11907.34
818.322	11923.16
818.651	11904.86
818.979	11817.63
819.307	11891.98
819.636	11850.62
819.964	11790.51
820.292	11768.36
820.62	11754.35
820.948	11689.95
821.276	11794.12
821.604	11729.72
821.932	11723.39
822.259	11758.87
822.587	11699.89
822.915	11733.56
823.243	11761.36
823.57	11755.03
823.898	11691.75
824.225	11732.88
824.553	11709.38
824.88	11752.54
825.207	11734.69
825.535	11696.05
825.862	11741.7
826.189	11746.44
826.516	11774.24
826.843	11766.56
827.17	11811.75
827.497	11783.96
827.824	11741.7
828.151	11760.91
828.478	11739.44
828.805	11800.23
829.131	11705.99
829.458	11747.57
829.785	11708.7
830.111	11782.6
830.438	11783.05
830.764	11815.37
831.09	11842.26
831.417	11691.08
831.743	11784.18
832.069	11758.19
832.395	11621.47
832.722	11682.72
833.048	11670.29
833.374	11677.07
833.7	11655.37
834.026	11621.47
834.351	11618.99
834.677	11692.21
835.003	11649.5
835.329	11727.01
835.654	11634.81
835.98	11617.63
836.306	11570.18
836.631	11549.61
836.956	11615.37
837.282	11571.53
837.607	11559.78
837.932	11530.63
838.258	11550.52
838.583	11490.63
838.908	11434.81
839.233	11534.7
839.558	11427.58
839.883	11426
840.208	11393.46
840.533	11359.33
840.858	11341.93
841.182	11331.31
841.507	11375.38
841.832	11299.9
842.156	11280.69
842.481	11207.47
842.805	11238.21
843.13	11278.66
843.454	11267.13
843.778	11144.42
844.103	11108.95
844.427	11129.74
844.751	11189.17
845.075	11052.68
845.399	11014.26
845.723	10966.12
846.047	11030.76
846.371	10901.04
846.695	10903.07
847.019	10835.28
847.343	10719.12
847.666	10708.5
847.99	10619.47
848.313	10636.42
848.637	10646.81
848.96	10587.83
849.284	10632.12
849.607	10563.2
849.931	10416.76
850.254	10364.78
850.577	10307.16
850.9	10280.72
851.223	10233.26
851.546	10197.33
851.869	10123.66
852.192	10192.59
852.515	10139.71
852.838	10113.49
853.161	10106.26
853.483	10014.96
853.806	10038.92
854.129	9977
854.451	9923.67
854.774	9937.68
855.096	9901.97
855.419	9865.59
855.741	9847.28
856.063	9678.02
856.385	9742.88
856.708	9723.22
857.03	9686.38
857.352	9645.71
857.674	9594.63
857.996	9657.23
858.318	9571.81
858.64	9530.23
858.961	9493.85
859.283	9540.62
859.605	9444.13
859.926	9528.65
860.248	9420.4
860.57	9407.75
860.891	9474.19
861.212	9346.28
861.534	9309.67
861.855	9278.03
862.176	9301.54
862.498	9307.18
862.819	9312.83
863.14	9262.44
863.461	9230.35
863.782	9257.47
864.103	9212.72
864.424	9224.25
864.745	9170.69
865.065	9116.46
865.386	9084.37
865.707	9104.25
866.027	9079.39
866.348	9129.79
866.668	9094.76
866.989	9064.25
867.309	9032.16
867.63	8984.03
867.95	9004.37
868.27	8952.17
868.59	8918.72
868.91	8956.23
869.23	8948.55
869.55	8925.27
869.87	8869
870.19	8942.45
870.51	8973.86
870.83	8841.21
871.15	8827.88
871.469	8817.71
871.789	8939.06
872.109	8860.87
872.428	8806.41
872.748	8844.15
873.067	8788.55
873.386	8851.6
873.706	8753.75
874.025	8714.21
874.344	8715.79
874.663	8700.87
874.982	8649.12
875.301	8606.86
875.62	8683.92
875.939	8677.14
876.258	8670.14
876.577	8691.61
876.896	8626.3
877.214	8498.17
877.533	8565.51
877.852	8599.41
878.17	8589.46
878.489	8581.33
878.807	8616.13
879.125	8578.84
879.444	8583.81
879.762	8484.38
880.08	8544.04
880.398	8453.2
880.716	8415.68
881.034	8428.56
881.352	8448.45
881.67	8370.49
881.988	8375.46
882.306	8308.57
882.624	8332.75
882.941	8339.75
883.259	8294.56
883.577	8267.89
883.894	8287.55
884.212	8253.2
884.529	8278.29
884.846	8187.21
885.164	8167.55
885.481	8162.58
885.798	8163.49
886.115	8158.74
886.432	8137.05
886.75	8095.47
887.067	8144.5
887.383	8102.47
887.7	8092.53
888.017	8015.02
888.334	8004.62
888.651	7952.87
888.967	7925.53
889.284	7939.54
889.6	7919.2
889.917	7863.38
890.233	7840.33
890.55	7777.73
890.866	7817.51
891.182	7805.3
891.498	7753.55
891.815	7768.02
892.131	7747
892.447	7660.45
892.763	7634.91
893.079	7606.44
893.395	7640.79
893.71	7598.3
894.026	7578.87
894.342	7550.39
894.657	7493.9
894.973	7486.22
895.289	7457.29
895.604	7445.31
895.92	7448.93
896.235	7355.82
896.55	7377.29
896.865	7363.28
897.181	7377.74
897.496	7300.68
897.811	7212.78
898.126	7234.47
898.441	7271.98
898.756	7176.62
899.071	7165.55
899.386	7203.06
899.7	7117.86
900.015	7137.98
900.33	7050.97
900.644	7050.29
900.959	7107.69
901.273	6978.43
901.588	6958.09
901.902	6941.37
902.216	6948.15
902.531	6960.58
902.845	6865.21
903.159	6822.73
903.473	6881.03
903.787	6776.18
904.101	6788.83
904.415	6755.84
904.729	6760.58
905.042	6735.27
905.356	6687.59
905.67	6642.17
905.984	6683.98
906.297	6651.44
906.611	6572.57
906.924	6543.64
907.237	6557.43
907.551	6538.44
907.864	6475.39
908.177	6495.51
908.491	6463.64
908.804	6384.55
909.117	6352.46
909.43	6310.65
909.743	6301.61
910.056	6280.37
910.368	6273.37
910.681	6275.17
910.994	6162.63
911.307	6244.44
911.619	6209.86
911.932	6184.55
912.244	6077.21
912.557	6061.85
912.869	6098.68
913.181	6071.79
913.494	6093.94
913.806	5980.27
914.118	6005.35
914.43	5929.65
914.742	5922.19
915.054	5955.18
915.366	5917.9
915.678	5849.42
915.99	5825.24
916.302	5819.82
916.613	5808.52
916.925	5768.75
917.236	5841.06
917.548	5732.59
917.859	5721.29
918.171	5685.36
918.482	5655.76
918.794	5667.51
919.105	5615.3
919.416	5633.61
919.727	5590.9
920.038	5537.57
920.349	5528.53
920.66	5496.44
920.971	5486.95
921.282	5484.01
921.593	5459.15
921.903	5418.25
922.214	5389.77
922.525	5346.38
922.835	5351.58
923.146	5325.59
923.456	5296.44
923.767	5294.41
924.077	5238.37
924.387	5268.19
924.697	5206.28
925.008	5170.8
925.318	5185.03
925.628	5135.77
925.938	5156.11
926.248	5096.9
926.558	5100.29
926.867	5105.49
927.177	5078.14
927.487	5076.11
927.796	5006.96
928.106	4992.27
928.416	4966.51
928.725	5019.16
929.034	4918.15
929.344	4950.24
929.653	4937.58
929.962	4888.54
930.271	4839.51
930.581	4805.61
930.89	4843.8
931.199	4804.25
931.508	4801.31
931.817	4766.74
932.125	4758.83
932.434	4774.2
932.743	4653.3
933.051	4681.09
933.36	4696.68
933.669	4635.9
933.977	4676.35
934.286	4639.28
934.594	4571.26
934.902	4589.34
935.21	4507.76
935.519	4569.46
935.827	4541.43
936.135	4502.11
936.443	4460.31
936.751	4443.58
937.059	4450.14
937.367	4401.78
937.674	4395.45
937.982	4404.94
938.29	4397.48
938.597	4369.46
938.905	4308.45
939.213	4282.46
939.52	4287.43
939.827	4300.08
940.135	4247.88
940.442	4245.62
940.749	4251.95
941.056	4225.96
941.363	4219.63
941.67	4206.3
941.977	4110.26
942.284	4145.06
942.591	4131.95
942.898	4054.44
943.205	4121.78
943.511	4079.3
943.818	4066.42
944.125	4048.57
944.431	3997.95
944.738	4002.24
945.044	3985.29
945.35	3927.89
945.657	3922.47
945.963	3871.85
946.269	3889.02
946.575	3888.57
946.881	3861
947.187	3855.58
947.493	3846.99
947.799	3810.38
948.105	3817.16
948.41	3773.54
948.716	3788.91
949.022	3786.65
949.327	3792.3
949.633	3716.37
949.938	3726.77
950.244	3720.44
950.549	3691.06
950.854	3695.35
951.16	3689.03
951.465	3656.03
951.77	3638.41
952.075	3623.49
952.38	3607.9
952.685	3652.87
952.99	3576.94
953.294	3557.05
953.599	3536.71
953.904	3496.49
954.209	3476.15
954.513	3490.16
954.818	3476.6
955.122	3470.95
955.426	3469.15
955.731	3441.58
956.035	3409.94
956.339	3409.94
956.643	3383.72
956.948	3385.76
957.252	3343.27
957.556	3359.32
957.86	3342.6
958.163	3323.61
958.467	3278.64
958.771	3270.51
959.075	3281.58
959.378	3294.91
959.682	3263.28
959.985	3250.85
960.289	3213.56
960.592	3248.36
960.896	3201.81
961.199	3129.04
961.502	3204.97
961.805	3174.46
962.108	3149.15
962.411	3134.24
962.714	3122.71
963.017	3105.54
963.32	3106.44
963.623	3055.6
963.926	3059.67
964.228	3053.56
964.531	3050.17
964.833	3048.37
965.136	3021.7
965.438	2995.94
965.741	2950.97
966.043	2978.99
966.345	2960.01
966.648	2944.19
966.95	2919.33
967.252	2899.9
967.554	2894.7
967.856	2923.85
968.158	2876.39
968.46	2863.51
968.761	2869.84
969.063	2864.87
969.365	2853.12
969.666	2849.5
969.968	2787.13
970.269	2795.72
970.571	2817.86
970.872	2790.97
971.174	2754.36
971.475	2775.15
971.776	2760.92
972.077	2720.01
972.378	2717.53
972.679	2716.17
972.98	2666.46
973.281	2675.27
973.582	2695.61
973.883	2643.63
974.183	2664.2
974.484	2635.5
974.785	2659
975.085	2617.42
975.386	2626.23
975.686	2630.3
975.986	2582.62
976.287	2591.2
976.587	2550.98
976.887	2544.2
977.187	2544.2
977.487	2544.88
977.787	2499.68
978.087	2514.14
978.387	2492.45
978.687	2493.58
978.987	2484.77
979.286	2478.21
979.586	2449.06
979.885	2433.69
980.185	2467.14
980.484	2409.29
980.784	2420.13
981.083	2403.64
981.382	2417.65
981.682	2378.55
981.981	2357.76
982.28	2359.12
982.579	2341.27
982.878	2377.65
983.177	2354.6
983.475	2328.16
983.774	2321.38
984.073	2316.63
984.372	2278.22
984.67	2289.97
984.969	2259.91
985.267	2275.51
985.566	2269.86
985.864	2251.55
986.162	2212.68
986.461	2221.95
986.759	2195.06
987.057	2171.33
987.355	2222.85
987.653	2199.57
987.951	2185.11
988.249	2126.13
988.547	2168.39
988.844	2167.03
989.142	2162.97
989.44	2122.51
989.737	2110.31
990.035	2089.97
990.332	2093.82
990.63	2094.94
990.927	2073.48
991.224	2058.11
991.521	2055.4
991.819	2024.89
992.116	2051.78
992.413	2025.57
992.71	2018.11
993.006	2016.75
993.303	1991.9
993.6	2002.52
993.897	1965.68
994.193	1993.7
994.49	1962.75
994.787	1931.33
995.083	1935.85
995.379	1959.81
995.676	1919.36
995.972	1904.44
996.268	1902.63
996.565	1902.18
996.861	1893.14
997.157	1876.19
997.453	1867.83
997.749	1879.36
998.044	1842.97
998.34	1847.04
998.636	1853.6
998.932	1820.6
999.227	1811.56
999.523	1787.83
999.818	1790.09
1000.114	1801.39
1000.409	1769.98
1000.704	1783.99
1001	1767.72
1001.295	1736.08
1001.59	1718.91
1001.885	1724.56
1002.18	1739.02
1002.475	1741.73
1002.77	1696.99
1003.065	1701.28
1003.359	1735.18
1003.654	1676.65
1003.949	1663.32
1004.243	1666.26
1004.538	1666.26
1004.832	1655.18
1005.127	1641.17
1005.421	1640.95
1005.715	1598.01
1006.009	1592.59
1006.304	1617.44
1006.598	1588.52
1006.892	1586.71
1007.186	1565.47
1007.48	1561.4
1007.773	1563.89
1008.067	1526.37
1008.361	1553.72
1008.655	1515.75
1008.948	1531.12
1009.242	1516.43
1009.535	1525.69
1009.829	1516.66
1010.122	1508.75
1010.415	1468.97
1010.708	1474.17
1011.001	1459.03
1011.295	1468.52
1011.588	1439.37
1011.881	1472.59
1012.173	1446.15
1012.466	1408.64
1012.759	1430.56
1013.052	1413.38
1013.344	1409.31
1013.637	1388.97
1013.93	1378.58
1014.222	1368.41
1014.514	1367.05
1014.807	1358.69
1015.099	1375.19
1015.391	1364.79
1015.683	1337.22
1015.976	1333.83
1016.268	1317.11
1016.56	1313.5
1016.851	1311.91
1017.143	1328.41
1017.435	1306.72
1017.727	1292.71
1018.018	1291.35
1018.31	1257.45
1018.602	1265.36
1018.893	1234.4
1019.185	1245.25
1019.476	1246.83
1019.767	1233.27
1020.058	1228.08
1020.35	1224.01
1020.641	1206.61
1020.932	1187.62
1021.223	1216.78
1021.514	1191.01
1021.804	1172.03
1022.095	1185.82
1022.386	1173.61
1022.677	1137.46
1022.967	1166.83
1023.258	1164.12
1023.548	1155.76
1023.839	1140.39
1024.129	1123.45
1024.419	1132.71
1024.709	1096.1
1025	1090.45
1025.29	1089.32
1025.58	1086.61
1025.87	1082.09
1026.16	1064.69
1026.449	1070.79
1026.739	1068.76
1027.029	1064.92
1027.319	1066.05
1027.608	1047.74
1027.898	1019.49
1028.187	1047.51
1028.477	1017.23
1028.766	1043.9
1029.055	1003.22
1029.344	1013.84
1029.634	999.83
1029.923	994.63
1030.212	1003.22
1030.501	1000.28
1030.79	976.33
1031.078	963.68
1031.367	979.95
1031.656	967.74
1031.945	961.42
1032.233	944.47
1032.522	948.99
1032.81	948.76
1033.099	948.99
1033.387	945.37
1033.675	923.68
1033.963	896.56
1034.251	893.39
1034.54	892.26
1034.828	894.3
1035.116	885.94
1035.403	883.68
1035.691	883
1035.979	878.48
1036.267	860.18
1036.554	868.99
1036.842	847.97
1037.129	870.34
1037.417	856.33
1037.704	838.93
1037.992	845.26
1038.279	833.51
1038.566	843.68
1038.853	843.68
1039.14	843.68
