Data from hue_28_FLMS001491_00058.txt Node
Date: Tue Feb 07 17:17:28 GMT 2017
User: dcchb
Spectrometer: FLMS00149
Trigger mode: 0
Integration Time (sec): 2.000000E-2
Scans to average: 10
Electric dark correction enabled: true
Nonlinearity correction enabled: false
Boxcar width: 0
XAxis mode: Wavelengths
Number of Pixels in Spectrum: 2048
>>>>>Begin Spectral Data<<<<<
341.393	-20.97
341.776	-20.97
342.16	-20.97
342.543	-78.83
342.927	-63.46
343.31	-73.4
343.693	-74.76
344.077	-50.8
344.46	-57.58
344.843	-38.6
345.226	-56.91
345.61	-17.58
345.993	-36.11
346.376	-2.44
346.759	-2.9
347.142	27.84
347.525	41.17
347.908	63.32
348.291	83.66
348.674	92.92
349.057	102.19
349.44	136.99
349.823	130.66
350.206	174.5
350.588	191
350.971	213.14
351.354	208.4
351.737	226.93
352.119	251.56
352.502	269.19
352.884	297.21
353.267	289.07
353.65	298.34
354.032	329.53
354.414	315.06
354.797	325.46
355.179	321.39
355.562	332.69
355.944	341.73
356.326	326.36
356.709	321.84
357.091	333.14
357.473	349.64
357.855	352.35
358.238	349.86
358.62	336.98
359.002	352.12
359.384	344.44
359.766	362.29
360.148	345.8
360.53	353.25
360.912	359.35
361.294	345.34
361.676	341.5
362.057	329.07
362.439	339.47
362.821	334.95
363.203	319.81
363.584	319.81
363.966	323.88
364.348	312.58
364.729	329.3
365.111	322.97
365.493	326.59
365.874	324.1
366.256	323.65
366.637	327.94
367.019	301.73
367.4	326.36
367.781	319.36
368.163	316.64
368.544	327.94
368.925	318.68
369.306	326.81
369.688	313.03
370.069	319.81
370.45	296.31
370.831	327.49
371.212	332.69
371.593	324.55
371.974	320.94
372.355	328.62
372.736	326.14
373.117	291.79
373.498	313.03
373.879	324.78
374.26	327.27
374.641	319.13
375.021	297.21
375.402	319.58
375.783	322.97
376.163	322.52
376.544	355.97
376.925	332.69
377.305	315.06
377.686	313.25
378.066	319.81
378.447	327.27
378.827	363.42
379.208	345.57
379.588	338.56
379.968	328.62
380.349	347.15
380.729	317.55
381.109	317.77
381.489	334.04
381.87	326.36
382.25	355.51
382.63	339.92
383.01	335.4
383.39	318.9
383.77	349.19
384.15	339.47
384.53	361.84
384.91	352.58
385.29	329.98
385.67	340.37
386.049	351.22
386.429	370.65
386.809	329.3
387.189	344.21
387.568	360.03
387.948	367.26
388.328	356.42
388.707	362.07
389.087	346.7
389.466	379.92
389.846	365.91
390.225	377.89
390.605	355.74
390.984	357.77
391.363	353.71
391.743	375.4
392.122	370.2
392.501	362.74
392.881	386.25
393.26	374.72
393.639	386.25
394.018	396.87
394.397	377.66
394.776	365.91
395.155	383.31
395.534	378.79
395.913	378.79
396.292	392.57
396.671	392.57
397.05	389.18
397.429	370.2
397.808	384.44
398.186	397.77
398.565	407.04
398.944	388.73
399.323	378.56
399.701	384.67
400.08	420.37
400.458	401.39
400.837	412.46
401.215	400.71
401.594	408.85
401.972	392.57
402.351	412.69
402.729	400.94
403.107	412.01
403.486	416.53
403.864	401.84
404.242	418.11
404.62	434.83
404.999	408.62
405.377	412.91
405.755	416.75
406.133	430.09
406.511	420.6
406.889	434.83
407.267	415.4
407.645	467.37
408.023	422.18
408.401	430.54
408.779	436.64
409.156	438.9
409.534	446.13
409.912	453.82
410.29	436.42
410.667	461.95
411.045	441.61
411.422	448.62
411.8	442.06
412.178	475.28
412.555	453.36
412.933	464.66
413.31	465.34
413.687	477.77
414.065	448.62
414.442	459.69
414.819	476.64
415.197	468.5
415.574	484.1
415.951	471.44
416.328	489.75
416.705	493.59
417.082	498.33
417.46	478.45
417.837	503.98
418.214	487.04
418.591	495.4
418.967	511.44
419.344	510.09
419.721	515.96
420.098	496.53
420.475	527.03
420.852	498.11
421.228	520.48
421.605	517.77
421.982	518.22
422.358	507.15
422.735	531.55
423.111	543.76
423.488	523.19
423.864	551.67
424.241	566.36
424.617	541.27
424.994	538.56
425.37	546.02
425.746	547.6
426.123	549.86
426.499	553.47
426.875	558.67
427.251	557.32
427.627	567.49
428.003	590.31
428.379	571.1
428.756	578.56
429.132	581.27
429.507	592.8
429.883	592.12
430.259	611.1
430.635	607.03
431.011	576.75
431.387	634.15
431.763	621.49
432.138	621.95
432.514	609.52
432.89	635.73
433.265	628.5
433.641	637.54
434.016	656.07
434.392	664.21
434.767	661.72
435.143	662.62
435.518	651.78
435.894	664.21
436.269	672.79
436.644	679.35
437.02	715.96
437.395	665.11
437.77	699.46
438.145	711.66
438.52	704.88
438.895	725.9
439.271	709.4
439.646	736.07
440.021	718.89
440.395	712.57
440.77	723.19
441.145	750.76
441.52	740.81
441.895	726.58
442.27	733.36
442.645	751.44
443.019	758.89
443.394	739.46
443.769	766.58
444.143	745.79
444.518	744.43
444.892	784.43
445.267	773.81
445.641	786.69
446.016	787.37
446.39	797.31
446.764	794.37
447.139	788.72
447.513	783.98
447.887	790.76
448.262	816.29
448.636	814.71
449.01	817.2
449.384	819.91
449.758	808.61
450.132	831.66
450.506	863.3
450.88	837.53
451.254	843.41
451.628	841.6
452.002	855.16
452.376	839.12
452.75	871.66
453.123	866.46
453.497	893.8
453.871	863.3
454.244	908.95
454.618	884.76
454.992	896.52
455.365	906.91
455.739	899.91
456.112	934.48
456.486	929.96
456.859	967.02
457.232	929.74
457.606	974.71
457.979	965.44
458.352	998.66
458.725	1004.08
459.099	991.43
459.472	1011.77
459.845	1006.8
460.218	1047.47
460.591	1030.52
460.964	1049.96
461.337	1062.39
461.71	1080.92
462.083	1101.03
462.456	1106.68
462.829	1093.12
463.201	1102.39
463.574	1121.37
463.947	1120.92
464.32	1135.61
464.692	1164.53
465.065	1152.1
465.438	1190.52
465.81	1191.2
466.183	1196.4
466.555	1228.94
466.928	1246.34
467.3	1258.77
467.672	1254.02
468.045	1308.26
468.417	1300.57
468.789	1305.77
469.161	1336.96
469.534	1348.48
469.906	1367.24
470.278	1414.02
470.65	1402.72
471.022	1442.04
471.394	1447.01
471.766	1490.62
472.138	1486.56
472.51	1516.39
472.882	1551.19
473.253	1584.86
473.625	1594.12
473.997	1630.96
474.369	1625.54
474.74	1649.04
475.112	1689.72
475.484	1679.32
475.855	1721.13
476.227	1785.98
476.598	1805.19
476.97	1821.92
477.341	1838.64
477.713	1935.13
478.084	1925.64
478.455	1993.66
478.827	2025.07
479.198	2077.73
479.569	2079.76
479.94	2141
480.311	2193.88
480.682	2239.53
481.053	2296.25
481.424	2330.38
481.795	2342.81
482.166	2400.88
482.537	2446.31
482.908	2507.55
483.279	2546.19
483.65	2590.48
484.021	2672.51
484.391	2750.48
484.762	2735.79
485.133	2778.5
485.503	2874.09
485.874	2905.73
486.244	2953.64
486.615	3038.83
486.985	3069.11
487.356	3165.16
487.726	3177.81
488.097	3279.5
488.467	3300.97
488.837	3364.47
489.207	3430.46
489.578	3466.39
489.948	3529.44
490.318	3582.77
490.688	3592.72
491.058	3679.04
491.428	3779.83
491.798	3806.72
492.168	3848.3
492.538	3896.66
492.908	4022.08
493.278	4109.31
493.648	4087.17
494.017	4169.2
494.387	4178.01
494.757	4248.97
495.126	4291.91
495.496	4303.88
495.866	4366.03
496.235	4439.7
496.605	4471.79
496.974	4492.35
497.344	4550.21
497.713	4587.72
498.082	4662.74
498.452	4678.11
498.821	4717.66
499.19	4751.33
499.559	4870.2
499.928	4872.68
500.298	4920.14
500.667	4949.06
501.036	4918.78
501.405	4980.7
501.774	4992.91
502.143	5066.12
502.512	5126.46
502.88	5147.25
503.249	5165.1
503.618	5175.05
503.987	5210.98
504.356	5271.99
504.724	5346.79
505.093	5325.1
505.462	5349.51
505.83	5340.01
506.199	5404.87
506.567	5490.75
506.936	5496.85
507.304	5580.69
507.672	5558.54
508.041	5606.9
508.409	5635.6
508.777	5702.94
509.145	5707.69
509.514	5743.85
509.882	5782.72
510.25	5799.44
510.618	5853.9
510.986	5818.19
511.354	5895.25
511.722	5938.87
512.09	5937.29
512.458	5947
512.826	5969.83
513.193	6049.6
513.561	6028.36
513.929	6031.75
514.297	6106.55
514.664	6137.28
515.032	6163.72
515.4	6222.03
515.767	6193.1
516.135	6229.94
516.502	6257.05
516.869	6329.37
517.237	6333.66
517.604	6329.82
517.972	6342.47
518.339	6358.52
518.706	6398.97
519.073	6437.39
519.44	6431.29
519.808	6488.69
520.175	6514.22
520.542	6517.84
520.909	6577.95
521.276	6545.41
521.643	6617.95
522.009	6689.81
522.376	6707.89
522.743	6734.1
523.11	6742.69
523.477	6837.83
523.843	6872.63
524.21	6918.73
524.577	6958.5
524.943	6950.82
525.31	6991.95
525.676	6960.54
526.043	7095.68
526.409	7066.3
526.776	7211.83
527.142	7168.89
527.508	7153.07
527.874	7270.36
528.241	7322.56
528.607	7282.11
528.973	7280.75
529.339	7341.09
529.705	7365.72
530.071	7504.48
530.437	7509
530.803	7620.86
531.169	7658.82
531.535	7525.27
531.901	7582.22
532.267	7677.58
532.632	7749.67
532.998	7692.72
533.364	7840.06
533.73	7767.52
534.095	7820.85
534.461	7854.75
534.826	7921.87
535.192	7883.9
535.557	8038.48
535.923	7985.82
536.288	7986.5
536.653	8066.27
537.019	8080.51
537.384	8112.6
537.749	8186.27
538.114	8202.09
538.479	8228.98
538.845	8251.12
539.21	8252.03
539.575	8278.02
539.94	8371.8
540.305	8423.32
540.67	8330.67
541.034	8427.39
541.399	8482.08
541.764	8422.42
542.129	8594.17
542.494	8589.2
542.858	8669.64
543.223	8617.67
543.587	8706.71
543.952	8674.16
544.316	8756.2
544.681	8724.78
545.045	8811.11
545.41	8838
545.774	8906.47
546.138	8956.87
546.503	8965.23
546.867	9002.74
547.231	9010.43
547.595	9023.99
547.959	9093.81
548.324	9142.63
548.688	9141.95
549.052	9116.86
549.416	9196.41
549.779	9256.52
550.143	9247.03
550.507	9317.54
550.871	9292.68
551.235	9341.94
551.599	9479.79
551.962	9417.87
552.326	9428.04
552.689	9488.38
553.053	9445.44
553.417	9524.99
553.78	9626.68
554.143	9645.89
554.507	9673.46
554.87	9660.58
555.234	9762.5
555.597	9717.53
555.96	9795.94
556.323	9771.08
556.686	9815.6
557.05	9931.31
557.413	9809.73
557.776	9879.56
558.139	9968.82
558.502	9990.51
558.865	9960.23
559.228	10127.01
559.59	10113.9
559.953	10119.78
560.316	10133.56
560.679	10179.89
561.041	10249.04
561.404	10241.58
561.767	10322.26
562.129	10318.42
562.492	10374.01
562.854	10367.45
563.217	10475.93
563.579	10401.58
563.941	10511.4
564.304	10516.6
564.666	10527.45
565.028	10679.99
565.39	10655.13
565.753	10678.18
566.115	10639.99
566.477	10772.41
566.839	10794.79
567.201	10855.12
567.563	10907.1
567.925	10903.03
568.287	11005.4
568.648	10988.91
569.01	11010.6
569.372	11090.6
569.734	11032.75
570.095	11138.28
570.457	11216.24
570.819	11261.89
571.18	11214.21
571.542	11398.39
571.903	11395.45
572.265	11463.02
572.626	11472.74
572.987	11561.09
573.349	11677.02
573.71	11763.35
574.071	11736.68
574.432	11865.95
574.794	11983.23
575.155	12066.84
575.516	12018.03
575.877	12132.6
576.238	12186.84
576.599	12263.9
576.96	12387.74
577.32	12462.99
577.681	12590.22
578.042	12731.01
578.403	12767.84
578.763	12843.32
579.124	13067.5
579.485	13207.15
579.845	13280.15
580.206	13420.71
580.566	13590.65
580.927	13690.08
581.287	13849.17
581.648	14018.88
582.008	14243.28
582.368	14339.78
582.728	14562.82
583.089	14721.46
583.449	14906.77
583.809	15104.28
584.169	15246.65
584.529	15526.64
584.889	15822.9
585.249	15917.59
585.609	16214.53
585.969	16462.43
586.329	16698.36
586.688	16996.43
587.048	17159.37
587.408	17442.07
587.768	17716.64
588.127	17970.19
588.487	18168.6
588.846	18716.16
589.206	18752.32
589.565	19084.29
589.925	19525.63
590.284	19708
590.643	19957.48
591.003	20371.26
591.362	20733.06
591.721	21027.96
592.08	21426.6
592.44	21606.71
592.799	22055.73
593.158	22250.3
593.517	22652.33
593.876	22990.4
594.235	23333.21
594.593	23675.58
594.952	24013.65
595.311	24302.23
595.67	24754.65
596.029	25100.17
596.387	25505.81
596.746	25806.82
597.104	26046.82
597.463	26322.29
597.822	26754.82
598.18	27037.98
598.538	27396.16
598.897	27820.55
599.255	27878.86
599.613	28591.38
599.972	28823.47
600.33	29144.36
600.688	29399.72
601.046	29708.64
601.404	30177.78
601.762	30441.95
602.12	30946.8
602.478	31078.32
602.836	31428.59
603.194	31481.02
603.552	32024.96
603.91	32106.99
604.268	32676.02
604.625	32755.57
604.983	33186.51
605.341	33224.48
605.698	33722.09
606.056	34068.07
606.413	34246.6
606.771	34535.41
607.128	34806.81
607.485	34968.61
607.843	35233.69
608.2	35647.24
608.557	36063.27
608.914	36073.22
609.272	36575.35
609.629	36717.5
609.986	37066.64
610.343	37180.08
610.7	37595.66
611.057	37638.15
611.414	37836.34
611.771	38088.31
612.127	38574.62
612.484	38629.54
612.841	38916.08
613.198	38945.01
613.554	39045.34
613.911	39531.66
614.267	39513.58
614.624	39690.75
614.98	39937.52
615.337	40361.92
615.693	40471.52
616.05	40530.05
616.406	40830.83
616.762	40878.06
617.118	40955.35
617.475	41135.68
617.831	41525.96
618.187	41579.74
618.543	41737.48
618.899	41960.52
619.255	42105.38
619.611	42247.29
619.967	42446.16
620.323	42631.01
620.678	42499.26
621.034	42575.19
621.39	42777.45
621.746	42847.05
622.101	43266.48
622.457	43021.96
622.812	43334.72
623.168	43326.59
623.523	43550.08
623.879	43616.75
624.234	43550.54
624.589	43790.98
624.945	43836.86
625.3	44009.28
625.655	43995.27
626.01	44044.08
626.365	44137.64
626.72	44122.72
627.075	44267.13
627.43	44266.68
627.785	44224.42
628.14	44541.92
628.495	44463.05
628.85	44351.42
629.205	44354.36
629.559	44744.63
629.914	44510.51
630.269	44682.03
630.623	44596.16
630.978	44568.59
631.332	44865.3
631.687	45095.13
632.041	44831.41
632.396	45004.28
632.75	44874.12
633.104	44942.36
633.459	44856.04
633.813	44671.86
634.167	44994.79
634.521	44927
634.875	44940.33
635.229	44939.43
635.583	44891.29
635.937	44876.38
636.291	44812.42
636.645	44921.57
636.999	44966.77
637.352	44992.08
637.706	44698.75
638.06	45011.97
638.413	44905.53
638.767	44791.18
639.121	44910.5
639.474	44738.53
639.828	44790.73
640.181	44842.71
640.534	44837.51
640.888	44750.5
641.241	44659.89
641.594	44683.16
641.947	44923.38
642.301	44763.84
642.654	44904.4
643.007	44842.71
643.36	44773.78
643.713	44693.56
644.066	44996.15
644.419	44658.53
644.771	44435.26
645.124	44151.2
645.477	44056.96
645.83	43625.79
646.182	43610.2
646.535	43422.18
646.888	43576.75
647.24	43433.48
647.593	43673.7
647.945	43499.24
648.298	43361.84
648.65	43312.12
649.002	43205.69
649.355	43453.82
649.707	43319.58
650.059	43498.33
650.411	43983.07
650.763	43991.65
651.115	44501.25
651.467	44381.7
651.819	44452.66
652.171	44224.19
652.523	44247.47
652.875	44264.64
653.227	43968.83
653.578	44459.21
653.93	44208.82
654.282	44103.29
654.633	44063.52
654.985	44101.26
655.337	44062.16
655.688	44152.55
656.039	44230.74
656.391	43902.84
656.742	44000.69
657.094	43994.82
657.445	44172.44
657.796	44187.36
658.147	43976.51
658.498	43949.85
658.849	44124.76
659.2	43872.11
659.551	43920.47
659.902	44007.7
660.253	43928.6
660.604	44011.77
660.955	43750.08
661.306	43851.09
661.656	43796.4
662.007	43885.44
662.358	43962.73
662.708	43869.4
663.059	43815.16
663.409	43605.45
663.76	44044.53
664.11	43951.88
664.461	43932.67
664.811	43874.37
665.161	43952.78
665.511	43794.82
665.862	43702.85
666.212	43904.88
666.562	43903.07
666.912	43750.98
667.262	43882.05
667.612	43856.74
667.962	43785.78
668.312	43738.78
668.662	44028.49
669.011	43769.29
669.361	43874.59
669.711	43672.57
670.06	43668.27
670.41	43672.57
670.76	43573.59
671.109	43765.67
671.459	43686.13
671.808	43640.48
672.157	43666.01
672.507	43559.12
672.856	43419.24
673.205	43577.88
673.554	43707.82
673.904	43416.08
674.253	43719.12
674.602	43509.86
674.951	42965.24
675.3	42790.78
675.649	43427.83
675.998	43408.39
676.346	43435.06
676.695	43478.67
677.044	43221.5
677.393	43319.58
677.741	43357.55
678.09	43237.55
678.438	43144.44
678.787	43189.87
679.135	43242.07
679.484	42977.22
679.832	43116.2
680.181	42853.38
680.529	42937.22
680.877	42821.29
681.225	42894.06
681.573	43071.23
681.922	42756.88
682.27	42640.96
682.618	42730.22
682.966	42710.11
683.314	42760.05
683.661	42485.25
684.009	42499.26
684.357	42328.87
684.705	42307.18
685.053	42355.09
685.4	42246.39
685.748	42060.41
686.095	42075.32
686.443	41842.33
686.79	41890.24
687.138	42096.79
687.485	41937.7
687.832	41719.85
688.18	41883.69
688.527	41623.81
688.874	41707.19
689.221	41474.66
689.568	41461.55
689.915	41357.82
690.262	41329.58
690.609	41203.93
690.956	40995.12
691.303	41071.73
691.65	40915.58
691.997	40972.75
692.344	40663.15
692.69	40711.51
693.037	40593.33
693.383	40410.05
693.73	40557.85
694.077	40451.18
694.423	40311.75
694.769	40088.48
695.116	40052.55
695.462	40047.12
695.808	39834.02
696.155	39939.78
696.501	39563.97
696.847	39673.35
697.193	39318.1
697.539	39491.66
697.885	39308.61
698.231	39323.98
698.577	39163.76
698.923	39105
699.269	38962.86
699.614	38750.21
699.96	38576.88
700.306	38704.11
700.651	38484.91
700.997	38404.23
701.342	38369.43
701.688	38303.67
702.033	38288.75
702.379	38240.84
702.724	38072.04
703.069	38069.1
703.415	37841.53
703.76	37814.19
704.105	37830.69
704.45	37718.82
704.795	37473.41
705.14	37484.48
705.485	37366.07
705.83	37327.65
706.175	37335.56
706.52	37232.96
706.865	37105.73
707.209	36949.35
707.554	36902.57
707.899	36906.19
708.243	36579.19
708.588	36619.87
708.932	36510.27
709.277	36489.25
709.621	36520.66
709.966	36081.35
710.31	36234.57
710.654	35878.2
710.998	36064.63
711.342	36075.48
711.687	35976.5
712.031	35882.04
712.375	35662.61
712.719	35677.07
713.063	35734.24
713.407	35773.11
713.75	35497.87
714.094	35576.96
714.438	35319.11
714.782	35499.22
715.125	35239.57
715.469	35253.8
715.812	35011.33
716.156	34929.75
716.499	34964.77
716.843	34875.74
717.186	34798.22
717.53	34943.08
717.873	34924.32
718.216	34606.14
718.559	34675.97
718.902	34388.52
719.246	34424.9
719.589	34503.32
719.932	34337.22
720.275	34299.71
720.617	34196.43
720.96	34137.45
721.303	34176.77
721.646	34139.03
721.989	33874.41
722.331	33957.34
722.674	33894.29
723.016	33997.79
723.359	33916.44
723.701	33901.07
724.044	33698.14
724.386	33671.25
724.729	33664.92
725.071	33590.35
725.413	33564.36
725.755	33438.03
726.097	33469.67
726.439	33333.86
726.782	33171.37
727.124	33346.74
727.465	33230.36
727.807	33112.62
728.149	33008.21
728.491	32962.57
728.833	33100.41
729.175	32885.73
729.516	32859.07
729.858	32796.47
730.199	32889.12
730.541	32726.19
730.882	32744.04
731.224	32844.15
731.565	32577.04
731.906	32573.65
732.248	32546.53
732.589	32322.81
732.93	32261.34
733.271	32277.39
733.612	32307.22
733.953	32362.81
734.294	32395.35
734.635	32257.5
734.976	32298.18
735.317	31909.94
735.658	32120.1
735.999	32145.19
736.339	32020.67
736.68	31998.98
737.021	31936.15
737.361	31857.28
737.702	31866.78
738.042	31779.32
738.383	31721.02
738.723	31756.95
739.063	31612.09
739.404	31642.37
739.744	31593.34
740.084	31375.04
740.424	31621.58
740.764	31423.85
741.104	31566.67
741.444	31322.16
741.784	31274.93
742.124	31387.92
742.464	31243.29
742.804	31214.81
743.143	30963.97
743.483	31172.56
743.823	31009.62
744.162	30922.85
744.502	30895.5
744.841	30816.41
745.181	30998.1
745.52	30946.35
745.86	30830.42
746.199	30776.86
746.538	30668.84
746.877	30829.74
747.216	30820.7
747.556	30579.13
747.895	30594.27
748.234	30477.66
748.573	30498.9
748.911	30480.14
749.25	30296.19
749.589	30182.3
749.928	30270.88
750.267	30239.47
750.605	30261.62
750.944	30218.91
751.283	30126.93
751.621	30071.34
751.96	29984.11
752.298	29973.49
752.636	29978.92
752.975	29738.02
753.313	29683.1
753.651	29821.63
753.989	29659.15
754.327	29652.6
754.666	29450.79
755.004	29574.86
755.342	29495.54
755.679	29481.53
756.017	29284.24
756.355	29487.18
756.693	29373.28
757.031	29189.78
757.368	29065.27
757.706	28977.36
758.044	29005.38
758.381	29016.45
758.719	28904.37
759.056	28779.62
759.394	28810.58
759.731	28615.79
760.068	28590.48
760.405	28591.38
760.743	28419.18
761.08	28469.58
761.417	28296.7
761.754	28218.96
762.091	28251.5
762.428	28086.99
762.765	27903.04
763.102	28107.55
763.438	27833.21
763.775	27740.33
764.112	27718.64
764.449	27776.26
764.785	27505.76
765.122	27402.03
765.458	27412.88
765.795	27321.58
766.131	27202.04
766.467	27152.32
766.804	27127.46
767.14	26905.1
767.476	26861.26
767.812	26768.83
768.148	26737.19
768.485	26712.56
768.821	26437.99
769.157	26511.21
769.492	26315.73
769.828	26352.12
770.164	26133.82
770.5	26015.63
770.836	26174.27
771.171	25883.88
771.507	25836.2
771.842	25682.3
772.178	25713.04
772.513	25617
772.849	25489.77
773.184	25438.92
773.519	25461.97
773.855	25316.89
774.19	25140.17
774.525	25078.48
774.86	25032.83
775.195	25050.23
775.53	24870.35
775.865	24709.22
776.2	24610.69
776.535	24373.41
776.87	24447.08
777.205	24309.23
777.539	24102.23
777.874	24291.61
778.209	24052.74
778.543	24035.34
778.878	23852.75
779.212	23875.12
779.547	23717.16
779.881	23812.07
780.215	23584.28
780.55	23674.9
780.884	23553.55
781.218	23421.8
781.552	23415.7
781.886	23223.84
782.22	23121.69
782.554	23006.67
782.888	22772.32
783.222	22838.09
783.556	22685.1
783.889	22704.08
784.223	22537.08
784.557	22449.4
784.89	22472.9
785.224	22299.8
785.557	22252.56
785.891	22149.29
786.224	22081.04
786.558	22179.12
786.891	21907.94
787.224	21759.24
787.557	21669.53
787.891	21669.08
788.224	21687.38
788.557	21623.88
788.89	21664.56
789.223	21573.26
789.556	21308.63
789.888	21294.17
790.221	21206.94
790.554	21060.73
790.887	21064.8
791.219	20933.05
791.552	20884.69
791.884	20856.9
792.217	20684.7
792.549	20613.96
792.882	20503.01
793.214	20426.85
793.546	20554.3
793.879	20383.24
794.211	20324.25
794.543	20318.83
794.875	20246.29
795.207	20282.45
795.539	20161.09
795.871	20132.17
796.203	19948.22
796.535	19872.97
796.867	19835.9
797.198	19816.47
797.53	19769.47
797.862	19674.1
798.193	19689.92
798.525	19524.73
798.856	19457.16
799.188	19354.34
799.519	19276.82
799.85	19228.24
800.182	19219.65
800.513	19237.95
800.844	19046.55
801.175	19142.36
801.506	19099.88
801.837	18957.51
802.168	18886.55
802.499	18886.78
802.83	18781.7
803.161	18699.21
803.491	18743.05
803.822	18654.47
804.153	18585.77
804.483	18432.55
804.814	18399.78
805.145	18362.27
805.475	18297.64
805.805	18255.38
806.136	18178.77
806.466	18156.85
806.796	18088.61
807.126	17935.39
807.457	17951.89
807.787	17992.56
808.117	17917.09
808.447	17858.78
808.777	17835.05
809.107	17787.37
809.436	17678.9
809.766	17665.57
810.096	17679.35
810.426	17583.76
810.755	17621.05
811.085	17527.27
811.414	17484.1
811.744	17306.03
812.073	17227.61
812.403	17356.87
812.732	17188.74
813.061	17239.36
813.39	17133.38
813.719	17118.69
814.049	17148.29
814.378	17098.35
814.707	16994.85
815.036	16969.99
815.365	16853.38
815.693	16671.02
816.022	16721.41
816.351	16714.86
816.68	16598.25
817.008	16599.61
817.337	16531.81
817.665	16405.49
817.994	16527.07
818.322	16457.91
818.651	16337.69
818.979	16344.25
819.307	16376.33
819.636	16294.76
819.964	16291.59
820.292	16253.85
820.62	16285.72
820.948	16179.28
821.276	16309.22
821.604	16071.48
821.932	16261.99
822.259	16179.5
822.587	16163.46
822.915	16115.32
823.243	16191.03
823.57	16074.2
823.898	16157.58
824.225	16109.45
824.553	16082.56
824.88	16116.68
825.207	16126.17
825.535	16032.62
825.862	16162.56
826.189	16145.61
826.516	16138.83
826.843	16074.87
827.17	15995.55
827.497	16177.02
827.824	16075.78
828.151	16151.03
828.478	16033.97
828.805	16191.48
829.131	16062.22
829.458	16023.8
829.785	15995.55
830.111	16052.95
830.438	16059.28
830.764	16091.82
831.09	16052.5
831.417	16002.33
831.743	16058.83
832.069	16055.67
832.395	16031.94
832.722	16026.74
833.048	15954.88
833.374	15980.41
833.7	15911.26
834.026	15927.99
834.351	15895.9
834.677	15906.52
835.003	15943.8
835.329	15985.38
835.654	15810.25
835.98	15805.05
836.306	15790.81
836.631	15736.13
836.956	15841.89
837.282	15834.65
837.607	15649.35
837.932	15633.3
838.258	15600.76
838.583	15563.7
838.908	15480.99
839.233	15513.98
839.558	15483.48
839.883	15485.06
840.208	15390.15
840.533	15402.8
840.858	15445.51
841.182	15465.85
841.507	15477.83
841.832	15302.24
842.156	15298.85
842.481	15304.27
842.805	15247.33
843.13	15219.76
843.454	15210.04
843.778	15079.19
844.103	15010.72
844.427	15089.14
844.751	15073.32
845.075	14987.67
845.399	14973.66
845.723	14859.76
846.047	14901.57
846.371	14777.73
846.695	14770.28
847.019	14645.31
847.343	14582.03
847.666	14438.98
847.99	14515.82
848.313	14453.45
848.637	14403.05
848.96	14309.04
849.284	14288.48
849.607	14247.58
849.931	14237.41
850.254	13975.49
850.577	13961.71
850.9	13889.17
851.223	13870.41
851.546	13799.45
851.869	13775.73
852.192	13796.97
852.515	13651.21
852.838	13553.13
853.161	13615.5
853.483	13589.29
853.806	13438.56
854.129	13489.63
854.451	13369.86
854.774	13302.07
855.096	13272.46
855.419	13260.71
855.741	13200.15
856.063	13181.62
856.385	13065.24
856.708	13072.92
857.03	13040.6
857.352	13124.67
857.674	13019.36
857.996	12938.91
858.318	12845.81
858.64	12892.58
858.961	12800.84
859.283	12767.16
859.605	12754.28
859.926	12741.4
860.248	12688.52
860.57	12662.08
860.891	12644.68
861.212	12548.86
861.534	12561.52
861.855	12518.36
862.176	12481.97
862.498	12534.4
862.819	12550.22
863.14	12447.85
863.461	12458.92
863.782	12401.52
864.103	12335.76
864.424	12374.86
864.745	12365.82
865.065	12222.32
865.386	12234.52
865.707	12115.88
866.027	12184.58
866.348	12192.94
866.668	12070.46
866.989	12120.85
867.309	12084.47
867.63	12166.73
867.95	12084.47
868.27	12008.54
868.59	11977.58
868.91	12002.89
869.23	11976
869.55	11947.52
869.87	12010.57
870.19	11917.02
870.51	11960.63
870.83	11967.41
871.15	11781.65
871.469	11834.99
871.789	11867.07
872.109	11861.2
872.428	11718.6
872.748	11811.48
873.067	11809
873.386	11774.42
873.706	11719.96
874.025	11703.92
874.344	11615.78
874.663	11656.46
874.982	11635.89
875.301	11535.78
875.62	11627.31
875.939	11594.77
876.258	11509.12
876.577	11475.45
876.896	11493.75
877.214	11383.7
877.533	11487.42
877.852	11421.66
878.17	11489.01
878.489	11471.15
878.807	11443.58
879.125	11374.43
879.444	11371.04
879.762	11342.34
880.08	11299.18
880.398	11291.04
880.716	11279.75
881.034	11258.05
881.352	11241.1
881.67	11196.58
881.988	11184.83
882.306	11210.82
882.624	11156.36
882.941	11101.45
883.259	11094.21
883.577	11078.4
883.894	11064.61
884.212	11030.26
884.529	10960.66
884.846	10969.25
885.164	10991.17
885.481	10832.07
885.798	10950.71
886.115	10839.98
886.432	10816.03
886.75	10747.1
887.067	10834.11
887.383	10679.76
887.7	10719.76
888.017	10693.32
888.334	10622.14
888.651	10649.93
888.967	10650.38
889.284	10645.41
889.6	10521.12
889.917	10540.78
890.233	10447.9
890.55	10398.86
890.866	10444.06
891.182	10433.67
891.498	10329.71
891.815	10372.43
892.131	10247.91
892.447	10254.24
892.763	10226.89
893.079	10153.9
893.395	10157.97
893.71	10181.47
894.026	10127.91
894.342	10070.74
894.657	10061.7
894.973	10043.17
895.289	9975.83
895.604	10016.95
895.92	9906.9
896.235	9851.08
896.55	9971.98
896.865	9787.36
897.181	9792.1
897.496	9846.56
897.811	9771.31
898.126	9735.83
898.441	9712.1
898.756	9698.32
899.071	9601.37
899.386	9597.76
899.7	9539
900.015	9514.14
900.33	9375.39
900.644	9506.69
900.959	9467.36
901.273	9412.45
901.588	9350.53
901.902	9335.39
902.216	9303.53
902.531	9221.72
902.845	9221.95
903.159	9142.17
903.473	9133.36
903.787	9138.79
904.101	9044.78
904.415	9049.75
904.729	9060.14
905.042	8939.47
905.356	8995.51
905.67	8936.76
905.984	8839.13
906.297	8842.97
906.611	8773.15
906.924	8767.5
907.237	8757.1
907.551	8720.72
907.864	8680.49
908.177	8617.44
908.491	8611.79
908.804	8502.64
909.117	8512.13
909.43	8442.98
909.743	8471.46
910.056	8428.52
910.368	8402.08
910.681	8358.01
910.994	8350.56
911.307	8306.94
911.619	8257.68
911.932	8278.92
912.244	8206.15
912.557	8190.79
912.869	8138.36
913.181	8026.05
913.494	8031.24
913.806	8019.72
914.118	8045.71
914.43	7960.74
914.742	7942.88
915.054	7907.86
915.366	7828.76
915.678	7779.72
915.99	7853.17
916.302	7684.36
916.613	7701.76
916.925	7679.61
917.236	7673.06
917.548	7633.51
917.859	7638.71
918.171	7592.16
918.482	7535.89
918.794	7521.65
919.105	7433.75
919.416	7393.52
919.727	7417.02
920.038	7407.76
920.349	7313.07
920.66	7346.74
920.971	7342.22
921.282	7248.89
921.593	7221.32
921.903	7208.21
922.214	7185.16
922.525	7123.7
922.835	7111.04
923.146	7080.53
923.456	7065.62
923.767	7017.94
924.077	6984.94
924.387	6898.17
924.697	6890.26
925.008	6867.88
925.318	6849.81
925.628	6858.85
925.938	6837.38
926.248	6747.66
926.558	6757.38
926.867	6754.67
927.177	6629.7
927.487	6655.23
927.796	6595.8
928.106	6583.15
928.416	6549.47
928.725	6559.87
929.034	6443.49
929.344	6474.22
929.653	6419.99
929.962	6404.39
930.271	6384.51
930.581	6358.07
930.89	6335.69
931.199	6298.18
931.508	6291.4
931.817	6295.24
932.125	6297.05
932.434	6250.73
932.743	6182.48
933.051	6115.36
933.36	6131.41
933.669	6039.43
933.977	6051.63
934.286	6077.4
934.594	6073.55
934.902	6043.05
935.21	5992.88
935.519	5909.49
935.827	5909.72
936.135	5903.62
936.443	5832.21
936.751	5828.14
937.059	5829.49
937.367	5751.08
937.674	5792.66
937.982	5797.18
938.29	5718.31
938.597	5704.75
938.905	5643.28
939.213	5677.41
939.52	5594.92
939.827	5643.51
940.135	5563.51
940.442	5586.79
940.749	5546.34
941.056	5571.42
941.363	5449.84
941.67	5465.44
941.977	5450.52
942.284	5384.08
942.591	5360.13
942.898	5354.48
943.205	5374.59
943.511	5344.08
943.818	5327.13
944.125	5236.51
944.431	5251.88
944.738	5252.79
945.044	5217.08
945.35	5169.17
945.657	5139.34
945.963	5093.69
946.269	5076.29
946.575	5107.7
946.881	5025.67
947.187	5036.97
947.493	5010.31
947.799	5018.22
948.105	4972.79
948.41	4946.58
948.716	4977.09
949.022	4905.22
949.327	4878.33
949.633	4858.67
949.938	4895.05
950.244	4825.68
950.549	4802.18
950.854	4738.9
951.16	4747.26
951.465	4735.29
951.77	4705.68
952.075	4718.79
952.38	4712.91
952.685	4682.18
952.99	4649.41
953.294	4644.21
953.599	4576.19
953.904	4572.8
954.209	4552.69
954.513	4527.38
954.818	4547.49
955.122	4524.9
955.426	4509.53
955.731	4473.6
956.035	4472.02
956.339	4432.24
956.643	4399.02
956.948	4389.53
957.252	4340.04
957.556	4360.61
957.86	4399.47
958.163	4340.49
958.467	4310.89
958.771	4267.27
959.075	4260.27
959.378	4236.99
959.682	4200.61
959.985	4176.88
960.289	4198.8
960.592	4140.95
960.896	4143.21
961.199	4116.32
961.502	4118.58
961.805	4074.06
962.108	4065.92
962.411	4026.6
962.714	4000.16
963.017	4021.41
963.32	4016.89
963.623	4028.41
963.926	3968.98
964.228	3945.02
964.531	3966.27
964.833	3900.73
965.136	3882.65
965.438	3877.45
965.741	3831.81
966.043	3839.49
966.345	3820.05
966.648	3802.43
966.95	3758.14
967.252	3791.81
967.554	3768.98
967.856	3730.11
968.158	3698.48
968.46	3698.7
968.761	3681.75
969.063	3695.76
969.365	3662.32
969.666	3655.54
969.968	3607.63
970.269	3606.73
970.571	3618.25
970.872	3583.9
971.174	3531.25
971.475	3526.96
971.776	3528.76
972.077	3514.53
972.378	3525.83
972.679	3491.48
972.98	3492.15
973.281	3422.1
973.582	3421.2
973.883	3420.07
974.183	3401.31
974.484	3400.86
974.785	3376.68
975.085	3375.77
975.386	3375.55
975.686	3334.42
975.986	3329.67
976.287	3304.59
976.587	3293.29
976.887	3264.82
977.187	3261.88
977.487	3260.07
977.787	3316.34
978.087	3237.25
978.387	3239.05
978.687	3204.7
978.987	3200.86
979.286	3142.11
979.586	3178.26
979.885	3148.43
980.185	3063.46
980.484	3093.29
980.784	3064.59
981.083	3084.93
981.382	3033.41
981.682	3059.4
981.981	3020.3
982.28	3021.43
982.579	3002.22
982.878	3009.91
983.177	2998.61
983.475	2992.96
983.774	2959.06
984.073	2964.03
984.372	2937.59
984.67	2917.93
984.969	2950.93
985.267	2935.33
985.566	2884.49
985.864	2868.22
986.162	2850.59
986.461	2819.63
986.759	2839.97
987.057	2828.67
987.355	2805.39
987.653	2812.62
987.951	2753.42
988.249	2758.39
988.547	2779.4
988.844	2726.75
989.142	2703.7
989.44	2726.52
989.737	2705.96
990.035	2708.22
990.332	2653.53
990.63	2656.24
990.927	2660.76
991.224	2638.84
991.521	2637.49
991.819	2623.48
992.116	2599.97
992.413	2560.65
992.71	2587.54
993.006	2563.59
993.303	2555
993.6	2550.03
993.897	2540.99
994.193	2555.46
994.49	2514.33
994.787	2505.06
995.083	2492.18
995.379	2486.53
995.676	2461.22
995.972	2442.24
996.268	2453.09
996.565	2406.08
996.861	2454.22
997.157	2399.75
997.453	2402.47
997.749	2413.09
998.044	2361.11
998.34	2363.82
998.636	2325.63
998.932	2368.57
999.227	2310.04
999.523	2306.87
999.818	2268.01
1000.114	2273.65
1000.409	2295.8
1000.704	2248.34
1001	2270.49
1001.295	2236.82
1001.59	2204.05
1001.885	2216.03
1002.18	2183.26
1002.475	2147.33
1002.77	2161.57
1003.065	2125.86
1003.359	2151.85
1003.654	2135.81
1003.949	2092.42
1004.243	2097.39
1004.538	2095.81
1004.832	2067.78
1005.127	2070.5
1005.421	2035.7
1005.715	2039.54
1006.009	2005.41
1006.304	2039.76
1006.598	2030.72
1006.892	2043.38
1007.186	1968.8
1007.48	1990.72
1007.773	1974.23
1008.067	1950.95
1008.361	1956.15
1008.655	1964.74
1008.948	1919.99
1009.242	1908.24
1009.535	1934.68
1009.829	1915.7
1010.122	1891.29
1010.415	1876.38
1010.708	1863.5
1011.001	1858.98
1011.295	1854
1011.588	1849.49
1011.881	1804.06
1012.173	1848.58
1012.466	1792.76
1012.759	1800.9
1013.052	1795.25
1013.344	1755.7
1013.637	1753.89
1013.93	1745.99
1014.222	1751.63
1014.514	1716.61
1014.807	1749.6
1015.099	1706.44
1015.391	1677.29
1015.683	1694.69
1015.976	1679.09
1016.268	1680
1016.56	1657.4
1016.851	1651.3
1017.143	1654.24
1017.435	1632.54
1017.727	1616.27
1018.018	1566.33
1018.31	1567.46
1018.602	1578.53
1018.893	1565.2
1019.185	1575.82
1019.476	1569.04
1019.767	1560.45
1020.058	1547.35
1020.35	1538.31
1020.641	1511.19
1020.932	1489.72
1021.223	1487.69
1021.514	1479.55
1021.804	1447.91
1022.095	1453.11
1022.386	1477.97
1022.677	1450.17
1022.967	1440.46
1023.258	1419.21
1023.548	1424.86
1023.839	1422.15
1024.129	1407.91
1024.419	1379.89
1024.709	1363.85
1025	1357.75
1025.29	1378.54
1025.58	1334.7
1025.87	1340.8
1026.16	1325.66
1026.449	1327.24
1026.739	1324.98
1027.029	1318.65
1027.319	1286.79
1027.608	1299.67
1027.898	1283.85
1028.187	1278.2
1028.477	1257.86
1028.766	1253.79
1029.055	1232.78
1029.344	1239.11
1029.634	1220.12
1029.923	1235.04
1030.212	1210.86
1030.501	1208.37
1030.79	1188.71
1031.078	1195.27
1031.367	1185.32
1031.656	1177.19
1031.945	1171.09
1032.233	1163.4
1032.522	1149.62
1032.81	1134.93
1033.099	1145.55
1033.387	1143.52
1033.675	1155.72
1033.963	1125.21
1034.251	1117.53
1034.54	1112.1
1034.828	1080.24
1035.116	1082.95
1035.403	1079.79
1035.691	1049.51
1035.979	1077.53
1036.267	1061.48
1036.554	1057.19
1036.842	1039.34
1037.129	1042.73
1037.417	1034.59
1037.704	1035.27
1037.992	1037.3
1038.279	1007.93
1038.566	1003.86
1038.853	1003.86
1039.14	1003.86
