Data from hue_260_FLMS001491_00041.txt Node
Date: Tue Feb 07 15:59:02 GMT 2017
User: dcchb
Spectrometer: FLMS00149
Trigger mode: 0
Integration Time (sec): 2.000000E-2
Scans to average: 10
Electric dark correction enabled: true
Nonlinearity correction enabled: false
Boxcar width: 0
XAxis mode: Wavelengths
Number of Pixels in Spectrum: 2048
>>>>>Begin Spectral Data<<<<<
341.393	-19.14
341.776	-19.14
342.16	-19.14
342.543	-48.52
342.927	-50.55
343.31	-54.62
343.693	-70.89
344.077	-57.55
344.46	-42.64
344.843	-60.27
345.226	-49.65
345.61	-45.58
345.993	-28.86
346.376	3.46
346.759	11.14
347.142	30.35
347.525	32.61
347.908	60.18
348.291	76
348.674	92.5
349.057	103.8
349.44	107.41
349.823	141.54
350.206	158.94
350.588	187.41
350.971	210.69
351.354	222.66
351.737	252.27
352.119	228.09
352.502	240.74
352.884	271.02
353.267	279.61
353.65	288.2
354.032	291.81
354.414	323.45
354.797	314.86
355.179	309.89
355.562	315.09
355.944	318.93
356.326	324.36
356.709	321.42
357.091	318.48
357.473	322.1
357.855	344.69
358.238	328.42
358.62	346.73
359.002	333.62
359.384	324.13
359.766	331.81
360.148	346.5
360.53	355.54
360.912	314.19
361.294	348.76
361.676	323.23
362.057	359.38
362.439	329.55
362.821	340.4
363.203	311.47
363.584	334.53
363.966	321.64
364.348	311.47
364.729	314.19
365.111	325.49
365.493	291.59
365.874	316.45
366.256	307.63
366.637	302.89
367.019	303.57
367.4	308.09
367.781	317.58
368.163	313.28
368.544	328.42
368.925	308.09
369.306	343.56
369.688	300.63
370.069	313.06
370.45	321.42
370.831	292.72
371.212	320.51
371.593	314.64
371.974	307.41
372.355	310.34
372.736	318.71
373.117	312.38
373.498	333.4
373.879	311.47
374.26	303.79
374.641	307.63
375.021	319.61
375.402	308.99
375.783	315.09
376.163	313.96
376.544	311.7
376.925	327.75
377.305	336.33
377.686	314.64
378.066	320.74
378.447	319.61
378.827	307.41
379.208	316.22
379.588	336.56
379.968	345.82
380.349	337.91
380.729	304.47
381.109	322.32
381.489	337.69
381.87	342.21
382.25	320.51
382.63	342.21
383.01	348.54
383.39	330.46
383.77	336.11
384.15	327.52
384.53	332.94
384.91	335.88
385.29	353.06
385.67	341.08
386.049	305.83
386.429	341.98
386.809	353.51
387.189	347.63
387.568	326.39
387.948	343.79
388.328	342.21
388.707	331.81
389.087	360.74
389.466	342.66
389.846	355.09
390.225	351.02
390.605	357.58
390.984	366.61
391.363	361.64
391.743	355.77
392.122	345.15
392.501	369.55
392.881	380.85
393.26	391.7
393.639	362.77
394.018	372.04
394.397	360.06
394.776	393.05
395.155	372.26
395.534	412.04
395.913	372.26
396.292	372.72
396.671	388.76
397.05	396.44
397.429	395.31
397.808	401.87
398.186	388.53
398.565	385.37
398.944	399.61
399.323	384.02
399.701	402.09
400.08	413.17
400.458	400.29
400.837	381.76
401.215	423.79
401.594	424.47
401.972	411.36
402.351	432.83
402.729	433.96
403.107	408.65
403.486	409.78
403.864	422.21
404.242	443.45
404.62	442.54
404.999	441.87
405.377	472.6
405.755	454.3
406.133	447.52
406.511	451.81
406.889	438.93
407.267	461.08
407.645	462.88
408.023	470.11
408.401	474.63
408.779	485.03
409.156	493.62
409.534	485.71
409.912	493.39
410.29	529.1
410.667	499.04
411.045	509.89
411.422	526.16
411.8	527.97
412.178	513.96
412.555	540.17
412.933	539.94
413.31	555.31
413.687	578.81
414.065	583.56
414.442	562.99
414.819	581.75
415.197	578.13
415.574	593.5
415.951	599.6
416.328	591.69
416.705	627.85
417.082	601.64
417.46	613.39
417.837	639.83
418.214	643.44
418.591	661.52
418.967	647.06
419.344	665.59
419.721	668.75
420.098	690.22
420.475	694.74
420.852	702.88
421.228	685.93
421.605	727.96
421.982	690.45
422.358	710.79
422.735	730.45
423.111	749.66
423.488	759.82
423.864	774.97
424.241	756.89
424.617	779.71
424.994	789.2
425.37	802.08
425.746	807.73
426.123	824.68
426.499	817.9
426.875	837.34
427.251	855.19
427.627	871.91
428.003	882.76
428.379	876.21
428.756	911.01
429.132	899.71
429.507	923.21
429.883	939.03
430.259	944.45
430.635	934.74
431.011	949.42
431.387	1003.89
431.763	995.98
432.138	995.07
432.514	1002.98
432.89	1035.52
433.265	1040.27
433.641	1067.16
434.016	1074.84
434.392	1095.86
434.767	1101.51
435.143	1100.83
435.518	1139.7
435.894	1164.11
436.269	1179.47
436.644	1181.28
437.02	1216.08
437.395	1238.23
437.77	1245.69
438.145	1238.91
438.52	1275.07
438.895	1304.67
439.271	1306.7
439.646	1347.15
440.021	1333.59
440.395	1365.46
440.77	1331.56
441.145	1364.78
441.52	1391.67
441.895	1391.22
442.27	1407.94
442.645	1410.2
443.019	1425.57
443.394	1454.72
443.769	1495.62
444.143	1460.6
444.518	1458.56
444.892	1478.9
445.267	1512.35
445.641	1527.26
446.016	1507.6
446.39	1518
446.764	1547.37
447.139	1537.88
447.513	1565.68
447.887	1560.48
448.262	1602.74
448.636	1603.64
449.01	1610.65
449.384	1640.25
449.758	1621.27
450.132	1655.17
450.506	1656.3
450.88	1689.07
451.254	1662.85
451.628	1703.75
452.002	1698.56
452.376	1712.79
452.75	1747.6
453.123	1753.24
453.497	1780.14
453.871	1773.13
454.244	1807.71
454.618	1816.29
454.992	1848.38
455.365	1871.21
455.739	1907.14
456.112	1902.85
456.486	1901.26
456.859	1957.99
457.232	1967.48
457.606	1959.79
457.979	1946.23
458.352	2029.17
458.725	2035.95
459.099	2020.81
459.472	2086.34
459.845	2105.78
460.218	2126.57
460.591	2146.68
460.964	2107.13
461.337	2185.78
461.71	2182.16
462.083	2233.01
462.456	2264.64
462.829	2233.23
463.201	2310.29
463.574	2294.93
463.947	2306
464.32	2378.54
464.692	2406.56
465.065	2407.46
465.438	2421.7
465.81	2468.03
466.183	2459.21
466.555	2555.26
466.928	2536.28
467.3	2520.23
467.672	2569.27
468.045	2666.89
468.417	2619.66
468.789	2649.27
469.161	2715.03
469.534	2705.99
469.906	2763.16
470.278	2792.54
470.65	2820.11
471.022	2879.54
471.394	2914.8
471.766	2929.26
472.138	2958.64
472.51	3025.98
472.882	3077.96
473.253	3073.66
473.625	3123.38
473.997	3131.74
474.369	3229.14
474.74	3226.88
475.112	3265.52
475.484	3328.8
475.855	3340.55
476.227	3368.12
476.598	3444.95
476.97	3483.82
477.341	3560.43
477.713	3594.55
478.084	3611.28
478.455	3712.74
478.827	3752.06
479.198	3801.78
479.569	3815.79
479.94	3921.55
480.311	3916.35
480.682	4012.62
481.053	4108.44
481.424	4137.14
481.795	4174.65
482.166	4168.1
482.537	4252.16
482.908	4305.95
483.279	4356.57
483.65	4409.67
484.021	4514.53
484.391	4506.62
484.762	4591.14
485.133	4612.38
485.503	4672.26
485.874	4726.27
486.244	4814.86
486.615	4875.42
486.985	4948.42
487.356	4967.4
487.726	5024.12
488.097	5063.44
488.467	5058.24
488.837	5207.84
489.207	5252.14
489.578	5356.09
489.948	5371.91
490.318	5394.28
490.688	5424.79
491.058	5466.37
491.428	5528.51
491.798	5579.81
492.168	5719.02
492.538	5722.86
492.908	5739.81
493.278	5793.59
493.648	5834.27
494.017	5933.02
494.387	5919.01
494.757	5956.3
495.126	6038.1
495.496	5994.72
495.866	6091.66
496.235	6155.61
496.605	6166.24
496.974	6151.55
497.344	6222.05
497.713	6294.14
498.082	6278.78
498.452	6329.62
498.821	6333.01
499.19	6298.21
499.559	6412.11
499.928	6465.89
500.298	6413.01
500.667	6556.73
501.036	6516.96
501.405	6577.52
501.774	6543.4
502.143	6621.14
502.512	6631.53
502.88	6644.87
503.249	6653.68
503.618	6637.86
503.987	6696.17
504.356	6730.74
504.724	6759.44
505.093	6738.65
505.462	6759.21
505.83	6822.04
506.199	6872.43
506.567	6919.66
506.936	6906.1
507.304	6916.95
507.672	6963.73
508.041	7008.25
508.409	7039.89
508.777	7093.22
509.145	7082.82
509.514	7076.49
509.882	7071.75
510.25	7094.35
510.618	7140.45
510.986	7125.53
511.354	7179.99
511.722	7201.24
512.09	7237.17
512.458	7213.21
512.826	7245.98
513.193	7290.73
513.561	7310.61
513.929	7384.96
514.297	7389.25
514.664	7437.16
515.032	7404.62
515.4	7440.55
515.767	7412.53
516.135	7407.79
516.502	7392.42
516.869	7465.41
517.237	7534.34
517.604	7424.06
517.972	7532.3
518.339	7545.86
518.706	7510.16
519.073	7552.41
519.44	7516.94
519.808	7573.88
520.175	7633.77
520.542	7606.88
520.909	7591.74
521.276	7610.49
521.643	7652.52
522.009	7668.8
522.376	7703.37
522.743	7725.52
523.11	7751.96
523.477	7859.98
523.843	7811.62
524.21	7837.15
524.577	7864.95
524.943	7849.81
525.31	7845.74
525.676	7848.9
526.043	7957.38
526.409	7932.74
526.776	7951.27
527.142	8021.33
527.508	7985.4
527.874	8027.88
528.241	7984.49
528.607	8034.21
528.973	8024.94
529.339	8017.71
529.705	8091.61
530.071	8093.19
530.437	8091.38
530.803	8097.71
531.169	8110.14
531.535	8114.89
531.901	8038.05
532.267	8063.36
532.632	8131.83
532.998	8163.25
533.364	8133.64
533.73	8197.14
534.095	8158.95
534.461	8128.44
534.826	8117.15
535.192	8120.31
535.557	8164.6
535.923	8173.19
536.288	8141.55
536.653	8091.61
537.019	8061.55
537.384	8127.54
537.749	8152.17
538.114	8101.55
538.479	8126.41
538.845	8044.83
539.21	8014.1
539.575	8113.3
539.94	8056.36
540.305	8021.33
540.67	7981.1
541.034	8098.39
541.399	8034.44
541.764	8022.68
542.129	8062.91
542.494	8027.2
542.858	8044.6
543.223	7992.85
543.587	8036.47
543.952	7981.33
544.316	8012.97
544.681	7994.21
545.045	7970.03
545.41	8017.03
545.774	7982.23
546.138	7918.28
546.503	7953.53
546.867	7897.94
547.231	7951.73
547.595	7947.88
547.959	7922.35
548.324	7937.04
548.688	7901.11
549.052	7932.52
549.416	7883.71
549.779	7855.68
550.143	7891.16
550.507	7909.92
550.871	7885.74
551.235	7826.31
551.599	7865.85
551.962	7860.65
552.326	7817.49
552.689	7892.97
553.053	7856.59
553.417	7845.74
553.78	7854.55
554.143	7806.19
554.507	7876.7
554.87	7821.56
555.234	7857.49
555.597	7846.87
555.96	7831.73
556.323	7805.74
556.686	7804.39
557.05	7872.18
557.413	7742.24
557.776	7826.08
558.139	7912.4
558.502	7799.19
558.865	7891.16
559.228	7907.89
559.59	7950.37
559.953	7906.53
560.316	7892.07
560.679	7926.64
561.041	7986.75
561.404	7897.49
561.767	7967.77
562.129	7965.28
562.492	7997.37
562.854	7935.23
563.217	7972.06
563.579	7984.95
563.941	7977.04
564.304	8026.75
564.666	8063.59
565.028	8016.81
565.39	8033.08
565.753	8136.35
566.115	8160.31
566.477	8121.44
566.839	8165.73
567.201	8176.13
567.563	8140.65
567.925	8254.32
568.287	8160.76
568.648	8231.04
569.01	8245.05
569.372	8278.27
569.734	8294.09
570.095	8303.36
570.457	8358.27
570.819	8343.81
571.18	8332.96
571.542	8388.78
571.903	8316.46
572.265	8359.62
572.626	8421.09
572.987	8471.26
573.349	8389.91
573.71	8423.8
574.071	8494.54
574.432	8527.53
574.794	8528.66
575.155	8503.35
575.516	8551.03
575.877	8571.14
576.238	8648.88
576.599	8635.78
576.96	8576.34
577.32	8600.97
577.681	8677.13
578.042	8667.87
578.403	8706.28
578.763	8697.7
579.124	8757.58
579.485	8776.11
579.845	8866.96
580.206	8805.71
580.566	8720.07
580.927	8791.48
581.287	8829.22
581.648	8785.38
582.008	8904.47
582.368	8918.48
582.728	8972.94
583.089	8877.8
583.449	8913.28
583.809	8908.76
584.169	8944.47
584.529	8889.55
584.889	9017.91
585.249	8951.25
585.609	8956.45
585.969	9037.8
586.329	9088.19
586.688	9012.94
587.048	9036.44
587.408	9076.67
587.768	9110.57
588.127	9057.23
588.487	9080.51
588.846	9148.3
589.206	9206.61
589.565	9139.94
589.925	9178.59
590.284	9179.72
590.643	9226.95
591.003	9213.84
591.362	9241.64
591.721	9206.16
592.08	9231.69
592.44	9279.15
592.799	9338.81
593.158	9334.51
593.517	9281.63
593.876	9286.15
594.235	9264.91
594.593	9447.05
594.952	9298.36
595.311	9330.22
595.67	9339.94
596.029	9372.48
596.387	9363.21
596.746	9429.2
597.104	9347.4
597.463	9337
597.822	9337.68
598.18	9334.29
598.538	9401.63
598.897	9385.59
599.255	9355.3
599.613	9524.79
599.972	9417
600.33	9410.9
600.688	9402.54
601.046	9495.64
601.404	9523.66
601.762	9461.29
602.12	9502.65
602.478	9458.35
602.836	9503.55
603.194	9441.4
603.552	9449.77
603.91	9447.05
604.268	9533.38
604.625	9460.84
604.983	9464.91
605.341	9473.72
605.698	9554.4
606.056	9513.49
606.413	9547.39
606.771	9632.81
607.128	9568.86
607.485	9545.36
607.843	9540.38
608.2	9552.81
608.557	9663.32
608.914	9503.1
609.272	9643.43
609.629	9636.88
609.986	9665.13
610.343	9669.65
610.7	9647.95
611.057	9672.36
611.414	9635.52
611.771	9629.2
612.127	9734.73
612.484	9687.73
612.841	9740.61
613.198	9692.47
613.554	9693.83
613.911	9796.2
614.267	9711.45
614.624	9732.92
614.98	9697.67
615.337	9797.1
615.693	9763.2
616.05	9757.78
616.406	9797.33
616.762	9810.21
617.118	9784.9
617.475	9782.64
617.831	9824.22
618.187	9839.36
618.543	9788.51
618.899	9904.44
619.255	9879.81
619.611	9871.68
619.967	9928.4
620.323	9948.96
620.678	9883.88
621.034	9838.23
621.39	9865.35
621.746	9846.14
622.101	9907.61
622.457	9823.32
622.812	9866.03
623.168	9954.39
623.523	9864.22
623.879	9995.74
624.234	9898.79
624.589	9879.13
624.945	9956.87
625.3	9903.77
625.655	9945.57
626.01	9891.11
626.365	9908.06
626.72	9895.18
627.075	9817.44
627.43	9881.84
627.785	9855.63
628.14	9883.65
628.495	9854.73
628.85	9842.75
629.205	9825.35
629.559	9915.97
629.914	9843.65
630.269	9809.53
630.623	9834.84
630.978	9801.17
631.332	9807.04
631.687	9874.16
632.041	9792.81
632.396	9807.72
632.75	9762.53
633.104	9787.84
633.459	9721.85
633.813	9744.22
634.167	9773.15
634.521	9736.09
634.875	9693.83
635.229	9740.83
635.583	9685.92
635.937	9655.18
636.291	9679.82
636.645	9625.35
636.999	9745.8
637.352	9642.53
637.706	9586.71
638.06	9611.12
638.413	9654.28
638.767	9593.04
639.121	9653.38
639.474	9602.98
639.828	9553.04
640.181	9566.6
640.534	9580.84
640.888	9530.22
641.241	9453.83
641.594	9528.63
641.947	9571.12
642.301	9513.72
642.654	9482.53
643.007	9485.24
643.36	9522.98
643.713	9477.56
644.066	9473.27
644.419	9414.96
644.771	9328.41
645.124	9301.29
645.477	9306.27
645.83	9216.55
646.182	9197.12
646.535	9165.93
646.888	9144.46
647.24	9142.66
647.593	9216.78
647.945	9139.72
648.298	9083.67
648.65	9138.14
649.002	9060.85
649.355	9087.06
649.707	9085.26
650.059	9144.91
650.411	9287.06
650.763	9286.61
651.115	9336.1
651.467	9301.52
651.819	9332.03
652.171	9323.67
652.523	9308.3
652.875	9296.32
653.227	9257.91
653.578	9388.98
653.93	9353.72
654.282	9294.97
654.633	9278.24
654.985	9281.86
655.337	9387.17
655.688	9328.41
656.039	9316.21
656.391	9231.01
656.742	9269.66
657.094	9254.29
657.445	9316.89
657.796	9349.43
658.147	9332.48
658.498	9272.82
658.849	9315.08
659.2	9346.27
659.551	9318.92
659.902	9356.43
660.253	9321.86
660.604	9305.59
660.955	9279.15
661.306	9322.99
661.656	9315.98
662.007	9328.64
662.358	9325.02
662.708	9364.8
663.059	9320.5
663.409	9307.4
663.76	9285.25
664.11	9286.83
664.461	9347.62
664.811	9367.06
665.161	9348.07
665.511	9244.8
665.862	9332.71
666.212	9396.66
666.562	9324.57
666.912	9274.63
667.262	9344.01
667.612	9369.99
667.962	9300.17
668.312	9390.78
668.662	9385.13
669.011	9296.78
669.361	9279.83
669.711	9285.02
670.06	9280.96
670.41	9267.62
670.76	9268.08
671.109	9296.1
671.459	9273.5
671.808	9250.67
672.157	9283.89
672.507	9223.78
672.856	9182.88
673.205	9374.97
673.554	9279.37
673.904	9220.39
674.253	9275.98
674.602	9297.68
674.951	9122.77
675.3	9026.05
675.649	9159.83
675.998	9130
676.346	9148.98
676.695	9202.77
677.044	9162.99
677.393	9099.72
677.741	9200.73
678.09	9143.78
678.438	9091.58
678.787	9153.5
679.135	9153.73
679.484	9033.28
679.832	9053.39
680.181	8975.2
680.529	9025.82
680.877	9002.55
681.225	9013.17
681.573	9020.85
681.922	8978.37
682.27	8932.94
682.618	9037.57
682.966	8971.59
683.314	8921.87
683.661	8958.93
684.009	8899.27
684.357	8905.15
684.705	8848.65
685.053	8865.83
685.4	8845.26
685.748	8866.05
686.095	8767.75
686.443	8726.39
686.79	8752.38
687.138	8730.69
687.485	8733.17
687.832	8674.64
688.18	8726.39
688.527	8667.64
688.874	8673.74
689.221	8607.75
689.568	8544.7
689.915	8593.97
690.262	8519.62
690.609	8569.34
690.956	8490.92
691.303	8487.08
691.65	8365.95
691.997	8440.98
692.344	8453.63
692.69	8356.91
693.037	8372.05
693.383	8262.23
693.73	8317.59
694.077	8254.32
694.423	8232.4
694.769	8242.11
695.116	8189.69
695.462	8186.07
695.808	8134.77
696.155	8114.66
696.501	8064.49
696.847	8076.02
697.193	8072.17
697.539	7988.79
697.885	7945.17
698.231	7946.3
698.577	7911.28
698.923	7889.13
699.269	7897.26
699.614	7795.8
699.96	7748.12
700.306	7808.68
700.651	7735.69
700.997	7743.37
701.342	7719.19
701.688	7684.61
702.033	7659.08
702.379	7680.32
702.724	7572.3
703.069	7627.21
703.415	7554.45
703.76	7540.66
704.105	7480.55
704.45	7512.19
704.795	7477.84
705.14	7447.33
705.485	7422.02
705.83	7384.51
706.175	7350.61
706.52	7348.13
706.865	7306.32
707.209	7306.77
707.554	7322.82
707.899	7249.6
708.243	7259.09
708.588	7211.41
708.932	7187.23
709.277	7150.17
709.621	7176.61
709.966	7133.44
710.31	7115.14
710.654	7069.04
710.998	7074.91
711.342	7026.78
711.687	7010.28
712.031	7022.94
712.375	7057.96
712.719	7022.94
713.063	6951.53
713.407	6971.86
713.75	6967.57
714.094	6942.03
714.438	6934.13
714.782	6977.97
715.125	6945.42
715.469	6971.41
715.812	6942.49
716.156	6866.1
716.499	6863.17
716.843	6884.86
717.186	6778.2
717.53	6880.34
717.873	6811.42
718.216	6859.1
718.559	6795.15
718.902	6759.44
719.246	6803.96
719.589	6778.2
719.932	6696.39
720.275	6764.19
720.617	6701.36
720.96	6695.26
721.303	6732.77
721.646	6714.02
721.989	6673.57
722.331	6745.2
722.674	6687.13
723.016	6719.67
723.359	6694.36
723.701	6679.89
724.044	6617.52
724.386	6586.79
724.729	6623.85
725.071	6674.7
725.413	6671.31
725.755	6593.8
726.097	6598.99
726.439	6600.58
726.782	6582.04
727.124	6633.34
727.465	6607.58
727.807	6548.15
728.149	6593.34
728.491	6609.84
728.833	6559.67
729.175	6534.14
729.516	6606.45
729.858	6557.41
730.199	6564.19
730.541	6562.61
730.882	6556.51
731.224	6525.1
731.565	6504.76
731.906	6536.85
732.248	6545.44
732.589	6537.53
732.93	6497.53
733.271	6498.66
733.612	6514.02
733.953	6521.71
734.294	6545.89
734.635	6496.62
734.976	6518.09
735.317	6563.97
735.658	6505.44
735.999	6528.26
736.339	6508.15
736.68	6554.47
737.021	6540.24
737.361	6502.95
737.702	6564.19
738.042	6520.13
738.383	6521.03
738.723	6509.05
739.063	6532.33
739.404	6535.27
739.744	6561.25
740.084	6527.58
740.424	6540.46
740.764	6544.76
741.104	6644.87
741.444	6568.71
741.784	6560.58
742.124	6622.04
742.464	6620.01
742.804	6701.82
743.143	6633.34
743.483	6668.14
743.823	6637.86
744.162	6679.44
744.502	6715.15
744.841	6652.78
745.181	6755.37
745.52	6803.28
745.86	6789.5
746.199	6792.66
746.538	6828.37
746.877	6886.44
747.216	6937.06
747.556	6961.92
747.895	6974.58
748.234	6956.5
748.573	7043.28
748.911	7083.95
749.25	7101.35
749.589	7152.2
749.928	7204.17
750.267	7313.1
750.605	7336.37
750.944	7317.17
751.283	7408.46
751.621	7499.99
751.96	7519.42
752.298	7608.46
752.636	7654.56
752.975	7693.43
753.313	7779.53
753.651	7949.47
753.989	7947.66
754.327	8014.55
754.666	8122.57
755.004	8227.42
755.342	8370.02
755.679	8454.54
756.017	8518.26
756.355	8694.98
756.693	8654.98
757.031	8859.05
757.368	8900.18
757.706	9072.6
758.044	9200.51
758.381	9245.93
758.719	9428.98
759.056	9489.99
759.394	9684.56
759.731	9728.85
760.068	9837.55
760.405	9965.91
760.743	10083.2
761.08	10196.19
761.417	10239.12
761.754	10484.77
762.091	10501.04
762.428	10689.06
762.765	10716.4
763.102	10931.99
763.438	11089.27
763.775	11119.33
764.112	11204.07
764.449	11439.32
764.785	11514.8
765.122	11543.27
765.458	11694.45
765.795	11782.36
766.131	11901.9
766.467	12028
766.804	12125.18
767.14	12272.97
767.476	12337.83
767.812	12423.47
768.148	12523.13
768.485	12587.54
768.821	12675.67
769.157	12776.91
769.492	12898.49
769.828	12964.48
770.164	12962.67
770.5	13041.76
770.836	13235.2
771.171	13188.2
771.507	13331.7
771.842	13348.19
772.178	13425.25
772.513	13527.62
772.849	13525.36
773.184	13572.14
773.519	13678.13
773.855	13733.95
774.19	13689.43
774.525	13804
774.86	13778.47
775.195	13880.84
775.53	13923.55
775.865	13907.73
776.2	13953.15
776.535	13958.35
776.87	13948.63
777.205	13968.06
777.539	13980.72
777.874	14062.07
778.209	13996.99
778.543	14155.18
778.878	13970.1
779.212	14086.93
779.547	14055.07
779.881	14169.42
780.215	14127.16
780.55	14166.03
780.884	14071.11
781.218	14049.19
781.552	14141.85
781.886	14168.96
782.22	14058.23
782.554	14078.12
782.888	13995.41
783.222	13995.63
783.556	14002.87
783.889	13963.55
784.223	13872.47
784.557	13930.55
784.89	14002.64
785.224	13954.51
785.557	13935.07
785.891	13903.43
786.224	13893.72
786.558	13926.03
786.891	13853.04
787.224	13823.44
787.557	13769.65
787.891	13800.16
788.224	13787.05
788.557	13822.76
788.89	13729.2
789.223	13798.35
789.556	13638.13
789.888	13697.79
790.221	13708.18
790.554	13613.95
790.887	13641.52
791.219	13547.96
791.552	13581.41
791.884	13530.11
792.217	13466.61
792.549	13444.91
792.882	13357.46
793.214	13338.7
793.546	13452.15
793.879	13376.89
794.211	13255.99
794.543	13399.72
794.875	13278.82
795.207	13371.02
795.539	13248.76
795.871	13202.21
796.203	13138.71
796.535	13186.62
796.867	13045.38
797.198	13039.5
797.53	13088.77
797.862	12954.98
798.193	13025.49
798.525	12909.79
798.856	13028.43
799.188	12912.5
799.519	12778.04
799.85	12826.85
800.182	12835.89
800.513	12770.36
800.844	12778.49
801.175	12730.13
801.506	12685.84
801.837	12701.21
802.168	12617.59
802.499	12618.27
802.83	12550.7
803.161	12523.36
803.491	12521.32
803.822	12522.91
804.153	12486.97
804.483	12418.5
804.814	12293.76
805.145	12336.02
805.475	12384.83
805.805	12282.69
806.136	12333.53
806.466	12298.05
806.796	12224.16
807.126	12154.78
807.457	12249.01
807.787	12201.78
808.117	12180.09
808.447	12116.81
808.777	12091.96
809.107	12095.57
809.436	12009.7
809.766	12018.96
810.096	11978.51
810.426	11921.79
810.755	11957.5
811.085	11913.2
811.414	11910.04
811.744	11803.38
812.073	11757.95
812.403	11813.55
812.732	11777.16
813.061	11731.06
813.39	11722.93
813.719	11703.27
814.049	11755.47
814.378	11752.3
814.707	11646.54
815.036	11663.27
815.365	11550.5
815.693	11502.37
816.022	11541.01
816.351	11522.93
816.68	11356.16
817.008	11457.62
817.337	11385.99
817.665	11460.33
817.994	11445.19
818.322	11347.34
818.651	11351.64
818.979	11316.38
819.307	11331.07
819.636	11316.61
819.964	11319.1
820.292	11248.36
820.62	11213.56
820.948	11251.98
821.276	11321.35
821.604	11164.52
821.932	11187.35
822.259	11230.06
822.587	11201.36
822.915	11212.88
823.243	11274.58
823.57	11079.1
823.898	11241.58
824.225	11087.01
824.553	11049.72
824.88	11272.77
825.207	11200
825.535	11197.29
825.862	11228.48
826.189	11122.49
826.516	11173.56
826.843	11221.24
827.17	11268.02
827.497	11232.32
827.824	11166.33
828.151	11290.85
828.478	11171.08
828.805	11301.24
829.131	11237.74
829.458	11219.21
829.785	11217.18
830.111	11273.22
830.438	11252.43
830.764	11252.43
831.09	11267.8
831.417	11181.7
831.743	11190.28
832.069	11253.56
832.395	11127.01
832.722	11200.91
833.048	11241.36
833.374	11183.28
833.7	11107.35
834.026	11151.87
834.351	11200.23
834.677	11121.59
835.003	11178.31
835.329	11061.7
835.654	11153
835.98	11062.6
836.306	11101.47
836.631	11050.4
836.956	11076.39
837.282	11059.44
837.607	11034.13
837.932	11000.91
838.258	10936.28
838.583	10960.46
838.908	10924.3
839.233	10953.68
839.558	10889.73
839.883	10857.86
840.208	10818.32
840.533	10858.32
840.858	10890.18
841.182	10779
841.507	10787.36
841.832	10714.14
842.156	10748.94
842.481	10755.72
842.805	10736.74
843.13	10699
843.454	10617.19
843.778	10668.72
844.103	10673.46
844.427	10581.94
844.751	10562.96
845.075	10586.01
845.399	10452.9
845.723	10483.86
846.047	10575.84
846.371	10351.66
846.695	10305.11
847.019	10337.88
847.343	10234.15
847.666	10166.81
847.99	10214.72
848.313	10195.06
848.637	10105.12
848.96	10088.17
849.284	10033.03
849.607	10026.93
849.931	9958.23
850.254	9888.85
850.577	9865.8
850.9	9786.25
851.223	9823.32
851.546	9672.58
851.869	9671.68
852.192	9692.7
852.515	9625.35
852.838	9655.41
853.161	9627.16
853.483	9500.39
853.806	9551.68
854.129	9497.45
854.451	9471.91
854.774	9494.51
855.096	9409.31
855.419	9430.11
855.741	9386.26
856.063	9310.56
856.385	9293.16
856.708	9271.24
857.03	9310.33
857.352	9198.92
857.674	9155.76
857.996	9224.46
858.318	9145.59
858.64	9078.02
858.961	9005.26
859.283	9030.79
859.605	8976.78
859.926	9059.27
860.248	9085.93
860.57	8949.67
860.891	9012.49
861.212	8904.24
861.534	8888.42
861.855	8904.92
862.176	8888.42
862.498	8884.58
862.819	8950.57
863.14	8817.24
863.461	8871.25
863.782	8819.5
864.103	8797.81
864.424	8782.44
864.745	8819.5
865.065	8786.28
865.386	8675.1
865.707	8652.5
866.027	8721.2
866.348	8597.36
866.668	8663.35
866.989	8638.26
867.309	8588.32
867.63	8624.93
867.95	8583.12
868.27	8536.34
868.59	8593.07
868.91	8559.39
869.23	8564.82
869.55	8424.93
869.87	8534.54
870.19	8486.85
870.51	8525.72
870.83	8512.84
871.15	8457.25
871.469	8466.06
871.789	8406.63
872.109	8376.12
872.428	8389.23
872.748	8404.14
873.067	8377.25
873.386	8384.48
873.706	8424.26
874.025	8363.47
874.344	8263.81
874.663	8348.33
874.982	8300.87
875.301	8243.47
875.62	8306.07
875.939	8264.49
876.258	8304.03
876.577	8189.23
876.896	8220.87
877.214	8198.95
877.533	8249.8
877.852	8205.05
878.17	8235.11
878.489	8169.8
878.807	8147.2
879.125	8200.31
879.444	8165.73
879.762	8097.71
880.08	8122.57
880.398	8073.76
880.716	8083.25
881.034	8068.79
881.352	8052.29
881.67	7993.53
881.988	8004.61
882.306	8032.85
882.624	8005.51
882.941	7920.99
883.259	7923.03
883.577	7884.38
883.894	7851.39
884.212	7876.25
884.529	7880.09
884.846	7854.78
885.164	7844.38
885.481	7841.22
885.798	7819.53
886.115	7764.39
886.432	7787.44
886.75	7749.7
887.067	7732.75
887.383	7674.22
887.7	7735.46
888.017	7667.67
888.334	7630.38
888.651	7585.63
888.967	7605.29
889.284	7561.91
889.6	7512.87
889.917	7505.86
890.233	7510.38
890.55	7452.08
890.866	7507.67
891.182	7448.24
891.498	7449.14
891.815	7455.02
892.131	7403.04
892.447	7352.65
892.763	7318.3
893.079	7347.22
893.395	7291.63
893.71	7268.35
894.026	7288.92
894.342	7267.45
894.657	7132.31
894.973	7167.79
895.289	7172.76
895.604	7174.8
895.92	7090.96
896.235	7061.35
896.55	7083.73
896.865	7025.42
897.181	7003.73
897.496	6944.29
897.811	7007.34
898.126	7020.23
898.441	6891.87
898.756	6929.38
899.071	6872.66
899.386	6885.99
899.7	6816.39
900.015	6793.34
900.33	6748.37
900.644	6765.77
900.959	6720.35
901.273	6670.86
901.588	6598.32
901.902	6659.78
902.216	6586.79
902.531	6592.44
902.845	6557.19
903.159	6504.08
903.473	6533.91
903.787	6509.28
904.101	6447.13
904.415	6453.46
904.729	6457.75
905.042	6387.02
905.356	6407.13
905.67	6372.56
905.984	6349.51
906.297	6360.58
906.611	6312.22
906.924	6311.54
907.237	6330.07
907.551	6240.81
907.864	6221.15
908.177	6175.5
908.491	6170.98
908.804	6152.23
909.117	6112
909.43	6093.47
909.743	6061.38
910.056	6011.66
910.368	6027.26
910.681	6029.74
910.994	5993.59
911.307	5952.91
911.619	5881.5
911.932	5940.25
912.244	5882.18
912.557	5835.62
912.869	5838.11
913.181	5814.61
913.494	5786.36
913.806	5689.41
914.118	5760.15
914.43	5700.71
914.742	5640.15
915.054	5632.01
915.366	5642.63
915.678	5623.2
915.99	5586.59
916.302	5523.77
916.613	5534.84
916.925	5509.08
917.236	5468.18
917.548	5437.67
917.859	5457.1
918.171	5468.18
918.482	5409.19
918.794	5427.72
919.105	5381.4
919.416	5358.8
919.727	5340.5
920.038	5313.6
920.349	5279.93
920.66	5265.47
920.971	5223.66
921.282	5260.27
921.593	5193.61
921.903	5161.74
922.214	5137.79
922.525	5144.12
922.835	5131.46
923.146	5092.37
923.456	5067.73
923.767	5071.8
924.077	5077
924.387	5047.17
924.697	5004.23
925.008	5004.23
925.318	4960.39
925.628	4958.58
925.938	4906.16
926.248	4905.93
926.558	4884.91
926.867	4862.77
927.177	4839.04
927.487	4858.7
927.796	4817.57
928.106	4756.33
928.416	4762.43
928.725	4744.8
929.034	4739.38
929.344	4788.87
929.653	4675.2
929.962	4643.79
930.271	4643.56
930.581	4596.56
930.89	4639.5
931.199	4583.68
931.508	4541.19
931.817	4550.91
932.125	4593.85
932.434	4536
932.743	4456.9
933.051	4491.48
933.36	4492.61
933.669	4421.65
933.977	4424.81
934.286	4411.25
934.594	4416.23
934.902	4401.31
935.21	4350.69
935.519	4359.73
935.827	4356.79
936.135	4275.89
936.443	4277.47
936.751	4264.14
937.059	4257.36
937.367	4210.58
937.674	4248.77
937.982	4250.13
938.29	4151.15
938.597	4179.85
938.905	4119.06
939.213	4169.68
939.52	4084.93
939.827	4158.83
940.135	4122
940.442	4070.92
940.749	4077.93
941.056	4027.08
941.363	4030.7
941.67	4018.95
941.977	3993.19
942.284	3932.17
942.591	3877.71
942.898	3935.56
943.205	3926.75
943.511	3902.34
943.818	3827.77
944.125	3866.18
944.431	3840.87
944.738	3871.61
945.044	3859.63
945.35	3756.13
945.657	3801.55
945.963	3757.71
946.269	3750.93
946.575	3746.41
946.881	3670.71
947.187	3709.35
947.493	3695.34
947.799	3686.3
948.105	3679.97
948.41	3644.04
948.716	3660.54
949.022	3609.92
949.327	3642.23
949.633	3619.64
949.938	3589.58
950.244	3566.3
950.549	3520.66
950.854	3507.32
951.16	3502.8
951.465	3453.54
951.77	3516.59
952.075	3453.77
952.38	3437.27
952.685	3433.88
952.99	3416.7
953.294	3417.38
953.599	3354.33
953.904	3379.87
954.209	3399.76
954.513	3357.04
954.818	3332.41
955.122	3312.75
955.426	3279.98
955.731	3299.42
956.035	3235.69
956.339	3301.9
956.643	3270.04
956.948	3241.57
957.252	3209.03
957.556	3189.59
957.86	3236.37
958.163	3201.12
958.467	3142.36
958.771	3154.11
959.075	3201.79
959.378	3093.77
959.682	3139.42
959.985	3086.54
960.289	3148.46
960.592	3089.48
960.896	3039.99
961.199	3066.2
961.502	3048.58
961.805	3047.45
962.108	2999.54
962.411	2998.41
962.714	2990.05
963.017	3011.74
963.32	2980.33
963.623	2930.62
963.926	2990.95
964.228	2938.3
964.531	2913.67
964.833	2887.9
965.136	2884.29
965.438	2889.49
965.741	2858.98
966.043	2852.2
966.345	2816.49
966.648	2851.97
966.95	2823.05
967.252	2822.82
967.554	2821.24
967.856	2791.86
968.158	2735.14
968.46	2792.54
968.761	2746.44
969.063	2743.95
969.365	2745.31
969.666	2703.28
969.968	2702.82
970.269	2701.69
970.571	2668.48
970.872	2659.89
971.174	2651.98
971.475	2638.19
971.776	2659.66
972.077	2639.78
972.378	2628.7
972.679	2599.32
972.98	2589.61
973.281	2571.98
973.582	2567.46
973.883	2573.56
974.183	2541.02
974.484	2514.35
974.785	2544.64
975.085	2498.31
975.386	2502.38
975.686	2498.76
975.986	2477.07
976.287	2492.89
976.587	2439.33
976.887	2419.67
977.187	2478.2
977.487	2454.7
977.787	2392.78
978.087	2422.15
978.387	2424.19
978.687	2409.5
978.987	2375.6
979.286	2404.3
979.586	2348.94
979.885	2335.6
980.185	2361.82
980.484	2347.81
980.784	2322.5
981.083	2290.86
981.382	2291.54
981.682	2300.8
981.981	2294.47
982.28	2289.5
982.579	2274.36
982.878	2279.33
983.177	2238.43
983.475	2230.52
983.774	2211.76
984.073	2187.58
984.372	2204.53
984.67	2226
984.969	2218.54
985.267	2164.99
985.566	2171.76
985.864	2158.66
986.162	2158.66
986.461	2133.12
986.759	2110.75
987.057	2132.22
987.355	2099.45
987.653	2116.17
987.951	2132.22
988.249	2128.38
988.547	2076.85
988.844	2062.62
989.142	2059
989.44	2063.97
989.737	2044.31
990.035	2028.49
990.332	2021.94
990.63	2026.01
990.927	2001.6
991.224	2027.36
991.521	1976.29
991.819	1993.92
992.116	1957.08
992.413	1962.73
992.71	1972
993.006	1945.56
993.303	1931.32
993.6	1931.09
993.897	1920.25
994.193	1890.19
994.49	1860.36
994.787	1908.72
995.083	1900.13
995.379	1852.68
995.676	1872.34
995.972	1844.77
996.268	1824.43
996.565	1828.5
996.861	1841.38
997.157	1808.16
997.453	1832.11
997.749	1803.86
998.044	1817.88
998.34	1783.07
998.636	1772
998.932	1764.54
999.227	1756.18
999.523	1748.95
999.818	1734.49
1000.114	1724.55
1000.409	1728.84
1000.704	1705.34
1001	1693.81
1001.295	1674.38
1001.59	1708.5
1001.885	1686.81
1002.18	1656.3
1002.475	1665.34
1002.77	1676.64
1003.065	1612.68
1003.359	1617.43
1003.654	1649.74
1003.949	1598.67
1004.243	1636.64
1004.538	1593.48
1004.832	1591.22
1005.127	1598.45
1005.421	1569.75
1005.715	1573.59
1006.009	1569.29
1006.304	1532.01
1006.598	1512.8
1006.892	1560.48
1007.186	1527.49
1007.48	1530.88
1007.773	1517.54
1008.067	1511.44
1008.361	1506.7
1008.655	1481.61
1008.948	1467.83
1009.242	1482.29
1009.535	1474.16
1009.829	1438.22
1010.122	1437.55
1010.415	1441.39
1010.708	1466.02
1011.001	1413.59
1011.295	1410.88
1011.588	1411.78
1011.881	1404.1
1012.173	1366.81
1012.466	1390.99
1012.759	1369.75
1013.052	1361.16
1013.344	1352.58
1013.637	1365.01
1013.93	1334.27
1014.222	1346.02
1014.514	1306.48
1014.807	1312.35
1015.099	1328.17
1015.391	1296.53
1015.683	1334.72
1015.976	1300.6
1016.268	1301.05
1016.56	1251.11
1016.851	1248.63
1017.143	1267.61
1017.435	1231.68
1017.727	1235.52
1018.018	1239.36
1018.31	1256.53
1018.602	1251.34
1018.893	1208.63
1019.185	1195.97
1019.476	1240.94
1019.767	1203.2
1020.058	1192.13
1020.35	1178.57
1020.641	1160.94
1020.932	1173.6
1021.223	1170.89
1021.514	1151.9
1021.804	1148.06
1022.095	1142.41
1022.386	1134.05
1022.677	1120.49
1022.967	1121.85
1023.258	1112.36
1023.548	1105.58
1023.839	1106.03
1024.129	1107.84
1024.419	1079.14
1024.709	1081.62
1025	1071.23
1025.29	1053.6
1025.58	1030.55
1025.87	1049.08
1026.16	1036.88
1026.449	1032.13
1026.739	1040.04
1027.029	1044.34
1027.319	1012.47
1027.608	1029.65
1027.898	1016.09
1028.187	1017.67
1028.477	998.46
1028.766	972.47
1029.055	1012.93
1029.344	1002.76
1029.634	969.54
1029.923	981.29
1030.212	965.02
1030.501	965.02
1030.79	922.31
1031.078	947.39
1031.367	958.69
1031.656	943.55
1031.945	898.58
1032.233	929.76
1032.522	904.91
1032.81	921.85
1033.099	907.17
1033.387	893.38
1033.675	907.84
1033.963	880.5
1034.251	870.78
1034.54	844.12
1034.828	878.69
1035.116	873.49
1035.403	896.54
1035.691	878.01
1035.979	851.8
1036.267	857.45
1036.554	844.12
1036.842	830.33
1037.129	865.81
1037.417	847.05
1037.704	815.42
1037.992	821.29
1038.279	838.92
1038.566	802.31
1038.853	802.31
1039.14	802.31
