Data from hue_260_FLMS001491_00069.txt Node
Date: Tue Feb 07 15:59:25 GMT 2017
User: dcchb
Spectrometer: FLMS00149
Trigger mode: 0
Integration Time (sec): 2.000000E-2
Scans to average: 10
Electric dark correction enabled: true
Nonlinearity correction enabled: false
Boxcar width: 0
XAxis mode: Wavelengths
Number of Pixels in Spectrum: 2048
>>>>>Begin Spectral Data<<<<<
341.393	-19.76
341.776	-19.76
342.16	-19.76
342.543	-51.17
342.927	-73.54
343.31	-64.05
343.693	-60.21
344.077	-72.19
344.46	-54.56
344.843	-60.44
345.226	-26.09
345.61	-39.65
345.993	-5.52
346.376	-7.56
346.759	9.62
347.142	27.25
347.525	42.16
347.908	57.75
348.291	63.4
348.674	78.54
349.057	111.54
349.44	124.64
349.823	154.02
350.206	158.09
350.588	195.15
350.971	193.12
351.354	209.84
351.737	208.26
352.119	230.86
352.502	231.76
352.884	274.7
353.267	273.11
353.65	277.41
354.032	290.97
354.414	306.11
354.797	300.46
355.179	324.41
355.562	331.87
355.944	312.21
356.326	320.57
356.709	319.89
357.091	329.61
357.473	334.36
357.855	338.2
358.238	323.51
358.62	345.2
359.002	336.16
359.384	337.29
359.766	332.32
360.148	332.1
360.53	318.31
360.912	313.34
361.294	314.47
361.676	302.49
362.057	306.79
362.439	323.51
362.821	326.22
363.203	337.52
363.584	325.32
363.966	322.6
364.348	310.4
364.729	311.98
365.111	314.7
365.493	314.24
365.874	310.18
366.256	313.79
366.637	294.36
367.019	318.54
367.4	325.99
367.781	300.68
368.163	303.85
368.544	303.62
368.925	312.66
369.306	311.31
369.688	290.97
370.069	309.05
370.45	291.64
370.831	301.36
371.212	311.08
371.593	310.4
371.974	302.27
372.355	298.2
372.736	309.05
373.117	299.78
373.498	321.02
373.879	324.64
374.26	317.18
374.641	324.41
375.021	317.63
375.402	293.45
375.783	324.86
376.163	315.83
376.544	324.64
376.925	311.98
377.305	305.2
377.686	324.64
378.066	318.99
378.447	324.86
378.827	324.64
379.208	325.77
379.588	323.73
379.968	330.06
380.349	314.92
380.729	331.87
381.109	322.15
381.489	324.64
381.87	333.68
382.25	338.2
382.63	327.8
383.01	346.33
383.39	325.54
383.77	338.2
384.15	339.33
384.53	339.33
384.91	340.68
385.29	340.46
385.67	335.03
386.049	338.42
386.429	323.28
386.809	342.72
387.189	344.75
387.568	356.95
387.948	365.32
388.328	373.22
388.707	365.54
389.087	348.82
389.466	382.94
389.846	370.29
390.225	364.19
390.605	372.55
390.984	356.05
391.363	365.54
391.743	360.12
392.122	369.16
392.501	387.91
392.881	376.16
393.26	380.68
393.639	361.25
394.018	363.96
394.397	376.84
394.776	376.39
395.155	376.84
395.534	372.77
395.913	365.77
396.292	380
396.671	394.47
397.05	391.76
397.429	401.02
397.808	383.85
398.186	397.86
398.565	395.82
398.944	396.73
399.323	395.14
399.701	409.38
400.08	398.31
400.458	417.52
400.837	418.65
401.215	411.42
401.594	414.58
401.972	415.26
402.351	419.33
402.729	411.87
403.107	423.62
403.486	420
403.864	419.78
404.242	423.62
404.62	434.24
404.999	441.92
405.377	429.95
405.755	439.89
406.133	470.17
406.511	444.41
406.889	448.02
407.267	458.87
407.645	455.03
408.023	465.43
408.401	453.9
408.779	459.78
409.156	490.06
409.534	504.29
409.912	488.25
410.29	500.9
410.667	505.88
411.045	518.31
411.422	510.85
411.8	520.79
412.178	530.73
412.555	514.69
412.933	543.39
413.31	538.64
413.687	560.34
414.065	556.04
414.442	589.94
414.819	559.89
415.197	589.26
415.574	601.92
415.951	588.59
416.328	603.5
416.705	618.19
417.082	623.84
417.46	605.76
417.837	619.32
418.214	621.35
418.591	640.34
418.967	648.7
419.344	669.94
419.721	663.39
420.098	660.22
420.475	683.5
420.852	686.21
421.228	690.96
421.605	697.51
421.982	701.35
422.358	732.99
422.735	731.86
423.111	753.33
423.488	744.51
423.864	728.7
424.241	788.81
424.617	808.69
424.994	784.06
425.37	804.85
425.746	815.25
426.123	823.61
426.499	835.36
426.875	867
427.251	854.12
427.627	865.19
428.003	881.69
428.379	878.75
428.756	881.23
429.132	916.26
429.507	910.16
429.883	916.94
430.259	918.97
430.635	915.58
431.011	938.63
431.387	971.18
431.763	992.64
432.138	987.45
432.514	1004.85
432.89	1004.62
433.265	1035.58
433.641	1037.39
434.016	1073.55
434.392	1075.35
434.767	1127.33
435.143	1118.29
435.518	1098.86
435.894	1137.5
436.269	1189.25
436.644	1166.2
437.02	1178.4
437.395	1218.17
437.77	1267.89
438.145	1238.29
438.52	1272.18
438.895	1272.64
439.271	1283.94
439.646	1307.66
440.021	1314.89
440.395	1307.89
440.77	1338.4
441.145	1336.59
441.52	1375.46
441.895	1386.08
442.27	1408.9
442.645	1403.25
443.019	1427.21
443.394	1437.15
443.769	1454.33
444.143	1431.95
444.518	1457.94
444.892	1478.28
445.267	1533.65
445.641	1485.96
446.016	1517.15
446.39	1525.06
446.764	1521.9
447.139	1525.96
447.513	1557.83
447.887	1553.98
448.262	1566.64
448.636	1603.47
449.01	1598.05
449.384	1593.53
449.758	1622.68
450.132	1634.89
450.506	1673.98
450.88	1659.74
451.254	1645.96
451.628	1686.86
452.002	1725.96
452.376	1727.54
452.75	1734.09
453.123	1712.4
453.497	1747.65
453.871	1753.08
454.244	1834.43
454.618	1820.42
454.992	1865.39
455.365	1804.83
455.739	1883.02
456.112	1874.65
456.486	1906.74
456.859	1917.59
457.232	1968.44
457.606	1909.68
457.979	1969.34
458.352	2008.66
458.725	2056.8
459.099	2050.92
459.472	2093.63
459.845	2075.1
460.218	2111.26
460.591	2177.25
460.964	2127.08
461.337	2148.09
461.71	2213.85
462.083	2232.16
462.456	2221.31
462.829	2272.38
463.201	2286.62
463.574	2291.14
463.947	2339.05
464.32	2391.48
464.692	2348.54
465.065	2408.65
465.438	2428.54
465.81	2462.89
466.183	2492.26
466.555	2532.26
466.928	2532.94
467.3	2548.31
467.672	2584.24
468.045	2625.59
468.417	2610.23
468.789	2636.22
469.161	2698.59
469.534	2728.64
469.906	2776.33
470.278	2774.29
470.65	2837.79
471.022	2857
471.394	2895.87
471.766	2971.8
472.138	2975.42
472.51	2984.68
472.882	3048.86
473.253	3113.49
473.625	3101.74
473.997	3155.07
474.369	3201.62
474.74	3242.08
475.112	3264.9
475.484	3307.84
475.855	3331.79
476.227	3389.19
476.598	3444.33
476.97	3498.11
477.341	3530.88
477.713	3590.32
478.084	3610.2
478.455	3690.43
478.827	3767.71
479.198	3809.74
479.569	3814.94
479.94	3884.77
480.311	3939.68
480.682	4030.3
481.053	4080.92
481.424	4136.52
481.795	4160.7
482.166	4239.79
482.537	4270.52
482.908	4366.57
483.279	4384.42
483.65	4426
484.021	4544.64
484.391	4568.37
484.762	4555.26
485.133	4604.07
485.503	4710.06
485.874	4810.62
486.244	4788.02
486.615	4911.86
486.985	4952.77
487.356	5002.03
487.726	4988.92
488.097	5139.65
488.467	5164.29
488.837	5183.27
489.207	5250.84
489.578	5401.57
489.948	5410.15
490.318	5440.44
490.688	5466.65
491.058	5541.22
491.428	5621
491.798	5607.89
492.168	5706.87
492.538	5737.15
492.908	5778.73
493.278	5858.5
493.648	5788.9
494.017	5906.19
494.387	5954.55
494.757	5926.75
495.126	6006.75
495.496	6060.53
495.866	6162.68
496.235	6161.32
496.605	6191.83
496.974	6156.58
497.344	6249.68
497.713	6311.15
498.082	6331.03
498.452	6391.37
498.821	6419.17
499.19	6364.48
499.559	6414.42
499.928	6523.35
500.298	6516.57
500.667	6528.54
501.036	6516.34
501.405	6616
501.774	6615.09
502.143	6652.38
502.512	6635.43
502.88	6744.58
503.249	6704.13
503.618	6712.72
503.987	6741.42
504.356	6792.04
504.724	6770.12
505.093	6831.13
505.462	6876.33
505.83	6874.75
506.199	6902.77
506.567	7003.78
506.936	6969.66
507.304	7029.77
507.672	6979.6
508.041	7034.97
508.409	7072.48
508.777	7118.13
509.145	7111.35
509.514	7178.47
509.882	7180.05
510.25	7198.81
510.618	7201.07
510.986	7224.8
511.354	7205.81
511.722	7244.91
512.09	7262.99
512.458	7289.43
512.826	7399.93
513.193	7315.64
513.561	7384.34
513.929	7387.96
514.297	7476.99
514.664	7522.87
515.032	7486.71
515.4	7502.53
515.767	7532.58
516.135	7482.87
516.502	7453.04
516.869	7585.46
517.237	7570.78
517.604	7499.59
517.972	7624.11
518.339	7643.77
518.706	7621.85
519.073	7611.9
519.44	7659.59
519.808	7691
520.175	7654.16
520.542	7711.34
520.909	7796.31
521.276	7660.94
521.643	7784.56
522.009	7816.87
522.376	7817.1
522.743	7811.9
523.11	7907.26
523.477	7910.43
523.843	7952.01
524.21	7944.78
524.577	7997.2
524.943	7966.25
525.31	8015.28
525.676	8040.82
526.043	8067.71
526.409	8079.91
526.776	8059.12
527.142	8050.76
527.508	8114.04
527.874	8144.32
528.241	8182.96
528.607	8210.53
528.973	8190.87
529.339	8249.63
529.705	8217.09
530.071	8209.18
530.437	8230.87
530.803	8230.42
531.169	8185
531.535	8265.67
531.901	8178.22
532.267	8295.73
532.632	8307.48
532.998	8302.73
533.364	8306.12
533.73	8253.47
534.095	8344.77
534.461	8311.1
534.826	8367.82
535.192	8224.54
535.557	8383.18
535.923	8319.46
536.288	8300.02
536.653	8312.22
537.019	8266.8
537.384	8284.2
537.749	8356.07
538.114	8318.55
538.479	8303.19
538.845	8291.43
539.21	8319.46
539.575	8274.94
539.94	8253.02
540.305	8300.7
540.67	8275.16
541.034	8206.92
541.399	8244.2
541.764	8277.88
542.129	8250.53
542.494	8262.28
542.858	8283.07
543.223	8188.61
543.587	8250.31
543.952	8197.2
544.316	8209.85
544.681	8200.82
545.045	8285.56
545.41	8246.46
545.774	8203.08
546.138	8152.23
546.503	8202.62
546.867	8200.36
547.231	8226.58
547.595	8196.97
547.959	8139.8
548.324	8118.33
548.688	8167.6
549.052	8154.26
549.416	8134.83
549.779	8162.85
550.143	8140.03
550.507	8160.14
550.871	8137.31
551.235	8152.46
551.599	8146.35
551.962	8099.12
552.326	8174.15
552.689	8140.48
553.053	8121.5
553.417	8066.13
553.78	8245.11
554.143	8114.94
554.507	8159.23
554.87	8177.31
555.234	8163.98
555.597	8102.96
555.96	8124.89
556.323	8149.97
556.686	8142.06
557.05	8119.46
557.413	8184.77
557.776	8142.29
558.139	8180.7
558.502	8159.69
558.865	8158.56
559.228	8201.04
559.59	8228.61
559.953	8248.95
560.316	8259.12
560.679	8246.46
561.041	8257.54
561.404	8271.77
561.767	8258.89
562.129	8274.26
562.492	8326.91
562.854	8280.81
563.217	8281.94
563.579	8331.21
563.941	8372.56
564.304	8437.19
564.666	8473.58
565.028	8404.2
565.39	8486.01
565.753	8463.63
566.115	8477.64
566.477	8495.27
566.839	8544.31
567.201	8570.52
567.563	8461.37
567.925	8641.48
568.287	8615.95
568.648	8612.78
569.01	8619.34
569.372	8673.57
569.734	8569.85
570.095	8712.89
570.457	8697.07
570.819	8726.23
571.18	8698.43
571.542	8770.07
571.903	8821.82
572.265	8823.4
572.626	8818.65
572.987	8801.93
573.349	8769.39
573.71	8867.46
574.071	8846.45
574.432	8860.01
574.794	8869.95
575.155	8880.8
575.516	8922.6
575.877	8964.19
576.238	8999.66
576.599	9022.94
576.96	9035.14
577.32	9094.13
577.681	9131.86
578.042	9143.62
578.403	9148.14
578.763	9127.8
579.124	9098.87
579.485	9173.22
579.845	9209.83
580.206	9155.59
580.566	9132.54
580.927	9232.2
581.287	9275.36
581.648	9266.55
582.008	9225.2
582.368	9308.36
582.728	9315.14
583.089	9407.11
583.449	9358.53
583.809	9278.53
584.169	9369.6
584.529	9348.36
584.889	9477.17
585.249	9402.14
585.609	9394
585.969	9483.95
586.329	9439.43
586.688	9450.95
587.048	9461.35
587.408	9466.09
587.768	9508.13
588.127	9497.28
588.487	9472.65
588.846	9598.07
589.206	9484.85
589.565	9508.13
589.925	9643.72
590.284	9599.65
590.643	9608.91
591.003	9620.67
591.362	9634.45
591.721	9606.43
592.08	9637.61
592.44	9647.78
592.799	9660.89
593.158	9673.77
593.517	9661.12
593.876	9710.83
594.235	9718.74
594.593	9731.62
594.952	9705.41
595.311	9744.28
595.67	9784.28
596.029	9801.9
596.387	9742.7
596.746	9752.41
597.104	9788.34
597.463	9767.1
597.822	9836.03
598.18	9766.88
598.538	9693.66
598.897	9886.65
599.255	9727.1
599.613	9887.32
599.972	9864.27
600.33	9880.09
600.688	9838.51
601.046	9843.26
601.404	9882.35
601.762	9896.36
602.12	9920.77
602.478	9961.22
602.836	9953.99
603.194	9913.54
603.552	9942.01
603.91	9867.44
604.268	9883.26
604.625	9916.25
604.983	9963.93
605.341	9828.8
605.698	10011.84
606.056	9997.15
606.413	9991.73
606.771	10048.9
607.128	9955.8
607.485	9903.6
607.843	9951.5
608.2	9940.66
608.557	9994.67
608.914	9978.62
609.272	10025.85
609.629	10066.98
609.986	10033.31
610.343	10006.19
610.7	10081.22
611.057	10024.95
611.414	10030.15
611.771	10133.65
612.127	10134.32
612.484	10149.24
612.841	10200.54
613.198	10129.13
613.554	10039.64
613.911	10083.48
614.267	10074.44
614.624	10101.78
614.98	10146.3
615.337	10180.88
615.693	10107.88
616.05	10206.41
616.406	10256.58
616.762	10225.17
617.118	10204.15
617.475	10151.05
617.831	10248.22
618.187	10190.14
618.543	10241.21
618.899	10234.43
619.255	10261.33
619.611	10208.45
619.967	10240.99
620.323	10304.49
620.678	10292.06
621.034	10280.99
621.39	10256.58
621.746	10275.34
622.101	10340.42
622.457	10247.09
622.812	10229.69
623.168	10305.39
623.523	10353.75
623.879	10275.79
624.234	10229.46
624.589	10280.53
624.945	10304.26
625.3	10243.93
625.655	10293.87
626.01	10251.38
626.365	10331.61
626.72	10259.29
627.075	10289.57
627.43	10215.9
627.785	10228.56
628.14	10313.53
628.495	10333.64
628.85	10165.74
629.205	10199.86
629.559	10262.23
629.914	10187.88
630.269	10191.27
630.623	10195.34
630.978	10220.42
631.332	10230.59
631.687	10222.91
632.041	10167.32
632.396	10214.77
632.75	10137.94
633.104	10204.83
633.459	10126.87
633.813	10095.91
634.167	10082.35
634.521	10036.47
634.875	10087.09
635.229	10085.51
635.583	10016.36
635.937	10054.78
636.291	9998.06
636.645	9972.97
636.999	10012.52
637.352	10010.03
637.706	9959.87
638.06	9975.23
638.413	9970.71
638.767	9955.8
639.121	9972.07
639.474	9894.78
639.828	9918.06
640.181	9923.26
640.534	9911.05
640.888	9866.76
641.241	9779.76
641.594	9765.97
641.947	9880.77
642.301	9786.31
642.654	9764.84
643.007	9755.58
643.36	9799.19
643.713	9790.6
644.066	9805.97
644.419	9779.98
644.771	9706.09
645.124	9665.86
645.477	9629.93
645.83	9541.57
646.182	9515.58
646.535	9511.97
646.888	9513.78
647.24	9455.47
647.593	9496.83
647.945	9516.49
648.298	9453.66
648.65	9376.6
649.002	9404.17
649.355	9490.73
649.707	9420.67
650.059	9488.69
650.411	9605.3
650.763	9619.99
651.115	9693.43
651.467	9641.68
651.819	9643.26
652.171	9712.41
652.523	9676.48
652.875	9629.03
653.227	9575.69
653.578	9630.38
653.93	9694.34
654.282	9654.34
654.633	9609.37
654.985	9636.26
655.337	9599.42
655.688	9662.92
656.039	9666.99
656.391	9608.24
656.742	9613.43
657.094	9541.8
657.445	9669.48
657.796	9643.49
658.147	9602.59
658.498	9582.47
658.849	9682.81
659.2	9585.86
659.551	9577.73
659.902	9636.26
660.253	9622.25
660.604	9537.96
660.955	9545.19
661.306	9643.49
661.656	9673.55
662.007	9590.16
662.358	9604.39
662.708	9659.99
663.059	9685.3
663.409	9561.46
663.76	9682.36
664.11	9686.65
664.461	9669.03
664.811	9671.51
665.161	9636.03
665.511	9603.04
665.862	9588.58
666.212	9617.05
666.562	9682.81
666.912	9672.87
667.262	9634.22
667.612	9634.45
667.962	9636.94
668.312	9643.49
668.662	9562.81
669.011	9575.24
669.361	9617.28
669.711	9563.72
670.06	9590.38
670.41	9556.26
670.76	9568.24
671.109	9584.28
671.459	9614.79
671.808	9581.12
672.157	9523.27
672.507	9562.14
672.856	9519.2
673.205	9475.36
673.554	9576.82
673.904	9558.07
674.253	9516.71
674.602	9577.73
674.951	9399.43
675.3	9372.31
675.649	9473.78
675.998	9490.95
676.346	9445.75
676.695	9475.58
677.044	9422.48
677.393	9476.26
677.741	9464.74
678.09	9449.14
678.438	9455.02
678.787	9376.15
679.135	9353.55
679.484	9336.38
679.832	9354.68
680.181	9306.1
680.529	9362.37
680.877	9262.03
681.225	9260.9
681.573	9338.41
681.922	9269.49
682.27	9226.33
682.618	9247.57
682.966	9221.13
683.314	9179.77
683.661	9151.07
684.009	9172.32
684.357	9135.03
684.705	9112.66
685.053	9092.77
685.4	9144.97
685.748	9119.21
686.095	8975.48
686.443	9057.29
686.79	8960.8
687.138	9017.74
687.485	8942.26
687.832	8962.83
688.18	8957.18
688.527	8919.89
688.874	8894.13
689.221	8848.93
689.568	8813
689.915	8790.4
690.262	8801.03
690.609	8755.83
690.956	8663.18
691.303	8747.47
691.65	8632.89
691.997	8655.94
692.344	8652.33
692.69	8633.35
693.037	8692.1
693.383	8522.84
693.73	8575.27
694.077	8462.5
694.423	8456.85
694.769	8485.78
695.116	8432.45
695.462	8474.03
695.808	8405.56
696.155	8370.98
696.501	8341.38
696.847	8288.72
697.193	8236.29
697.539	8296.86
697.885	8232.45
698.231	8200.59
698.577	8162.62
698.923	8156.75
699.269	8154.71
699.614	8063.42
699.96	8102.06
700.306	8049.86
700.651	7974.83
700.997	7964.66
701.342	7918.56
701.688	7921.95
702.033	7930.54
702.379	7852.8
702.724	7860.71
703.069	7853.71
703.415	7762.63
703.76	7754.27
704.105	7698
704.45	7745.46
704.795	7685.57
705.14	7651.45
705.485	7679.47
705.83	7603.32
706.175	7622.3
706.52	7576.88
706.865	7561.06
707.209	7605.8
707.554	7498.91
707.899	7535.97
708.243	7455.07
708.588	7394.06
708.932	7396.54
709.277	7428.41
709.621	7447.16
709.966	7379.82
710.31	7352.25
710.654	7305.92
710.998	7353.61
711.342	7315.64
711.687	7306.15
712.031	7243.1
712.375	7277.9
712.719	7164.46
713.063	7167.17
713.407	7194.74
713.75	7152.93
714.094	7162.65
714.438	7134.4
714.782	7133.95
715.125	7066.61
715.469	7097.79
715.812	7146.15
716.156	7044.69
716.499	7054.4
716.843	7054.63
717.186	7019.6
717.53	7028.87
717.873	7034.07
718.216	7033.61
718.559	7039.26
718.902	6958.36
719.246	6939.61
719.589	6907.97
719.932	6976.21
720.275	6871.81
720.617	6924.01
720.96	6922.66
721.303	6865.48
721.646	6939.38
721.989	6861.87
722.331	6860.74
722.674	6932.83
723.016	6881.08
723.359	6883.79
723.701	6841.98
724.044	6805.15
724.386	6775.54
724.729	6838.82
725.071	6808.08
725.413	6804.02
725.755	6813.73
726.097	6747.29
726.439	6724.92
726.782	6758.14
727.124	6755.66
727.465	6752.04
727.807	6768.54
728.149	6737.13
728.491	6737.13
728.833	6726.05
729.175	6778.93
729.516	6655.32
729.858	6741.64
730.199	6720.4
730.541	6673.4
730.882	6675.43
731.224	6744.58
731.565	6679.05
731.906	6759.27
732.248	6689.89
732.589	6610.12
732.93	6656
733.271	6645.38
733.612	6731.7
733.953	6659.61
734.294	6660.52
734.635	6665.71
734.976	6753.17
735.317	6652.83
735.658	6643.34
735.999	6696.67
736.339	6641.08
736.68	6677.47
737.021	6641.53
737.361	6667.52
737.702	6710.91
738.042	6732.38
738.383	6702.32
738.723	6700.06
739.063	6690.12
739.404	6679.73
739.744	6687.63
740.084	6705.49
740.424	6762.89
740.764	6755.2
741.104	6787.97
741.444	6772.6
741.784	6763.34
742.124	6745.49
742.464	6781.64
742.804	6795.65
743.143	6796.78
743.483	6789.78
743.823	6809.21
744.162	6789.1
744.502	6781.64
744.841	6839.72
745.181	6880.17
745.52	6898.25
745.86	6978.25
746.199	6957.91
746.538	6987.97
746.877	7026.61
747.216	7049.43
747.556	7059.15
747.895	7085.82
748.234	7115.42
748.573	7132.14
748.911	7229.32
749.25	7318.13
749.589	7279.71
749.928	7357
750.267	7388.86
750.605	7393.38
750.944	7500.72
751.283	7484
751.621	7628.63
751.96	7707.72
752.298	7739.13
752.636	7881.5
752.975	7883.08
753.313	7897.77
753.651	8049.86
753.989	8064.55
754.327	8170.99
754.666	8263.41
755.004	8324.43
755.342	8398.32
755.679	8519
756.017	8542.28
756.355	8766
756.693	8843.74
757.031	8925.09
757.368	9042.6
757.706	9134.35
758.044	9234.69
758.381	9260.22
758.719	9432.2
759.056	9557.84
759.394	9627.22
759.731	9730.04
760.068	9829.93
760.405	9994.67
760.743	10150.14
761.08	10192.85
761.417	10352.85
761.754	10473.52
762.091	10564.37
762.428	10705.61
762.765	10768.88
763.102	10953.51
763.438	11036.9
763.775	11173.17
764.112	11324.12
764.449	11470.33
764.785	11588.3
765.122	11640.72
765.458	11802.08
765.795	11896.76
766.131	11927.72
766.467	12107.61
766.804	12268.05
767.14	12212.46
767.476	12411.78
767.812	12387.82
768.148	12493.36
768.485	12609.29
768.821	12659.23
769.157	12798.89
769.492	12840.24
769.828	13009.05
770.164	12950.3
770.5	13139.44
770.836	13181.02
771.171	13203.4
771.507	13300.79
771.842	13331.53
772.178	13493.11
772.513	13475.48
772.849	13576.49
773.184	13604.29
773.519	13738.3
773.855	13652.88
774.19	13782.82
774.525	13724.74
774.86	13856.71
775.195	13888.8
775.53	13884.06
775.865	13884.73
776.2	13887.67
776.535	13918.18
776.87	13965.18
777.205	13971.51
777.539	14071.85
777.874	14017.61
778.209	14053.54
778.543	14045.18
778.878	13943.04
779.212	14039.76
779.547	14039.31
779.881	14200.43
780.215	14044.73
780.55	14167.21
780.884	14182.81
781.218	14040.66
781.552	14177.61
781.886	14158.62
782.22	14094.9
782.554	14103.71
782.888	14011.96
783.222	14042.92
783.556	14043.15
783.889	14010.15
784.223	13979.19
784.557	13967.67
784.89	13988.69
785.224	13935.81
785.557	13876.82
785.891	13939.87
786.224	13934.9
786.558	13911.63
786.891	13878.86
787.224	13771.97
787.557	13835.02
787.891	13807
788.224	13811.97
788.557	13857.16
788.89	13761.8
789.223	13772.42
789.556	13749.14
789.888	13713.21
790.221	13654.91
790.554	13643.84
790.887	13665.53
791.219	13588.24
791.552	13617.17
791.884	13560.67
792.217	13587.11
792.549	13474.8
792.882	13454.46
793.214	13389.83
793.546	13459.43
793.879	13427.34
794.211	13383.05
794.543	13361.58
794.875	13347.57
795.207	13403.84
795.539	13289.72
795.871	13281.36
796.203	13132.66
796.535	13184.87
796.867	13155.26
797.198	13082.72
797.53	13082.04
797.862	12999.33
798.193	13046.56
798.525	12971.09
798.856	13014.7
799.188	12946
799.519	12757.31
799.85	12803.18
800.182	12767.93
800.513	12818.32
800.844	12729.96
801.175	12732.67
801.506	12808.6
801.837	12746.01
802.168	12727.93
802.499	12573.58
802.83	12609.29
803.161	12534.94
803.491	12527.03
803.822	12571.77
804.153	12483.19
804.483	12387.6
804.814	12424.66
805.145	12434.83
805.475	12361.16
805.805	12343.76
806.136	12367.03
806.466	12374.94
806.796	12222.86
807.126	12162.75
807.457	12161.39
807.787	12242.29
808.117	12125.68
808.447	12070.09
808.777	12096.98
809.107	12041.39
809.436	12046.82
809.766	12038.45
810.096	11979.47
810.426	11923.2
810.755	12029.87
811.085	11894.28
811.414	11860.61
811.744	11912.58
812.073	11828.06
812.403	11813.38
812.732	11765.69
813.061	11818.8
813.39	11749.2
813.719	11683.89
814.049	11795.98
814.378	11722.53
814.707	11626.04
815.036	11699.03
815.365	11567.96
815.693	11525.93
816.022	11522.54
816.351	11437.11
816.68	11435.31
817.008	11524.34
817.337	11362.77
817.665	11343.56
817.994	11349.66
818.322	11340.85
818.651	11279.83
818.979	11313.28
819.307	11323.22
819.636	11261.75
819.964	11301.75
820.292	11307.85
820.62	11273.73
820.948	11221.75
821.276	11313.73
821.604	11152.6
821.932	11247.97
822.259	11243.22
822.587	11194.18
822.915	11245.03
823.243	11250.9
823.57	11159.16
823.898	11165.94
824.225	11092.49
824.553	11155.99
824.88	11214.07
825.207	11236.89
825.535	11202.54
825.862	11279.6
826.189	11171.81
826.516	11191.02
826.843	11251.13
827.17	11280.28
827.497	11244.8
827.824	11271.24
828.151	11296.33
828.478	11266.5
828.805	11290.45
829.131	11243.9
829.458	11257.91
829.785	11194.18
830.111	11207.97
830.438	11260.17
830.764	11251.81
831.09	11216.33
831.417	11177.23
831.743	11171.13
832.069	11211.58
832.395	11175.88
832.722	11201.41
833.048	11184.24
833.374	11246.16
833.7	11066.95
834.026	11215.88
834.351	11167.52
834.677	11151.7
835.003	11112.6
835.329	11158.25
835.654	11076.67
835.98	11069.67
836.306	11114.19
836.631	11021.08
836.956	11061.31
837.282	11075.54
837.607	11018.82
837.932	11025.37
838.258	10986.96
838.583	10974.3
838.908	11009.56
839.233	10922.33
839.558	10905.83
839.883	10921.2
840.208	10809.33
840.533	10849.11
840.858	10795.32
841.182	10851.59
841.507	10768.88
841.832	10857.24
842.156	10813.85
842.481	10756
842.805	10771.14
843.13	10695.21
843.454	10676.46
843.778	10638.72
844.103	10682.78
844.427	10581.09
844.751	10583.13
845.075	10563.01
845.399	10542.45
845.723	10430.14
846.047	10535.22
846.371	10382.9
846.695	10422.45
847.019	10343.81
847.343	10286.18
847.666	10276.92
847.99	10166.64
848.313	10156.24
848.637	10081.67
848.96	10153.76
849.284	10066.3
849.607	9931.17
849.931	10037.83
850.254	9972.75
850.577	9902.01
850.9	9825.63
851.223	9815.46
851.546	9789.93
851.869	9686.88
852.192	9782.69
852.515	9700.21
852.838	9681.68
853.161	9614.34
853.483	9512.42
853.806	9549.03
854.129	9485.98
854.451	9500.67
854.774	9414.34
855.096	9449.14
855.419	9389.71
855.741	9436.94
856.063	9285.76
856.385	9308.13
856.708	9272.88
857.03	9217.06
857.352	9288.24
857.674	9258.64
857.996	9150.62
858.318	9129.15
858.64	9089.38
858.961	9081.24
859.283	9043.96
859.605	9007.35
859.926	9014.13
860.248	9013.68
860.57	8977.52
860.891	8974.81
861.212	8964.64
861.534	8925.32
861.855	8891.87
862.176	8847.35
862.498	8912.44
862.819	8901.81
863.14	8876.73
863.461	8866.33
863.782	8824.53
864.103	8813.23
864.424	8764.42
864.745	8798.99
865.065	8721.48
865.386	8715.15
865.707	8752.44
866.027	8732.55
866.348	8722.61
866.668	8704.98
866.989	8704.53
867.309	8699.79
867.63	8565.55
867.95	8627.47
868.27	8604.19
868.59	8583.86
868.91	8596.51
869.23	8576.17
869.55	8503.41
869.87	8577.3
870.19	8526.68
870.51	8516.29
870.83	8551.09
871.15	8440.13
871.469	8448.72
871.789	8456.4
872.109	8424.99
872.428	8343.64
872.748	8424.99
873.067	8450.53
873.386	8349.74
873.706	8453.01
874.025	8411.43
874.344	8333.47
874.663	8343.86
874.982	8313.13
875.301	8243.07
875.62	8281.94
875.939	8217.31
876.258	8288.5
876.577	8255.05
876.896	8281.94
877.214	8253.47
877.533	8228.16
877.852	8262.28
878.17	8171.66
878.489	8199.23
878.807	8191.55
879.125	8150.42
879.444	8164.43
879.762	8105.22
880.08	8135.05
880.398	8065.45
880.716	8114.49
881.034	8130.99
881.352	8056.19
881.67	8061.38
881.988	8058.22
882.306	8034.49
882.624	8057.09
882.941	7892.12
883.259	7941.61
883.577	7960.6
883.894	7903.42
884.212	7887.83
884.529	7806.02
884.846	7881.05
885.164	7854.16
885.481	7843.76
885.798	7819.58
886.115	7756.53
886.432	7752.92
886.75	7775.06
887.067	7708.62
887.383	7684.22
887.7	7670.89
888.017	7667.95
888.334	7695.74
888.651	7655.52
888.967	7625.92
889.284	7615.97
889.6	7512.7
889.917	7498.24
890.233	7505.92
890.55	7407.84
890.866	7540.04
891.182	7452.36
891.498	7377.33
891.815	7383.89
892.131	7410.1
892.447	7342.31
892.763	7335.75
893.079	7323.1
893.395	7254.85
893.71	7294.85
894.026	7292.36
894.342	7215.98
894.657	7180.05
894.973	7177.11
895.289	7200.84
895.604	7115.65
895.92	7130.56
896.235	6982.99
896.55	7063.22
896.865	7016.89
897.181	7066.16
897.496	7022.99
897.811	6926.05
898.126	6975.76
898.441	6881.75
898.756	6901.64
899.071	6833.39
899.386	6924.24
899.7	6784.13
900.015	6784.13
900.33	6728.09
900.644	6751.14
900.959	6749.1
901.273	6660.06
901.588	6693.51
901.902	6710.69
902.216	6618.71
902.531	6657.58
902.845	6546.62
903.159	6561.08
903.473	6493.29
903.787	6488.54
904.101	6500.97
904.415	6435.89
904.729	6468.43
905.042	6420.07
905.356	6403.57
905.67	6365.38
905.984	6343.69
906.297	6330.58
906.611	6299.85
906.924	6311.6
907.237	6322.9
907.551	6226.18
907.864	6203.35
908.177	6188.89
908.491	6188.44
908.804	6145.28
909.117	6112.96
909.43	6099.4
909.743	6084.26
910.056	6073.64
910.368	6033.41
910.681	6023.02
910.994	5990.7
911.307	5884.04
911.619	5906.41
911.932	5890.37
912.244	5886.07
912.557	5861.44
912.869	5799.07
913.181	5813.31
913.494	5821.22
913.806	5776.47
914.118	5761.11
914.43	5690.6
914.742	5694.44
915.054	5721.11
915.366	5662.8
915.678	5641.11
915.99	5586.65
916.302	5565.86
916.613	5521.56
916.925	5574.44
917.236	5500.32
917.548	5511.39
917.859	5473.43
918.171	5445.41
918.482	5375.13
918.794	5373.32
919.105	5371.74
919.416	5381.68
919.727	5348.46
920.038	5302.81
920.349	5304.62
920.66	5241.35
920.971	5249.71
921.282	5252.64
921.593	5152.53
921.903	5213.1
922.214	5137.62
922.525	5108.02
922.835	5114.12
923.146	5094.23
923.456	5078.41
923.767	5068.69
924.077	5023.5
924.387	5055.81
924.697	5030.5
925.008	4984.4
925.318	4945.53
925.628	4976.27
925.938	4927.23
926.248	4886.33
926.558	4905.99
926.867	4848.36
927.177	4863.73
927.487	4866.21
927.796	4761.58
928.106	4749.15
928.416	4793.67
928.725	4794.35
929.034	4740.34
929.344	4705.54
929.653	4719.33
929.962	4637.52
930.271	4643.62
930.581	4653.11
930.89	4598.42
931.199	4566.11
931.508	4616.95
931.817	4591.64
932.125	4555.26
932.434	4553.45
932.743	4491.31
933.051	4480.24
933.36	4496.73
933.669	4450.18
933.977	4448.15
934.286	4398.88
934.594	4436.85
934.902	4354.81
935.21	4400.92
935.519	4354.81
935.827	4341.71
936.135	4305.78
936.443	4308.49
936.751	4276.62
937.059	4283.63
937.367	4270.75
937.674	4199.34
937.982	4248.15
938.29	4191.88
938.597	4158.89
938.905	4135.84
939.213	4141.04
939.52	4023.75
939.827	4115.95
940.135	4101.26
940.442	4097.42
940.749	4018.78
941.056	4068.27
941.363	4009.06
941.67	3977.88
941.977	4009.97
942.284	3921.83
942.591	3948.72
942.898	3910.08
943.205	3889.74
943.511	3888.16
943.818	3858.33
944.125	3830.08
944.431	3883.19
944.738	3846.81
945.044	3819.24
945.35	3798.9
945.657	3781.72
945.963	3787.6
946.269	3712.8
946.575	3725.45
946.881	3706.47
947.187	3726.81
947.493	3693.82
947.799	3690.2
948.105	3642.97
948.41	3652.01
948.716	3645.45
949.022	3607.94
949.327	3627.15
949.633	3582.63
949.938	3585.34
950.244	3544.67
950.549	3541.28
950.854	3481.84
951.16	3538.34
951.465	3495.18
951.77	3481.84
952.075	3400.72
952.38	3451.56
952.685	3495.4
952.99	3428.74
953.294	3384.44
953.599	3397.55
953.904	3382.86
954.209	3385.57
954.513	3333.6
954.818	3344.67
955.122	3330.66
955.426	3311
955.731	3293.6
956.035	3267.16
956.339	3247.73
956.643	3262.64
956.948	3245.69
957.252	3258.8
957.556	3202.98
957.86	3215.18
958.163	3203.43
958.467	3198.01
958.771	3120.5
959.075	3175.18
959.378	3103.55
959.682	3105.81
959.985	3131.34
960.289	3083.89
960.592	3125.92
960.896	3120.5
961.199	3066.26
961.502	3073.04
961.805	3032.82
962.108	3054.28
962.411	3018.13
962.714	3011.57
963.017	3010.9
963.32	2994.85
963.623	2959.15
963.926	2958.69
964.228	2944
964.531	2930.22
964.833	2927.96
965.136	2889.32
965.438	2866.94
965.741	2875.98
966.043	2852.26
966.345	2834.4
966.648	2850.9
966.95	2838.47
967.252	2796.89
967.554	2797.12
967.856	2805.25
968.158	2740.62
968.46	2728.87
968.761	2740.85
969.063	2742.65
969.365	2746.04
969.666	2743.33
969.968	2714.63
970.269	2644.35
970.571	2678.93
970.872	2666.72
971.174	2664.69
971.475	2682.77
971.776	2665.59
972.077	2620.85
972.378	2612.26
972.679	2614.52
972.98	2586.5
973.281	2601.64
973.582	2568.65
973.883	2591.92
974.183	2534.07
974.484	2553.28
974.785	2507.18
975.085	2510.12
975.386	2526.61
975.686	2537.01
975.986	2477.58
976.287	2473.73
976.587	2491.59
976.887	2420.18
977.187	2439.84
977.487	2412.95
977.787	2421.53
978.087	2419.5
978.387	2398.26
978.687	2353.74
978.987	2388.54
979.286	2363.68
979.586	2341.99
979.885	2332.72
980.185	2367.97
980.484	2314.42
980.784	2303.8
981.083	2325.26
981.382	2305.15
981.682	2307.64
981.981	2315.77
982.28	2267.86
982.579	2290.01
982.878	2264.7
983.177	2222.89
983.475	2210.01
983.774	2219.5
984.073	2226.74
984.372	2175.66
984.67	2192.84
984.969	2171.37
985.267	2168.88
985.566	2178.6
985.864	2162.78
986.162	2168.43
986.461	2114.42
986.759	2131.14
987.057	2091.6
987.355	2081.65
987.653	2109.45
987.951	2112.16
988.249	2104.48
988.547	2069
988.844	2083.69
989.142	2067.64
989.44	2035.1
989.737	2029
990.035	2041.88
990.332	2014.76
990.63	1999.17
990.927	1979.96
991.224	2013.41
991.521	1978.83
991.819	1987.65
992.116	1971.6
992.413	1958.72
992.71	1945.16
993.006	1970.02
993.303	1932.96
993.6	1946.06
993.897	1901.55
994.193	1911.26
994.49	1918.27
994.787	1910.59
995.083	1891.6
995.379	1882.34
995.676	1842.79
995.972	1892.28
996.268	1868.33
996.565	1842.11
996.861	1824.03
997.157	1824.49
997.453	1809.57
997.749	1794.2
998.044	1817.25
998.34	1802.79
998.636	1779.52
998.932	1779.52
999.227	1750.36
999.523	1724.83
999.818	1726.41
1000.114	1723.25
1000.409	1718.5
1000.704	1692.51
1001	1707.2
1001.295	1683.02
1001.59	1686.86
1001.885	1689.12
1002.18	1671.27
1002.475	1685.05
1002.77	1673.98
1003.065	1631.72
1003.359	1626.53
1003.654	1625.17
1003.949	1598.05
1004.243	1619.75
1004.538	1596.7
1004.832	1625.62
1005.127	1607.32
1005.421	1571.61
1005.715	1537.49
1006.009	1562.35
1006.304	1570.71
1006.598	1540.2
1006.892	1530.26
1007.186	1509.01
1007.48	1538.62
1007.773	1487.09
1008.067	1505.62
1008.361	1496.36
1008.655	1491.84
1008.948	1433.99
1009.242	1452.29
1009.535	1469.92
1009.829	1430.6
1010.122	1414.55
1010.415	1414.33
1010.708	1409.13
1011.001	1437.6
1011.295	1392.86
1011.588	1389.92
1011.881	1411.62
1012.173	1389.24
1012.466	1393.54
1012.759	1375.23
1013.052	1375.68
1013.344	1363.03
1013.637	1374.1
1013.93	1355.12
1014.222	1324.39
1014.514	1326.65
1014.807	1321.22
1015.099	1330.26
1015.391	1328.45
1015.683	1301.79
1015.976	1305.86
1016.268	1299.98
1016.56	1283.26
1016.851	1233.77
1017.143	1251.62
1017.435	1255.01
1017.727	1269.7
1018.018	1258.85
1018.31	1209.59
1018.602	1252.3
1018.893	1223.37
1019.185	1197.84
1019.476	1180.89
1019.767	1207.33
1020.058	1179.76
1020.35	1206.42
1020.641	1181.11
1020.932	1152.41
1021.223	1168.68
1021.514	1152.41
1021.804	1130.72
1022.095	1134.33
1022.386	1112.64
1022.677	1115.8
1022.967	1132.07
1023.258	1114.22
1023.548	1088.69
1023.839	1084.84
1024.129	1116.93
1024.419	1077.39
1024.709	1072.64
1025	1081.68
1025.29	1059.53
1025.58	1064.73
1025.87	1039.42
1026.16	1058.18
1026.449	1060.21
1026.739	1042.36
1027.029	1047.11
1027.319	1018.86
1027.608	1024.73
1027.898	1008.91
1028.187	1018.63
1028.477	1013.66
1028.766	997.39
1029.055	987.45
1029.344	979.76
1029.634	979.08
1029.923	981.12
1030.212	946.09
1030.501	936.83
1030.79	932.31
1031.078	946.32
1031.367	927.33
1031.656	946.99
1031.945	909.93
1032.233	920.78
1032.522	908.8
1032.81	906.54
1033.099	909.93
1033.387	907.67
1033.675	912.19
1033.963	898.41
1034.251	908.13
1034.54	876.94
1034.828	885.98
1035.116	874.68
1035.403	881.23
1035.691	871.29
1035.979	839.88
1036.267	840.11
1036.554	824.96
1036.842	843.04
1037.129	823.83
1037.417	831.29
1037.704	825.19
1037.992	816.83
1038.279	810.05
1038.566	812.76
1038.853	812.76
1039.14	812.76
