Data from hue_190_FLMS001491_00019.txt Node
Date: Tue Feb 07 16:44:55 GMT 2017
User: dcchb
Spectrometer: FLMS00149
Trigger mode: 0
Integration Time (sec): 2.000000E-2
Scans to average: 10
Electric dark correction enabled: true
Nonlinearity correction enabled: false
Boxcar width: 0
XAxis mode: Wavelengths
Number of Pixels in Spectrum: 2048
>>>>>Begin Spectral Data<<<<<
341.393	-25.18
341.776	-25.18
342.16	-25.18
342.543	-55.24
342.927	-74.9
343.31	-61.34
343.693	-71.06
344.077	-55.01
344.46	-69.7
344.843	-55.24
345.226	-62.24
345.61	-33.32
345.993	-27.44
346.376	-3.04
346.759	-13.43
347.142	34.48
347.525	37.41
347.908	67.02
348.291	87.13
348.674	94.14
349.057	131.65
349.44	122.38
349.823	138.65
350.206	154.93
350.588	181.14
350.971	211.2
351.354	241.48
351.737	242.38
352.119	249.84
352.502	245.32
352.884	270.4
353.267	282.83
353.65	288.26
354.032	299.78
354.414	307.92
354.797	315.37
355.179	320.8
355.562	312.21
355.944	336.84
356.326	336.16
356.709	330.97
357.091	343.17
357.473	342.94
357.855	327.58
358.238	329.61
358.62	327.8
359.002	338.88
359.384	335.03
359.766	301.59
360.148	344.52
360.53	320.57
360.912	328.71
361.294	314.92
361.676	321.7
362.057	336.16
362.439	316.73
362.821	318.31
363.203	330.29
363.584	314.7
363.966	313.34
364.348	332.77
364.729	328.93
365.111	317.86
365.493	323.51
365.874	324.86
366.256	307.46
366.637	296.39
367.019	314.7
367.4	324.86
367.781	298.65
368.163	307.69
368.544	311.08
368.925	300.01
369.306	306.79
369.688	320.12
370.069	311.53
370.45	307.01
370.831	318.99
371.212	316.5
371.593	304.98
371.974	314.7
372.355	336.16
372.736	306.56
373.117	306.11
373.498	318.99
373.879	316.95
374.26	309.5
374.641	314.02
375.021	325.32
375.402	321.02
375.783	333.23
376.163	334.81
376.544	331.42
376.925	311.98
377.305	336.16
377.686	335.26
378.066	338.42
378.447	332.77
378.827	310.18
379.208	320.12
379.588	324.41
379.968	339.55
380.349	327.8
380.729	329.61
381.109	333.68
381.489	347.01
381.87	326.67
382.25	351.53
382.63	333.68
383.01	333
383.39	334.13
383.77	339.1
384.15	333.23
384.53	342.49
384.91	333.45
385.29	336.62
385.67	327.12
386.049	351.3
386.429	355.37
386.809	362.15
387.189	356.73
387.568	353.11
387.948	334.58
388.328	371.42
388.707	348.37
389.087	358.99
389.466	360.12
389.846	350.4
390.225	368.93
390.605	377.97
390.984	370.29
391.363	363.28
391.743	379.78
392.122	367.35
392.501	401.02
392.881	373.45
393.26	384.3
393.639	362.6
394.018	363.73
394.397	391.98
394.776	370.74
395.155	367.12
395.534	373.68
395.913	386.33
396.292	374.13
396.671	388.37
397.05	401.47
397.429	365.99
397.808	397.63
398.186	403.28
398.565	398.08
398.944	403.73
399.323	407.57
399.701	395.14
400.08	414.35
400.458	420
400.837	421.36
401.215	401.7
401.594	419.55
401.972	420.68
402.351	424.52
402.729	409.38
403.107	427.46
403.486	420
403.864	427.23
404.242	443.51
404.62	446.22
404.999	439.44
405.377	450.74
405.755	453.67
406.133	458.42
406.511	469.04
406.889	467.69
407.267	475.59
407.645	495.03
408.023	472.88
408.401	471.98
408.779	480.11
409.156	522.83
409.534	508.36
409.912	520.57
410.29	497.74
410.667	523.96
411.045	521.24
411.422	538.64
411.8	529.15
412.178	557.4
412.555	558.3
412.933	570.73
413.31	591.52
413.687	576.16
414.065	610.28
414.442	606.89
414.819	606.66
415.197	628.59
415.574	626.33
415.951	656.38
416.328	650.05
416.705	648.92
417.082	652.99
417.46	673.1
417.837	686.66
418.214	682.6
418.591	646.89
418.967	675.82
419.344	729.6
419.721	738.64
420.098	711.52
420.475	727.11
420.852	754.46
421.228	762.82
421.605	766.21
421.982	800.56
422.358	786.1
422.735	818.86
423.111	812.76
423.488	838.07
423.864	865.87
424.241	849.6
424.617	874.68
424.994	884.4
425.37	905.41
425.746	911.06
426.123	918.97
426.499	932.53
426.875	921.01
427.251	953.55
427.627	953.1
428.003	968.92
428.379	982.02
428.756	1013.43
429.132	1033.09
429.507	1016.15
429.883	1044.17
430.259	1049.37
430.635	1059.99
431.011	1069.48
431.387	1098.18
431.763	1109.48
432.138	1118.52
432.514	1132.75
432.89	1156.48
433.265	1211.62
433.641	1204.16
434.016	1244.84
434.392	1233.09
434.767	1282.58
435.143	1267.21
435.518	1323.03
435.894	1331.17
436.269	1340.43
436.644	1378.4
437.02	1396.7
437.395	1391.5
437.77	1462.69
438.145	1449.81
438.52	1475.12
438.895	1490.48
439.271	1529.35
439.646	1564.15
440.021	1611.84
440.395	1586.98
440.77	1581.1
441.145	1650.93
441.52	1664.49
441.895	1677.15
442.27	1719.86
442.645	1685.96
443.019	1691.38
443.394	1715.34
443.769	1738.61
444.143	1760.98
444.518	1804.6
444.892	1808.44
445.267	1830.81
445.641	1834.43
446.016	1850.02
446.39	1882.11
446.764	1886.86
447.139	1929.12
447.513	1923.92
447.887	1909.46
448.262	1938.61
448.636	1922.34
449.01	2006.4
449.384	2001.43
449.758	2015.89
450.132	2034.42
450.506	2029.9
450.88	2080.52
451.254	2102.67
451.628	2087.08
452.002	2120.3
452.376	2146.74
452.75	2183.12
453.123	2157.81
453.497	2212.05
453.871	2227.64
454.244	2275.55
454.618	2306.06
454.992	2314.42
455.365	2342.44
455.739	2392.38
456.112	2405.26
456.486	2441.42
456.859	2458.82
457.232	2530.68
457.606	2462.66
457.979	2521.42
458.352	2558.48
458.725	2586.5
459.099	2638.93
459.472	2648.87
459.845	2690.23
460.218	2709.43
460.591	2745.82
460.964	2756.66
461.337	2828.3
461.71	2898.13
462.083	2932.93
462.456	2953.27
462.829	2954.85
463.201	3019.93
463.574	3014.51
463.947	3080.05
464.32	3121.63
464.692	3133.38
465.065	3212.02
465.438	3207.27
465.81	3283.43
466.183	3327.5
466.555	3356.88
466.928	3409.08
467.3	3421.28
467.672	3478.68
468.045	3604.55
468.417	3603.87
468.789	3629.86
469.161	3659.47
469.534	3726.36
469.906	3833.47
470.278	3862.85
470.65	3891.1
471.022	3948.95
471.394	4021.26
471.766	4076.4
472.138	4073.01
472.51	4164.76
472.882	4227.13
473.253	4308.49
473.625	4350.3
473.997	4462.61
474.369	4461.93
474.74	4578.76
475.112	4605.88
475.484	4705.54
475.855	4784.63
476.227	4829.83
476.598	4967.45
476.97	5018.75
477.341	5174.23
477.713	5249.03
478.084	5215.36
478.455	5392.3
478.827	5441.34
479.198	5552.52
479.569	5627.55
479.94	5734.44
480.311	5807.43
480.682	5945.28
481.053	6089.46
481.424	6129.46
481.795	6221.88
482.166	6331.49
482.537	6432.95
482.908	6550.92
483.279	6637.47
483.65	6748.2
484.021	6901.19
484.391	6914.75
484.762	6971.24
485.133	7055.99
485.503	7128.3
485.874	7366.94
486.244	7444.23
486.615	7552.92
486.985	7651
487.356	7808.96
487.726	7926.25
488.097	7948.39
488.467	8028.62
488.837	8188.16
489.207	8258.89
489.578	8401.26
489.948	8433.13
490.318	8582.5
490.688	8571.2
491.058	8762.16
491.428	8857.07
491.798	8943.17
492.168	9092.09
492.538	9109.49
492.908	9203.05
493.278	9337.28
493.648	9260
494.017	9466.54
494.387	9552.64
494.757	9629.25
495.126	9692.53
495.496	9733.43
495.866	9764.62
496.235	9837.38
496.605	9920.09
496.974	9988.11
497.344	10061.56
497.713	10146.75
498.082	10165.51
498.452	10263.59
498.821	10289.35
499.19	10320.53
499.559	10326.18
499.928	10471.49
500.298	10496.8
500.667	10580.64
501.036	10511.72
501.405	10663.35
501.774	10619.73
502.143	10685.72
502.512	10685.04
502.88	10841.2
503.249	10796.91
503.618	10819.96
503.987	10883.91
504.356	10907.41
504.724	10938.37
505.093	10969.78
505.462	11031.02
505.83	11036.67
506.199	11097.69
506.567	11168.87
506.936	11153.28
507.304	11262.43
507.672	11300.17
508.041	11293.62
508.409	11276.44
508.777	11332.03
509.145	11389.88
509.514	11426.72
509.882	11527.51
510.25	11471.24
510.618	11439.6
510.986	11460.84
511.354	11508.75
511.722	11604.34
512.09	11657.22
512.458	11612.93
512.826	11660.16
513.193	11683.21
513.561	11609.77
513.929	11700.16
514.297	11845.92
514.664	11790.78
515.032	11785.35
515.4	11862.41
515.767	11860.61
516.135	11832.58
516.502	11782.19
516.869	11899.93
517.237	11893.37
517.604	11891.34
517.972	11928.4
518.339	11925.01
518.706	11935.18
519.073	11870.55
519.44	11886.59
519.808	11999.36
520.175	11959.59
520.542	12008.4
520.909	12012.01
521.276	11963.65
521.643	11993.26
522.009	12072.58
522.376	12055.63
522.743	12059.92
523.11	12134.5
523.477	12124.1
523.843	12155.29
524.21	12171.11
524.577	12225.34
524.943	12188.51
525.31	12258.79
525.676	12232.57
526.043	12201.61
526.409	12223.76
526.776	12239.58
527.142	12171.33
527.508	12247.26
527.874	12241.84
528.241	12244.55
528.607	12170.2
528.973	12205.68
529.339	12151.45
529.705	12200.03
530.071	12212.46
530.437	12218.56
530.803	12121.39
531.169	12184.44
531.535	12058.57
531.901	12086.36
532.267	12008.17
532.632	12082.3
532.998	11985.8
533.364	12023.54
533.73	11912.81
534.095	12050.21
534.461	11961.39
534.826	11984.9
535.192	11858.57
535.557	11909.64
535.923	11777.22
536.288	11767.28
536.653	11810.44
537.019	11696.32
537.384	11677.33
537.749	11639.37
538.114	11622.19
538.479	11496.77
538.845	11540.39
539.21	11390.79
539.575	11450.9
539.94	11376.1
540.305	11329.32
540.67	11291.58
541.034	11217.01
541.399	11153.51
541.764	11242.09
542.129	11115.32
542.494	11066.95
542.858	11058.37
543.223	11007.97
543.587	10990.57
543.952	10938.6
544.316	10823.12
544.681	10796.23
545.045	10743.57
545.41	10674.87
545.774	10669.23
546.138	10568.21
546.503	10565.73
546.867	10509.46
547.231	10533.41
547.595	10484.82
547.959	10431.94
548.324	10324.6
548.688	10277.37
549.052	10232.4
549.416	10253.19
549.779	10064.95
550.143	10185.4
550.507	10067.66
550.871	9995.8
551.235	10029.69
551.599	10007.77
551.962	9960.32
552.326	9951.73
552.689	9894.33
553.053	9808.23
553.417	9803.49
553.78	9785.86
554.143	9754.22
554.507	9702.02
554.87	9688.46
555.234	9641.23
555.597	9644.39
555.96	9580.89
556.323	9563.04
556.686	9437.85
557.05	9522.59
557.413	9426.09
557.776	9379.09
558.139	9438.75
558.502	9368.47
558.865	9307.23
559.228	9325.53
559.59	9353.55
559.953	9330.5
560.316	9367.11
560.679	9250.28
561.041	9330.05
561.404	9292.76
561.767	9284.63
562.129	9222.94
562.492	9331.41
562.854	9287.11
563.217	9205.53
563.579	9278.98
563.941	9267.91
564.304	9252.99
564.666	9222.26
565.028	9242.6
565.39	9139.55
565.753	9201.02
566.115	9180.45
566.477	9172.77
566.839	9208.25
567.201	9189.94
567.563	9211.86
567.925	9250.96
568.287	9196.04
568.648	9190.85
569.01	9220.9
569.372	9254.12
569.734	9237.17
570.095	9209.15
570.457	9190.85
570.819	9199.43
571.18	9213.44
571.542	9240.79
571.903	9296.15
572.265	9231.75
572.626	9237.4
572.987	9180.22
573.349	9272.43
573.71	9226.78
574.071	9233.33
574.432	9232.88
574.794	9261.13
575.155	9214.12
575.516	9283.5
575.877	9271.75
576.238	9229.71
576.599	9289.37
576.96	9193.56
577.32	9163.73
577.681	9251.86
578.042	9197.4
578.403	9185.65
578.763	9122.15
579.124	9218.87
579.485	9228.81
579.845	9271.97
580.206	9236.04
580.566	9219.32
580.927	9172.32
581.287	9271.97
581.648	9160.56
582.008	9180.9
582.368	9257.28
582.728	9201.92
583.089	9206.66
583.449	9185.65
583.809	9164.18
584.169	9134.8
584.529	9115.59
584.889	9127.34
585.249	9049.61
585.609	9041.92
585.969	9086.44
586.329	9100
586.688	9079.89
587.048	9070.17
587.408	9090.96
587.768	9034.47
588.127	9026.1
588.487	8980.91
588.846	9063.84
589.206	9045.76
589.565	9015.71
589.925	9001.25
590.284	8994.69
590.643	8956.28
591.003	8924.86
591.362	9016.39
591.721	8949.5
592.08	8932.1
592.44	8967.8
592.799	8978.42
593.158	8938.65
593.517	8908.59
593.876	9005.54
594.235	8901.14
594.593	8915.37
594.952	8914.02
595.311	8876.5
595.67	8921.47
596.029	8951.3
596.387	8941.81
596.746	9011.19
597.104	8860.46
597.463	8893.68
597.822	8874.02
598.18	8813.23
598.538	8902.04
598.897	8893.23
599.255	8806.45
599.613	8942.49
599.972	8839.89
600.33	8855.94
600.688	8838.09
601.046	8849.61
601.404	8926.67
601.762	8886.9
602.12	8867.01
602.478	8873.34
602.836	8858.65
603.194	8824.3
603.552	8833.34
603.91	8819.78
604.268	8785.43
604.625	8811.19
604.983	8775.72
605.341	8811.19
605.698	8840.12
606.056	8855.49
606.413	8832.44
606.771	8811.19
607.128	8826.34
607.485	8838.31
607.843	8785.66
608.2	8796.28
608.557	8857.97
608.914	8812.1
609.272	8927.35
609.629	8846.22
609.986	8940.46
610.343	8892.32
610.7	8906.56
611.057	8858.65
611.414	8844.64
611.771	8849.84
612.127	8895.03
612.484	8871.98
612.841	8909.27
613.198	8874.7
613.554	8951.53
613.911	8982.04
614.267	8937.97
614.624	8929.38
614.98	8924.64
615.337	8956.95
615.693	8924.19
616.05	8929.61
616.406	8931.42
616.762	8877.18
617.118	8945.2
617.475	8925.77
617.831	9049.61
618.187	9004.64
618.543	8960.34
618.899	8965.09
619.255	9030.4
619.611	8963.96
619.967	8997.86
620.323	9057.06
620.678	9009.16
621.034	9005.31
621.39	8926.22
621.746	8979.1
622.101	9022.49
622.457	9012.55
622.812	9030.62
623.168	9015.26
623.523	9066.56
623.879	9047.8
624.234	8975.26
624.589	8990.85
624.945	9019.55
625.3	9011.87
625.655	8987.01
626.01	9059.78
626.365	8983.39
626.72	8971.42
627.075	8971.42
627.43	8946.11
627.785	8943.17
628.14	8956.5
628.495	8965.09
628.85	8958.99
629.205	8973.45
629.559	9035.82
629.914	8942.49
630.269	8908.14
630.623	8938.42
630.978	8923.51
631.332	8949.04
631.687	8937.52
632.041	8870.4
632.396	8889.38
632.75	8888.93
633.104	8886.9
633.459	8782.27
633.813	8825.43
634.167	8850.74
634.521	8861.36
634.875	8821.14
635.229	8774.59
635.583	8782.72
635.937	8748.15
636.291	8780.24
636.645	8785.21
636.999	8732.1
637.352	8752.44
637.706	8728.03
638.06	8666.57
638.413	8724.42
638.767	8610.75
639.121	8757.86
639.474	8603.52
639.828	8667.02
640.181	8627.47
640.534	8699.56
640.888	8633.12
641.241	8613.01
641.594	8610.97
641.947	8593.12
642.301	8570.98
642.654	8582.95
643.007	8591.54
643.36	8614.36
643.713	8601.48
644.066	8615.49
644.419	8524.65
644.771	8469.96
645.124	8428.83
645.477	8450.07
645.83	8353.58
646.182	8331.89
646.535	8322.62
646.888	8326.46
647.24	8253.47
647.593	8350.64
647.945	8269.74
648.298	8238.55
648.65	8259.12
649.002	8236.97
649.355	8318.33
649.707	8264.77
650.059	8274.03
650.411	8422.73
650.763	8462.28
651.115	8504.54
651.467	8504.08
651.819	8470.64
652.171	8455.5
652.523	8491.43
652.875	8435.39
653.227	8392.45
653.578	8488.04
653.93	8433.35
654.282	8484.2
654.633	8386.12
654.985	8440.58
655.337	8508.6
655.688	8460.47
656.039	8509.96
656.391	8441.49
656.742	8459.57
657.094	8452.33
657.445	8450.53
657.796	8512.22
658.147	8477.42
658.498	8485.55
658.849	8528.94
659.2	8466.12
659.551	8481.71
659.902	8501.6
660.253	8486.46
660.604	8497.76
660.955	8443.75
661.306	8539.56
661.656	8431.09
662.007	8493.69
662.358	8457.76
662.708	8508.15
663.059	8486.91
663.409	8441.49
663.76	8508.38
664.11	8521.03
664.461	8504.54
664.811	8547.7
665.161	8532.11
665.511	8487.59
665.862	8514.71
666.212	8512.9
666.562	8501.37
666.912	8456.18
667.262	8481.26
667.612	8503.41
667.962	8528.04
668.312	8520.58
668.662	8521.71
669.011	8541.82
669.361	8496.17
669.711	8557.64
670.06	8514.03
670.41	8440.13
670.76	8516.74
671.109	8494.59
671.459	8473.58
671.808	8483.52
672.157	8505.67
672.507	8445.78
672.856	8430.19
673.205	8440.13
673.554	8433.58
673.904	8477.64
674.253	8479
674.602	8473.58
674.951	8298.44
675.3	8277.88
675.649	8437.65
675.998	8392.45
676.346	8405.78
676.695	8422.5
677.044	8321.49
677.393	8331.66
677.741	8342.96
678.09	8351.32
678.438	8334.37
678.787	8352.68
679.135	8296.18
679.484	8293.69
679.832	8304.54
680.181	8273.36
680.529	8242.85
680.877	8257.76
681.225	8211.21
681.573	8276.75
681.922	8199.91
682.27	8241.27
682.618	8233.13
682.966	8170.99
683.314	8132.79
683.661	8154.71
684.009	8135.28
684.357	8098.45
684.705	8153.36
685.053	8095.96
685.4	8051.21
685.748	7984.32
686.095	8030.42
686.443	7973.25
686.79	7987.04
687.138	7951.78
687.485	7934.38
687.832	7956.98
688.18	7992.23
688.527	7927.6
688.874	7878.34
689.221	7844.21
689.568	7788.62
689.915	7781.17
690.262	7739.13
690.609	7747.04
690.956	7749.75
691.303	7658.68
691.65	7661.17
691.997	7722.64
692.344	7662.52
692.69	7590.66
693.037	7608.97
693.383	7521.51
693.73	7525.58
694.077	7467.95
694.423	7478.12
694.769	7516.54
695.116	7441.06
695.462	7400.16
695.808	7380.72
696.155	7350.22
696.501	7300.05
696.847	7347.73
697.193	7293.49
697.539	7293.72
697.885	7176.89
698.231	7152.71
698.577	7211.69
698.923	7202.88
699.269	7131.92
699.614	7106.15
699.96	7057.57
700.306	7033.39
700.651	6994.75
700.997	6992.71
701.342	6998.59
701.688	6987.29
702.033	6907.74
702.379	6930.34
702.724	6888.53
703.069	6913.39
703.415	6817.57
703.76	6820.06
704.105	6835.2
704.45	6810.12
704.795	6712.27
705.14	6692.15
705.485	6688.99
705.83	6640.4
706.175	6675.66
706.52	6600.18
706.865	6632.04
707.209	6627.75
707.554	6613.29
707.899	6568.32
708.243	6547.3
708.588	6519.28
708.932	6535.77
709.277	6512.05
709.621	6514.08
709.966	6420.98
710.31	6440.64
710.654	6418.49
710.998	6420.3
711.342	6388.66
711.687	6400.64
712.031	6342.56
712.375	6274.76
712.719	6303.69
713.063	6341.43
713.407	6339.17
713.75	6295.1
714.094	6290.58
714.438	6211.94
714.782	6295.33
715.125	6232.05
715.469	6287.19
715.812	6231.15
716.156	6190.92
716.499	6190.92
716.843	6186.41
717.186	6124.71
717.53	6150.25
717.873	6176.01
718.216	6148.67
718.559	6076.8
718.902	6122.68
719.246	6095.79
719.589	6097.37
719.932	6067.99
720.275	6113.86
720.617	6114.32
720.96	6129.68
721.303	6077.93
721.646	6088.1
721.989	6059.63
722.331	6031.61
722.674	6062.79
723.016	6066.41
723.359	6062.57
723.701	6016.92
724.044	6044.94
724.386	5988.44
724.729	6056.47
725.071	5972.63
725.413	6029.12
725.755	5984.83
726.097	5976.92
726.439	5972.63
726.782	5982.57
727.124	5987.77
727.465	5962.68
727.807	5986.64
728.149	5962.91
728.491	5976.02
728.833	5954.32
729.175	5962.68
729.516	5976.69
729.858	5935.34
730.199	5932.4
730.541	6010.59
730.882	5976.47
731.224	5977.37
731.565	5983.25
731.906	5971.27
732.248	5998.16
732.589	5945.06
732.93	5966.75
733.271	5927.2
733.612	5907.32
733.953	5947.32
734.294	5931.04
734.635	5988.9
734.976	5972.17
735.317	5961.78
735.658	5975.79
735.999	5978.73
736.339	5963.36
736.68	5994.09
737.021	5967.88
737.361	5984.38
737.702	6013.3
738.042	6013.75
738.383	6012.85
738.723	6000.87
739.063	6015.79
739.404	6063.7
739.744	6048.56
740.084	6040.19
740.424	6056.69
740.764	6037.71
741.104	6094.88
741.444	6063.47
741.784	6079.06
742.124	6103.02
742.464	6153.86
742.804	6083.81
743.143	6170.13
743.483	6268.89
743.823	6199.29
744.162	6186.63
744.502	6257.36
744.841	6248.1
745.181	6279.74
745.52	6329
745.86	6380.3
746.199	6409.9
746.538	6432.5
746.877	6462.78
747.216	6561.31
747.556	6542.55
747.895	6620.97
748.234	6621.2
748.573	6684.02
748.911	6766.73
749.25	6768.76
749.589	6840.4
749.928	6919.04
750.267	6973.96
750.605	7064.35
750.944	7078.36
751.283	7111.35
751.621	7285.81
751.96	7297.56
752.298	7402.64
752.636	7510.21
752.975	7575.52
753.313	7621.62
753.651	7790.43
753.989	7867.72
754.327	8020.71
754.666	8067.49
755.004	8220.48
755.342	8345.9
755.679	8449.62
756.017	8575.49
756.355	8746.56
756.693	8822.95
757.031	9065.88
757.368	9111.53
757.706	9301.35
758.044	9360.78
758.381	9591.74
758.719	9722.13
759.056	9933.2
759.394	10072.4
759.731	10158.5
760.068	10349.23
760.405	10525.73
760.743	10647.98
761.08	10912.61
761.417	10955.77
761.754	11118.25
762.091	11363.67
762.428	11504.46
762.765	11682.98
763.102	11933.82
763.438	12022.41
763.775	12192.35
764.112	12442.06
764.449	12584.88
764.785	12735.16
765.122	12880.69
765.458	12998.2
765.795	13218.31
766.131	13405.65
766.467	13587.57
766.804	13669.82
767.14	13769.71
767.476	13997.5
767.812	14089.93
768.148	14287.44
768.485	14399.3
768.821	14533.08
769.157	14723.36
769.492	14803.58
769.828	14973.52
770.164	15045.16
770.5	15200.63
770.836	15371.25
771.171	15360.4
771.507	15535.99
771.842	15537.35
772.178	15611.24
772.513	15809.88
772.849	15875.42
773.184	15960.61
773.519	16018.69
773.855	16150.44
774.19	16179.36
774.525	16314.73
774.86	16332.13
775.195	16496.87
775.53	16594.95
775.865	16560.82
776.2	16563.76
776.535	16577.77
776.87	16674.49
777.205	16782.96
777.539	16835.16
777.874	16955.61
778.209	16845.11
778.543	16994.93
778.878	16907.48
779.212	17024.31
779.547	17008.27
779.881	17145.66
780.215	17177.75
780.55	17240.58
780.884	17206.68
781.218	17183.86
781.552	17230.63
781.886	17251.42
782.22	17156.06
782.554	17206.45
782.888	17128.04
783.222	17164.65
783.556	17094.59
783.889	17180.01
784.223	17047.81
784.557	17073.35
784.89	17126.46
785.224	17134.82
785.557	17097.08
785.891	17236.74
786.224	17094.37
786.558	17088.94
786.891	17068.15
787.224	17036.74
787.557	17107.93
787.891	17015.95
788.224	17072.9
788.557	17123.29
788.89	17109.06
789.223	17065.22
789.556	17077.19
789.888	17092.56
790.221	16963.52
790.554	16845.11
790.887	16928.5
791.219	16925.11
791.552	16906.8
791.884	16856.41
792.217	16842.17
792.549	16876.52
792.882	16754.94
793.214	16679.69
793.546	16744.09
793.879	16607.37
794.211	16602.85
794.543	16638.79
794.875	16642.18
795.207	16709.74
795.539	16516.08
795.871	16637.66
796.203	16448.73
796.535	16398.11
796.867	16402.63
797.198	16403.31
797.53	16313.6
797.862	16316.08
798.193	16347.49
798.525	16238.12
798.856	16304.33
799.188	16093.72
799.519	16015.98
799.85	16000.84
800.182	16083.77
800.513	16000.61
800.844	15866.6
801.175	15984.34
801.506	15922.65
801.837	15796.55
802.168	15807.4
802.499	15756.1
802.83	15775.08
803.161	15614.86
803.491	15690.56
803.822	15715.65
804.153	15570.57
804.483	15536.44
804.814	15464.81
805.145	15569.89
805.475	15556.33
805.805	15491.92
806.136	15447.18
806.466	15441.98
806.796	15446.95
807.126	15282.89
807.457	15324.24
807.787	15327.41
808.117	15314.3
808.447	15182.78
808.777	15278.82
809.107	15193.63
809.436	15171.25
809.766	15154.08
810.096	15114.76
810.426	15036.34
810.755	15014.2
811.085	15010.81
811.414	15049.9
811.744	14967.19
812.073	14895.33
812.403	14881.54
812.732	14834.31
813.061	14768.33
813.39	14746.41
813.719	14789.57
814.049	14792.96
814.378	14731.94
814.707	14722.45
815.036	14697.59
815.365	14590.48
815.693	14484.49
816.022	14654.21
816.351	14418.51
816.68	14399.75
817.008	14426.64
817.337	14311.16
817.665	14316.59
817.994	14453.98
818.322	14366.98
818.651	14286.08
818.979	14283.82
819.307	14358.62
819.636	14279.53
819.964	14156.82
820.292	14296.93
820.62	14223.26
820.948	14196.59
821.276	14221.22
821.604	14272.07
821.932	14206.31
822.259	14348
822.587	14310.03
822.915	14188.68
823.243	14232.3
823.57	14085.18
823.898	14196.36
824.225	14122.69
824.553	14291.28
824.88	14227.78
825.207	14273.2
825.535	14232.97
825.862	14260.09
826.189	14107.33
826.516	14253.76
826.843	14355.91
827.17	14272.97
827.497	14314.78
827.824	14223.48
828.151	14286.08
828.478	14262.8
828.805	14356.13
829.131	14290.37
829.458	14212.18
829.785	14196.59
830.111	14201.56
830.438	14295.12
830.764	14163.82
831.09	14192.97
831.417	14182.81
831.743	14221.45
832.069	14273.65
832.395	14134.67
832.722	14253.99
833.048	14153.88
833.374	14190.26
833.7	14163.14
834.026	14119.3
834.351	14195.01
834.677	14067.33
835.003	14090.83
835.329	14119.3
835.654	14058.74
835.98	14064.39
836.306	14079.3
836.631	13974.22
836.956	14060.1
837.282	14091.96
837.607	13963.15
837.932	13928.8
838.258	13967.9
838.583	13968.12
838.908	13913.43
839.233	13813.1
839.558	13819.88
839.883	13736.49
840.208	13738.75
840.533	13774.45
840.858	13791.18
841.182	13779.2
841.507	13778.3
841.832	13710.73
842.156	13534.01
842.481	13630.05
842.805	13660.11
843.13	13642.71
843.454	13582.14
843.778	13501.92
844.103	13471.86
844.427	13460.79
844.751	13459.21
845.075	13384.18
845.399	13351.19
845.723	13317.52
846.047	13215.82
846.371	13155.94
846.695	13221.25
847.019	13113
847.343	13062.38
847.666	13021.71
847.99	12935.15
848.313	13025.77
848.637	12903.74
848.96	12804.99
849.284	12778.55
849.607	12712.79
849.931	12669.85
850.254	12610.42
850.577	12538.78
850.9	12457.43
851.223	12452.91
851.546	12478.9
851.869	12344.21
852.192	12376.98
852.515	12223.99
852.838	12264.66
853.161	12222.63
853.483	12167.26
853.806	12125.23
854.129	12111.9
854.451	12038
854.774	12032.35
855.096	11953.71
855.419	11854.96
855.741	11936.31
856.063	11826.03
856.385	11869.42
856.708	11763.43
857.03	11747.39
857.352	11770.89
857.674	11658.35
857.996	11599.6
858.318	11535.19
858.64	11626.04
858.961	11537.9
859.283	11539.94
859.605	11368.64
859.926	11478.02
860.248	11464.23
860.57	11405.02
860.891	11339.04
861.212	11334.74
861.534	11265.59
861.855	11277.12
862.176	11250.23
862.498	11289.1
862.819	11225.59
863.14	11174.97
863.461	11203.67
863.782	11143.34
864.103	11106.5
864.424	11092.94
864.745	11061.08
865.065	11032.38
865.386	11037.13
865.707	11018.59
866.027	11054.3
866.348	10990.57
866.668	10965.71
866.989	10967.97
867.309	10859.95
867.63	10902.89
867.95	10822.89
868.27	10859.05
868.59	10887.52
868.91	10838.03
869.23	10819.96
869.55	10708.32
869.87	10780.63
870.19	10692.73
870.51	10740.86
870.83	10779.73
871.15	10661.99
871.469	10674.42
871.789	10721.88
872.109	10668.55
872.428	10623.58
872.748	10664.48
873.067	10613.63
873.386	10658.15
873.706	10613.41
874.025	10513.52
874.344	10551.49
874.663	10539.29
874.982	10514.88
875.301	10527.08
875.62	10485.5
875.939	10403.92
876.258	10454.54
876.577	10434.66
876.896	10412.28
877.214	10410.7
877.533	10354.43
877.852	10302.91
878.17	10287.54
878.489	10354.88
878.807	10315.56
879.125	10270.59
879.444	10252.51
879.762	10272.63
880.08	10247.09
880.398	10200.99
880.716	10226.98
881.034	10141.33
881.352	10131.16
881.67	10123.02
881.988	10138.84
882.306	10125.28
882.624	10103.59
882.941	10046.42
883.259	10045.96
883.577	10012.07
883.894	9998.96
884.212	9991.05
884.529	9989.02
884.846	9929.13
885.164	9918.06
885.481	9919.64
885.798	9852.75
886.115	9796.48
886.432	9752.64
886.75	9814.78
887.067	9798.06
887.383	9749.25
887.7	9736.14
888.017	9692.75
888.334	9711.06
888.651	9651.62
888.967	9705.63
889.284	9600.1
889.6	9622.7
889.917	9509.48
890.233	9498.63
890.55	9497.73
890.866	9395.81
891.182	9395.59
891.498	9389.48
891.815	9357.62
892.131	9356.27
892.447	9305.65
892.763	9260.67
893.079	9269.26
893.395	9207.57
893.71	9192.88
894.026	9170.96
894.342	9189.04
894.657	9126.89
894.973	9083.96
895.289	9064.75
895.604	8998.53
895.92	8973.45
896.235	8913.34
896.55	8956.95
896.865	8965.99
897.181	8874.47
897.496	8856.39
897.811	8836.96
898.126	8763.51
898.441	8751.08
898.756	8708.15
899.071	8663.18
899.386	8639.45
899.7	8566.68
900.015	8574.82
900.33	8532.56
900.644	8471.09
900.959	8527.36
901.273	8531.65
901.588	8462.5
901.902	8383.64
902.216	8338.66
902.531	8353.13
902.845	8275.16
903.159	8286.69
903.473	8180.93
903.787	8134.6
904.101	8137.09
904.415	8131.44
904.729	8129.63
905.042	8044.21
905.356	8048.5
905.67	8005.57
905.984	8034.49
906.297	7944.1
906.611	7899.35
906.924	7901.84
907.237	7904.55
907.551	7851.22
907.864	7819.36
908.177	7811.22
908.491	7754.27
908.804	7709.98
909.117	7715.4
909.43	7629.53
909.743	7560.83
910.056	7585.69
910.368	7515.18
910.681	7513.83
910.994	7509.76
911.307	7505.47
911.619	7422.53
911.932	7406.03
912.244	7324.23
912.557	7345.02
912.869	7241.07
913.181	7303.66
913.494	7227.28
913.806	7181.41
914.118	7155.65
914.43	7143.44
914.742	7146.15
915.054	7107.28
915.366	7062.54
915.678	7064.12
915.99	7041.07
916.302	6964.69
916.613	6906.39
916.925	6923.56
917.236	6904.58
917.548	6956.1
917.859	6852.15
918.171	6847.4
918.482	6729.67
918.794	6746.62
919.105	6719.27
919.416	6688.76
919.727	6695.77
920.038	6662.55
920.349	6603.34
920.66	6568.77
920.971	6565.83
921.282	6549.56
921.593	6512.27
921.903	6486.51
922.214	6453.97
922.525	6395.89
922.835	6445.61
923.146	6353.41
923.456	6429.11
923.767	6380.75
924.077	6364.48
924.387	6325.61
924.697	6284.48
925.008	6239.96
925.318	6225.27
925.628	6219.17
925.938	6192.96
926.248	6093.07
926.558	6159.06
926.867	6095.79
927.177	6040.42
927.487	6046.3
927.796	6020.99
928.106	5965.39
928.416	5974.89
928.725	5944.83
929.034	5899.63
929.344	5891.05
929.653	5873.42
929.962	5813.31
930.271	5807.88
930.581	5816.02
930.89	5797.04
931.199	5753.42
931.508	5733.08
931.817	5682.24
932.125	5699.19
932.434	5681.79
932.743	5600.66
933.051	5592.75
933.36	5573.54
933.669	5647.66
933.977	5544.84
934.286	5538.96
934.594	5506.87
934.902	5478.63
935.21	5453.32
935.519	5459.42
935.827	5447.22
936.135	5415.13
936.443	5323.6
936.751	5330.83
937.059	5348.91
937.367	5316.37
937.674	5297.39
937.982	5217.62
938.29	5241.12
938.597	5215.58
938.905	5152.31
939.213	5152.53
939.52	5144.4
939.827	5136.26
940.135	5051.29
940.442	5066.43
940.749	5008.13
941.056	5028.24
941.363	5045.87
941.67	5028.7
941.977	4949.6
942.284	4949.38
942.591	4950.96
942.898	4901.24
943.205	4905.76
943.511	4867.8
943.818	4823.96
944.125	4785.76
944.431	4856.72
944.738	4795.03
945.044	4764.75
945.35	4744.18
945.657	4687.91
945.963	4663.28
946.269	4698.76
946.575	4639.55
946.881	4688.14
947.187	4622.83
947.493	4616.95
947.799	4567.46
948.105	4563.17
948.41	4546.45
948.716	4535.38
949.022	4491.76
949.327	4469.39
949.633	4437.3
949.938	4410.86
950.244	4397.53
950.549	4393.46
950.854	4355.72
951.16	4392.78
951.465	4333.8
951.77	4374.7
952.075	4315.27
952.38	4306.23
952.685	4311.43
952.99	4284.76
953.294	4267.36
953.599	4212.22
953.904	4209.51
954.209	4169.73
954.513	4182.39
954.818	4139.91
955.122	4143.07
955.426	4123.18
955.731	4116.86
956.035	4078.21
956.339	4033.69
956.643	4036.86
956.948	4006.58
957.252	4031.89
957.556	4005.67
957.86	4003.64
958.163	3973.58
958.467	3938.78
958.771	3942.17
959.075	3960.47
959.378	3924.32
959.682	3866.24
959.985	3828.95
960.289	3855.39
960.592	3867.6
960.896	3825.34
961.199	3818.56
961.502	3794.6
961.805	3749.86
962.108	3743.98
962.411	3736.3
962.714	3705.79
963.017	3651.78
963.32	3746.7
963.623	3685
963.926	3659.47
964.228	3612.91
964.531	3621.27
964.833	3608.39
965.136	3596.19
965.438	3584.89
965.741	3541.05
966.043	3536.98
966.345	3507.15
966.648	3481.84
966.95	3469.41
967.252	3484.56
967.554	3484.56
967.856	3463.99
968.158	3378.12
968.46	3447.04
968.761	3401.85
969.063	3386.48
969.365	3391.22
969.666	3366.14
969.968	3330.89
970.269	3364.33
970.571	3318.68
970.872	3301.51
971.174	3268.97
971.475	3304.22
971.776	3243.21
972.077	3249.76
972.378	3250.44
972.679	3249.53
972.98	3195.3
973.281	3213.83
973.582	3138.58
973.883	3156.88
974.183	3185.81
974.484	3140.61
974.785	3091.57
975.085	3133.38
975.386	3100.61
975.686	3128.63
975.986	3074.85
976.287	3068.3
976.587	3053.38
976.887	3028.75
977.187	2996.88
977.487	3026.71
977.787	3006.38
978.087	2985.13
978.387	2951.24
978.687	2918.02
978.987	2943.1
979.286	2928.19
979.586	2945.13
979.885	2907.4
980.185	2897.23
980.484	2878.02
980.784	2871.24
981.083	2866.49
981.382	2862.88
981.682	2823.78
981.981	2834.85
982.28	2789.88
982.579	2721.86
982.878	2763.44
983.177	2768.87
983.475	2745.14
983.774	2718.02
984.073	2724.8
984.372	2725.48
984.67	2711.24
984.969	2687.29
985.267	2683.45
985.566	2683.67
985.864	2664.69
986.162	2663.33
986.461	2633.5
986.759	2627.85
987.057	2610.68
987.355	2570.23
987.653	2586.05
987.951	2536.56
988.249	2548.08
988.547	2537.24
988.844	2513.96
989.142	2534.75
989.44	2505.6
989.737	2511.25
990.035	2474.64
990.332	2481.87
990.63	2434.41
990.927	2410.91
991.224	2431.93
991.521	2413.4
991.819	2464.02
992.116	2402.1
992.413	2368.65
992.71	2407.75
993.006	2368.65
993.303	2352.61
993.6	2341.76
993.897	2356.9
994.193	2323.68
994.49	2318.03
994.787	2305.83
995.083	2335.21
995.379	2278.26
995.676	2273.06
995.972	2276
996.268	2218.6
996.565	2229.9
996.861	2238.71
997.157	2186.96
997.453	2200.97
997.749	2202.1
998.044	2224.7
998.34	2167.75
998.636	2181.54
998.932	2117.36
999.227	2130.69
999.523	2080.75
999.818	2139.28
1000.114	2103.35
1000.409	2073.52
1000.704	2073.52
1001	2089.56
1001.295	2067.64
1001.59	2088.66
1001.885	2054.99
1002.18	2017.7
1002.475	2010.7
1002.77	1980.87
1003.065	1988.32
1003.359	1967.53
1003.654	2003.46
1003.949	1954.2
1004.243	1952.39
1004.538	1978.83
1004.832	1949.45
1005.127	1928.21
1005.421	1915.56
1005.715	1880.53
1006.009	1899.06
1006.304	1893.86
1006.598	1855.9
1006.892	1843.92
1007.186	1826.52
1007.48	1829.23
1007.773	1856.12
1008.067	1805.73
1008.361	1817.48
1008.655	1771.38
1008.948	1794.88
1009.242	1801.89
1009.535	1800.08
1009.829	1750.14
1010.122	1765.28
1010.415	1723.02
1010.708	1734.32
1011.001	1705.39
1011.295	1702.23
1011.588	1688.67
1011.881	1672.63
1012.173	1656.13
1012.466	1641.21
1012.759	1656.81
1013.052	1665.17
1013.344	1626.53
1013.637	1651.84
1013.93	1604.38
1014.222	1598.96
1014.514	1582.23
1014.807	1560.99
1015.099	1581.55
1015.391	1566.87
1015.683	1566.19
1015.976	1571.61
1016.268	1509.47
1016.56	1549.69
1016.851	1504.72
1017.143	1525.28
1017.435	1491.16
1017.727	1482.8
1018.018	1482.35
1018.31	1511.95
1018.602	1461.11
1018.893	1470.6
1019.185	1448
1019.476	1447.09
1019.767	1418.85
1020.058	1445.74
1020.35	1391.73
1020.641	1403.71
1020.932	1381.11
1021.223	1382.46
1021.514	1376.81
1021.804	1392.86
1022.095	1359.19
1022.386	1368.9
1022.677	1354.89
1022.967	1303.14
1023.258	1337.27
1023.548	1311.05
1023.839	1298.17
1024.129	1305.4
1024.419	1285.74
1024.709	1269.02
1025	1282.58
1025.29	1279.87
1025.58	1262.47
1025.87	1268.57
1026.16	1238.51
1026.449	1217.04
1026.739	1224.5
1027.029	1250.72
1027.319	1241.45
1027.608	1191.06
1027.898	1202.36
1028.187	1202.58
1028.477	1172.53
1028.766	1168.91
1029.055	1175.01
1029.344	1175.46
1029.634	1179.53
1029.923	1165.52
1030.212	1128.01
1030.501	1135.92
1030.79	1115.8
1031.078	1110.61
1031.367	1101.57
1031.656	1123.04
1031.945	1085.75
1032.233	1078.74
1032.522	1074
1032.81	1088.91
1033.099	1073.09
1033.387	1061.57
1033.675	1081
1033.963	1041.23
1034.251	1024.05
1034.54	1045.3
1034.828	1005.98
1035.116	1042.59
1035.403	1031.29
1035.691	1013.43
1035.979	1022.02
1036.267	1005.07
1036.554	983.83
1036.842	986.77
1037.129	981.12
1037.417	962.36
1037.704	959.42
1037.992	949.48
1038.279	940.89
1038.566	932.53
1038.853	932.53
1039.14	932.53
