Data from hue_300_FLMS001491_00062.txt Node
Date: Tue Feb 07 15:51:02 GMT 2017
User: dcchb
Spectrometer: FLMS00149
Trigger mode: 0
Integration Time (sec): 2.000000E-2
Scans to average: 10
Electric dark correction enabled: true
Nonlinearity correction enabled: false
Boxcar width: 0
XAxis mode: Wavelengths
Number of Pixels in Spectrum: 2048
>>>>>Begin Spectral Data<<<<<
341.393	3.33
341.776	3.33
342.16	3.33
342.543	-55.2
342.927	-69.21
343.31	-81.64
343.693	-82.09
344.077	-63.56
344.46	-72.37
344.843	-37.8
345.226	-22.43
345.61	-37.34
345.993	-25.59
346.376	0.17
346.759	-1.41
347.142	31.81
347.525	48.76
347.908	59.15
348.291	78.36
348.674	101.18
349.057	104.8
349.44	127.17
349.823	145.02
350.206	166.27
350.588	187.28
350.971	206.72
351.354	236.32
351.737	208.07
352.119	235.19
352.502	261.86
352.884	296.21
353.267	301.86
353.65	290.11
354.032	280.84
354.414	297.79
354.797	306.38
355.179	302.53
355.562	307.73
355.944	302.08
356.326	342.53
356.709	346.15
357.091	351.12
357.473	324.91
357.855	337.11
358.238	346.6
358.62	337.11
359.002	330.33
359.384	324.68
359.766	349.31
360.148	340.27
360.53	336.66
360.912	331.91
361.294	322.19
361.676	334.17
362.057	329.2
362.439	326.26
362.821	336.21
363.203	299.14
363.584	323.55
363.966	317.22
364.348	330.56
364.729	309.77
365.111	328.07
365.493	307.96
365.874	286.49
366.256	318.58
366.637	319.03
367.019	327.62
367.4	258.92
367.781	309.77
368.163	300.95
368.544	297.34
368.925	288.98
369.306	324.68
369.688	312.25
370.069	305.7
370.45	317.68
370.831	311.8
371.212	321.52
371.593	311.57
371.974	331.23
372.355	311.8
372.736	324.68
373.117	309.31
373.498	317.22
373.879	312.25
374.26	293.95
374.641	308.64
375.021	318.35
375.402	318.13
375.783	332.14
376.163	331.46
376.544	334.85
376.925	328.97
377.305	342.99
377.686	316.55
378.066	306.83
378.447	320.84
378.827	326.49
379.208	324.45
379.588	333.95
379.968	360.39
380.349	357.9
380.729	329.2
381.109	345.7
381.489	341.4
381.87	339.37
382.25	347.73
382.63	341.63
383.01	349.31
383.39	344.12
383.77	328.75
384.15	352.02
384.53	361.06
384.91	331.69
385.29	343.89
385.67	359.93
386.049	368.52
386.429	361.52
386.809	370.1
387.189	345.25
387.568	347.5
387.948	361.06
388.328	367.39
388.707	354.74
389.087	360.84
389.466	374.4
389.846	385.24
390.225	383.44
390.605	387.5
390.984	379.82
391.363	359.26
391.743	347.96
392.122	369.43
392.501	393.15
392.881	388.86
393.26	382.08
393.639	375.07
394.018	411.91
394.397	396.09
394.776	409.88
395.155	396.09
395.534	396.09
395.913	391.35
396.292	408.52
396.671	384.57
397.05	397.67
397.429	402.87
397.808	378.92
398.186	420.05
398.565	415.3
398.944	415.75
399.323	416.66
399.701	405.58
400.08	426.82
400.458	422.53
400.837	430.67
401.215	418.69
401.594	411.23
401.972	431.12
402.351	416.2
402.729	445.13
403.107	446.94
403.486	458.69
403.864	437.45
404.242	443.32
404.62	445.81
404.999	429.08
405.377	466.37
405.755	444.9
406.133	477.9
406.511	476.99
406.889	497.78
407.267	476.99
407.645	455.75
408.023	517.67
408.401	515.41
408.779	500.72
409.156	524
409.534	530.55
409.912	521.06
410.29	541.85
410.667	538.91
411.045	547.27
411.422	542.75
411.8	549.99
412.178	553.15
412.555	585.24
412.933	589.53
413.31	609.42
413.687	597.44
414.065	605.58
414.442	630.44
414.819	638.34
415.197	614.16
415.574	633.6
415.951	648.06
416.328	625.46
416.705	662.07
417.082	656.42
417.46	680.6
417.837	703.43
418.214	694.16
418.591	683.09
418.967	698.91
419.344	726.7
419.721	704.56
420.098	723.77
420.475	741.17
420.852	765.57
421.228	772.58
421.605	782.07
421.982	769.64
422.358	804.22
422.735	789.75
423.111	819.13
423.488	811.67
423.864	798.11
424.241	833.59
424.617	850.99
424.994	831.11
425.37	848.51
425.746	879.92
426.123	862.07
426.499	875.17
426.875	895.51
427.251	920.6
427.627	915.63
428.003	933.93
428.379	936.87
428.756	949.07
429.132	980.71
429.507	977.09
429.883	983.19
430.259	971.67
430.635	997.43
431.011	990.2
431.387	1068.62
431.763	1048.73
432.138	1063.19
432.514	1083.76
432.89	1094.6
433.265	1085.11
433.641	1111.78
434.016	1111.33
434.392	1121.5
434.767	1182.74
435.143	1146.81
435.518	1159.91
435.894	1163.53
436.269	1202.17
436.644	1196.75
437.02	1203.08
437.395	1221.38
437.77	1224.77
438.145	1238.1
438.52	1248.72
438.895	1261.38
439.271	1252.11
439.646	1317.65
440.021	1285.11
440.395	1290.53
440.77	1297.31
441.145	1317.65
441.52	1329.4
441.895	1343.64
442.27	1343.64
442.645	1328.95
443.019	1343.64
443.394	1373.24
443.769	1384.31
444.143	1350.64
444.518	1420.25
444.892	1386.8
445.267	1368.72
445.641	1392.22
446.016	1380.25
446.39	1408.49
446.764	1410.75
447.139	1403.3
447.513	1435.39
447.887	1401.71
448.262	1451.88
448.636	1441.26
449.01	1446.69
449.384	1472.9
449.758	1454.82
450.132	1472.22
450.506	1449.62
450.88	1479.68
451.254	1483.75
451.628	1488.94
452.002	1502.95
452.376	1507.47
452.75	1515.84
453.123	1542.73
453.497	1545.67
453.871	1549.73
454.244	1610.52
454.618	1589.51
454.992	1593.57
455.365	1573.24
455.739	1614.14
456.112	1641.48
456.486	1667.47
456.859	1644.65
457.232	1642.16
457.606	1666.57
457.979	1687.13
458.352	1724.42
458.725	1721.71
459.099	1752.67
459.472	1750.63
459.845	1781.14
460.218	1775.04
460.591	1786.79
460.964	1789.5
461.337	1834.02
461.71	1839.22
462.083	1856.17
462.456	1853.91
462.829	1858.88
463.201	1886
463.574	1865.88
463.947	1929.16
464.32	1906.79
464.692	1925.99
465.065	1912.44
465.438	1944.98
465.81	1980.46
466.183	2010.74
466.555	2022.49
466.928	2053.67
467.3	2033.79
467.672	2060.45
468.045	2084.18
468.417	2116.27
468.789	2127.8
469.161	2100
469.534	2165.08
469.906	2193.33
470.278	2168.25
470.65	2210.51
471.022	2199.89
471.394	2243.95
471.766	2297.51
472.138	2273.1
472.51	2298.19
472.882	2330.28
473.253	2392.2
473.625	2390.16
473.997	2419.99
474.369	2454.79
474.74	2471.52
475.112	2492.08
475.484	2513.32
475.855	2537.73
476.227	2569.59
476.598	2622.93
476.97	2640.33
477.341	2699.99
477.713	2681.45
478.084	2695.47
478.455	2758.74
478.827	2807.33
479.198	2797.38
479.569	2802.81
479.94	2902.24
480.311	2931.39
480.682	2911.96
481.053	2984.5
481.424	3042.35
481.795	3021.56
482.166	3068.56
482.537	3087.09
482.908	3144.27
483.279	3185.62
483.65	3167.54
484.021	3244.83
484.391	3276.02
484.762	3275.11
485.133	3311.49
485.503	3339.29
485.874	3424.26
486.244	3437.59
486.615	3469.68
486.985	3494.77
487.356	3543.58
487.726	3591.04
488.097	3624.71
488.467	3609.11
488.837	3663.35
489.207	3652.73
489.578	3725.72
489.948	3756.45
490.318	3767.98
490.688	3800.52
491.058	3878.03
491.428	3841.65
491.798	3921.65
492.168	3981.99
492.538	3926.62
492.908	4012.49
493.278	4075.54
493.648	4054.07
494.017	4034.64
494.387	4124.13
494.757	4146.5
495.126	4204.13
495.496	4161.42
495.866	4185.82
496.235	4263.11
496.605	4279.15
496.974	4265.14
497.344	4318.93
497.713	4342.43
498.082	4377.68
498.452	4371.35
498.821	4414.52
499.19	4441.86
499.559	4440.5
499.928	4461.3
500.298	4464.01
500.667	4521.86
501.036	4466.72
501.405	4575.64
501.774	4535.87
502.143	4544
502.512	4589.88
502.88	4635.98
503.249	4600.05
503.618	4618.81
503.987	4642.53
504.356	4617.9
504.724	4693.83
505.093	4682.08
505.462	4704.23
505.83	4699.03
506.199	4792.13
506.567	4842.75
506.936	4807.27
507.304	4812.92
507.672	4853.6
508.041	4898.12
508.409	4853.6
508.777	4925.01
509.145	4955.29
509.514	4924.56
509.882	4999.13
510.25	5023.54
510.618	4998.46
510.986	4999.36
511.354	5076.42
511.722	5056.99
512.09	5070.77
512.458	5059.47
512.826	5090.88
513.193	5136.76
513.561	5129.3
513.929	5143.09
514.297	5227.15
514.664	5174.27
515.032	5220.82
515.4	5224.66
515.767	5263.99
516.135	5273.93
516.502	5237.77
516.869	5325.45
517.237	5325.68
517.604	5273.03
517.972	5365.23
518.339	5389.18
518.706	5370.42
519.073	5379.01
519.44	5415.39
519.808	5379.46
520.175	5369.75
520.542	5448.61
520.909	5512.57
521.276	5495.39
521.643	5554.37
522.009	5527.26
522.376	5575.39
522.743	5601.38
523.11	5620.59
523.477	5703.52
523.843	5673.69
524.21	5745.56
524.577	5796.4
524.943	5757.98
525.31	5761.37
525.676	5814.93
526.043	5897.64
526.409	5920.01
526.776	5933.12
527.142	5928.15
527.508	6007.47
527.874	5979.45
528.241	6024.87
528.607	6035.72
528.973	6126.56
529.339	6055.38
529.705	6149.84
530.071	6163.62
530.437	6185.09
530.803	6227.58
531.169	6253.11
531.535	6276.61
531.901	6285.88
532.267	6288.37
532.632	6378.76
532.998	6356.16
533.364	6380.79
533.73	6446.33
534.095	6529.49
534.461	6488.36
534.826	6527.46
535.192	6525.2
535.557	6529.26
535.923	6630.05
536.288	6553.44
536.653	6687
537.019	6602.93
537.384	6637.28
537.749	6721.35
538.114	6707.56
538.479	6754.12
538.845	6803.38
539.21	6704.85
539.575	6804.06
539.94	6872.53
540.305	6852.64
540.67	6846.77
541.034	6875.02
541.399	6928.8
541.764	6934.22
542.129	7029.14
542.494	7026.65
542.858	7099.64
543.223	6988.91
543.587	7142.58
543.952	7138.29
544.316	7145.29
544.681	7164.95
545.045	7228.23
545.41	7253.31
545.774	7269.81
546.138	7288.11
546.503	7334.21
546.867	7331.95
547.231	7395.46
547.595	7439.52
547.959	7465.06
548.324	7453.31
548.688	7463.48
549.052	7458.5
549.416	7527.2
549.779	7501.44
550.143	7604.72
550.507	7575.56
550.871	7606.98
551.235	7587.54
551.599	7635.67
551.962	7662.79
552.326	7733.53
552.689	7730.14
553.053	7730.36
553.417	7727.2
553.78	7847.87
554.143	7823.69
554.507	7814.43
554.87	7831.83
555.234	7918.61
555.597	7921.09
555.96	7907.31
556.323	7931.49
556.686	8004.25
557.05	8031.6
557.413	8004.03
557.776	8016
558.139	8081.76
558.502	8063.91
558.865	8054.65
559.228	8144.36
559.59	8195.89
559.953	8221.42
560.316	8220.29
560.679	8263.23
561.041	8312.72
561.404	8334.19
561.767	8378.25
562.129	8370.12
562.492	8466.61
562.854	8342.55
563.217	8419.16
563.579	8501.87
563.941	8498.7
564.304	8491.7
564.666	8583.22
565.028	8581.41
565.39	8576.22
565.753	8625.71
566.115	8662.31
566.477	8713.61
566.839	8691.92
567.201	8776.89
567.563	8735.53
567.925	8855.76
568.287	8827.28
568.648	8876.55
569.01	8928.52
569.372	9023.89
569.734	8949.99
570.095	8943.44
570.457	9007.16
570.819	9085.35
571.18	9171
571.542	9199.7
571.903	9246.93
572.265	9171.45
572.626	9281.06
572.987	9327.61
573.349	9386.36
573.71	9436.08
574.071	9509.3
574.432	9540.94
574.794	9660.03
575.155	9651.89
575.516	9687.15
575.877	9752.68
576.238	9844.88
576.599	9915.16
576.96	9970.75
577.32	10028.15
577.681	10140.47
578.042	10288.94
578.403	10391.99
578.763	10492.1
579.124	10555.37
579.485	10629.72
579.845	10779.55
580.206	10849.38
580.566	10968.24
580.927	11042.14
581.287	11238.29
581.648	11350.61
582.008	11515.57
582.368	11590.15
582.728	11777.03
583.089	11929.8
583.449	12129.12
583.809	12328.66
584.169	12460.63
584.529	12598.71
584.889	12910.11
585.249	12928.64
585.609	13246.37
585.969	13447.73
586.329	13614.05
586.688	13916.87
587.048	14102.85
587.408	14317.76
587.768	14558.66
588.127	14859.89
588.487	15060.34
588.846	15432.31
589.206	15545.07
589.565	15844.95
589.925	16115.9
590.284	16317.03
590.643	16550.69
591.003	16915.43
591.362	17179.38
591.721	17477.22
592.08	17789.98
592.44	18055.51
592.799	18403.3
593.158	18581.38
593.517	18922.38
593.876	19243.51
594.235	19436.95
594.593	19868.12
594.952	20120.32
595.311	20342.46
595.67	20705.84
596.029	21099.05
596.387	21395.09
596.746	21724.12
597.104	21828.97
597.463	22172.02
597.822	22559.58
598.18	22711.21
598.538	23025.55
598.897	23501.7
599.255	23609.72
599.613	24270.04
599.972	24272.3
600.33	24744.83
600.688	24751.38
601.046	25161.32
601.404	25602.89
601.762	25647.18
602.12	26190.89
602.478	26240.38
602.836	26588.62
603.194	26727.6
603.552	27077.42
603.91	27173.24
604.268	27648.03
604.625	27622.72
604.983	28045.76
605.341	28158.75
605.698	28630.83
606.056	28833.99
606.413	28970.71
606.771	29358.49
607.128	29709.44
607.485	29571.82
607.843	29793.51
608.2	30318.92
608.557	30584
608.914	30601.62
609.272	31004.55
609.629	31142.63
609.986	31590.07
610.343	31564.09
610.7	31988.71
611.057	32022.83
611.414	32274.8
611.771	32468.02
612.127	32873.88
612.484	32895.12
612.841	33188.9
613.198	33207.21
613.554	33319.52
613.911	33655.1
614.267	33779.62
614.624	33902.78
614.98	34112.94
615.337	34372.83
615.693	34398.36
616.05	34609.43
616.406	34778.92
616.762	34917.9
617.118	34918.35
617.475	35032.24
617.831	35443.98
618.187	35488.28
618.543	35549.74
618.899	35911.99
619.255	35852.79
619.611	36031.31
619.967	36242.15
620.323	36502.26
620.678	36468.59
621.034	36420.45
621.39	36708.13
621.746	36498.19
622.101	37158.51
622.457	36860.67
622.812	37065.64
623.168	37197.84
623.523	37401.67
623.879	37477.6
624.234	37315.35
624.589	37464.5
624.945	37668.33
625.3	37734.32
625.655	37828.1
626.01	37838.5
626.365	37885.5
626.72	37928.21
627.075	38061.99
627.43	37954.43
627.785	38057.47
628.14	38096.12
628.495	38237.81
628.85	38219.73
629.205	38177.7
629.559	38554.64
629.914	38184.7
630.269	38459.27
630.623	38360.29
630.978	38405.26
631.332	38515.99
631.687	38531.59
632.041	38522.77
632.396	38471.7
632.75	38423.34
633.104	38601.87
633.459	38513.06
633.813	38550.12
634.167	38559.16
634.521	38591.7
634.875	38632.83
635.229	38610.23
635.583	38442.77
635.937	38496.33
636.291	38446.39
636.645	38465.82
636.999	38488.2
637.352	38616.78
637.706	38560.96
638.06	38602.32
638.413	38474.41
638.767	38405.71
639.121	38397.35
639.474	38396.22
639.828	38475.77
640.181	38465.37
640.534	38415.43
640.888	38476.67
641.241	38264.93
641.594	38308.31
641.947	38527.07
642.301	38416.11
642.654	38475.32
643.007	38464.92
643.36	38557.8
643.713	38269.67
644.066	38444.81
644.419	38287.3
644.771	38011.6
645.124	37720.08
645.477	37784.03
645.83	37450.03
646.182	37340.88
646.535	37247.55
646.888	37290.49
647.24	37133.43
647.593	37343.14
647.945	37337.49
648.298	37271.05
648.65	37065.18
649.002	37077.61
649.355	37302.47
649.707	37155.35
650.059	37309.92
650.411	37829.23
650.763	37852.73
651.115	38213.85
651.467	38130.01
651.819	38048.89
652.171	37949.91
652.523	38087.98
652.875	37925.05
653.227	37782.68
653.578	38156.45
653.93	38068.55
654.282	37869.23
654.633	37716.01
654.985	37867.42
655.337	37930.92
655.688	37941.09
656.039	38075.1
656.391	37787.42
656.742	37785.16
657.094	37835.11
657.445	38057.93
657.796	37871.94
658.147	37967.98
658.498	37810.02
658.849	37871.04
659.2	37849.12
659.551	37724.6
659.902	37910.81
660.253	37661.33
660.604	37720.99
660.955	37659.07
661.306	37785.39
661.656	37781.77
662.007	37762.79
662.358	37675.11
662.708	37780.19
663.059	37650.7
663.409	37512.18
663.76	37677.37
664.11	37781.32
664.461	37773.87
664.811	37798.27
665.161	37771.38
665.511	37626.98
665.862	37715.11
666.212	37683.7
666.562	37880.08
666.912	37669.46
667.262	37694.32
667.612	37602.12
667.962	37743.36
668.312	37627.43
668.662	37795.11
669.011	37705.39
669.361	37759.18
669.711	37627.65
670.06	37518.05
670.41	37530.48
670.76	37525.74
671.109	37747.43
671.459	37611.38
671.808	37535.23
672.157	37568.67
672.507	37443.25
672.856	37358.06
673.205	37461.11
673.554	37455.23
673.904	37350.37
674.253	37553.31
674.602	37400.54
674.951	36970.95
675.3	36795.81
675.649	37365.51
675.998	37264.5
676.346	37273.99
676.695	37380.2
677.044	37024.28
677.393	37287.78
677.741	37222.24
678.09	37128.46
678.438	37096.6
678.787	37196.03
679.135	37130.27
679.484	36993.32
679.832	37102.02
680.181	36853.66
680.529	37000.1
680.877	36867.67
681.225	36712.88
681.573	36862.7
681.922	36756.49
682.27	36671.07
682.618	36731.86
682.966	36530.96
683.314	36651.41
683.661	36606.21
684.009	36279.67
684.357	36405.99
684.705	36401.92
685.053	36377.52
685.4	36321.47
685.748	36241.02
686.095	36000.8
686.443	35941.6
686.79	35841.71
687.138	36006.91
687.485	36005.78
687.832	35847.59
688.18	35768.95
688.527	35650.76
688.874	35576.64
689.221	35543.87
689.568	35333.7
689.915	35333.03
690.262	35270.2
690.609	35133.93
690.956	35096.2
691.303	35209.41
691.65	34968.97
691.997	34980.27
692.344	34737.56
692.69	34762.65
693.037	34860.5
693.383	34481.75
693.73	34557.45
694.077	34389.77
694.423	34492.37
694.769	34300.28
695.116	34192.94
695.462	34107.52
695.808	34019.61
696.155	34189.1
696.501	33754.31
696.847	33969.67
697.193	33733.97
697.539	33720.64
697.885	33501.21
698.231	33405.17
698.577	33510.93
698.923	33338.05
699.269	33199.07
699.614	33115.23
699.96	33054.44
700.306	33133.76
700.651	32719.54
700.997	32745.75
701.342	32749.36
701.688	32745.52
702.033	32663.72
702.379	32592.08
702.724	32407.45
703.069	32472.99
703.415	32227.8
703.76	32145.76
704.105	32112.32
704.45	32062.6
704.795	31919.56
705.14	31825.77
705.485	31840.69
705.83	31584.42
706.175	31910.06
706.52	31582.39
706.865	31567.02
707.209	31501.71
707.554	31251.33
707.899	31522.96
708.243	31272.57
708.588	31151.21
708.932	31089.52
709.277	30870.77
709.621	31061.05
709.966	30715.07
710.31	30818.57
710.654	30640.95
710.998	30715.52
711.342	30713.71
711.687	30657.22
712.031	30464.45
712.375	30263.78
712.719	30344.46
713.063	30315.08
713.407	30471.23
713.75	30190.11
714.094	30227.17
714.438	30046.84
714.782	30037.8
715.125	30021.08
715.469	30111.92
715.812	29778.6
716.156	29648.2
716.499	29671.48
716.843	29724.81
717.186	29488.66
717.53	29744.02
717.873	29591.26
718.216	29533.4
718.559	29412.96
718.902	29325.27
719.246	29334.31
719.589	29304.71
719.932	29144.26
720.275	29139.52
720.617	29143.36
720.96	29082.12
721.303	28983.81
721.646	29077.82
721.989	28847.55
722.331	28976.36
722.674	28909.01
723.016	28909.92
723.359	28861.33
723.701	28799.64
724.044	28539.53
724.386	28449.36
724.729	28616.59
725.071	28506.54
725.413	28541.79
725.755	28464.28
726.097	28275.13
726.439	28256.6
726.782	28186.55
727.124	28336.6
727.465	28100.67
727.807	28261.8
728.149	28165.08
728.491	28073.1
728.833	28069.04
729.175	27989.26
729.516	27996.95
729.858	27994.01
730.199	27948.81
730.541	27885.31
730.882	27814.58
731.224	27947.23
731.565	27834.01
731.906	27745.88
732.248	27852.32
732.589	27623.62
732.93	27363.07
733.271	27564.87
733.612	27645.77
733.953	27570.74
734.294	27580.46
734.635	27519.22
734.976	27530.52
735.317	27349.96
735.658	27314.25
735.999	27210.08
736.339	27301.15
736.68	27252.56
737.021	27275.84
737.361	27202.84
737.702	27276.74
738.042	27166.69
738.383	26972.79
738.723	27095.5
739.063	27052.11
739.404	27111.55
739.744	26946.13
740.084	26921.95
740.424	26923.98
740.764	26888.28
741.104	26924.43
741.444	26739.35
741.784	26686.47
742.124	26675.85
742.464	26839.46
742.804	26534.84
743.143	26604.67
743.483	26614.84
743.823	26526.7
744.162	26513.37
744.502	26516.99
744.841	26472.69
745.181	26456.42
745.52	26369.65
745.86	26540.26
746.199	26297.56
746.538	26351.12
746.877	26440.38
747.216	26370.55
747.556	26194.96
747.895	26296.65
748.234	26125.36
748.573	26054.63
748.911	26151.35
749.25	26095.3
749.589	26018.69
749.928	26063.21
750.267	26091.23
750.605	26069.99
750.944	26046.26
751.283	25888.98
751.621	25873.16
751.96	25881.97
752.298	25831.35
752.636	25838.36
752.975	25711.81
753.313	25681.75
753.651	25738.25
753.989	25622.77
754.327	25718.59
754.666	25417.35
755.004	25515.88
755.342	25655.77
755.679	25475.66
756.017	25363.57
756.355	25524.47
756.693	25374.42
757.031	25448.09
757.368	25226.4
757.706	25331.71
758.044	25236.12
758.381	25243.35
758.719	25044.93
759.056	25036.8
759.394	24989.34
759.731	24858.27
760.068	24926.75
760.405	24848.78
760.743	24731.95
761.08	24792.74
761.417	24578.73
761.754	24631.39
762.091	24620.31
762.428	24449.24
762.765	24334.22
763.102	24542.12
763.438	24427.78
763.775	24239.98
764.112	24229.81
764.449	24316.59
764.785	24120.21
765.122	24003.61
765.458	23949.6
765.795	23970.16
766.131	23910.5
766.467	23817.17
766.804	23728.59
767.14	23671.64
767.476	23651.98
767.812	23523.84
768.148	23513.22
768.485	23421.02
768.821	23170.18
769.157	23260.12
769.492	23169.28
769.828	23223.51
770.164	23003.86
770.5	22902.39
770.836	22860.13
771.171	22820.36
771.507	22718.44
771.842	22666.47
772.178	22575.17
772.513	22447.04
772.849	22473.93
773.184	22406.13
773.519	22402.07
773.855	22290.88
774.19	22175.86
774.525	22042.98
774.86	21938.12
775.195	22005.69
775.53	21819.71
775.865	21728.64
776.2	21699.49
776.535	21537.46
776.87	21553.28
777.205	21453.39
777.539	21380.17
777.874	21470.34
778.209	21214.3
778.543	21179.5
778.878	21127.98
779.212	21125.94
779.547	20881.88
779.881	20955.55
780.215	20818.83
780.55	20869
780.884	20668.55
781.218	20526.41
781.552	20576.35
781.886	20472.4
782.22	20411.84
782.554	20350.82
782.888	20147.66
783.222	20104.95
783.556	20018.63
783.889	20021.34
784.223	19830.38
784.557	19849.59
784.89	19847.56
785.224	19800.33
785.557	19664.06
785.891	19613.44
786.224	19543.61
786.558	19448.7
786.891	19304.07
787.224	19270.17
787.557	19121.47
787.891	19127.8
788.224	19096.39
788.557	19147.01
788.89	19053.23
789.223	19020.01
789.556	18865.66
789.888	18850.52
790.221	18785.66
790.554	18558.55
790.887	18571.66
791.219	18524.88
791.552	18554.71
791.884	18493.92
792.217	18330.53
792.549	18291.67
792.882	18158.79
793.214	18093.93
793.546	18097.09
793.879	17992.46
794.211	17940.49
794.543	17873.82
794.875	17868.4
795.207	17886.93
795.539	17863.2
795.871	17896.2
796.203	17613.04
796.535	17503.21
796.867	17522.42
797.198	17374.18
797.53	17491.69
797.862	17286.04
798.193	17211.69
798.525	17161.07
798.856	17218.25
799.188	17035.88
799.519	17020.06
799.85	16875.88
800.182	16837.24
800.513	16886.05
800.844	16760.41
801.175	16859.16
801.506	16755.89
801.837	16714.53
802.168	16693.97
802.499	16610.35
802.83	16517.25
803.161	16452.62
803.491	16405.84
803.822	16503.69
804.153	16393.64
804.483	16237.48
804.814	16202.23
805.145	16160.42
805.475	16188.67
805.805	16129.91
806.136	16107.99
806.466	16087.2
806.796	16005.4
807.126	15857.83
807.457	15762.92
807.787	15797.72
808.117	15898.96
808.447	15769.25
808.777	15783.48
809.107	15665.75
809.436	15655.8
809.766	15691.73
810.096	15551.4
810.426	15523.15
810.755	15509.82
811.085	15406.09
811.414	15424.4
811.744	15327.22
812.073	15350.5
812.403	15274.12
812.732	15206.32
813.061	15164.29
813.39	15050.85
813.719	15089.49
814.049	15073.22
814.378	15106.66
814.707	14972.43
815.036	14998.65
815.365	14837.97
815.693	14767.01
816.022	14787.13
816.351	14678.88
816.68	14607.92
817.008	14746.22
817.337	14529.73
817.665	14565.21
817.994	14666.9
818.322	14576.51
818.651	14479.34
818.979	14445.21
819.307	14427.59
819.636	14543.06
819.964	14326.57
820.292	14381.49
820.62	14434.82
820.948	14337.42
821.276	14314.37
821.604	14191.43
821.932	14312.79
822.259	14254.94
822.587	14190.53
822.915	14199.57
823.243	14239.12
823.57	14238.67
823.898	14232.34
824.225	14218.1
824.553	14221.04
824.88	14235.28
825.207	14265.11
825.535	14243.41
825.862	14244.54
826.189	14218.55
826.516	14194.6
826.843	14225.56
827.17	14247.03
827.497	14355.27
827.824	14258.33
828.151	14280.7
828.478	14252.9
828.805	14295.39
829.131	14250.64
829.458	14181.94
829.785	14171.77
830.111	14078.9
830.438	14235.95
830.764	14192.79
831.09	14159.35
831.417	14091.1
831.743	14227.37
832.069	14156.18
832.395	14129.74
832.722	14126.35
833.048	14141.72
833.374	14065.56
833.7	14030.76
834.026	14028.95
834.351	14047.94
834.677	14016.07
835.003	14073.47
835.329	14083.42
835.654	13996.19
835.98	13882.97
836.306	13951.89
836.631	13866.25
836.956	13904.89
837.282	13811.56
837.607	13866.92
837.932	13758.45
838.258	13763.2
838.583	13758
838.908	13660.38
839.233	13762.75
839.558	13729.98
839.883	13554.16
840.208	13625.35
840.533	13691.33
840.858	13626.93
841.182	13620.6
841.507	13595.07
841.832	13522.98
842.156	13513.94
842.481	13464.67
842.805	13429.19
843.13	13456.54
843.454	13379.93
843.778	13300.61
844.103	13301.51
844.427	13265.81
844.751	13342.19
845.075	13219.03
845.399	13168.86
845.723	13063.55
846.047	13178.81
846.371	13039.15
846.695	13025.59
847.019	12969.55
847.343	12835.76
847.666	12788.99
847.99	12769.33
848.313	12720.29
848.637	12633.28
848.96	12634.64
849.284	12650.91
849.607	12520.52
849.931	12450.01
850.254	12373.86
850.577	12296.34
850.9	12259.73
851.223	12232.39
851.546	12165.27
851.869	12096.35
852.192	12261.99
852.515	12061.32
852.838	12005.73
853.161	12007.31
853.483	11927.77
853.806	11920.53
854.129	11849.12
854.451	11811.61
854.774	11795.11
855.096	11678.73
855.419	11667.66
855.741	11753.53
856.063	11701.33
856.385	11608
856.708	11515.35
857.03	11527.55
857.352	11516.48
857.674	11447.78
857.996	11453.65
858.318	11375.92
858.64	11348.8
858.961	11380.66
859.283	11334.56
859.605	11171.63
859.926	11233.32
860.248	11231.51
860.57	11207.56
860.891	11139.31
861.212	11084.4
861.534	11146.77
861.855	11024.06
862.176	11078.07
862.498	11015.47
862.819	11114.68
863.14	10962.82
863.461	11010.73
863.782	10969.6
864.103	10894.8
864.424	10841.47
864.745	10902.48
865.065	10833.33
865.386	10809.15
865.707	10798.3
866.027	10811.18
866.348	10745.65
866.668	10810.05
866.989	10711.98
867.309	10626.56
867.63	10643.96
867.95	10684.86
868.27	10586.56
868.59	10582.49
868.91	10559.67
869.23	10567.8
869.55	10534.13
869.87	10614.13
870.19	10551.98
870.51	10522.38
870.83	10570.51
871.15	10503.85
871.469	10474.02
871.789	10518.76
872.109	10435.83
872.428	10390.4
872.748	10422.95
873.067	10430.4
873.386	10378.65
873.706	10382.95
874.025	10309.5
874.344	10283.74
874.663	10288.26
874.982	10307.47
875.301	10286
875.62	10294.36
875.939	10196.74
876.258	10210.07
876.577	10136.17
876.896	10163.07
877.214	10119.45
877.533	10137.08
877.852	10130.07
878.17	10130.52
878.489	10083.29
878.807	10078.1
879.125	10053.24
879.444	9987.48
879.762	10049.85
880.08	10020.47
880.398	9982.96
880.716	10000.81
881.034	9960.59
881.352	9968.95
881.67	9922.17
881.988	9958.78
882.306	9887.59
882.624	9857.09
882.941	9810.76
883.259	9760.14
883.577	9786.35
883.894	9720.59
884.212	9750.42
884.529	9746.13
884.846	9662.97
885.164	9605.79
885.481	9639.92
885.798	9712.68
886.115	9573.48
886.432	9513.82
886.75	9532.12
887.067	9550.65
887.383	9513.82
887.7	9546.13
888.017	9491.9
888.334	9505.23
888.651	9427.49
888.967	9418.45
889.284	9351.56
889.6	9337.55
889.917	9265.91
890.233	9300.94
890.55	9235.18
890.866	9283.99
891.182	9223.88
891.498	9236.31
891.815	9103.21
892.131	9163.09
892.447	9075.41
892.763	9060.95
893.079	9047.62
893.395	9003.1
893.71	8980.27
894.026	8938.69
894.342	8953.83
894.657	8872.48
894.973	8865.25
895.289	8852.14
895.604	8806.72
895.92	8763.33
896.235	8720.62
896.55	8770.79
896.865	8658.47
897.181	8630.23
897.496	8739.37
897.811	8543
898.126	8536.44
898.441	8602.43
898.756	8545.26
899.071	8471.81
899.386	8483.79
899.7	8416.22
900.015	8425.26
900.33	8329.67
900.644	8327.63
900.959	8255.55
901.273	8300.74
901.588	8332.61
901.902	8234.08
902.216	8218.48
902.531	8128.32
902.845	8109.33
903.159	8040.86
903.473	8033.4
903.787	8033.63
904.101	8015.55
904.415	7957.93
904.729	7963.8
905.042	7907.76
905.356	7927.87
905.67	7868.66
905.984	7871.83
906.297	7844.48
906.611	7779.85
906.924	7742.56
907.237	7772.39
907.551	7748.44
907.864	7684.94
908.177	7648.1
908.491	7691.94
908.804	7634.77
909.117	7555.45
909.43	7512.06
909.743	7482.23
910.056	7457.83
910.368	7443.36
910.681	7465.74
910.994	7363.37
911.307	7359.75
911.619	7228.45
911.932	7316.14
912.244	7264.61
912.557	7243.82
912.869	7187.78
913.181	7124.5
913.494	7117.72
913.806	7078.18
914.118	7028.69
914.43	7071.62
914.742	6993.88
915.054	7011.28
915.366	7018.97
915.678	6939.42
915.99	6887.9
916.302	6823.72
916.613	6842.48
916.925	6766.32
917.236	6755.47
917.548	6775.13
917.859	6747.34
918.171	6664.18
918.482	6664.63
918.794	6610.62
919.105	6608.36
919.416	6577.4
919.727	6546.21
920.038	6525.87
920.349	6517.74
920.66	6481.81
920.971	6359.1
921.282	6431.41
921.593	6373.34
921.903	6336.27
922.214	6341.7
922.525	6305.54
922.835	6275.48
923.146	6229.38
923.456	6233.68
923.767	6256.95
924.077	6219.89
924.387	6141.7
924.697	6127.69
925.008	6082.95
925.318	6091.76
925.628	6027.58
925.938	6007.24
926.248	5977.19
926.558	5955.27
926.867	5957.53
927.177	5919.79
927.487	5864.87
927.796	5864.2
928.106	5819.45
928.416	5760.24
928.725	5769.96
929.034	5779.45
929.344	5774.71
929.653	5774.03
929.962	5745.56
930.271	5656.74
930.581	5663.52
930.89	5629.17
931.199	5568.84
931.508	5589.4
931.817	5562.74
932.125	5530.42
932.434	5527.71
932.743	5440.03
933.051	5414.72
933.36	5404.1
933.669	5386.47
933.977	5370.65
934.286	5365.23
934.594	5338.33
934.902	5348.5
935.21	5217.21
935.519	5251.1
935.827	5241.16
936.135	5204.33
936.443	5179.92
936.751	5194.84
937.059	5174.5
937.367	5082.07
937.674	5123.2
937.982	5105.57
938.29	5093.14
938.597	5062.86
938.905	5048.85
939.213	4998.46
939.52	4993.94
939.827	4985.12
940.135	4909.42
940.442	4880.04
940.749	4927.05
941.056	4908.74
941.363	4875.52
941.67	4822.87
941.977	4818.12
942.284	4785.81
942.591	4782.87
942.898	4745.81
943.205	4740.38
943.511	4668.97
943.818	4698.13
944.125	4696.09
944.431	4676.66
944.738	4649.09
945.044	4628.75
945.35	4602.08
945.657	4571.8
945.963	4523.89
946.269	4518.47
946.575	4509.66
946.881	4556.21
947.187	4507.85
947.493	4474.18
947.799	4472.82
948.105	4434.18
948.41	4414.06
948.716	4391.01
949.022	4345.37
949.327	4349.43
949.633	4340.62
949.938	4285.71
950.244	4323.9
950.549	4289.32
950.854	4263.79
951.16	4239.38
951.465	4222.43
951.77	4191.47
952.075	4167.07
952.38	4133.17
952.685	4202.77
952.99	4100.63
953.294	4113.51
953.599	4080.06
953.904	4054.3
954.209	4042.1
954.513	4046.62
954.818	4045.03
955.122	3941.08
955.426	3958.71
955.731	3954.42
956.035	3947.41
956.339	3916
956.643	3890.46
956.948	3897.02
957.252	3863.57
957.556	3886.17
957.86	3812.72
958.163	3804.14
958.467	3829.45
958.771	3794.19
959.075	3797.13
959.378	3703.35
959.682	3747.64
959.985	3708.55
960.289	3682.33
960.592	3695.44
960.896	3643.24
961.199	3671.71
961.502	3662.45
961.805	3601.43
962.108	3605.5
962.411	3597.82
962.714	3549.23
963.017	3548.55
963.32	3608.21
963.623	3511.94
963.926	3523.47
964.228	3530.02
964.531	3513.75
964.833	3481.66
965.136	3453.19
965.438	3444.37
965.741	3436.01
966.043	3396.92
966.345	3366.18
966.648	3351.72
966.95	3374.54
967.252	3364.6
967.554	3395.33
967.856	3325.73
968.158	3312.4
968.46	3264.72
968.761	3243.93
969.063	3262.23
969.365	3195.11
969.666	3236.92
969.968	3204.83
970.269	3189.69
970.571	3186.53
970.872	3205.73
971.174	3135.23
971.475	3155.79
971.776	3152.85
972.077	3130.03
972.378	3122.57
972.679	3107.88
972.98	3080.54
973.281	3093.87
973.582	3052.29
973.883	3015.23
974.183	3022.91
974.484	3031.73
974.785	2992.18
975.085	2985.63
975.386	3000.54
975.686	2945.4
975.986	2934.56
976.287	2942.92
976.587	2930.04
976.887	2932.3
977.187	2906.76
977.487	2915.57
977.787	2869.25
978.087	2866.76
978.387	2821.11
978.687	2863.82
978.987	2841.22
979.286	2809.59
979.586	2816.37
979.885	2759.42
980.185	2789.02
980.484	2777.95
980.784	2742.92
981.083	2726.88
981.382	2746.99
981.682	2739.98
981.981	2711.28
982.28	2684.39
982.579	2674.22
982.878	2646.88
983.177	2627.22
983.475	2641.68
983.774	2603.26
984.073	2618.63
984.372	2615.24
984.67	2606.2
984.969	2582.47
985.267	2609.14
985.566	2561.91
985.864	2542.02
986.162	2551.29
986.461	2515.13
986.759	2525.3
987.057	2524.62
987.355	2496.38
987.653	2505.87
987.951	2472.42
988.249	2476.94
988.547	2438.98
988.844	2404.63
989.142	2431.74
989.44	2402.82
989.737	2405.98
990.035	2413.89
990.332	2396.49
990.63	2383.61
990.927	2379.32
991.224	2317.4
991.521	2333.44
991.819	2325.53
992.116	2326.66
992.413	2329.15
992.71	2287.79
993.006	2273.56
993.303	2263.39
993.6	2248.92
993.897	2244.63
994.193	2255.7
994.49	2230.62
994.787	2206.89
995.083	2206.44
995.379	2211.41
995.676	2189.72
995.972	2170.73
996.268	2172.54
996.565	2141.13
996.861	2155.82
997.157	2104.07
997.453	2126.67
997.749	2131.86
998.044	2086.67
998.34	2127.8
998.636	2094.13
998.932	2105.88
999.227	2071.53
999.523	2054.35
999.818	2033.56
1000.114	2032.43
1000.409	2037.86
1000.704	2012.55
1001	2006.44
1001.295	2000.57
1001.59	1966.45
1001.885	1974.81
1002.18	1937.97
1002.475	1935.26
1002.77	1938.88
1003.065	1924.64
1003.359	1930.74
1003.654	1883.06
1003.949	1890.97
1004.243	1858.43
1004.538	1888.48
1004.832	1839.22
1005.127	1857.3
1005.421	1832.89
1005.715	1826.11
1006.009	1821.82
1006.304	1829.95
1006.598	1819.78
1006.892	1794.47
1007.186	1779.11
1007.48	1773.68
1007.773	1782.72
1008.067	1754.93
1008.361	1731.42
1008.655	1738.43
1008.948	1737.75
1009.242	1686.9
1009.535	1717.64
1009.829	1699.33
1010.122	1684.19
1010.415	1664.31
1010.708	1663.63
1011.001	1683.97
1011.295	1648.04
1011.588	1656.62
1011.881	1616.17
1012.173	1612.1
1012.466	1608.71
1012.759	1618.21
1013.052	1599.9
1013.344	1584.31
1013.637	1593.35
1013.93	1550.19
1014.222	1552.9
1014.514	1535.5
1014.807	1536.85
1015.099	1520.81
1015.391	1535.27
1015.683	1520.13
1015.976	1500.02
1016.268	1476.97
1016.56	1484.2
1016.851	1476.97
1017.143	1484.2
1017.435	1472.67
1017.727	1479.68
1018.018	1446.91
1018.31	1440.81
1018.602	1410.75
1018.893	1430.41
1019.185	1392.22
1019.476	1378.44
1019.767	1385.22
1020.058	1363.52
1020.35	1384.77
1020.641	1355.16
1020.932	1364.43
1021.223	1355.61
1021.514	1331.89
1021.804	1299.12
1022.095	1322.39
1022.386	1300.7
1022.677	1300.7
1022.967	1300.93
1023.258	1269.06
1023.548	1271.32
1023.839	1268.38
1024.129	1265.45
1024.419	1264.32
1024.709	1239.01
1025	1243.53
1025.29	1244.88
1025.58	1208.73
1025.87	1187.03
1026.16	1177.77
1026.449	1202.85
1026.739	1186.35
1027.029	1183.42
1027.319	1174.15
1027.608	1168.05
1027.898	1183.87
1028.187	1143.64
1028.477	1127.82
1028.766	1147.48
1029.055	1150.42
1029.344	1114.72
1029.634	1126.69
1029.923	1120.82
1030.212	1110.42
1030.501	1082.4
1030.79	1081.27
1031.078	1067.94
1031.367	1083.98
1031.656	1071.55
1031.945	1033.59
1032.233	1073.81
1032.522	1069.97
1032.81	1043.08
1033.099	1040.14
1033.387	1008.96
1033.675	1006.7
1033.963	1030.2
1034.251	988.39
1034.54	1031.1
1034.828	976.19
1035.116	1000.82
1035.403	997.88
1035.691	974.38
1035.979	984.78
1036.267	944.33
1036.554	931.22
1036.842	955.85
1037.129	947.04
1037.417	935.06
1037.704	937.55
1037.992	926.7
1038.279	917.89
1038.566	895.06
1038.853	895.06
1039.14	895.06
