Data from hue_230_FLMS001491_00060.txt Node
Date: Tue Feb 07 16:37:28 GMT 2017
User: dcchb
Spectrometer: FLMS00149
Trigger mode: 0
Integration Time (sec): 2.000000E-2
Scans to average: 10
Electric dark correction enabled: true
Nonlinearity correction enabled: false
Boxcar width: 0
XAxis mode: Wavelengths
Number of Pixels in Spectrum: 2048
>>>>>Begin Spectral Data<<<<<
341.393	-10.54
341.776	-10.54
342.16	-10.54
342.543	-68.84
342.927	-59.57
343.31	-64.55
343.693	-55.28
344.077	-57.09
344.46	-81.95
344.843	-62.96
345.226	-55.06
345.61	-20.48
345.993	-8.73
346.376	-29.29
346.759	22.91
347.142	34.43
347.525	42.34
347.908	62.91
348.291	76.24
348.674	88.67
349.057	107.88
349.44	128.44
349.823	153.75
350.206	164.37
350.588	175.9
350.971	209.57
351.354	215.9
351.737	229.46
352.119	218.61
352.502	247.76
352.884	243.24
353.267	268.33
353.65	275.33
354.032	301.77
354.414	306.29
354.797	282.79
355.179	306.29
355.562	321.88
355.944	301.09
356.326	324.6
356.709	319.17
357.091	330.92
357.473	316.91
357.855	311.94
358.238	320.3
358.62	322.11
359.002	344.26
359.384	318.27
359.766	289.57
360.148	337.7
360.53	339.74
360.912	316.91
361.294	308.33
361.676	308.1
362.057	325.27
362.439	318.72
362.821	321.66
363.203	303.81
363.584	315.33
363.966	335.9
364.348	310.59
364.729	310.13
365.111	313.97
365.493	311.26
365.874	305.84
366.256	310.36
366.637	303.81
367.019	297.93
367.4	278.95
367.781	296.12
368.163	303.58
368.544	289.79
368.925	296.12
369.306	304.26
369.688	302.68
370.069	286.4
370.45	302.9
370.831	306.74
371.212	296.8
371.593	292.05
371.974	297.48
372.355	306.97
372.736	315.78
373.117	321.43
373.498	302.9
373.879	307.87
374.26	309.68
374.641	283.69
375.021	294.31
375.402	305.16
375.783	308.78
376.163	302.68
376.544	319.62
376.925	322.11
377.305	326.63
377.686	331.83
378.066	310.13
378.447	316.01
378.827	342.9
379.208	321.66
379.588	321.21
379.968	316.23
380.349	304.26
380.729	313.75
381.109	341.77
381.489	323.92
381.87	323.92
382.25	324.14
382.63	328.89
383.01	325.95
383.39	334.77
383.77	346.06
384.15	319.62
384.53	337.7
384.91	341.09
385.29	321.43
385.67	336.57
386.049	358.72
386.429	326.86
386.809	335.44
387.189	357.59
387.568	350.36
387.948	358.49
388.328	333.41
388.707	335.9
389.087	371.6
389.466	353.07
389.846	344.48
390.225	361.21
390.605	350.58
390.984	371.37
391.363	357.14
391.743	370.7
392.122	360.98
392.501	355.1
392.881	368.89
393.26	358.72
393.639	361.88
394.018	377.48
394.397	374.09
394.776	350.13
395.155	372.96
395.534	358.49
395.913	366.4
396.292	386.29
396.671	377.48
397.05	394.42
397.429	375.44
397.808	385.16
398.186	381.32
398.565	389.45
398.944	380.64
399.323	386.52
399.701	379.06
400.08	405.95
400.458	384.48
400.837	393.29
401.215	416.12
401.594	371.83
401.972	382.67
402.351	370.92
402.729	402.11
403.107	413.41
403.486	406.18
403.864	415.89
404.242	421.09
404.62	427.64
404.999	420.19
405.377	420.19
405.755	425.61
406.133	428.77
406.511	449.11
406.889	436.91
407.267	462.67
407.645	441.2
408.023	452.73
408.401	463.58
408.779	467.42
409.156	482.33
409.534	476.91
409.912	465.38
410.29	476
410.667	486.63
411.045	489.79
411.422	515.55
411.8	531.37
412.178	507.64
412.555	525.04
412.933	547.41
413.31	546.51
413.687	553.97
414.065	546.96
414.442	543.12
414.819	553.52
415.197	553.52
415.574	573.4
415.951	578.15
416.328	581.99
416.705	598.26
417.082	607.3
417.46	579.96
417.837	593.52
418.214	608.43
418.591	603.68
418.967	624.25
419.344	619.05
419.721	640.97
420.098	666.96
420.475	683.91
420.852	675.1
421.228	670.35
421.605	707.64
421.982	689.11
422.358	697.24
422.735	722.78
423.111	711.7
423.488	730.91
423.864	764.13
424.241	766.17
424.617	763.68
424.994	778.6
425.37	786.96
425.746	783.34
426.123	833.51
426.499	795.09
426.875	817.24
427.251	827.41
427.627	878.71
428.003	859.27
428.379	828.09
428.756	875.99
429.132	867.86
429.507	888.65
429.883	890.91
430.259	916.44
430.635	919.83
431.011	918.48
431.387	946.73
431.763	969.55
432.138	983.11
432.514	987.63
432.89	956.44
433.265	1000.96
433.641	1029.44
434.016	1044.58
434.392	1056.78
434.767	1071.02
435.143	1101.3
435.518	1084.8
435.894	1109.43
436.269	1125.7
436.644	1162.54
437.02	1156.44
437.395	1172.71
437.77	1211.58
438.145	1224.69
438.52	1231.24
438.895	1228.75
439.271	1272.14
439.646	1288.86
440.021	1292.93
440.395	1288.41
440.77	1291.35
441.145	1300.62
441.52	1369.54
441.895	1355.53
442.27	1389.65
442.645	1368.64
443.019	1412.7
443.394	1403.44
443.769	1439.37
444.143	1418.58
444.518	1438.92
444.892	1463.78
445.267	1463.32
445.641	1483.66
446.016	1483.89
446.39	1514.85
446.764	1501.51
447.139	1505.36
447.513	1540.61
447.887	1540.84
448.262	1535.19
448.636	1555.52
449.01	1581.96
449.384	1571.34
449.758	1582.87
450.132	1610.21
450.506	1624.22
450.88	1659.02
451.254	1648.85
451.628	1674.17
452.002	1708.51
452.376	1660.38
452.75	1693.6
453.123	1732.69
453.497	1753.48
453.871	1743.99
454.244	1782.18
454.618	1796.87
454.992	1824.67
455.365	1821.51
455.739	1856.08
456.112	1823.09
456.486	1852.01
456.859	1903.09
457.232	1927.94
457.606	1922.52
457.979	1938.11
458.352	1990.99
458.725	2007.94
459.099	2000.03
459.472	2077.32
459.845	2068.73
460.218	2065.12
460.591	2091.78
460.964	2119.58
461.337	2151.89
461.71	2217.2
462.083	2193.47
462.456	2230.08
462.829	2188.28
463.201	2272.57
463.574	2255.62
463.947	2299.01
464.32	2344.88
464.692	2354.83
465.065	2399.34
465.438	2401.15
465.81	2418.78
466.183	2453.35
466.555	2505.78
466.928	2502.39
467.3	2518.21
467.672	2558.44
468.045	2617.42
468.417	2581.94
468.789	2579.68
469.161	2652.67
469.534	2716.62
469.906	2722.73
470.278	2760.69
470.65	2813.8
471.022	2831.87
471.394	2874.36
471.766	2902.61
472.138	2900.57
472.51	2982.83
472.882	3021.47
473.253	3041.59
473.625	3075.26
473.997	3112.77
474.369	3170.62
474.74	3165.2
475.112	3207.46
475.484	3287.68
475.855	3333.33
476.227	3333.78
476.598	3434.34
476.97	3449.71
477.341	3537.84
477.713	3565.87
478.084	3595.92
478.455	3663.94
478.827	3692.42
479.198	3795.24
479.569	3778.06
479.94	3863.49
480.311	3905.29
480.682	4048.57
481.053	4102.8
481.424	4103.71
481.795	4134.21
482.166	4162.01
482.537	4218.73
482.908	4337.82
483.279	4344.38
483.65	4378.5
484.021	4494.2
484.391	4568.55
484.762	4559.96
485.133	4588.44
485.503	4650.36
485.874	4767.19
486.244	4802.22
486.615	4846.29
486.985	4906.85
487.356	4991.37
487.726	5067.97
488.097	5119.5
488.467	5116.79
488.837	5208.54
489.207	5221.19
489.578	5374.18
489.948	5390.23
490.318	5411.69
490.688	5472.03
491.058	5505.93
491.428	5563.78
491.798	5554.29
492.168	5655.76
492.538	5718.13
492.908	5792.02
493.278	5870.21
493.648	5875.41
494.017	5843.09
494.387	5890.78
494.757	5958.8
495.126	6086.93
495.496	6034.73
495.866	6093.94
496.235	6134.61
496.605	6199.7
496.974	6220.26
497.344	6224.33
497.713	6193.82
498.082	6263.2
498.452	6332.57
498.821	6337.55
499.19	6422.74
499.559	6395.85
499.928	6457.09
500.298	6511.55
500.667	6542.74
501.036	6472.46
501.405	6594.26
501.774	6552
502.143	6600.82
502.512	6638.55
502.88	6661.6
503.249	6669.74
503.618	6756.97
503.987	6722.85
504.356	6733.92
504.724	6790.19
505.093	6805.33
505.462	6828.83
505.83	6841.71
506.199	6900.92
506.567	6984.31
506.936	6942.95
507.304	7014.36
507.672	7017.98
508.041	7036.28
508.409	7132.1
508.777	7022.95
509.145	7160.35
509.514	7080.8
509.882	7133.46
510.25	7180.69
510.618	7161.7
510.986	7159.67
511.354	7183.17
511.722	7213.68
512.09	7216.17
512.458	7295.03
512.826	7278.99
513.193	7332.77
513.561	7324.41
513.929	7415.26
514.297	7424.07
514.664	7463.17
515.032	7441.02
515.4	7406.22
515.767	7430.4
516.135	7549.26
516.502	7444.41
516.869	7567.12
517.237	7537.51
517.604	7460.68
517.972	7559.21
518.339	7566.67
518.706	7612.31
519.073	7536.38
519.44	7528.02
519.808	7671.07
520.175	7587
520.542	7665.87
520.909	7628.81
521.276	7687.34
521.643	7681.46
522.009	7729.6
522.376	7813.44
522.743	7764.63
523.11	7756.04
523.477	7816.83
523.843	7878.75
524.21	7895.02
524.577	7859.31
524.943	7896.83
525.31	7895.7
525.676	7996.48
526.043	7967.78
526.409	7961.01
526.776	7990.84
527.142	7980.44
527.508	8019.76
527.874	8066.09
528.241	8009.14
528.607	8045.3
528.973	8074
529.339	8008.24
529.705	8093.88
530.071	8092.3
530.437	8096.37
530.803	8132.98
531.169	8120.1
531.535	8063.15
531.901	8116.93
532.267	8073.09
532.632	8107.67
532.998	8088.69
533.364	8122.81
533.73	8104.28
534.095	8117.16
534.461	8064.96
534.826	8161.23
535.192	8116.71
535.557	8118.06
535.923	8164.84
536.288	8197.84
536.653	8098.4
537.019	8084.39
537.384	8062.92
537.749	8088.01
538.114	8087.56
538.479	8034
538.845	8089.36
539.21	7996.26
539.575	7987.22
539.94	8048.69
540.305	8042.59
540.67	7975.92
541.034	7979.54
541.399	7996.03
541.764	7950.16
542.129	7969.82
542.494	7998.29
542.858	7992.42
543.223	7889.37
543.587	7995.81
543.952	7929.59
544.316	7917.62
544.681	7879.2
545.045	7861.35
545.41	7930.27
545.774	7907
546.138	7827.9
546.503	7892.08
546.867	7804.4
547.231	7851.86
547.595	7803.27
547.959	7792.2
548.324	7766.21
548.688	7723.95
549.052	7769.15
549.416	7770.5
549.779	7735.25
550.143	7699.77
550.507	7777.73
550.871	7749.03
551.235	7667.45
551.599	7706.1
551.962	7653.44
552.326	7673.1
552.689	7692.31
553.053	7678.3
553.417	7662.03
553.78	7697.06
554.143	7608.7
554.507	7657.74
554.87	7672.88
555.234	7729.83
555.597	7623.39
555.96	7678.75
556.323	7627.91
556.686	7673.1
557.05	7681.01
557.413	7663.16
557.776	7717.62
558.139	7639.66
558.502	7627.23
558.865	7639.66
559.228	7718.3
559.59	7682.14
559.953	7662.71
560.316	7727.34
560.679	7706.1
561.041	7720.79
561.404	7733.21
561.767	7749.94
562.129	7676.04
562.492	7754.91
562.854	7697.06
563.217	7777.28
563.579	7743.84
563.941	7808.02
564.304	7791.97
564.666	7786.77
565.028	7756.04
565.39	7864.51
565.753	7835.81
566.115	7889.14
566.477	7907.22
566.839	7899.99
567.201	7897.05
567.563	7864.74
567.925	7922.81
568.287	7937.73
568.648	7970.72
569.01	8023.83
569.372	8038.97
569.734	8005.52
570.095	8048.46
570.457	8030.83
570.819	8014.11
571.18	8018.63
571.542	8107.44
571.903	8039.65
572.265	8114.22
572.626	8085.97
572.987	8104.5
573.349	8177.5
573.71	8161.23
574.071	8140.89
574.432	8210.94
574.794	8267.66
575.155	8179.76
575.516	8196.71
575.877	8261.56
576.238	8291.62
576.599	8281.45
576.96	8299.08
577.32	8241.45
577.681	8357.61
578.042	8302.24
578.403	8365.74
578.763	8338.17
579.124	8343.14
579.485	8423.82
579.845	8509.24
580.206	8400.32
580.566	8442.35
580.927	8431.95
581.287	8485.51
581.648	8479.41
582.008	8557.6
582.368	8529.8
582.728	8552.63
583.089	8564.15
583.449	8538.17
583.809	8581.55
584.169	8572.97
584.529	8578.84
584.889	8678.5
585.249	8606.64
585.609	8535.91
585.969	8641.89
586.329	8683.47
586.688	8717.82
587.048	8571.16
587.408	8717.6
587.768	8650.7
588.127	8653.42
588.487	8636.47
588.846	8786.97
589.206	8691.83
589.565	8698.39
589.925	8717.37
590.284	8752.62
590.643	8700.19
591.003	8824.26
591.362	8788.55
591.721	8831.26
592.08	8741.1
592.44	8867.42
592.799	8854.99
593.158	8839.63
593.517	8793.75
593.876	8837.59
594.235	8792.4
594.593	8816.12
594.952	8834.2
595.311	8753.3
595.67	8878.95
596.029	8839.4
596.387	8937.7
596.746	8870.36
597.104	8889.12
597.463	8876.46
597.822	8919.4
598.18	8870.81
598.538	8880.08
598.897	8957.14
599.255	8874.43
599.613	9013.41
599.972	8937.48
600.33	8957.14
600.688	8925.95
601.046	8973.18
601.404	8963.24
601.762	8937.25
602.12	8985.16
602.478	9011.37
602.836	9006.4
603.194	8967.53
603.552	9011.6
603.91	8977.48
604.268	9032.84
604.625	8955.56
604.983	8973.63
605.341	9005.05
605.698	8966.63
606.056	9063.35
606.413	9021.09
606.771	9060.64
607.128	9126.4
607.485	9053.63
607.843	9106.29
608.2	9142.67
608.557	9070.58
608.914	9060.41
609.272	9067.87
609.629	9078.49
609.986	9125.72
610.343	9139.73
610.7	9108.32
611.057	9114.2
611.414	9189.45
611.771	9123.69
612.127	9183.12
612.484	9179.73
612.841	9275.77
613.198	9181.31
613.554	9182.67
613.911	9217.92
614.267	9193.06
614.624	9170.69
614.98	9242.78
615.337	9300.86
615.693	9157.58
616.05	9199.16
616.406	9321.87
616.762	9314.19
617.118	9258.6
617.475	9270.8
617.831	9369.33
618.187	9244.36
618.543	9262.89
618.899	9354.87
619.255	9321.2
619.611	9350.12
619.967	9333.17
620.323	9346.28
620.678	9347.64
621.034	9307.64
621.39	9299.73
621.746	9267.41
622.101	9381.31
622.457	9325.94
622.812	9380.4
623.168	9375.21
623.523	9358.26
623.879	9445.26
624.234	9314.19
624.589	9391.93
624.945	9265.83
625.3	9329.78
625.655	9321.2
626.01	9330.01
626.365	9353.06
626.72	9422.89
627.075	9326.62
627.43	9320.29
627.785	9319.39
628.14	9338.6
628.495	9290.24
628.85	9330.01
629.205	9265.6
629.559	9398.71
629.914	9270.12
630.269	9257.47
630.623	9261.54
630.978	9263.12
631.332	9347.18
631.687	9276.68
632.041	9259.28
632.396	9285.72
632.75	9191.93
633.104	9197.13
633.459	9227.41
633.813	9211.37
634.167	9237.81
634.521	9221.76
634.875	9258.15
635.229	9196.23
635.583	9119.62
635.937	9095.89
636.291	9161.88
636.645	9083.24
636.999	9123.01
637.352	9139.05
637.706	9085.95
638.06	9130.92
638.413	9062.45
638.767	9004.59
639.121	9118.04
639.474	9040.75
639.828	9027.19
640.181	9003.46
640.534	8991.94
640.888	9013.18
641.241	8999.85
641.594	8948.78
641.947	9028.77
642.301	9000.07
642.654	8975.67
643.007	8994.42
643.36	8984.03
643.713	8956.46
644.066	8952.39
644.419	8890.7
644.771	8862
645.124	8809.8
645.477	8759.85
645.83	8753.3
646.182	8678.27
646.535	8665.85
646.888	8694.55
647.24	8664.49
647.593	8667.65
647.945	8665.17
648.298	8583.14
648.65	8601.67
649.002	8571.38
649.355	8645.28
649.707	8633.08
650.059	8672.85
650.411	8759.63
650.763	8739.06
651.115	8850.47
651.467	8769.12
651.819	8832.62
652.171	8825.62
652.523	8824.03
652.875	8799.85
653.227	8775.9
653.578	8842.79
653.93	8802.34
654.282	8762.11
654.633	8774.32
654.985	8763.24
655.337	8802.34
655.688	8870.13
656.039	8875.56
656.391	8746.3
656.742	8807.54
657.094	8770.02
657.445	8852.73
657.796	8747.88
658.147	8822.68
658.498	8760.98
658.849	8795.56
659.2	8820.42
659.551	8783.81
659.902	8766.63
660.253	8796.69
660.604	8755.56
660.955	8840.76
661.306	8864.03
661.656	8857.7
662.007	8853.64
662.358	8812.06
662.708	8784.94
663.059	8828.55
663.409	8739.52
663.76	8842.79
664.11	8811.83
664.461	8856.8
664.811	8844.15
665.161	8851.38
665.511	8772.51
665.862	8803.02
666.212	8907.2
666.562	8849.12
666.912	8789.68
667.262	8750.59
667.612	8747.65
667.962	8829.23
668.312	8870.36
668.662	8795.11
669.011	8866.97
669.361	8832.17
669.711	8872.62
670.06	8795.56
670.41	8782.9
670.76	8764.6
671.109	8758.72
671.459	8762.11
671.808	8746.75
672.157	8810.7
672.507	8721.44
672.856	8726.63
673.205	8727.54
673.554	8735.45
673.904	8638.5
674.253	8736.58
674.602	8727.54
674.951	8658.39
675.3	8541.78
675.649	8674.66
675.998	8688.44
676.346	8657.26
676.695	8727.99
677.044	8615
677.393	8658.39
677.741	8688.9
678.09	8585.4
678.438	8595.79
678.787	8574.77
679.135	8620.65
679.484	8544.49
679.832	8591.27
680.181	8515.79
680.529	8563.93
680.877	8524.83
681.225	8507.66
681.573	8565.96
681.922	8505.85
682.27	8506.08
682.618	8495
682.966	8442.57
683.314	8428.11
683.661	8413.87
684.009	8382.24
684.357	8374.78
684.705	8296.36
685.053	8351.5
685.4	8305.86
685.748	8243.94
686.095	8284.61
686.443	8293.2
686.79	8216.59
687.138	8239.42
687.485	8216.82
687.832	8197.16
688.18	8213.43
688.527	8111.28
688.874	8155.12
689.221	8106.54
689.568	8064.73
689.915	8118.29
690.262	8062.47
690.609	8025.41
690.956	7985.86
691.303	8008.91
691.65	7947.45
691.997	7981.57
692.344	7938.63
692.69	7939.09
693.037	7933.44
693.383	7837.39
693.73	7881.23
694.077	7823.83
694.423	7848.92
694.769	7730.73
695.116	7755.59
695.462	7710.84
695.808	7687.11
696.155	7715.59
696.501	7668.36
696.847	7619.32
697.193	7599.66
697.539	7592.65
697.885	7445.76
698.231	7481.7
698.577	7485.31
698.923	7489.61
699.269	7415.03
699.614	7342.26
699.96	7340.91
700.306	7342.72
700.651	7301.59
700.997	7261.59
701.342	7300.91
701.688	7277.18
702.033	7218.43
702.379	7239.44
702.724	7220.01
703.069	7163.74
703.415	7131.2
703.76	7106.34
704.105	7077.19
704.45	7075.38
704.795	6999.67
705.14	6977.98
705.485	7054.14
705.83	6946.12
706.175	7039.9
706.52	6940.24
706.865	6979.79
707.209	6860.02
707.554	6903.63
707.899	6887.36
708.243	6816.85
708.588	6855.05
708.932	6783.18
709.277	6762.17
709.621	6783.18
709.966	6755.39
710.31	6747.48
710.654	6703.86
710.998	6722.62
711.342	6684.65
711.687	6701.83
712.031	6635.84
712.375	6647.82
712.719	6639.46
713.063	6631.1
713.407	6594.26
713.75	6581.83
714.094	6585.45
714.438	6568.5
714.782	6537.99
715.125	6528.95
715.469	6512.91
715.812	6469.97
716.156	6432.46
716.499	6466.36
716.843	6475.17
717.186	6437.66
717.53	6429.29
717.873	6432.01
718.216	6432.91
718.559	6378.22
718.902	6386.58
719.246	6413.93
719.589	6367.6
719.932	6347.94
720.275	6309.3
720.617	6357.88
720.96	6343.42
721.303	6353.82
721.646	6318.79
721.989	6299.35
722.331	6355.85
722.674	6335.51
723.016	6274.5
723.359	6307.26
723.701	6267.49
724.044	6240.6
724.386	6240.37
724.729	6276.08
725.071	6238.34
725.413	6273.37
725.755	6279.24
726.097	6236.53
726.439	6205.57
726.782	6190.43
727.124	6281.5
727.465	6239.92
727.807	6232.69
728.149	6219.13
728.491	6209.86
728.833	6241.28
729.175	6173.03
729.516	6187.04
729.858	6158.11
730.199	6230.66
730.541	6229.3
730.882	6234.05
731.224	6223.2
731.565	6224.78
731.906	6194.5
732.248	6162.41
732.589	6166.48
732.93	6182.75
733.271	6104.56
733.612	6164.67
733.953	6202.63
734.294	6172.13
734.635	6151.34
734.976	6164.67
735.317	6161.28
735.658	6147.95
735.999	6170.32
736.339	6180.94
736.68	6238.34
737.021	6186.59
737.361	6175.06
737.702	6215.06
738.042	6188.4
738.383	6201.73
738.723	6233.14
739.063	6184.1
739.404	6225.46
739.744	6250.32
740.084	6222.97
740.424	6207.61
740.764	6233.82
741.104	6244.67
741.444	6290.31
741.784	6201.05
742.124	6311.78
742.464	6265
742.804	6240.15
743.143	6315.4
743.483	6308.62
743.823	6258
744.162	6315.17
744.502	6374.83
744.841	6376.19
745.181	6363.31
745.52	6373.93
745.86	6457.54
746.199	6420.93
746.538	6511.1
746.877	6534.6
747.216	6555.62
747.556	6589.52
747.895	6620.48
748.234	6643.07
748.573	6621.61
748.911	6737.76
749.25	6757.42
749.589	6731.66
749.928	6770.75
750.267	6917.87
750.605	6919.9
750.944	6966.23
751.283	6959.45
751.621	7083.29
751.96	7074.7
752.298	7200.8
752.636	7255.94
752.975	7281.02
753.313	7302.27
753.651	7500.45
753.989	7490.06
754.327	7588.59
754.666	7643.05
755.004	7709.71
755.342	7859.99
755.679	7928.92
756.017	7984.28
756.355	8155.35
756.693	8156.48
757.031	8262.92
757.368	8396.93
757.706	8492.29
758.044	8574.32
758.381	8713.98
758.719	8834.43
759.056	8886.63
759.394	9003.46
759.731	9101.54
760.068	9153.97
760.405	9316.9
760.743	9456.11
761.08	9526.39
761.417	9607.06
761.754	9741.3
762.091	9928.86
762.428	10001.4
762.765	10026.04
763.102	10274.62
763.438	10351.45
763.775	10376.31
764.112	10593.25
764.449	10680.93
764.785	10756.41
765.122	10821.27
765.458	10925.67
765.795	11076.4
766.131	11135.84
766.467	11270.97
766.804	11243.63
767.14	11368.15
767.476	11580.8
767.812	11568.59
768.148	11696.5
768.485	11803.39
768.821	11879.77
769.157	11849.94
769.492	12055.36
769.828	12133.1
770.164	12115.7
770.5	12169.93
770.836	12271.85
771.171	12310.04
771.507	12372.87
771.842	12367.44
772.178	12459.64
772.513	12587.32
772.849	12639.75
773.184	12641.33
773.519	12629.13
773.855	12771.05
774.19	12720.88
774.525	12843.36
774.86	12867.54
775.195	12934.21
775.53	12962.91
775.865	12966.52
776.2	12801.56
776.535	12880.2
776.87	12976.01
777.205	12961.55
777.539	12939.18
777.874	13099.4
778.209	13065.73
778.543	12966.3
778.878	12990.25
779.212	13046.07
779.547	13039.06
779.881	13138.72
780.215	12999.97
780.55	13067.54
780.884	13043.81
781.218	13122.9
781.552	13158.38
781.886	13109.12
782.22	13041.1
782.554	13027.76
782.888	13019.4
783.222	12941.44
783.556	12971.04
783.889	12991.61
784.223	12869.12
784.557	12922
784.89	13034.77
785.224	12971.27
785.557	12919.07
785.891	12909.35
786.224	12928.11
786.558	12920.87
786.891	12790.48
787.224	12851.72
787.557	12784.61
787.891	12812.18
788.224	12794.55
788.557	12844.27
788.89	12837.49
789.223	12799.3
789.556	12755.23
789.888	12702.35
790.221	12708
790.554	12618.06
790.887	12594.1
791.219	12563.82
791.552	12556.36
791.884	12551.62
792.217	12533.54
792.549	12479.98
792.882	12433.66
793.214	12398.85
793.546	12477.04
793.879	12333.55
794.211	12350.27
794.543	12275.24
794.875	12404.73
795.207	12351.62
795.539	12223.49
795.871	12320.89
796.203	12227.79
796.535	12164.28
796.867	12165.41
797.198	12044.29
797.53	12075.93
797.862	12072.99
798.193	12070.73
798.525	12000.9
798.856	12049.94
799.188	11899.66
799.519	11857.63
799.85	11853.56
800.182	11900.56
800.513	11807.91
800.844	11817.63
801.175	11870.51
801.506	11826.67
801.837	11763.39
802.168	11741.7
802.499	11726.56
802.83	11610.63
803.161	11628.71
803.491	11604.07
803.822	11659.21
804.153	11533.11
804.483	11494.7
804.814	11498.09
805.145	11523.4
805.475	11508.93
805.805	11399.33
806.136	11397.07
806.466	11391.42
806.796	11366.79
807.126	11293.8
807.457	11270.97
807.787	11269.17
808.117	11269.39
808.447	11143.75
808.777	11295.15
809.107	11106.91
809.436	11092.45
809.766	11136.97
810.096	11088.38
810.426	11081.6
810.755	11015.61
811.085	11011.77
811.414	11064.65
811.744	10900.36
812.073	10901.04
812.403	10912.79
812.732	10893.81
813.061	10896.52
813.39	10818.33
813.719	10800.03
814.049	10834.38
814.378	10810.65
814.707	10731.55
815.036	10692.01
815.365	10722.74
815.693	10645.68
816.022	10645.68
816.351	10652.01
816.68	10546.25
817.008	10659.01
817.337	10475.52
817.665	10478.23
817.994	10538.11
818.322	10503.76
818.651	10468.96
818.979	10467.38
819.307	10453.37
819.636	10444.78
819.964	10420.6
820.292	10468.74
820.62	10407.72
820.948	10415.63
821.276	10403.88
821.604	10418.57
821.932	10457.21
822.259	10364.33
822.587	10371.79
822.915	10404.1
823.243	10417.89
823.57	10341.96
823.898	10396.42
824.225	10275.97
824.553	10265.13
824.88	10389.87
825.207	10407.49
825.535	10284.11
825.862	10409.75
826.189	10384.9
826.516	10402.52
826.843	10477.1
827.17	10449.98
827.497	10353.03
827.824	10456.98
828.151	10399.13
828.478	10440.94
828.805	10458.34
829.131	10355.29
829.458	10415.63
829.785	10434.61
830.111	10329.76
830.438	10412.01
830.764	10400.94
831.09	10413.14
831.417	10403.65
831.743	10442.97
832.069	10436.42
832.395	10307.84
832.722	10332.24
833.048	10283.88
833.374	10326.82
833.7	10346.71
834.026	10329.53
834.351	10335.41
834.677	10252.47
835.003	10344.22
835.329	10304.9
835.654	10328.4
835.98	10233.26
836.306	10273.94
836.631	10265.35
836.956	10183.32
837.282	10268.29
837.607	10233.71
837.932	10136.32
838.258	10207.73
838.583	10147.16
838.908	10181.29
839.233	10186.94
839.558	10084.57
839.883	10105.36
840.208	10054.51
840.533	10038.92
840.858	10098.58
841.182	10047.5
841.507	10014.96
841.832	9940.16
842.156	9978.58
842.481	9967.28
842.805	10010.44
843.13	9952.37
843.454	9920.73
843.778	9817.68
844.103	9827.62
844.427	9822.65
844.751	9852.26
845.075	9746.5
845.399	9715.31
845.723	9697
846.047	9687.97
846.371	9591.02
846.695	9593.96
847.019	9573.84
847.343	9504.69
847.666	9546.73
847.99	9488.87
848.313	9478.25
848.637	9352.83
848.96	9396
849.284	9319.61
849.607	9256.34
849.931	9294.3
850.254	9222.22
850.577	9137.25
850.9	9132.95
851.223	9132.73
851.546	9104.25
851.869	9028.1
852.192	9062.9
852.515	8972.5
852.838	8873.52
853.161	8904.71
853.483	8936.57
853.806	8862
854.129	8811.6
854.451	8775.67
854.774	8770.93
855.096	8763.02
855.419	8718.95
855.741	8735
856.063	8645.73
856.385	8609.8
856.708	8680.99
857.03	8615.68
857.352	8619.52
857.674	8546.75
857.996	8568.22
858.318	8464.27
858.64	8479.18
858.961	8447.09
859.283	8410.71
859.605	8379.07
859.926	8374.33
860.248	8315.57
860.57	8294.56
860.891	8448.68
861.212	8289.36
861.534	8215.24
861.855	8258.4
862.176	8302.69
862.498	8233.54
862.819	8191.06
863.14	8240.32
863.461	8189.7
863.782	8165.29
864.103	8204.61
864.424	8154.45
864.745	8232.41
865.065	8136.59
865.386	8074.45
865.707	8071.74
866.027	8048.01
866.348	8061.79
866.668	8067.22
866.989	8040.78
867.309	7952.87
867.63	8008.69
867.95	7967.33
868.27	7919.2
868.59	7916.26
868.91	7923.72
869.23	7946.09
869.55	7895.47
869.87	7937.28
870.19	7916.03
870.51	7879.43
870.83	7916.03
871.15	7812.08
871.469	7812.53
871.789	7902.25
872.109	7902.25
872.428	7794.91
872.748	7741.8
873.067	7774.57
873.386	7782.7
873.706	7785.42
874.025	7660.67
874.344	7719.43
874.663	7701.58
874.982	7688.02
875.301	7705.19
875.62	7660.9
875.939	7661.35
876.258	7616.16
876.577	7648.02
876.896	7622.71
877.214	7620.22
877.533	7610.28
877.852	7574.8
878.17	7595.59
878.489	7559.89
878.807	7504.52
879.125	7517.63
879.444	7534.58
879.762	7526.44
880.08	7543.84
880.398	7517.85
880.716	7500
881.034	7472.66
881.352	7462.26
881.67	7483.73
881.988	7443.96
882.306	7412.32
882.624	7393.56
882.941	7365.54
883.259	7340.23
883.577	7413.22
883.894	7367.57
884.212	7316.28
884.529	7289.38
884.846	7250.29
885.164	7247.35
885.481	7193.57
885.798	7305.2
886.115	7213.91
886.432	7229.95
886.75	7273.57
887.067	7186.11
887.383	7162.61
887.7	7122.61
888.017	7127.58
888.334	7093.91
888.651	7100.24
888.967	7124.87
889.284	7029.05
889.6	7037.19
889.917	7004.19
890.233	7052.55
890.55	6936.85
890.866	6925.55
891.182	6931.65
891.498	6928.94
891.815	6889.4
892.131	6841.94
892.447	6861.6
892.763	6873.58
893.079	6771.66
893.395	6799
893.71	6806.46
894.026	6766.01
894.342	6789.74
894.657	6652.79
894.973	6724.88
895.289	6667.71
895.604	6658.44
895.92	6649.18
896.235	6583.87
896.55	6541.38
896.865	6574.6
897.181	6539.8
897.496	6587.71
897.811	6468.39
898.126	6460.93
898.441	6438.79
898.756	6418.22
899.071	6369.18
899.386	6373.93
899.7	6382.52
900.015	6298.68
900.33	6285.57
900.644	6275.63
900.959	6239.47
901.273	6274.72
901.588	6224.33
901.902	6201.28
902.216	6211.67
902.531	6131
902.845	6116.53
903.159	6106.14
903.473	6060.26
903.787	6084.67
904.101	6000.83
904.415	6040.15
904.729	6014.16
905.042	5952.02
905.356	5980.94
905.67	5945.92
905.984	5946.82
906.297	5862.98
906.611	5886.71
906.924	5829.31
907.237	5857.56
907.551	5824.11
907.864	5788.18
908.177	5781.4
908.491	5723.78
908.804	5711.57
909.117	5666.83
909.43	5667.28
909.743	5644.23
910.056	5592.71
910.368	5555.19
910.681	5586.38
910.994	5568.53
911.307	5552.48
911.619	5509.32
911.932	5497.12
912.244	5457.79
912.557	5494.86
912.869	5433.16
913.181	5396.33
913.494	5413.95
913.806	5389.55
914.118	5362.43
914.43	5353.16
914.742	5276.56
915.054	5307.06
915.366	5310
915.678	5228.42
915.99	5210.34
916.302	5172.15
916.613	5170.8
916.925	5220.06
917.236	5125.6
917.548	5126.05
917.859	5123.57
918.171	5010.8
918.482	5061.19
918.794	5073.62
919.105	5048.09
919.416	4979.61
919.727	5015.55
920.038	5013.96
920.349	4960.63
920.66	4945.04
920.971	4936.68
921.282	4889.45
921.593	4871.6
921.903	4851.03
922.214	4803.57
922.525	4815.33
922.835	4787.08
923.146	4734.2
923.456	4743.91
923.767	4702.79
924.077	4691.26
924.387	4693.07
924.697	4674.31
925.008	4638.83
925.318	4671.6
925.628	4652.17
925.938	4583.92
926.248	4567.65
926.558	4538.27
926.867	4573.52
927.177	4585.5
927.487	4558.38
927.796	4506.41
928.106	4433.87
928.416	4427.99
928.725	4492.17
929.034	4423.7
929.344	4413.53
929.653	4372.4
929.962	4380.99
930.271	4368.11
930.581	4327.65
930.89	4279.52
931.199	4296.92
931.508	4299.41
931.817	4262.35
932.125	4270.71
932.434	4244.27
932.743	4164.95
933.051	4194.55
933.36	4177.38
933.669	4136.7
933.977	4134.67
934.286	4103.48
934.594	4085.4
934.902	4081.33
935.21	4075.46
935.519	4078.17
935.827	4093.99
936.135	4052.63
936.443	4031.84
936.751	3967.89
937.059	3987.78
937.367	3970.83
937.674	3995.46
937.982	3979.64
938.29	3898.29
938.597	3877.27
938.905	3866.88
939.213	3857.84
939.52	3806.99
939.827	3862.58
940.135	3841.57
940.442	3788.46
940.749	3831.4
941.056	3806.09
941.363	3751.85
941.67	3716.37
941.977	3763.38
942.284	3712.3
942.591	3677.95
942.898	3648.8
943.205	3656.49
943.511	3623.27
943.818	3620.33
944.125	3606.09
944.431	3603.38
944.738	3601.57
945.044	3604.06
945.35	3510.05
945.657	3540.78
945.963	3558.86
946.269	3495.59
946.575	3476.6
946.881	3473.21
947.187	3517.96
947.493	3489.03
947.799	3477.96
948.105	3441.12
948.41	3408.81
948.716	3423.27
949.022	3392.99
949.327	3358.41
949.633	3344.18
949.938	3327.91
950.244	3320.45
950.549	3338.53
950.854	3323.39
951.16	3294.69
951.465	3293.56
951.77	3260.56
952.075	3226.21
952.38	3265.08
952.685	3193.9
952.99	3232.32
953.294	3188.93
953.599	3186.89
953.904	3191.87
954.209	3132.21
954.513	3132.21
954.818	3124.3
955.122	3108.25
955.426	3141.02
955.731	3141.7
956.035	3115.48
956.339	3075.03
956.643	3032.1
956.948	3037.97
957.252	3021.93
957.556	2981.02
957.86	2983.74
958.163	3020.57
958.467	2971.08
958.771	3003.4
959.075	2989.61
959.378	2934.24
959.682	2944.64
959.985	2940.57
960.289	2917.52
960.592	2872.78
960.896	2913.91
961.199	2867.13
961.502	2866.9
961.805	2834.13
962.108	2811.76
962.411	2870.07
962.714	2816.06
963.017	2821.93
963.32	2827.13
963.623	2786
963.926	2773.8
964.228	2818.32
964.531	2735.61
964.833	2730.18
965.136	2700.35
965.438	2687.02
965.741	2694.7
966.043	2715.04
966.345	2653.8
966.648	2684.76
966.95	2647.47
967.252	2626.23
967.554	2658.77
967.856	2621.48
968.158	2599.11
968.46	2550.98
968.761	2611.09
969.063	2594.14
969.365	2536.74
969.666	2561.83
969.968	2520.02
970.269	2525.22
970.571	2546.46
970.872	2528.38
971.174	2486.8
971.475	2498.55
971.776	2484.31
972.077	2495.39
972.378	2448.83
972.679	2461.04
972.98	2451.55
973.281	2463.07
973.582	2413.13
973.883	2376.75
974.183	2387.37
974.484	2407.71
974.785	2374.94
975.085	2360.7
975.386	2403.41
975.686	2361.83
975.986	2350.31
976.287	2364.54
976.587	2300.36
976.887	2279.35
977.187	2299.91
977.487	2314.15
977.787	2231.66
978.087	2244.32
978.387	2268.95
978.687	2242.06
978.987	2268.73
979.286	2216.52
979.586	2247.48
979.885	2212.91
980.185	2218.11
980.484	2226.01
980.784	2192.12
981.083	2184.66
981.382	2172.91
981.682	2159.35
981.981	2150.99
982.28	2130.88
982.579	2128.62
982.878	2105.11
983.177	2134.49
983.475	2078
983.774	2090.2
984.073	2091.78
984.372	2067.83
984.67	2068.96
984.969	2074.83
985.267	2051.33
985.566	2012.46
985.864	2025.57
986.162	2041.39
986.461	2014.5
986.759	2005.91
987.057	2000.48
987.355	1994.83
987.653	2008.85
987.951	1948.51
988.249	1988.28
988.547	1943.99
988.844	1972.24
989.142	1950.99
989.44	1955.74
989.737	1916.64
990.035	1916.64
990.332	1899.92
990.63	1897.44
990.927	1902.86
991.224	1859.7
991.521	1872.13
991.819	1858.11
992.116	1884.1
992.413	1874.16
992.71	1856.53
993.006	1844.1
993.303	1839.13
993.6	1807.04
993.897	1818.79
994.193	1776.76
994.49	1786.48
994.787	1777.67
995.083	1778.12
995.379	1770.89
995.676	1757.33
995.972	1732.24
996.268	1727.27
996.565	1723.2
996.861	1768.17
997.157	1717.1
997.453	1707.61
997.749	1713.71
998.044	1691.11
998.34	1701.06
998.636	1672.13
998.932	1665.58
999.227	1686.82
999.523	1689.53
999.818	1655.18
1000.114	1612.7
1000.409	1622.41
1000.704	1637.78
1001	1627.16
1001.295	1568.18
1001.59	1606.6
1001.885	1619.03
1002.18	1569.54
1002.475	1561.63
1002.77	1562.98
1003.065	1567.95
1003.359	1572.02
1003.654	1564.79
1003.949	1516.88
1004.243	1527.28
1004.538	1530.89
1004.832	1536.32
1005.127	1480.5
1005.421	1495.19
1005.715	1501.51
1006.009	1470.78
1006.304	1468.29
1006.598	1481.85
1006.892	1486.6
1007.186	1461.29
1007.48	1449.31
1007.773	1447.05
1008.067	1397.34
1008.361	1382.87
1008.655	1395.53
1008.948	1419.71
1009.242	1393.72
1009.535	1380.39
1009.829	1390.56
1010.122	1364.79
1010.415	1396.88
1010.708	1355.3
1011.001	1349.43
1011.295	1356.66
1011.588	1327.51
1011.881	1345.36
1012.173	1300.16
1012.466	1327.51
1012.759	1326.15
1013.052	1326.15
1013.344	1315.53
1013.637	1298.58
1013.93	1285.7
1014.222	1278.24
1014.514	1289.09
1014.807	1244.57
1015.099	1276.21
1015.391	1264.68
1015.683	1256.32
1015.976	1238.47
1016.268	1210.45
1016.56	1224.23
1016.851	1203.67
1017.143	1183.56
1017.435	1225.59
1017.727	1227.85
1018.018	1187.85
1018.31	1180.39
1018.602	1151.47
1018.893	1168.64
1019.185	1176.1
1019.476	1162.54
1019.767	1138.59
1020.058	1137.46
1020.35	1131.35
1020.641	1120.96
1020.932	1149.21
1021.223	1122.09
1021.514	1087.97
1021.804	1092.71
1022.095	1082.77
1022.386	1091.58
1022.677	1082.77
1022.967	1051.13
1023.258	1072.37
1023.548	1068.08
1023.839	1046.16
1024.129	1042.32
1024.419	1019.27
1024.709	1031.7
1025	1034.41
1025.29	1011.13
1025.58	1001.64
1025.87	1008.87
1026.16	994.41
1026.449	1006.16
1026.739	1015.43
1027.029	1002.77
1027.319	991.47
1027.608	960.06
1027.898	954.86
1028.187	960.29
1028.477	978.36
1028.766	918.7
1029.055	933.62
1029.344	924.58
1029.634	934.75
1029.923	918.93
1030.212	927.74
1030.501	927.52
1030.79	932.26
1031.078	902.89
1031.367	918.48
1031.656	915.99
1031.945	881.42
1032.233	912.6
1032.522	884.36
1032.81	870.34
1033.099	840.74
1033.387	866.95
1033.675	871.47
1033.963	851.14
1034.251	859.5
1034.54	846.39
1034.828	825.37
1035.116	831.02
1035.403	819.72
1035.691	835.09
1035.979	828.54
1036.267	826.28
1036.554	810.68
1036.842	810.68
1037.129	811.81
1037.417	785.37
1037.704	795.32
1037.992	812.49
1038.279	786.96
1038.566	792.15
1038.853	792.15
1039.14	792.15
