Data from hue_130_FLMS001491_00030.txt Node
Date: Tue Feb 07 16:57:24 GMT 2017
User: dcchb
Spectrometer: FLMS00149
Trigger mode: 0
Integration Time (sec): 2.000000E-2
Scans to average: 10
Electric dark correction enabled: true
Nonlinearity correction enabled: false
Boxcar width: 0
XAxis mode: Wavelengths
Number of Pixels in Spectrum: 2048
>>>>>Begin Spectral Data<<<<<
341.393	-29.65
341.776	-29.65
342.16	-29.65
342.543	-76.42
342.927	-53.6
343.31	-70.77
343.693	-56.31
344.077	-73.49
344.46	-68.74
344.843	-47.05
345.226	-32.36
345.61	-51.34
345.993	-26.03
346.376	3.35
346.759	4.48
347.142	17.81
347.525	36.11
347.908	70.24
348.291	86.28
348.674	89.9
349.057	117.92
349.44	114.53
349.823	118.15
350.206	181.42
350.588	191.14
350.971	195.21
351.354	217.58
351.737	231.36
352.119	236.34
352.502	253.74
352.884	267.07
353.267	305.49
353.65	296.67
354.032	305.94
354.414	315.43
354.797	316.56
355.179	326.73
355.562	320.63
355.944	317.24
356.326	338.93
356.709	332.15
357.091	318.37
357.473	331.7
357.855	344.81
358.238	327.18
358.62	328.08
359.002	366.05
359.384	343
359.766	343.23
360.148	340.51
360.53	335.54
360.912	326.95
361.294	330.57
361.676	317.01
362.057	335.09
362.439	350.91
362.821	331.93
363.203	323.34
363.584	333.28
363.966	320.4
364.348	345.71
364.729	316.56
365.111	303.23
365.493	319.95
365.874	324.69
366.256	321.53
366.637	281.98
367.019	310.68
367.4	310.23
367.781	321.08
368.163	315.88
368.544	324.47
368.925	329.89
369.306	340.51
369.688	310.68
370.069	316.11
370.45	312.49
370.831	314.75
371.212	307.07
371.593	324.24
371.974	308.88
372.355	296.9
372.736	325.82
373.117	323.79
373.498	315.2
373.879	320.63
374.26	304.36
374.641	310.01
375.021	313.85
375.402	318.37
375.783	307.52
376.163	335.32
376.544	332.6
376.925	336.67
377.305	347.52
377.686	340.74
378.066	324.92
378.447	338.03
378.827	353.17
379.208	334.19
379.588	340.06
379.968	315.66
380.349	334.64
380.729	340.29
381.109	323.11
381.489	349.55
381.87	327.63
382.25	338.48
382.63	368.99
383.01	333.51
383.39	366.73
383.77	347.29
384.15	361.08
384.53	350.23
384.91	362.43
385.29	340.74
385.67	371.7
386.049	331.93
386.429	342.77
386.809	358.14
387.189	364.69
387.568	356.56
387.948	354.3
388.328	376.22
388.707	381.64
389.087	343
389.466	338.03
389.846	365.82
390.225	362.21
390.605	381.19
390.984	369.44
391.363	377.12
391.743	366.05
392.122	376.22
392.501	398.37
392.881	387.29
393.26	396.33
393.639	377.12
394.018	387.29
394.397	391.36
394.776	388.65
395.155	366.28
395.534	401.3
395.913	391.81
396.292	421.19
396.671	398.59
397.05	396.33
397.429	411.47
397.808	412.15
398.186	401.08
398.565	397.24
398.944	398.59
399.323	394.75
399.701	421.87
400.08	415.77
400.458	414.18
400.837	409.66
401.215	405.14
401.594	435.65
401.972	427.74
402.351	413.28
402.729	410.57
403.107	418.48
403.486	438.82
403.864	428.65
404.242	429.55
404.62	427.97
404.999	442.21
405.377	407.4
405.755	432.94
406.133	444.92
406.511	432.04
406.889	457.8
407.267	458.93
407.645	468.42
408.023	457.8
408.401	453.51
408.779	482.43
409.156	465.71
409.534	474.07
409.912	469.55
410.29	466.61
410.667	461.19
411.045	483.11
411.422	482.2
411.8	475.88
412.178	480.17
412.555	477.23
412.933	500.51
413.31	491.92
413.687	487.4
414.065	519.94
414.442	509.55
414.819	523.33
415.197	510
415.574	497.35
415.951	535.54
416.328	538.02
416.705	526.72
417.082	509.1
417.46	529.21
417.837	544.12
418.214	526.05
418.591	531.24
418.967	541.41
419.344	545.71
419.721	532.82
420.098	559.94
420.475	552.26
420.852	566.5
421.228	569.43
421.605	558.81
421.982	580.73
422.358	595.87
422.735	563.78
423.111	587.51
423.488	578.25
423.864	573.28
424.241	590.9
424.617	583.22
424.994	603.11
425.37	594.29
425.746	598.81
426.123	609.21
426.499	623.22
426.875	626.83
427.251	633.39
427.627	632.26
428.003	615.08
428.379	667.28
428.756	632.26
429.132	649.43
429.507	643.33
429.883	680.17
430.259	661.18
430.635	678.81
431.011	690.79
431.387	709.77
431.763	701.18
432.138	689.88
432.514	732.59
432.89	697.11
433.265	726.04
433.641	703.22
434.016	740.73
434.392	756.1
434.767	750.45
435.143	734.63
435.518	733.5
435.894	745.02
436.269	753.61
436.644	790.67
437.02	802.42
437.395	788.86
437.77	798.35
438.145	780.73
438.52	814.63
438.895	797.22
439.271	826.6
439.646	846.94
440.021	842.42
440.395	821.86
440.77	838.35
441.145	834.51
441.52	848.52
441.895	861.18
442.27	879.03
442.645	889.43
443.019	901.18
443.394	850.56
443.769	891.91
444.143	861.63
444.518	914.51
444.892	897.11
445.267	876.54
445.641	914.51
446.016	924.91
446.39	921.74
446.764	923.55
447.139	937.33
447.513	943.21
447.887	953.15
448.262	962.42
448.636	982.08
449.01	985.02
449.384	983.43
449.758	1018.91
450.132	982.98
450.506	986.6
450.88	989.31
451.254	997.9
451.628	1023.89
452.002	1002.42
452.376	1028.63
452.75	1037.67
453.123	1083.32
453.497	1103.43
453.871	1102.53
454.244	1065.69
454.618	1081.74
454.992	1104.79
455.365	1141.62
455.739	1137.1
456.112	1172.81
456.486	1156.99
456.859	1170.32
457.232	1192.69
457.606	1183.66
457.979	1221.17
458.352	1227.95
458.725	1234.95
459.099	1258.23
459.472	1291.9
459.845	1297.1
460.218	1341.62
460.591	1320.37
460.964	1323.76
461.337	1364.67
461.71	1366.25
462.083	1397.89
462.456	1383.65
462.829	1422.97
463.201	1443.31
463.574	1456.42
463.947	1453.93
464.32	1494.16
464.692	1509.3
465.065	1533.02
465.438	1531.44
465.81	1554.94
466.183	1586.36
466.555	1629.97
466.928	1643.3
467.3	1657.09
467.672	1683.53
468.045	1721.04
468.417	1731.44
468.789	1743.87
469.161	1780.02
469.534	1812.57
469.906	1871.09
470.278	1883.52
470.65	1911.55
471.022	1982.28
471.394	1989.96
471.766	2046.68
472.138	2056.4
472.51	2113.8
472.882	2168.71
473.253	2176.85
473.625	2234.48
473.997	2293.46
474.369	2313.34
474.74	2352.66
475.112	2425.66
475.484	2503.85
475.855	2553.56
476.227	2603.5
476.598	2660.23
476.97	2717.17
477.341	2819.77
477.713	2846.89
478.084	2892.08
478.455	3016.6
478.827	3057.73
479.198	3158.97
479.569	3174.11
479.94	3338.85
480.311	3377.72
480.682	3510.15
481.053	3608.68
481.424	3716.92
481.795	3752.4
482.166	3866.75
482.537	3951.27
482.908	4080.75
483.279	4180.64
483.65	4335.66
484.021	4462.67
484.391	4533.17
484.762	4690.68
485.133	4709.21
485.503	4847.74
485.874	5004.35
486.244	5102.42
486.615	5269.88
486.985	5366.6
487.356	5516.2
487.726	5658.57
488.097	5809.75
488.467	5882.06
488.837	6107.82
489.207	6215.61
489.578	6348.72
489.948	6500.8
490.318	6629.61
490.688	6728.82
491.058	6881.58
491.428	7051.52
491.798	7188.92
492.168	7383.04
492.538	7456.71
492.908	7682.02
493.278	7799.07
493.648	7904.61
494.017	8012.63
494.387	8173.53
494.757	8292.39
495.126	8523.12
495.496	8559.28
495.866	8639.05
496.235	8891.02
496.605	8977.35
496.974	9123.11
497.344	9261.41
497.713	9329.43
498.082	9514.28
498.452	9639.25
498.821	9716.09
499.19	9771
499.559	9965.35
499.928	10105.68
500.298	10176.87
500.667	10315.17
501.036	10362.85
501.405	10514.48
501.774	10559.45
502.143	10714.25
502.512	10745.89
502.88	10931.87
503.249	11013
503.618	11131.87
503.987	11163.28
504.356	11151.53
504.724	11407.34
505.093	11431.75
505.462	11465.87
505.83	11613.89
506.199	11704.96
506.567	11826.31
506.936	11835.13
507.304	12047.78
507.672	12085.97
508.041	12162.58
508.409	12302.68
508.777	12324.38
509.145	12443.7
509.514	12412.51
509.882	12524.37
510.25	12577.71
510.618	12659.74
510.986	12745.61
511.354	12809.79
511.722	12974.76
512.09	13089.56
512.458	13032.38
512.826	13143.11
513.193	13177.69
513.561	13206.39
513.929	13355.31
514.297	13375.43
514.664	13438.7
515.032	13518.25
515.4	13606.38
515.767	13567.96
516.135	13638.47
516.502	13539.26
516.869	13806.15
517.237	13784.23
517.604	13715.53
517.972	13866.71
518.339	13901.96
518.706	13837.11
519.073	13867.16
519.44	14046.14
519.808	14172.47
520.175	14143.54
520.542	14229.19
520.909	14348.51
521.276	14259.7
521.643	14278.23
522.009	14485.45
522.376	14425.34
522.743	14508.28
523.11	14582.63
523.477	14710.76
523.843	14680.48
524.21	14885.67
524.577	14801.83
524.943	14843.18
525.31	14988.94
525.676	14933.12
526.043	14990.98
526.409	15050.86
526.776	15084.08
527.142	15062.84
527.508	15189.84
527.874	15120.24
528.241	15208.15
528.607	15193.91
528.973	15278.2
529.339	15183.97
529.705	15248.37
530.071	15326.33
530.437	15379.89
530.803	15328.14
531.169	15395.49
531.535	15374.02
531.901	15343.51
532.267	15394.36
532.632	15407.91
532.998	15376.05
533.364	15356.84
533.73	15338.31
534.095	15386.9
534.461	15497.18
534.826	15412.21
535.192	15424.86
535.557	15486.1
535.923	15450.17
536.288	15382.6
536.653	15390.51
537.019	15329.27
537.384	15248.82
537.749	15424.64
538.114	15317.07
538.479	15377.18
538.845	15350.51
539.21	15151.88
539.575	15240.01
539.94	15190.74
540.305	15218.54
540.67	15036.62
541.034	15119.79
541.399	15070.97
541.764	15077.75
542.129	15091.31
542.494	15050.41
542.858	15143.51
543.223	15024.87
543.587	15036.4
543.952	14901.03
544.316	15006.57
544.681	14814.94
545.045	14801.38
545.41	14880.7
545.774	14843.86
546.138	14820.13
546.503	14785.33
546.867	14793.01
547.231	14799.57
547.595	14767.03
547.959	14724.54
548.324	14709.18
548.688	14685.9
549.052	14675.96
549.416	14591.21
549.779	14557.99
550.143	14503.76
550.507	14561.83
550.871	14509.86
551.235	14456.75
551.599	14491.55
551.962	14512.12
552.326	14436.19
552.689	14439.13
553.053	14237.32
553.417	14312.35
553.78	14476.19
554.143	14348.05
554.507	14317.1
554.87	14348.51
555.234	14454.27
555.597	14217.44
555.96	14292.46
556.323	14338.79
556.686	14244.1
557.05	14279.36
557.413	14204.1
557.776	14211.34
558.139	14289.98
558.502	14259.7
558.865	14231.9
559.228	14283.2
559.59	14255.85
559.953	14257.89
560.316	14254.95
560.679	14215.4
561.041	14320.26
561.404	14355.06
561.767	14320.26
562.129	14265.57
562.492	14412.69
562.854	14360.71
563.217	14248.4
563.579	14326.81
563.941	14394.38
564.304	14503.08
564.666	14384.44
565.028	14499.24
565.39	14375.4
565.753	14410.88
566.115	14496.75
566.477	14480.25
566.839	14523.42
567.201	14549.86
567.563	14499.46
567.925	14582.17
568.287	14603.87
568.648	14612
569.01	14660.14
569.372	14636.86
569.734	14532.23
570.095	14699.01
570.457	14662.17
570.819	14668.95
571.18	14672.79
571.542	14818.33
571.903	14724.99
572.265	14789.63
572.626	14795.95
572.987	14771.32
573.349	14823.52
573.71	14852
574.071	14820.81
574.432	14819.23
574.794	14930.86
575.155	14989.85
575.516	14800.47
575.877	14917.31
576.238	14913.46
576.599	14946.23
576.96	14937.87
577.32	14883.41
577.681	14960.02
578.042	14937.64
578.403	14915.95
578.763	14944.2
579.124	14983.29
579.485	14968.15
579.845	15037.53
580.206	14912.56
580.566	14935.16
580.927	14995.72
581.287	14946.68
581.648	14935.84
582.008	14946.01
582.368	14878.66
582.728	14965.44
583.089	14916.85
583.449	14921.15
583.809	14981.03
584.169	14955.72
584.529	14895.84
584.889	15080.24
585.249	14922.5
585.609	14866.91
585.969	14982.16
586.329	14849.51
586.688	14917.76
587.048	14892
587.408	14834.82
587.768	14801.83
588.127	14765.67
588.487	14765.45
588.846	14913.46
589.206	14834.82
589.565	14765.67
589.925	14781.72
590.284	14767.93
590.643	14770.19
591.003	14819.91
591.362	14812.9
591.721	14751.66
592.08	14720.7
592.44	14781.26
592.799	14780.59
593.158	14748.04
593.517	14756.86
593.876	14811.55
594.235	14655.39
594.593	14804.54
594.952	14753.47
595.311	14632.79
595.67	14687.93
596.029	14754.37
596.387	14772.45
596.746	14766.8
597.104	14689.97
597.463	14710.08
597.822	14726.8
598.18	14688.16
598.538	14663.3
598.897	14732.68
599.255	14544.21
599.613	14767.7
599.972	14637.31
600.33	14678.22
600.688	14664.66
601.046	14693.81
601.404	14757.31
601.762	14719.57
602.12	14758.21
602.478	14681.15
602.836	14725.9
603.194	14647.03
603.552	14731.1
603.91	14749.17
604.268	14748.27
604.625	14609.74
604.983	14683.87
605.341	14700.36
605.698	14666.69
606.056	14745.11
606.413	14790.08
606.771	14751.89
607.128	14709.63
607.485	14686.35
607.843	14653.81
608.2	14711.89
608.557	14763.64
608.914	14724.32
609.272	14700.36
609.629	14766.58
609.986	14863.75
610.343	14739.01
610.7	14824.2
611.057	14792.56
611.414	14775.16
611.771	14850.19
612.127	14937.19
612.484	14937.42
612.841	14943.29
613.198	14855.84
613.554	14828.72
613.911	14983.97
614.267	14959.11
614.624	14959.56
614.98	14922.96
615.337	15008.38
615.693	15020.35
616.05	14981.94
616.406	14985.1
616.762	15007.7
617.118	14957.3
617.475	15016.06
617.831	14993.46
618.187	15056.74
618.543	15077.98
618.899	15107.36
619.255	15079.56
619.611	15071.2
619.967	15129.28
620.323	15101.26
620.678	15149.16
621.034	15064.19
621.39	15098.32
621.746	15099
622.101	15209.95
622.457	15071.2
622.812	15116.17
623.168	15063.29
623.523	15067.13
623.879	15262.83
624.234	15119.56
624.589	15217.86
624.945	15109.62
625.3	15202.27
625.655	15122.27
626.01	15100.35
626.365	15164.53
626.72	15113.91
627.075	15134.47
627.43	15108.94
627.785	15169.28
628.14	15109.39
628.495	15209.95
628.85	15128.37
629.205	15059.9
629.559	15117.98
629.914	15035.95
630.269	15134.7
630.623	15002.28
630.978	15035.04
631.332	15144.64
631.687	15068.49
632.041	14973.12
632.396	15069.84
632.75	14962.95
633.104	15118.88
633.459	14917.98
633.813	14934.71
634.167	14920.24
634.521	14963.63
634.875	14891.77
635.229	14824.2
635.583	14724.54
635.937	14883.63
636.291	14790.08
636.645	14690.64
636.999	14644.09
637.352	14790.08
637.706	14730.42
638.06	14721.38
638.413	14703.98
638.767	14675.5
639.121	14728.38
639.474	14558.22
639.828	14542.17
640.181	14681.15
640.534	14717.76
640.888	14633.25
641.241	14553.02
641.594	14589.86
641.947	14589.86
642.301	14642.96
642.654	14585.56
643.007	14641.38
643.36	14581.04
643.713	14565.22
644.066	14583.98
644.419	14495.17
644.771	14458.11
645.124	14388.96
645.477	14327.49
645.83	14086.59
646.182	14122.98
646.535	14073.26
646.888	14103.54
647.24	13961.17
647.593	14086.14
647.945	14070.1
648.298	13941.51
648.65	13904.22
649.002	13964.79
649.355	14022.87
649.707	14007.5
650.059	14156.65
650.411	14193.03
650.763	14231.67
651.115	14378.56
651.467	14304.44
651.819	14278.23
652.171	14357.32
652.523	14257.89
652.875	14312.8
653.227	14228.96
653.578	14366.36
653.93	14323.65
654.282	14251.79
654.633	14234.61
654.985	14268.28
655.337	14302.86
655.688	14215.86
656.039	14422.63
656.391	14255.4
656.742	14219.92
657.094	14305.8
657.445	14331.33
657.796	14364.78
658.147	14333.14
658.498	14292.69
658.849	14374.49
659.2	14301.5
659.551	14352.35
659.902	14379.92
660.253	14375.4
660.604	14335.85
660.955	14304.89
661.306	14417.88
661.656	14368.17
662.007	14383.31
662.358	14360.71
662.708	14339.02
663.059	14327.49
663.409	14270.32
663.76	14371.11
664.11	14411.56
664.461	14449.52
664.811	14356.19
665.161	14398
665.511	14398.22
665.862	14433.93
666.212	14402.74
666.562	14315.06
666.912	14365.91
667.262	14365
667.612	14345.12
667.962	14337.21
668.312	14447.49
668.662	14382.18
669.011	14432.8
669.361	14376.98
669.711	14252.69
670.06	14186.25
670.41	14371.11
670.76	14222.86
671.109	14284.55
671.459	14321.61
671.808	14352.35
672.157	14426.7
672.507	14197.32
672.856	14218.11
673.205	14369.75
673.554	14294.5
673.904	14269.41
674.253	14357.77
674.602	14242.75
674.951	14032.13
675.3	13938.12
675.649	14235.06
675.998	14127.04
676.346	14187.38
676.695	14147.83
677.044	14031
677.393	14034.39
677.741	14216.98
678.09	14053.6
678.438	13958.23
678.787	14104.45
679.135	14042.53
679.484	13856.32
679.832	14071.9
680.181	13944.22
680.529	13968.18
680.877	13908.07
681.225	13823.55
681.573	13990.1
681.922	13877.11
682.27	13756.88
682.618	13801.4
682.966	13793.04
683.314	13891.8
683.661	13772.02
684.009	13726.15
684.357	13686.6
684.705	13680.05
685.053	13684.12
685.4	13640.5
685.748	13554.63
686.095	13547.17
686.443	13525.7
686.79	13461.3
687.138	13535.42
687.485	13516.66
687.832	13389.89
688.18	13429.66
688.527	13332.04
688.874	13310.12
689.221	13233.96
689.568	13213.17
689.915	13193.74
690.262	13233.96
690.609	13139.73
690.956	13102.44
691.303	13143.34
691.65	13069.67
691.997	13005.94
692.344	12949.67
692.69	12834.2
693.037	12818.83
693.383	12769.79
693.73	12784.48
694.077	12704.03
694.423	12673.97
694.769	12661.09
695.116	12581.1
695.462	12573.86
695.808	12572.51
696.155	12515.33
696.501	12457.03
696.847	12455.9
697.193	12332.06
697.539	12400.08
697.885	12262.01
698.231	12303.36
698.577	12176.13
698.923	12226.53
699.269	12084.39
699.614	12057.04
699.96	12067.89
700.306	12035.57
700.651	11934.79
700.997	11885.52
701.342	11866.99
701.688	11820.89
702.033	11843.94
702.379	11778.4
702.724	11716.49
703.069	11723.04
703.415	11574.12
703.76	11583.83
704.105	11599.65
704.45	11528.92
704.795	11534.12
705.14	11406.89
705.485	11360.34
705.83	11358.3
706.175	11365.08
706.52	11279.21
706.865	11265.65
707.209	11268.81
707.554	11161.47
707.899	11221.58
708.243	11192.88
708.588	11145.43
708.932	11049.84
709.277	11032.21
709.621	11075.6
709.966	10950.4
710.31	11041.7
710.654	10898.2
710.998	10910.18
711.342	10848.03
711.687	10891.2
712.031	10783.63
712.375	10737.08
712.719	10823.18
713.063	10776.85
713.407	10811.65
713.75	10690.75
714.094	10673.58
714.438	10673.8
714.782	10690.52
715.125	10637.42
715.469	10682.16
715.812	10580.24
716.156	10571.88
716.499	10492.56
716.843	10501.38
717.186	10581.83
717.53	10551.77
717.873	10509.74
718.216	10429.06
718.559	10479.91
718.902	10319.69
719.246	10335.51
719.589	10346.13
719.932	10279.01
720.275	10332.34
720.617	10344.32
720.96	10344.77
721.303	10253.47
721.646	10326.01
721.989	10250.76
722.331	10270.42
722.674	10239.01
723.016	10271.78
723.359	10290.08
723.701	10241.72
724.044	10152.46
724.386	10136.64
724.729	10217.77
725.071	10172.12
725.413	10205.34
725.755	10172.57
726.097	10141.84
726.439	10120.37
726.782	10107.49
727.124	10180.25
727.465	10123.76
727.807	10084.89
728.149	10115.17
728.491	10048.51
728.833	10094.16
729.175	10128.96
729.516	10029.75
729.858	10021.39
730.199	10003.76
730.541	9994.27
730.882	10038.11
731.224	10029.3
731.565	9942.07
731.906	10001.05
732.248	9936.19
732.589	9934.61
732.93	9938
733.271	9900.49
733.612	9995.85
733.953	9947.94
734.294	9919.02
734.635	9925.8
734.976	10020.94
735.317	9970.99
735.658	9944.78
735.999	10022.74
736.339	10000.15
736.68	10065.68
737.021	10034.5
737.361	9939.36
737.702	10019.36
738.042	10062.07
738.383	9919.02
738.723	10038.11
739.063	10005.12
739.404	10042.41
739.744	9953.82
740.084	10069.3
740.424	10036.76
740.764	10140.48
741.104	10070.2
741.444	10094.38
741.784	10073.14
742.124	10130.99
742.464	10112.23
742.804	10145
743.143	10146.81
743.483	10169.86
743.823	10143.87
744.162	10169.63
744.502	10230.42
744.841	10175.06
745.181	10284.88
745.52	10262.51
745.86	10376.86
746.199	10345
746.538	10435.62
746.877	10498.89
747.216	10467.03
747.556	10528.27
747.895	10601.26
748.234	10649.4
748.573	10599.68
748.911	10782.5
749.25	10826.11
749.589	10861.59
749.928	10904.08
750.267	11037.18
750.605	11051.64
750.944	11104.75
751.283	11145.43
751.621	11301.81
751.96	11230.62
752.298	11442.14
752.636	11507.68
752.975	11594
753.313	11725.3
753.651	11827.22
753.989	11822.7
754.327	12086.19
754.666	12162.58
755.004	12290.48
755.342	12352.18
755.679	12532.96
756.017	12586.07
756.355	12780.86
756.693	12930.01
757.031	13073.06
757.368	13165.04
757.706	13268.54
758.044	13452.26
758.381	13576.32
758.719	13722.99
759.056	13937.22
759.394	14000.95
759.731	14096.31
760.068	14279.36
760.405	14443.19
760.743	14520.71
761.08	14736.97
761.417	14903.75
761.754	15152.1
762.091	15169.95
762.428	15394.13
762.765	15514.13
763.102	15704.86
763.438	15891.29
763.775	15978.75
764.112	16144.62
764.449	16331.28
764.785	16467.55
765.122	16578.28
765.458	16582.8
765.795	16836.35
766.131	16954.99
766.467	17189.34
766.804	17303.91
767.14	17295.1
767.476	17427.07
767.812	17577.8
768.148	17799.04
768.485	17724.69
768.821	17927.4
769.157	18048.97
769.492	18114.06
769.828	18218.46
770.164	18190.44
770.5	18430.21
770.836	18445.8
771.171	18568.73
771.507	18649.64
771.842	18647.6
772.178	18703.65
772.513	18816.19
772.849	18950.87
773.184	18833.59
773.519	19184.99
773.855	19097.08
774.19	19167.82
774.525	19283.97
774.86	19290.07
775.195	19390.41
775.53	19351.54
775.865	19293.91
776.2	19373.46
776.535	19264.76
776.87	19349.05
777.205	19406.23
777.539	19354.25
777.874	19520.35
778.209	19483.51
778.543	19474.02
778.878	19383.4
779.212	19528.03
779.547	19471.99
779.881	19616.17
780.215	19490.29
780.55	19661.81
780.884	19599.22
781.218	19593.57
781.552	19594.92
781.886	19577.07
782.22	19464.53
782.554	19516.28
782.888	19366.68
783.222	19414.59
783.556	19355.83
783.889	19376.85
784.223	19229.96
784.557	19326.91
784.89	19320.35
785.224	19351.99
785.557	19228.15
785.891	19270.64
786.224	19381.37
786.558	19248.72
786.891	19171.88
787.224	19093.92
787.557	19217.08
787.891	19091.21
788.224	19093.24
788.557	19104.99
788.89	19151.77
789.223	19135.05
789.556	18924.66
789.888	18975.5
790.221	18924.21
790.554	18766.02
790.887	18768.5
791.219	18794.49
791.552	18862.29
791.884	18777.99
792.217	18558.79
792.549	18734.61
792.882	18559.02
793.214	18468.4
793.546	18565.57
793.879	18456.42
794.211	18271.57
794.543	18436.31
794.875	18354.5
795.207	18504.33
795.539	18331.68
795.871	18396.54
796.203	18177.78
796.535	18066.38
796.867	18116.77
797.198	18086.94
797.53	18107.5
797.862	17911.13
798.193	17984.8
798.525	17872.71
798.856	17920.62
799.188	17710.45
799.519	17618.03
799.85	17559.27
800.182	17589.1
800.513	17573.05
800.844	17532.83
801.175	17570.8
801.506	17577.35
801.837	17399.5
802.168	17378.03
802.499	17419.84
802.83	17303.46
803.161	17286.06
803.491	17268.66
803.822	17321.76
804.153	17197.47
804.483	17069.11
804.814	16998.61
805.145	16971.49
805.475	17016.23
805.805	16932.39
806.136	16978.27
806.466	16949.79
806.796	16910.25
807.126	16823.47
807.457	16703.7
807.787	16699.18
808.117	16709.57
808.447	16673.42
808.777	16729.91
809.107	16537.15
809.436	16466.87
809.766	16567.21
810.096	16443.82
810.426	16474.1
810.755	16450.6
811.085	16366.53
811.414	16469.81
811.744	16281.11
812.073	16242.47
812.403	16258.29
812.732	16117.73
813.061	16123.83
813.39	16144.84
813.719	16083.83
814.049	16146.65
814.378	16072.76
814.707	16043.38
815.036	16016.49
815.365	15891.29
815.693	15884.06
816.022	15822.14
816.351	15755.48
816.68	15729.94
817.008	15799.99
817.337	15557.06
817.665	15547.8
817.994	15692.43
818.322	15625.54
818.651	15515.03
818.979	15503.5
819.307	15496.5
819.636	15497.18
819.964	15427.8
820.292	15459.44
820.62	15521.58
820.948	15369.72
821.276	15412.43
821.604	15396.16
821.932	15473
822.259	15416.28
822.587	15375.82
822.915	15388.48
823.243	15413.11
823.57	15465.31
823.898	15365.66
824.225	15380.12
824.553	15251.31
824.88	15393.68
825.207	15412.66
825.535	15353.68
825.862	15426.44
826.189	15359.78
826.516	15467.57
826.843	15444.98
827.17	15434.58
827.497	15422.15
827.824	15417.63
828.151	15393.45
828.478	15468.25
828.805	15489.27
829.131	15353.23
829.458	15429.16
829.785	15336.73
830.111	15353.9
830.438	15413.56
830.764	15413.11
831.09	15403.85
831.417	15334.02
831.743	15386.22
832.069	15308.71
832.395	15272.1
832.722	15339.22
833.048	15218.54
833.374	15345.77
833.7	15270.74
834.026	15196.17
834.351	15295.83
834.677	15247.92
835.003	15221.25
835.329	15203.4
835.654	15204.76
835.98	15170.18
836.306	15072.33
836.631	15097.41
836.956	15143.51
837.282	15114.59
837.607	15068.94
837.932	15050.64
838.258	15100.58
838.583	15001.82
838.908	14897.65
839.233	15002.05
839.558	14944.42
839.883	14863.07
840.208	14830.3
840.533	14866.23
840.858	14824.88
841.182	14805.44
841.507	14839.34
841.832	14687.48
842.156	14701.94
842.481	14691.1
842.805	14660.82
843.13	14609.97
843.454	14563.42
843.778	14580.37
844.103	14546.69
844.427	14442.06
844.751	14557.09
845.075	14395.96
845.399	14438.22
845.723	14262.63
846.047	14376.98
846.371	14267.83
846.695	14240.26
847.019	14139.25
847.343	14034.62
847.666	13986.26
847.99	13949.42
848.313	13927.95
848.637	13840.05
848.96	13772.02
849.284	13844.79
849.607	13655.87
849.931	13645.93
850.254	13610.45
850.577	13562.09
850.9	13477.8
851.223	13447.97
851.546	13315.31
851.869	13233.96
852.192	13340.17
852.515	13247.52
852.838	13143.57
853.161	13130.69
853.483	13091.36
853.806	13045.04
854.129	13000.07
854.451	12942.67
854.774	12971.59
855.096	12816.57
855.419	12782.22
855.741	12840.3
856.063	12723.69
856.385	12714.43
856.708	12589.46
857.03	12513.3
857.352	12623.35
857.674	12562.79
857.996	12472.62
858.318	12421.78
858.64	12405.28
858.961	12383.81
859.283	12343.59
859.605	12314.44
859.926	12277.83
860.248	12303.36
860.57	12195.8
860.891	12242.57
861.212	12083.48
861.534	12117.83
861.855	12076.02
862.176	12064.5
862.498	12084.39
862.819	12008.68
863.14	11961.68
863.461	12013.88
863.782	11947.44
864.103	12016.82
864.424	11919.64
864.745	11913.99
865.065	11805.52
865.386	11810.04
865.707	11819.31
866.027	11861.79
866.348	11701.57
866.668	11764.39
866.989	11750.16
867.309	11677.62
867.63	11751.06
867.95	11744.51
868.27	11718.52
868.59	11621.8
868.91	11621.8
869.23	11616.6
869.55	11540.22
869.87	11567.79
870.19	11613.21
870.51	11604.85
870.83	11632.65
871.15	11495.47
871.469	11471.29
871.789	11554.68
872.109	11485.76
872.428	11343.84
872.748	11374.57
873.067	11370.51
873.386	11374.8
873.706	11368.25
874.025	11275.37
874.344	11328.7
874.663	11253
874.982	11254.35
875.301	11186.1
875.62	11187.23
875.939	11168.03
876.258	11150.85
876.577	11150.85
876.896	11168.03
877.214	11111.98
877.533	11155.14
877.852	11050.06
878.17	11114.69
878.489	11078.54
878.807	11016.17
879.125	10961.03
879.444	11038.99
879.762	10977.75
880.08	10936.85
880.398	10871.08
880.716	10903.4
881.034	10896.39
881.352	10844.19
881.67	10856.4
881.988	10826.34
882.306	10803.74
882.624	10736.4
882.941	10764.65
883.259	10689.17
883.577	10723.29
883.894	10673.8
884.212	10606.91
884.529	10675.84
884.846	10626.34
885.164	10648.04
885.481	10545.22
885.798	10561.26
886.115	10460.93
886.432	10528.49
886.75	10479.46
887.067	10441.72
887.383	10411.89
887.7	10463.41
888.017	10375.28
888.334	10417.31
888.651	10287.82
888.967	10346.13
889.284	10288.95
889.6	10274.49
889.917	10139.35
890.233	10161.5
890.55	10158.56
890.866	10121.5
891.182	10135.51
891.498	10092.12
891.815	10004.44
892.131	9975.97
892.447	9982.75
892.763	9915.4
893.079	9914.5
893.395	9856.65
893.71	9798.8
894.026	9912.92
894.342	9785.24
894.657	9723.09
894.973	9733.71
895.289	9773.94
895.604	9660.27
895.92	9626.37
896.235	9525.81
896.55	9578.46
896.865	9534.62
897.181	9507.73
897.496	9533.72
897.811	9474.06
898.126	9401.74
898.441	9321.07
898.756	9372.59
899.071	9255.99
899.386	9315.64
899.7	9165.14
900.015	9138.47
900.33	9091.92
900.644	9164.69
900.959	9108.42
901.273	9098.25
901.588	9057.35
901.902	8975.99
902.216	8973.06
902.531	8940.51
902.845	8942.1
903.159	8899.84
903.473	8799.05
903.787	8790.91
904.101	8717.24
904.415	8745.72
904.729	8724.02
905.042	8656.91
905.356	8652.84
905.67	8646.51
905.984	8646.06
906.297	8569.45
906.611	8510.69
906.924	8515.67
907.237	8496.23
907.551	8479.51
907.864	8422.79
908.177	8413.07
908.491	8322.45
908.804	8249.91
909.117	8268.89
909.43	8192.74
909.743	8163.58
910.056	8158.16
910.368	8130.59
910.681	8110.48
910.994	8038.84
911.307	8023.93
911.619	7997.26
911.932	7998.39
912.244	7910.71
912.557	7880.88
912.869	7806.08
913.181	7819.41
913.494	7785.06
913.806	7735.8
914.118	7769.92
914.43	7616.25
914.742	7673.88
915.054	7632.98
915.366	7671.17
915.678	7547.78
915.99	7526.31
916.302	7490.61
916.613	7471.63
916.925	7425.07
917.236	7399.54
917.548	7313.66
917.859	7350.95
918.171	7323.83
918.482	7310.5
918.794	7266.21
919.105	7244.96
919.416	7144.63
919.727	7129.26
920.038	7111.86
920.349	7104.63
920.66	7082.71
920.971	7047
921.282	7075.48
921.593	6997.51
921.903	6929.27
922.214	6905.54
922.525	6941.47
922.835	6850.62
923.146	6828.25
923.456	6821.93
923.767	6790.97
924.077	6813.79
924.387	6695.37
924.697	6673.45
925.008	6659.22
925.318	6656.73
925.628	6640.69
925.938	6581.03
926.248	6542.84
926.558	6514.81
926.867	6531.76
927.177	6475.27
927.487	6451.99
927.796	6441.37
928.106	6413.35
928.416	6343.29
928.725	6332.9
929.034	6320.92
929.344	6330.86
929.653	6319.11
929.962	6220.13
930.271	6217.65
930.581	6206.12
930.89	6147.37
931.199	6146.01
931.508	6144.2
931.817	6094.03
932.125	6054.04
932.434	6077.99
932.743	5986.01
933.051	6000.48
933.36	5970.87
933.669	5916.86
933.977	5921.16
934.286	5925.9
934.594	5928.62
934.902	5845.45
935.21	5772.91
935.519	5795.74
935.827	5852.01
936.135	5807.26
936.443	5682.07
936.751	5696.31
937.059	5706.47
937.367	5659.24
937.674	5630.77
937.982	5609.3
938.29	5577.89
938.597	5603.2
938.905	5552.81
939.213	5525.69
939.52	5496.99
939.827	5491.79
940.135	5446.82
940.442	5420.61
940.749	5430.32
941.056	5426.26
941.363	5358.23
941.67	5339.03
941.977	5306.03
942.284	5291.8
942.591	5242.76
942.898	5193.27
943.205	5176.77
943.511	5222.87
943.818	5162.99
944.125	5117.11
944.431	5084.8
944.738	5124.12
945.044	5072.14
945.35	5040.5
945.657	4958.7
945.963	4990.11
946.269	4975.42
946.575	4952.82
946.881	4915.08
947.187	4894.52
947.493	4922.54
947.799	4874.41
948.105	4858.36
948.41	4795.09
948.716	4822.2
949.022	4821.3
949.327	4785.59
949.633	4713.96
949.938	4744.69
950.244	4742.21
950.549	4730
950.854	4647.29
951.16	4687.74
951.465	4613.85
951.77	4633.51
952.075	4540.63
952.38	4593.96
952.685	4529.1
952.99	4497.69
953.294	4533.85
953.599	4464.25
953.904	4437.58
954.209	4442.55
954.513	4421.31
954.818	4409.56
955.122	4372.05
955.426	4412.5
955.731	4372.95
956.035	4330.01
956.339	4332.05
956.643	4308.54
956.948	4273.97
957.252	4302.22
957.556	4249.79
957.86	4231.71
958.163	4230.58
958.467	4224.48
958.771	4185.61
959.075	4186.29
959.378	4125.27
959.682	4144.26
959.985	4138.83
960.289	4102.9
960.592	4081.43
960.896	4063.35
961.199	4048.44
961.502	4052.51
961.805	4019.51
962.108	4000.3
962.411	3977.93
962.714	3932.74
963.017	3911.04
963.32	3913.08
963.623	3940.87
963.926	3893.87
964.228	3862.23
964.531	3833.98
964.833	3841.21
965.136	3806.64
965.438	3805.73
965.741	3783.13
966.043	3789.69
966.345	3738.16
966.648	3744.72
966.95	3772.97
967.252	3698.17
967.554	3690.03
967.856	3664.95
968.158	3593.31
968.46	3661.1
968.761	3648.22
969.063	3608.22
969.365	3617.26
969.666	3584.95
969.968	3539.3
970.269	3543.59
970.571	3505.63
970.872	3509.02
971.174	3486.42
971.475	3518.96
971.776	3478.96
972.077	3470.15
972.378	3447.55
972.679	3448
972.98	3411.85
973.281	3403.48
973.582	3413.43
973.883	3394.67
974.183	3325.29
974.484	3329.36
974.785	3303.6
975.085	3300.44
975.386	3286.42
975.686	3302.7
975.986	3290.94
976.287	3297.72
976.587	3223.83
976.887	3219.53
977.187	3236.48
977.487	3162.13
977.787	3172.76
978.087	3168.24
978.387	3145.64
978.687	3128.24
978.987	3127.33
979.286	3093.21
979.586	3074
979.885	3112.19
980.185	3055.7
980.484	3054.11
980.784	3030.16
981.083	3045.08
981.382	3009.14
981.682	3011.63
981.981	2995.81
982.28	2991.29
982.579	2953.78
982.878	2969.6
983.177	2963.95
983.475	2935.25
983.774	2902.03
984.073	2868.58
984.372	2891.63
984.67	2873.33
984.969	2852.76
985.267	2843.72
985.566	2835.59
985.864	2820.45
986.162	2833.1
986.461	2804.86
986.759	2768.47
987.057	2768.47
987.355	2748.81
987.653	2717.17
987.951	2710.85
988.249	2701.58
988.547	2706.1
988.844	2695.93
989.142	2645.09
989.44	2660.45
989.737	2653.45
990.035	2642.83
990.332	2614.13
990.63	2629.27
990.927	2562.15
991.224	2594.69
991.521	2586.78
991.819	2596.73
992.116	2558.08
992.413	2544.98
992.71	2558.08
993.006	2554.69
993.303	2522.6
993.6	2528.03
993.897	2448.93
994.193	2485.32
994.49	2455.94
994.787	2437.86
995.083	2428.37
995.379	2416.39
995.676	2387.01
995.972	2404.19
996.268	2399.22
996.565	2351.76
996.861	2378.65
997.157	2348.82
997.453	2369.61
997.749	2319.22
998.044	2330.97
998.34	2324.87
998.636	2344.08
998.932	2295.49
999.227	2279.22
999.523	2290.97
999.818	2258.88
1000.114	2248.03
1000.409	2203.97
1000.704	2197.87
1001	2242.61
1001.295	2193.35
1001.59	2164.19
1001.885	2200.58
1002.18	2154.03
1002.475	2175.27
1002.77	2137.53
1003.065	2094.14
1003.359	2112.9
1003.654	2102.95
1003.949	2079.9
1004.243	2060.92
1004.538	2071.77
1004.832	2058.43
1005.127	2063.41
1005.421	2036.51
1005.715	2036.74
1006.009	2022.5
1006.304	1988.83
1006.598	1968.49
1006.892	1983.18
1007.186	1952.67
1007.48	1947.25
1007.773	1951.09
1008.067	1933.47
1008.361	1912
1008.655	1872.22
1008.948	1888.72
1009.242	1909.51
1009.535	1872.9
1009.829	1874.94
1010.122	1849.4
1010.415	1834.03
1010.708	1814.37
1011.001	1835.16
1011.295	1759.91
1011.588	1798.33
1011.881	1772.34
1012.173	1761.49
1012.466	1749.52
1012.759	1740.93
1013.052	1763.75
1013.344	1731.66
1013.637	1765.56
1013.93	1713.58
1014.222	1716.3
1014.514	1677.2
1014.807	1660.7
1015.099	1668.61
1015.391	1671.1
1015.683	1657.32
1015.976	1645.56
1016.268	1650.08
1016.56	1654.83
1016.851	1621.84
1017.143	1622.29
1017.435	1618.45
1017.727	1577.09
1018.018	1579.13
1018.31	1554.04
1018.602	1574.61
1018.893	1542.74
1019.185	1532.57
1019.476	1537.77
1019.767	1554.27
1020.058	1516.75
1020.35	1485.34
1020.641	1477.66
1020.932	1466.59
1021.223	1507.04
1021.514	1447.15
1021.804	1425.91
1022.095	1415.51
1022.386	1442.86
1022.677	1415.97
1022.967	1407.38
1023.258	1378
1023.548	1400.15
1023.839	1380.71
1024.129	1388.62
1024.419	1346.36
1024.709	1342.3
1025	1349.98
1025.29	1331.45
1025.58	1316.08
1025.87	1333.71
1026.16	1294.39
1026.449	1335.29
1026.739	1283.31
1027.029	1310.21
1027.319	1273.37
1027.608	1290.09
1027.898	1257.78
1028.187	1251.22
1028.477	1264.11
1028.766	1236.99
1029.055	1231.79
1029.344	1225.01
1029.634	1209.42
1029.923	1215.52
1030.212	1184.33
1030.501	1188.63
1030.79	1185.69
1031.078	1179.36
1031.367	1178.68
1031.656	1182.98
1031.945	1167.61
1032.233	1128.74
1032.522	1137.78
1032.81	1124
1033.099	1104.56
1033.387	1133.26
1033.675	1099.82
1033.963	1099.82
1034.251	1093.04
1034.54	1085.8
1034.828	1084.67
1035.116	1050.1
1035.403	1080.83
1035.691	1044
1035.979	1036.54
1036.267	1067.73
1036.554	1057.33
1036.842	1022.53
1037.129	1025.24
1037.417	984.56
1037.704	1003.55
1037.992	1017.11
1038.279	983.66
1038.566	989.76
1038.853	989.76
1039.14	989.76
