Data from hue_70_FLMS001491_76.txt Node
Date: Mon Feb 06 15:21:25 GMT 2017
User: dcchb
Spectrometer: FLMS00149
Trigger mode: 0
Integration Time (sec): 2.000000E-2
Scans to average: 10
Electric dark correction enabled: true
Nonlinearity correction enabled: false
Boxcar width: 0
XAxis mode: Wavelengths
Number of Pixels in Spectrum: 2048
>>>>>Begin Spectral Data<<<<<
341.393	-3.74
341.776	-3.74
342.16	-3.74
342.543	-57.75
342.927	-70.18
343.31	-62.27
343.693	-70.41
344.077	-60.24
344.46	-58.43
344.843	-53.01
345.226	-44.19
345.61	-39.9
345.993	-31.76
346.376	-1.03
346.759	19.76
347.142	31.51
347.525	27.89
347.908	47.56
348.291	80.77
348.674	100.21
349.057	113.54
349.44	132.75
349.823	141.34
350.206	167.1
350.588	198.51
350.971	214.33
351.354	209.36
351.737	229.25
352.119	248.91
352.502	254.33
352.884	267.21
353.267	277.15
353.65	289.81
354.032	293.65
354.414	309.02
354.797	300.2
355.179	317.15
355.562	310.83
355.944	333.88
356.326	333.65
356.709	329.81
357.091	332.97
357.473	350.15
357.855	329.81
358.238	340.65
358.62	348.11
359.002	341.78
359.384	330.03
359.766	339.07
360.148	338.4
360.53	359.86
360.912	350.82
361.294	330.71
361.676	325.06
362.057	318.73
362.439	323.25
362.821	306.53
363.203	346.08
363.584	317.6
363.966	316.7
364.348	297.94
364.729	316.93
365.111	321.67
365.493	333.88
365.874	311.5
366.256	309.02
366.637	305.4
367.019	316.47
367.4	308.34
367.781	318.73
368.163	333.42
368.544	302.01
368.925	307.21
369.306	339.3
369.688	312.63
370.069	309.02
370.45	309.02
370.831	319.64
371.212	317.15
371.593	303.82
371.974	307.89
372.355	324.61
372.736	333.65
373.117	311.5
373.498	322.58
373.879	308.34
374.26	314.44
374.641	322.12
375.021	311.28
375.402	337.49
375.783	298.85
376.163	324.61
376.544	329.13
376.925	311.28
377.305	315.12
377.686	336.59
378.066	317.83
378.447	305.85
378.827	315.8
379.208	333.2
379.588	317.6
379.968	352.63
380.349	334.78
380.729	333.2
381.109	332.52
381.489	347.89
381.87	338.62
382.25	328
382.63	325.06
383.01	343.37
383.39	346.76
383.77	345.63
384.15	330.03
384.53	332.75
384.91	319.64
385.29	344.04
385.67	341.56
386.049	363.93
386.429	339.07
386.809	335.91
387.189	346.98
387.568	340.2
387.948	353.31
388.328	329.13
388.707	344.5
389.087	351.28
389.466	363.48
389.846	360.09
390.225	353.31
390.605	342.01
390.984	368.9
391.363	347.21
391.743	364.84
392.122	326.42
392.501	353.08
392.881	360.99
393.26	341.78
393.639	366.87
394.018	362.12
394.397	358.28
394.776	360.54
395.155	376.59
395.534	355.8
395.913	368
396.292	377.49
396.671	372.52
397.05	363.48
397.429	367.09
397.808	393.08
398.186	351.28
398.565	356.7
398.944	381.11
399.323	385.17
399.701	386.98
400.08	384.72
400.458	380.43
400.837	399.86
401.215	382.46
401.594	379.98
401.972	405.96
402.351	381.11
402.729	393.31
403.107	385.85
403.486	390.82
403.864	394.66
404.242	394.66
404.62	385.4
404.999	392.63
405.377	421.1
405.755	414.33
406.133	407.32
406.511	419.3
406.889	417.94
407.267	411.39
407.645	391.73
408.023	431.05
408.401	453.19
408.779	436.25
409.156	428.11
409.534	433.31
409.912	431.95
410.29	442.12
410.667	425.62
411.045	429.92
411.422	436.7
411.8	436.7
412.178	437.83
412.555	443.48
412.933	466.75
413.31	445.28
413.687	467.43
414.065	430.14
414.442	463.82
414.819	445.51
415.197	479.41
415.574	485.28
415.951	473.98
416.328	471.72
416.705	447.54
417.082	481.44
417.46	464.27
417.837	474.89
418.214	479.18
418.591	501.55
418.967	469.47
419.344	476.47
419.721	486.19
420.098	480.54
420.475	495.45
420.852	488
421.228	501.78
421.605	503.59
421.982	546.3
422.358	497.49
422.735	503.81
423.111	501.78
423.488	507.88
423.864	531.16
424.241	539.52
424.617	532.74
424.994	533.87
425.37	536.13
425.746	544.72
426.123	550.14
426.499	515.11
426.875	517.6
427.251	535.9
427.627	549.01
428.003	529.12
428.379	573.64
428.756	556.24
429.132	572.97
429.507	561.67
429.883	573.87
430.259	564.38
430.635	576.35
431.011	560.54
431.387	589.91
431.763	602.34
432.138	579.07
432.514	615.68
432.89	591.95
433.265	586.52
433.641	631.49
434.016	606.18
434.392	612.74
434.767	638.27
435.143	628.1
435.518	663.13
435.894	633.08
436.269	624.26
436.644	661.78
437.02	661.55
437.395	653.42
437.77	646.41
438.145	668.33
438.52	678.73
438.895	681.21
439.271	657.71
439.646	712.4
440.021	692.06
440.395	682.34
440.77	705.39
441.145	719.4
441.52	720.98
441.895	743.36
442.27	715.11
442.645	717.59
443.019	719.85
443.394	730.48
443.769	730.48
444.143	728.67
444.518	760.3
444.892	750.14
445.267	760.53
445.641	772.51
446.016	759.17
446.39	772.73
446.764	757.82
447.139	765.05
447.513	767.99
447.887	752.17
448.262	788.1
448.636	766.63
449.01	773.41
449.384	802.34
449.758	795.11
450.132	786.74
450.506	795.56
450.88	802.79
451.254	826.97
451.628	826.07
452.002	834.88
452.376	847.53
452.75	833.3
453.123	844.82
453.497	861.09
453.871	859.96
454.244	867.19
454.618	888.44
454.992	879.17
455.365	912.39
455.739	899.96
456.112	928.44
456.486	934.09
456.859	919.62
457.232	939.51
457.606	937.02
457.979	945.84
458.352	998.49
458.725	979.73
459.099	973.86
459.472	1012.73
459.845	1035.55
460.218	1019.06
460.591	1060.86
460.964	1054.76
461.337	1077.36
461.71	1051.14
462.083	1066.51
462.456	1094.76
462.829	1098.83
463.201	1122.33
463.574	1097.25
463.947	1115.55
464.32	1171.37
464.692	1178.15
465.065	1169.79
465.438	1183.8
465.81	1205.94
466.183	1220.18
466.555	1276
466.928	1248.43
467.3	1287.07
467.672	1282.33
468.045	1322.55
468.417	1354.87
468.789	1339.72
469.161	1358.71
469.534	1403.68
469.906	1399.38
470.278	1423.11
470.65	1478.93
471.022	1495.2
471.394	1529.55
471.766	1535.88
472.138	1574.97
472.51	1621.3
472.882	1621.07
473.253	1657.23
473.625	1704.46
473.997	1752.37
474.369	1770
474.74	1795.98
475.112	1868.3
475.484	1898.13
475.855	1962.76
476.227	1983.55
476.598	2013.38
476.97	2092.93
477.341	2148.52
477.713	2162.53
478.084	2230.32
478.455	2312.35
478.827	2307.83
479.198	2409.3
479.569	2488.62
479.94	2573.36
480.311	2630.99
480.682	2714.83
481.053	2797.31
481.424	2861.27
481.795	2900.14
482.166	3046.8
482.537	3094.25
482.908	3204.53
483.279	3327.47
483.65	3361.82
484.021	3496.73
484.391	3565.43
484.762	3656.27
485.133	3703.28
485.503	3845.65
485.874	3963.61
486.244	4072.08
486.615	4193.89
486.985	4261.68
487.356	4405.18
487.726	4551.62
488.097	4633.65
488.467	4758.39
488.837	4927.88
489.207	5022.34
489.578	5158.38
489.948	5316.8
490.318	5424.36
490.688	5445.83
491.058	5634.3
491.428	5855.54
491.798	5954.52
492.168	6131.92
492.538	6225.02
492.908	6361.51
493.278	6564.22
493.648	6568.29
494.017	6725.57
494.387	6961.5
494.757	7037.2
495.126	7182.73
495.496	7339.34
495.866	7415.05
496.235	7531.88
496.605	7663.17
496.974	7894.13
497.344	8027.68
497.713	8101.81
498.082	8241.24
498.452	8412.08
498.821	8505.86
499.19	8573.88
499.559	8750.38
499.928	8941.78
500.298	8989.92
500.667	9198.05
501.036	9278.95
501.405	9402.34
501.774	9500.41
502.143	9642.33
502.512	9738.83
502.88	9843
503.249	10006.16
503.618	10061.08
503.987	10166.39
504.356	10347.4
504.724	10465.36
505.093	10509.88
505.462	10682.08
505.83	10792.58
506.199	10909.87
506.567	11099.47
506.936	11115.51
507.304	11261.5
507.672	11338.56
508.041	11473.7
508.409	11637.31
508.777	11652.67
509.145	11887.47
509.514	11871.43
509.882	12016.28
510.25	12051.08
510.618	12188.25
510.986	12282.94
511.354	12439.77
511.722	12581.69
512.09	12750.05
512.458	12693.78
512.826	12837.73
513.193	12957.72
513.561	13020.32
513.929	13082.92
514.297	13229.81
514.664	13319.97
515.032	13406.75
515.4	13535.34
515.767	13601.32
516.135	13670.7
516.502	13604.71
516.869	13847.19
517.237	14042.22
517.604	13987.75
517.972	14090.58
518.339	14197.47
518.706	14248.99
519.073	14314.52
519.44	14493.05
519.808	14618.02
520.175	14642.88
520.542	14758.35
520.909	14962.42
521.276	14881.52
521.643	15044.22
522.009	15150.43
522.376	15273.6
522.743	15255.52
523.11	15451.9
523.477	15572.8
523.843	15690.08
524.21	15807.37
524.577	15801.27
524.943	16008.04
525.31	15942.5
525.676	16147.92
526.043	16241.03
526.409	16246.45
526.776	16497.97
527.142	16504.07
527.508	16586.56
527.874	16662.26
528.241	16765.31
528.607	16746.1
528.973	16923.27
529.339	16842.82
529.705	17114.68
530.071	17137.5
530.437	17190.16
530.803	17239.42
531.169	17316.03
531.535	17352.64
531.901	17436.93
532.267	17351.51
532.632	17472.18
532.998	17492.97
533.364	17585.4
533.73	17667.66
534.095	17715.79
534.461	17815.68
534.826	17906.07
535.192	17927.09
535.557	18033.52
535.923	17928.67
536.288	17959.17
536.653	18063.58
537.019	17973.41
537.384	18071.04
537.749	18178.15
538.114	18195.55
538.479	18160.98
538.845	18191.48
539.21	18152.16
539.575	18267.64
539.94	18272.39
540.305	18283.91
540.67	18297.92
541.034	18370.46
541.399	18385.6
541.764	18448.88
542.129	18528.2
542.494	18394.19
542.858	18490.01
543.223	18436.68
543.587	18600.97
543.952	18544.02
544.316	18575.2
544.681	18524.36
545.045	18579.72
545.41	18664.92
545.774	18711.02
546.138	18685.71
546.503	18664.24
546.867	18725.03
547.231	18817.01
547.595	18812.03
547.959	18836.44
548.324	18760.28
548.688	18809.77
549.052	18790.34
549.416	18882.99
549.779	18741.98
550.143	18853.16
550.507	19018.13
550.871	18958.47
551.235	18911.69
551.599	19086.6
551.962	18989.88
552.326	19153.49
552.689	19170.22
553.053	19088.64
553.417	19128.64
553.78	19316.43
554.143	19182.42
554.507	19237.56
554.87	19368.4
555.234	19422.87
555.597	19330.44
555.96	19355.52
556.323	19407.05
556.686	19449.76
557.05	19520.26
557.413	19531.34
557.776	19623.76
558.139	19629.64
558.502	19677.55
558.865	19667.6
559.228	19788.51
559.59	19836.87
559.953	19817.43
560.316	19980.82
560.679	19959.12
561.041	20044.77
561.404	20144.43
561.767	20186.69
562.129	20031.21
562.492	20361.82
562.854	20269.17
563.217	20233.01
563.579	20390.07
563.941	20519.33
564.304	20476.17
564.666	20643.4
565.028	20614.25
565.39	20673.68
565.753	20754.58
566.115	20903.28
566.477	20840.68
566.839	20967.46
567.201	20923.39
567.563	20902.15
567.925	21174.23
568.287	21120
568.648	21230.28
569.01	21206.55
569.372	21317.73
569.734	21227.56
570.095	21378.75
570.457	21479.99
570.819	21523.6
571.18	21472.08
571.542	21673.2
571.903	21692.64
572.265	21714.1
572.626	21815.57
572.987	21826.64
573.349	21828.45
573.71	21856.02
574.071	21806.08
574.432	21984.61
574.794	22131.27
575.155	21990.48
575.516	22001.1
575.877	22155.9
576.238	22172.4
576.599	22095.11
576.96	22234.09
577.32	22143.7
577.681	22267.76
578.042	22387.08
578.403	22288.1
578.763	22346.4
579.124	22354.77
579.485	22474.54
579.845	22470.24
580.206	22417.59
580.566	22444.03
580.927	22370.13
581.287	22608.09
581.648	22477.25
582.008	22589.79
582.368	22501.2
582.728	22557.47
583.089	22495.1
583.449	22460.07
583.809	22419.4
584.169	22606.96
584.529	22551.6
584.889	22660.07
585.249	22498.94
585.609	22484.25
585.969	22591.14
586.329	22427.98
586.688	22523.57
587.048	22587.98
587.408	22491.71
587.768	22559.28
588.127	22521.31
588.487	22576.23
588.846	22627.3
589.206	22390.92
589.565	22497.59
589.925	22555.66
590.284	22620.97
590.643	22570.8
591.003	22628.66
591.362	22633.4
591.721	22513.86
592.08	22517.47
592.44	22668.88
592.799	22650.8
593.158	22584.59
593.517	22648.32
593.876	22470.02
594.235	22581.43
594.593	22598.6
594.952	22639.73
595.311	22499.62
595.67	22756.34
596.029	22672.95
596.387	22719.73
596.746	22684.25
597.104	22599.28
597.463	22585.49
597.822	22668.43
598.18	22680.86
598.538	22656.45
598.897	22788.65
599.255	22504.82
599.613	22937.57
599.972	22722.44
600.33	22759.73
600.688	22655.55
601.046	22855.54
601.404	22872.72
601.762	22737.35
602.12	22877.01
602.478	22908.65
602.836	22926.5
603.194	22728.31
603.552	22851.7
603.91	22744.36
604.268	22887.86
604.625	22854.64
604.983	23007.18
605.341	22887.41
605.698	22975.99
606.056	23055.31
606.413	22914.07
606.771	23080.4
607.128	23013.28
607.485	22930.34
607.843	22911.13
608.2	23058.7
608.557	23207.4
608.914	23138.02
609.272	23176.21
609.629	23295.98
609.986	23286.27
610.343	23293.05
610.7	23353.61
611.057	23348.41
611.414	23387.73
611.771	23371.46
612.127	23465.92
612.484	23393.83
612.841	23432.7
613.198	23536.88
613.554	23410.1
613.911	23583.21
614.267	23620.95
614.624	23636.77
614.98	23671.57
615.337	23758.34
615.693	23776.2
616.05	23671.79
616.406	23899.36
616.762	23769.19
617.118	23695.07
617.475	23729.42
617.831	23885.35
618.187	23819.13
618.543	23877.44
618.899	24103.87
619.255	23925.8
619.611	23899.58
619.967	24021.39
620.323	23942.52
620.678	24042.86
621.034	24004.21
621.39	24044.89
621.746	23984.33
622.101	24303.41
622.457	23955.18
622.812	24047.83
623.168	24166.02
623.523	24126.92
623.879	24234.49
624.234	24141.16
624.589	24323.08
624.945	24309.06
625.3	24180.03
625.655	24223.87
626.01	24220.93
626.365	24248.05
626.72	24232.68
627.075	24152.46
627.43	24128.96
627.785	24223.19
628.14	24234.26
628.495	24251.89
628.85	24203.08
629.205	23998.56
629.559	24343.87
629.914	24096.87
630.269	24167.6
630.623	24119.69
630.978	24075.62
631.332	24176.41
631.687	24230.2
632.041	23992.01
632.396	24056.64
632.75	24015.06
633.104	24010.99
633.459	23958.79
633.813	23996.08
634.167	23967.38
634.521	23940.26
634.875	23985
635.229	23938.9
635.583	23872.24
635.937	23839.7
636.291	23812.58
636.645	23814.61
636.999	23706.14
637.352	23768.51
637.706	23665.24
638.06	23818.46
638.413	23708.18
638.767	23644.9
639.121	23729.64
639.474	23521.29
639.828	23661.17
640.181	23690.55
640.534	23548.63
640.888	23595.64
641.241	23440.84
641.594	23484
641.947	23591.34
642.301	23490.78
642.654	23479.71
643.007	23508.41
643.36	23486.04
643.713	23411.46
644.066	23508.63
644.419	23433.61
644.771	23185.93
645.124	22964.47
645.477	22923.34
645.83	22968.53
646.182	22875.43
646.535	22753.62
646.888	22816.22
647.24	22692.84
647.593	22698.49
647.945	22777.35
648.298	22579.39
648.65	22528.09
649.002	22450.58
649.355	22632.5
649.707	22594.31
650.059	22696.45
650.411	22926.5
650.763	23017.8
651.115	23190.9
651.467	23059.61
651.819	23097.34
652.171	23093.5
652.523	22942.09
652.875	23027.52
653.227	22986.84
653.578	23128.3
653.93	23163.56
654.282	23105.03
654.633	23008.99
654.985	23049.21
655.337	23040.62
655.688	23022.54
656.039	23059.15
656.391	22890.12
656.742	23032.94
657.094	22991.13
657.445	23055.31
657.796	22942.55
658.147	23020.51
658.498	23016.67
658.849	22886.5
659.2	23084.24
659.551	22891.02
659.902	23075.65
660.253	22906.84
660.604	23068.87
660.955	22928.99
661.306	23051.92
661.656	23032.04
662.007	22962.21
662.358	22879.27
662.708	23009.89
663.059	22951.81
663.409	22759.05
663.76	23001.75
664.11	23109.77
664.461	23045.59
664.811	22959.95
665.161	23107.29
665.511	22864.36
665.862	23033.84
666.212	23113.62
666.562	23016.67
666.912	22926.28
667.262	23003.56
667.612	22982.55
667.962	23092.83
668.312	22958.14
668.662	23002.43
669.011	23004.01
669.361	22848.31
669.711	22898.93
670.06	22966.05
670.41	22721.99
670.76	22836.33
671.109	22897.35
671.459	22828.65
671.808	22793.62
672.157	22888.76
672.507	22672.05
672.856	22800.86
673.205	22741.42
673.554	22874.53
673.904	22758.14
674.253	22851.25
674.602	22913.17
674.951	22411.71
675.3	22373.3
675.649	22681.54
675.998	22683.8
676.346	22670.01
676.695	22832.04
677.044	22613.52
677.393	22615.78
677.741	22786.62
678.09	22582.1
678.438	22539.17
678.787	22551.14
679.135	22615.32
679.484	22459.62
679.832	22542.56
680.181	22452.39
680.529	22544.36
680.877	22403.35
681.225	22311.6
681.573	22440.19
681.922	22267.31
682.27	22182.57
682.618	22250.81
682.966	22160.42
683.314	22216.01
683.661	22076.13
684.009	22057.37
684.357	21906.64
684.705	22003.59
685.053	21908.9
685.4	21853.08
685.748	21776.25
686.095	21753.65
686.443	21738.51
686.79	21739.64
687.138	21761.11
687.485	21689.25
687.832	21621.68
688.18	21673.2
688.527	21486.31
688.874	21412.42
689.221	21422.81
689.568	21277.51
689.915	21235.7
690.262	21314.11
690.609	21160.22
690.956	21192.99
691.303	21056.27
691.65	21029.83
691.997	20992.09
692.344	20946.44
692.69	20791.42
693.037	20827.12
693.383	20666.9
693.73	20849.72
694.077	20632.78
694.423	20626.22
694.769	20511.2
695.116	20460.35
695.462	20496.96
695.808	20382.39
696.155	20414.7
696.501	20223.07
696.847	20325.67
697.193	20058.1
697.539	20193.69
697.885	19970.2
698.231	19884.32
698.577	19938.56
698.923	19868.5
699.269	19723.42
699.614	19656.53
699.96	19683.88
700.306	19565.69
700.651	19471.9
700.997	19509.19
701.342	19507.61
701.688	19456.08
702.033	19312.81
702.379	19216.09
702.724	19275.52
703.069	19254.51
703.415	19024.01
703.76	18958.47
704.105	18922.77
704.45	18922.54
704.795	18902.88
705.14	18775.88
705.485	18668.99
705.83	18599.84
706.175	18707.86
706.52	18606.84
706.865	18624.02
707.209	18572.49
707.554	18391.03
707.899	18355.1
708.243	18384.25
708.588	18306.06
708.932	18177.25
709.277	18208.66
709.621	18208.43
709.966	18058.61
710.31	18210.69
710.654	17954.2
710.998	17917.59
711.342	17906.07
711.687	17898.16
712.031	17801.21
712.375	17804.15
712.719	17849.35
713.063	17632.86
713.407	17848.22
713.75	17699.97
714.094	17721.21
714.438	17618.17
714.782	17563.48
715.125	17511.5
715.469	17559.64
715.812	17374.56
716.156	17397.38
716.499	17404.84
716.843	17396.25
717.186	17344.95
717.53	17383.14
717.873	17356.93
718.216	17260.21
718.559	17136.15
718.902	17077.39
719.246	17204.39
719.589	16966.43
719.932	17038.75
720.275	17014.57
720.617	17041.01
720.96	16999.88
721.303	16946.55
721.646	17034.23
721.989	16923.27
722.331	16888.92
722.674	16940.9
723.016	16889.6
723.359	16823.84
723.701	16894.57
724.044	16752.2
724.386	16765.08
724.729	16799.88
725.071	16764.18
725.413	16776.38
725.755	16653.22
726.097	16688.47
726.439	16522.15
726.782	16558.31
727.124	16599.44
727.465	16528.03
727.807	16580.68
728.149	16463.17
728.491	16439.21
728.833	16518.99
729.175	16431.53
729.516	16465.2
729.858	16371.65
730.199	16466.11
730.541	16321.48
730.882	16335.71
731.224	16459.33
731.565	16318.99
731.906	16344.75
732.248	16367.13
732.589	16307.47
732.93	16303.17
733.271	16275.83
733.612	16323.74
733.953	16269.95
734.294	16237.64
734.635	16267.47
734.976	16221.82
735.317	16194.48
735.658	16123.52
735.999	16232.89
736.339	16248.26
736.68	16229.05
737.021	16164.19
737.361	16103.4
737.702	16245.1
738.042	16251.65
738.383	16105.44
738.723	16195.15
739.063	16128.94
739.404	16164.42
739.744	16100.69
740.084	16103.18
740.424	16163.52
740.764	16097.08
741.104	16123.74
741.444	16184.53
741.784	16029.96
742.124	16225.21
742.464	16064.76
742.804	16133.91
743.143	16062.05
743.483	16160.58
743.823	16001.71
744.162	16161.93
744.502	16241.71
744.841	16172.33
745.181	16231.08
745.52	16135.72
745.86	16293.91
746.199	16205.32
746.538	16308.82
746.877	16370.29
747.216	16351.99
747.556	16352.89
747.895	16384.53
748.234	16290.52
748.573	16450.29
748.911	16391.08
749.25	16390.63
749.589	16478.31
749.928	16582.49
750.267	16610.96
750.605	16621.81
750.944	16650.28
751.283	16659.55
751.621	16791.3
751.96	16730.51
752.298	16768.02
752.636	16858.19
752.975	16876.04
753.313	16930.5
753.651	16998.75
753.989	17064.28
754.327	17071.06
754.666	17161.68
755.004	17224.96
755.342	17288.23
755.679	17376.14
756.017	17316.25
756.355	17524.16
756.693	17456.36
757.031	17656.36
757.368	17647.54
757.706	17631.27
758.044	17787.65
758.381	17911.27
758.719	17888.44
759.056	18074.88
759.394	18010.92
759.731	17947.42
760.068	18121.43
760.405	18053.18
760.743	18193.97
761.08	18287.3
761.417	18282.1
761.754	18414.3
762.091	18423.12
762.428	18485.94
762.765	18326.85
763.102	18521.65
763.438	18492.49
763.775	18556.22
764.112	18766.61
764.449	18683.9
764.785	18671.47
765.122	18675.09
765.458	18760.74
765.795	18795.54
766.131	18860.39
766.467	18817.23
766.804	18822.65
767.14	18763.9
767.476	18784.46
767.812	18856.55
768.148	18910.34
768.485	18810.68
768.821	18742.66
769.157	18833.5
769.492	18774.75
769.828	18859.94
770.164	18764.35
770.5	18810.68
770.836	18828.98
771.171	18875.08
771.507	18794.86
771.842	18622.89
772.178	18805.71
772.513	18686.16
772.849	18640.29
773.184	18659.5
773.519	18647.07
773.855	18587.41
774.19	18599.61
774.525	18551.02
774.86	18558.71
775.195	18513.74
775.53	18537.69
775.865	18383.12
776.2	18436.9
776.535	18244.36
776.87	18197.59
777.205	18206.17
777.539	18218.6
777.874	18323.23
778.209	17956.69
778.543	18073.97
778.878	18055.44
779.212	17965.95
779.547	17918.72
779.881	17938.16
780.215	17842.79
780.55	17882.57
780.884	17775.9
781.218	17822.68
781.552	17822.46
781.886	17700.88
782.22	17654.78
782.554	17552.41
782.888	17453.65
783.222	17403.94
783.556	17351.73
783.889	17338.63
784.223	17243.49
784.557	17298.63
784.89	17288.91
785.224	17095.92
785.557	17132.08
785.891	17105.86
786.224	16987.22
786.558	16998.07
786.891	16880.56
787.224	16852.09
787.557	16770.73
787.891	16723.05
788.224	16700.45
788.557	16746.33
788.89	16700.45
789.223	16693.67
789.556	16516.73
789.888	16418.65
790.221	16423.4
790.554	16383.62
790.887	16424.3
791.219	16269.05
791.552	16268.82
791.884	16201.25
792.217	16157.64
792.549	16145.21
792.882	15916.97
793.214	16017.98
793.546	16002.84
793.879	15908.38
794.211	15728.05
794.543	15833.13
794.875	15785.22
795.207	15879.46
795.539	15645.79
795.871	15622.06
796.203	15570.08
796.535	15471.1
796.867	15458.45
797.198	15403.08
797.53	15348.17
797.862	15236.76
798.193	15326.7
798.525	15260.26
798.856	15226.59
799.188	15076.76
799.519	15059.59
799.85	14953.38
800.182	15083.77
800.513	15015.98
800.844	14864.11
801.175	14916.54
801.506	14878.8
801.837	14750.9
802.168	14675.42
802.499	14755.19
802.83	14699.83
803.161	14562.2
803.491	14569.21
803.822	14567.4
804.153	14490.34
804.483	14406.95
804.814	14400.85
805.145	14434.07
805.475	14323.11
805.805	14259.61
806.136	14320.17
806.466	14169.9
806.796	14203.79
807.126	14145.72
807.457	14088.77
807.787	14100.97
808.117	14019.17
808.447	13985.95
808.777	14043.57
809.107	13933.29
809.436	13870.47
809.766	13900.75
810.096	13870.24
810.426	13714.99
810.755	13771.94
811.085	13708.44
811.414	13669.57
811.744	13576.92
812.073	13606.52
812.403	13547.77
812.732	13491.72
813.061	13451.04
813.39	13473.87
813.719	13363.14
814.049	13439.75
814.378	13380.31
814.707	13329.92
815.036	13339.86
815.365	13270.48
815.693	13124.27
816.022	13237.04
816.351	13095.57
816.68	12999.53
817.008	13071.17
817.337	13014.9
817.665	12978.97
817.994	13022.36
818.322	12911.17
818.651	12964.73
818.979	12796.6
819.307	12886.99
819.636	12862.13
819.964	12760.44
820.292	12927.89
820.62	12792.53
820.948	12763.15
821.276	12780.55
821.604	12676.15
821.932	12787.11
822.259	12764.28
822.587	12764.28
822.915	12766.09
823.243	12762.25
823.57	12674.34
823.898	12794.11
824.225	12673.44
824.553	12674.12
824.88	12714.79
825.207	12751.63
825.535	12704.4
825.862	12727
826.189	12613.1
826.516	12717.05
826.843	12682.03
827.17	12776.03
827.497	12703.95
827.824	12778.29
828.151	12774.23
828.478	12619.2
828.805	12692.65
829.131	12638.64
829.458	12764.73
829.785	12565.42
830.111	12629.82
830.438	12688.13
830.764	12680.22
831.09	12622.37
831.417	12625.3
831.743	12604.51
832.069	12634.79
832.395	12585.3
832.722	12630.05
833.048	12540.56
833.374	12640.67
833.7	12497.17
834.026	12604.51
834.351	12603.16
834.677	12573.55
835.003	12563.16
835.329	12532.88
835.654	12556.15
835.98	12533.1
836.306	12460.11
836.631	12383.28
836.956	12425.08
837.282	12477.96
837.607	12443.16
837.932	12369.72
838.258	12357.29
838.583	12332.66
838.908	12357.29
839.233	12329.72
839.558	12322.94
839.883	12212.21
840.208	12184.19
840.533	12296.72
840.858	12185.77
841.182	12183.73
841.507	12186.67
841.832	12110.74
842.156	12072.55
842.481	12150.29
842.805	12044.98
843.13	12096.96
843.454	12031.65
843.778	11914.36
844.103	11944.87
844.427	11944.64
844.751	11962.72
845.075	11849.73
845.399	11748.26
845.723	11829.84
846.047	11701.03
846.371	11609.51
846.695	11698.77
847.019	11530.42
847.343	11524.09
847.666	11428.27
847.99	11380.14
848.313	11372.68
848.637	11329.97
848.96	11289.97
849.284	11341.5
849.607	11242.29
849.931	11209.75
850.254	11139.02
850.577	11082.75
850.9	10993.48
851.223	10979.7
851.546	10968.85
851.869	10931.11
852.192	10943.09
852.515	10800.72
852.838	10740.38
853.161	10786.48
853.483	10696.09
853.806	10717.33
854.129	10627.62
854.451	10659.03
854.774	10443.67
855.096	10576.54
855.419	10553.72
855.741	10510.11
856.063	10414.74
856.385	10361.18
856.708	10384.68
857.03	10293.16
857.352	10325.93
857.674	10283.9
857.996	10252.48
858.318	10244.35
858.64	10216.55
858.961	10117.12
859.283	10064.24
859.605	10000.97
859.926	10088.65
860.248	10069.89
860.57	10011.59
860.891	10053.85
861.212	9956
861.534	9977.01
861.855	9886.39
862.176	9884.36
862.498	9873.51
862.819	9820.63
863.14	9832.38
863.461	9773.18
863.782	9757.13
864.103	9742.89
864.424	9725.72
864.745	9789.45
865.065	9699.5
865.386	9734.98
865.707	9650.24
866.027	9766.17
866.348	9663.57
866.668	9641.65
866.989	9609.56
867.309	9553.29
867.63	9552.39
867.95	9555.33
868.27	9499.28
868.59	9585.84
868.91	9457.03
869.23	9501.32
869.55	9450.02
869.87	9481.88
870.19	9535.89
870.51	9547.19
870.83	9485.5
871.15	9414.77
871.469	9392.17
871.789	9479.17
872.109	9381.77
872.428	9363.02
872.748	9340.19
873.067	9330.48
873.386	9369.57
873.706	9320.31
874.025	9290.25
874.344	9241.66
874.663	9219.29
874.982	9240.31
875.301	9222
875.62	9188.33
875.939	9180.42
876.258	9155.56
876.577	9094.55
876.896	9211.83
877.214	9156.02
877.533	9143.59
877.852	9078.96
878.17	9128.67
878.489	9067.66
878.807	9099.29
879.125	9033.31
879.444	8978.85
879.762	8977.94
880.08	8960.77
880.398	8921.9
880.716	9012.07
881.034	8940.65
881.352	8890.94
881.67	8891.62
881.988	8923.71
882.306	8884.39
882.624	8788.12
882.941	8809.81
883.259	8777.95
883.577	8794.9
883.894	8642.13
884.212	8783.37
884.529	8696.37
884.846	8679.42
885.164	8714.9
885.481	8628.35
885.798	8682.13
886.115	8588.12
886.432	8540.44
886.75	8596.03
887.067	8575.69
887.383	8504.96
887.7	8510.16
888.017	8470.84
888.334	8458.18
888.651	8499.76
888.967	8401.69
889.284	8404.85
889.6	8389.26
889.917	8323.72
890.233	8318.52
890.55	8343.16
890.866	8353.1
891.182	8235.14
891.498	8231.07
891.815	8209.15
892.131	8217.74
892.447	8148.59
892.763	8085.08
893.079	8120.56
893.395	8088.02
893.71	8081.69
894.026	8057.74
894.342	8007.57
894.657	7953.56
894.973	7968.93
895.289	7971.41
895.604	7915.14
895.92	7870.85
896.235	7843.28
896.55	7863.85
896.865	7861.59
897.181	7819.78
897.496	7794.92
897.811	7742.04
898.126	7690.74
898.441	7677.86
898.756	7637.41
899.071	7613.91
899.386	7652.78
899.7	7561.93
900.015	7527.36
900.33	7490.75
900.644	7575.94
900.959	7512.9
901.273	7396.74
901.588	7407.36
901.902	7377.08
902.216	7347.02
902.531	7364.65
902.845	7323.52
903.159	7283.52
903.473	7189.06
903.787	7228.38
904.101	7253.47
904.415	7175.05
904.729	7105.9
905.042	7078.78
905.356	7086.69
905.67	7080.14
905.984	7065.45
906.297	6957.2
906.611	6982.74
906.924	6994.72
907.237	6922.4
907.551	6966.47
907.864	6931.22
908.177	6833.14
908.491	6877.88
908.804	6830.2
909.117	6778
909.43	6726.25
909.743	6761.05
910.056	6702.75
910.368	6648.06
910.681	6673.37
910.994	6637.66
911.307	6551.11
911.619	6550.66
911.932	6536.42
912.244	6484
912.557	6490.1
912.869	6424.79
913.181	6413.04
913.494	6456.88
913.806	6383.21
914.118	6360.38
914.43	6323.77
914.742	6282.87
915.054	6263.44
915.366	6237.9
915.678	6263.89
915.99	6208.98
916.302	6155.87
916.613	6160.16
916.925	6126.04
917.236	6060.28
917.548	6023.67
917.859	6119.03
918.171	6093.05
918.482	6008.53
918.794	5965.37
919.105	5972.82
919.416	5925.59
919.727	5879.04
920.038	5934.63
920.349	5878.36
920.66	5811.7
920.971	5834.07
921.282	5777.12
921.593	5724.02
921.903	5745.03
922.214	5696.9
922.525	5674.3
922.835	5652.38
923.146	5627.07
923.456	5636.11
923.767	5623.45
924.077	5611.25
924.387	5610.57
924.697	5555.66
925.008	5481.54
925.318	5479.28
925.628	5487.19
925.938	5468.2
926.248	5382.56
926.558	5410.8
926.867	5366.74
927.177	5328.77
927.487	5346.62
927.796	5232.05
928.106	5282.45
928.416	5228.21
928.725	5253.97
929.034	5227.53
929.344	5192.5
929.653	5164.03
929.962	5141.21
930.271	5098.27
930.581	5128.78
930.89	5097.59
931.199	5049.46
931.508	5073.19
931.817	5037.48
932.125	4983.02
932.434	4975.79
932.743	4967.2
933.051	4943.47
933.36	4901.44
933.669	4874.55
933.977	4901.89
934.286	4855.79
934.594	4825.51
934.902	4818.96
935.21	4800.65
935.519	4765.62
935.827	4780.99
936.135	4730.14
936.443	4688.56
936.751	4649.69
937.059	4668.45
937.367	4664.61
937.674	4718.17
937.982	4621.22
938.29	4595.01
938.597	4585.06
938.905	4493.77
939.213	4523.37
939.52	4499.87
939.827	4470.49
940.135	4487.66
940.442	4471.17
940.749	4507.78
941.056	4431.39
941.363	4410.38
941.67	4413.54
941.977	4308.91
942.284	4358.4
942.591	4336.03
942.898	4267.33
943.205	4282.47
943.511	4273.88
943.818	4250.38
944.125	4221.68
944.431	4230.95
944.738	4196.6
945.044	4197.28
945.35	4174.45
945.657	4114.11
945.963	4155.92
946.269	4091.29
946.575	4105.3
946.881	4051.29
947.187	4090.39
947.493	4039.77
947.799	3999.99
948.105	4016.72
948.41	3988.69
948.716	3950.5
949.022	3963.16
949.327	3965.64
949.633	3889.04
949.938	3894.01
950.244	3917.74
950.549	3897.85
950.854	3830.05
951.16	3829.38
951.465	3809.04
951.77	3824.41
952.075	3812.2
952.38	3754.12
952.685	3785.31
952.99	3713.67
953.294	3722.49
953.599	3698.53
953.904	3679.32
954.209	3694.24
954.513	3709.83
954.818	3656.73
955.122	3599.33
955.426	3652.88
955.731	3623.51
956.035	3635.48
956.339	3595.71
956.643	3602.04
956.948	3558.65
957.252	3515.49
957.556	3506
957.86	3500.57
958.163	3496.05
958.467	3478.43
958.771	3422.61
959.075	3442.27
959.378	3417.41
959.682	3416.73
959.985	3386.9
960.289	3357.52
960.592	3369.73
960.896	3371.31
961.199	3342.16
961.502	3338.09
961.805	3297.41
962.108	3312.78
962.411	3271.43
962.714	3253.57
963.017	3242.05
963.32	3259.67
963.623	3189.39
963.926	3219.9
964.228	3228.04
964.531	3213.57
964.833	3173.12
965.136	3127.93
965.438	3157.08
965.741	3131.99
966.043	3124.31
966.345	3138.32
966.648	3058.55
966.95	3087.93
967.252	3047.93
967.554	3010.64
967.856	3030.3
968.158	2999.12
968.46	3014.26
968.761	3003.64
969.063	3012
969.365	2954.82
969.666	2969.06
969.968	2950.3
970.269	2934.03
970.571	2881.15
970.872	2942.62
971.174	2884.99
971.475	2887.71
971.776	2842.96
972.077	2840.48
972.378	2854.94
972.679	2802.51
972.98	2822.17
973.281	2831.21
973.582	2807.71
973.883	2818.78
974.183	2777.65
974.484	2770.65
974.785	2755.05
975.085	2734.72
975.386	2744.66
975.686	2715.06
975.986	2700.59
976.287	2702.4
976.587	2668.05
976.887	2649.29
977.187	2659.92
977.487	2630.76
977.787	2630.54
978.087	2589.86
978.387	2628.73
978.687	2620.14
978.987	2576.3
979.286	2582.18
979.586	2552.35
979.885	2549.64
980.185	2563.2
980.484	2547.83
980.784	2509.41
981.083	2506.93
981.382	2523.2
981.682	2469.41
981.981	2484.1
982.28	2482.29
982.579	2474.61
982.878	2437.1
983.177	2413.82
983.475	2454.72
983.774	2424.67
984.073	2364.78
984.372	2422.63
984.67	2391.67
984.969	2387.83
985.267	2384.44
985.566	2355.07
985.864	2323.88
986.162	2319.36
986.461	2341.51
986.759	2322.07
987.057	2294.05
987.355	2300.83
987.653	2275.29
987.951	2270.32
988.249	2252.24
988.547	2240.04
988.844	2240.49
989.142	2255.86
989.44	2241.17
989.737	2212.47
990.035	2202.75
990.332	2192.13
990.63	2199.36
990.927	2199.59
991.224	2164.34
991.521	2154.84
991.819	2160.49
992.116	2097.9
992.413	2130.66
992.71	2090.67
993.006	2124.11
993.303	2084.79
993.6	2109.65
993.897	2058.12
994.193	2086.37
994.49	2041.18
994.787	2055.19
995.083	2050.44
995.379	2008.41
995.676	2027.84
995.972	2005.02
996.268	2010.22
996.565	1999.14
996.861	1985.58
997.157	1971.8
997.453	1983.55
997.749	1925.02
998.044	1930.9
998.34	1918.69
998.636	1944.68
998.932	1958.92
999.227	1905.13
999.523	1882.76
999.818	1882.54
1000.114	1870.11
1000.409	1871.46
1000.704	1860.39
1001	1882.54
1001.295	1826.94
1001.59	1836.43
1001.885	1829.2
1002.18	1805.7
1002.475	1796.21
1002.77	1755.76
1003.065	1748.75
1003.359	1784.68
1003.654	1766.15
1003.949	1754.18
1004.243	1723.22
1004.538	1703.56
1004.832	1747.85
1005.127	1716.66
1005.421	1703.33
1005.715	1704.23
1006.009	1687.96
1006.304	1665.82
1006.598	1670.56
1006.892	1662.65
1007.186	1640.96
1007.48	1628.08
1007.773	1646.16
1008.067	1615.2
1008.361	1611.13
1008.655	1612.94
1008.948	1587.63
1009.242	1581.53
1009.535	1570.91
1009.829	1582.88
1010.122	1557.8
1010.415	1565.03
1010.708	1582.66
1011.001	1523.22
1011.295	1518.48
1011.588	1533.62
1011.881	1509.66
1012.173	1484.81
1012.466	1492.94
1012.759	1475.54
1013.052	1474.41
1013.344	1456.56
1013.637	1458.37
1013.93	1466.05
1014.222	1435.99
1014.514	1458.37
1014.807	1454.07
1015.099	1407.52
1015.391	1425.37
1015.683	1403.45
1015.976	1455.2
1016.268	1383.11
1016.56	1392.6
1016.851	1409.1
1017.143	1374.98
1017.435	1350.12
1017.727	1315.09
1018.018	1325.26
1018.31	1334.98
1018.602	1326.62
1018.893	1310.12
1019.185	1327.07
1019.476	1297.92
1019.767	1307.64
1020.058	1311.93
1020.35	1264.25
1020.641	1281.42
1020.932	1248.65
1021.223	1266.05
1021.514	1259.95
1021.804	1256.34
1022.095	1240.97
1022.386	1242.55
1022.677	1181.08
1022.967	1220.18
1023.258	1193.97
1023.548	1204.36
1023.839	1197.58
1024.129	1177.7
1024.419	1156.9
1024.709	1158.94
1025	1168.43
1025.29	1138.6
1025.58	1158.49
1025.87	1142.22
1026.16	1153.06
1026.449	1126.4
1026.739	1101.54
1027.029	1120.75
1027.319	1094.53
1027.608	1094.53
1027.898	1114.65
1028.187	1090.47
1028.477	1069.45
1028.766	1083.01
1029.055	1073.97
1029.344	1057.47
1029.634	1024.25
1029.923	1037.36
1030.212	1003.69
1030.501	1022.67
1030.79	1001.43
1031.078	995.78
1031.367	999.39
1031.656	1011.6
1031.945	1001.88
1032.233	1001.88
1032.522	997.81
1032.81	956.68
1033.099	968.89
1033.387	958.27
1033.675	943.35
1033.963	953.75
1034.251	960.53
1034.54	934.54
1034.828	904.03
1035.116	941.32
1035.403	944.71
1035.691	921.66
1035.979	911.04
1036.267	890.7
1036.554	902.9
1036.842	925.72
1037.129	892.73
1037.417	857.03
1037.704	874.65
1037.992	845.73
1038.279	882.79
1038.566	861.09
1038.853	861.09
1039.14	861.09
