Data from hue_130_FLMS001491_00009.txt Node
Date: Tue Feb 07 16:57:05 GMT 2017
User: dcchb
Spectrometer: FLMS00149
Trigger mode: 0
Integration Time (sec): 2.000000E-2
Scans to average: 10
Electric dark correction enabled: true
Nonlinearity correction enabled: false
Boxcar width: 0
XAxis mode: Wavelengths
Number of Pixels in Spectrum: 2048
>>>>>Begin Spectral Data<<<<<
341.393	-19.18
341.776	-19.18
342.16	-19.18
342.543	-59.18
342.927	-66.64
343.31	-72.29
343.693	-66.64
344.077	-56.92
344.46	-56.69
344.843	-74.77
345.226	-34.1
345.61	-47.2
345.993	-17.37
346.376	1.84
346.759	20.37
347.142	38.22
347.525	43.87
347.908	42.06
348.291	60.37
348.674	97.43
349.057	121.83
349.44	136.97
349.823	136.07
350.206	161.83
350.588	200.93
350.971	223.98
351.354	232.34
351.737	232.11
352.119	256.07
352.502	262.39
352.884	252
353.267	286.12
353.65	303.07
354.032	293.35
354.414	310.53
354.797	324.31
355.179	333.8
355.562	331.77
355.944	325.9
356.326	331.32
356.709	331.32
357.091	339.68
357.473	334.71
357.855	339.68
358.238	345.1
358.62	341.94
359.002	366.8
359.384	329.29
359.766	321.38
360.148	343.52
360.53	338.1
360.912	331.09
361.294	343.97
361.676	338.32
362.057	326.35
362.439	354.6
362.821	343.97
363.203	334.03
363.584	333.35
363.966	329.51
364.348	337.87
364.729	326.12
365.111	337.65
365.493	317.08
365.874	320.25
366.256	318.44
366.637	314.14
367.019	306.46
367.4	339
367.781	314.14
368.163	317.99
368.544	329.29
368.925	311.21
369.306	336.97
369.688	323.18
370.069	330.19
370.45	322.05
370.831	320.7
371.212	304.88
371.593	333.58
371.974	316.4
372.355	323.18
372.736	318.89
373.117	307.82
373.498	309.17
373.879	315.05
374.26	318.21
374.641	335.61
375.021	321.15
375.402	332.9
375.783	329.74
376.163	322.73
376.544	319.34
376.925	336.52
377.305	321.6
377.686	341.71
378.066	339.68
378.447	339
378.827	351.66
379.208	333.35
379.588	328.61
379.968	354.14
380.349	335.16
380.729	346.01
381.109	338.78
381.489	353.47
381.87	327.7
382.25	359.57
382.63	326.35
383.01	333.8
383.39	348.27
383.77	356.86
384.15	369.28
384.53	356.86
384.91	354.82
385.29	351.21
385.67	358.21
386.049	379.45
386.429	375.16
386.809	362.28
387.189	373.8
387.568	357.53
387.948	373.35
388.328	366.35
388.707	369.74
389.087	374.48
389.466	364.31
389.846	364.54
390.225	367.25
390.605	372.45
390.984	364.31
391.363	400.7
391.743	373.8
392.122	367.25
392.501	395.72
392.881	369.74
393.26	394.82
393.639	367.02
394.018	380.13
394.397	363.63
394.776	379.23
395.155	389.62
395.534	379.91
395.913	387.36
396.292	395.72
396.671	405.22
397.05	393.69
397.429	399.34
397.808	400.7
398.186	404.31
398.565	376.97
398.944	407.25
399.323	400.7
399.701	408.15
400.08	417.64
400.458	389.85
400.837	433.01
401.215	402.28
401.594	411.32
401.972	411.99
402.351	392.79
402.729	417.19
403.107	422.62
403.486	414.03
403.864	416.29
404.242	422.62
404.62	414.71
404.999	449.28
405.377	452.9
405.755	440.24
406.133	434.82
406.511	442.73
406.889	441.82
407.267	453.12
407.645	452.9
408.023	457.87
408.401	461.49
408.779	447.93
409.156	464.2
409.534	458.32
409.912	447.25
410.29	476.17
410.667	480.92
411.045	464.65
411.422	468.04
411.8	478.66
412.178	488.15
412.555	478.66
412.933	495.16
413.31	485.89
413.687	499.45
414.065	510.98
414.442	542.39
414.819	501.03
415.197	516.4
415.574	529.96
415.951	517.75
416.328	554.82
416.705	511.43
417.082	522.05
417.46	523.86
417.837	539.22
418.214	523.63
418.591	543.06
418.967	567.24
419.344	541.26
419.721	551.88
420.098	554.59
420.475	547.81
420.852	574.7
421.228	543.06
421.605	578.09
421.982	583.52
422.358	594.81
422.735	583.06
423.111	590.07
423.488	589.39
423.864	575.15
424.241	572.22
424.617	605.66
424.994	598.88
425.37	619.9
425.746	617.19
426.123	593.68
426.499	620.35
426.875	636.62
427.251	629.62
427.627	647.24
428.003	630.29
428.379	638.66
428.756	647.02
429.132	625.32
429.507	656.96
429.883	649.5
430.259	678.2
430.635	664.64
431.011	677.52
431.387	685.43
431.763	668.94
432.138	689.95
432.514	728.37
432.89	701.93
433.265	713.91
433.641	716.62
434.016	715.26
434.392	743.29
434.767	739.9
435.143	745.32
435.518	762.72
435.894	764.98
436.269	798.65
436.644	743.96
437.02	784.41
437.395	792.32
437.77	793.91
438.145	797.07
438.52	790.97
438.895	797.75
439.271	794.58
439.646	839.78
440.021	836.39
440.395	855.82
440.77	859.67
441.145	849.72
441.52	864.64
441.895	856.5
442.27	863.51
442.645	861.47
443.019	878.42
443.394	895.15
443.769	880.01
444.143	884.3
444.518	921.59
444.892	895.15
445.267	894.92
445.641	911.19
446.016	921.36
446.39	928.82
446.764	941.47
447.139	924.52
447.513	961.58
447.887	955.94
448.262	934.01
448.636	965.2
449.01	961.81
449.384	972.43
449.758	956.61
450.132	1012.88
450.506	997.29
450.88	1003.39
451.254	1005.88
451.628	1024.18
452.002	1044.07
452.376	1030.96
452.75	1045.65
453.123	1036.16
453.497	1103.05
453.871	1068.02
454.244	1129.94
454.618	1115.03
454.992	1100.56
455.365	1115.48
455.739	1165.87
456.112	1156.61
456.486	1149.38
456.859	1180.11
457.232	1179.66
457.606	1192.77
457.979	1223.05
458.352	1247.91
458.725	1246.55
459.099	1253.1
459.472	1282.03
459.845	1277.06
460.218	1321.58
460.591	1324.06
460.964	1340.33
461.337	1329.94
461.71	1370.16
462.083	1366.55
462.456	1393.21
462.829	1382.82
463.201	1417.39
463.574	1431.4
463.947	1455.13
464.32	1488.8
464.692	1510.05
465.065	1503.04
465.438	1532.64
465.81	1580.1
466.183	1594.56
466.555	1632.53
466.928	1662.81
467.3	1660.78
467.672	1673.43
468.045	1704.62
468.417	1732.19
468.789	1770.38
469.161	1804.27
469.534	1821.68
469.906	1858.96
470.278	1858.96
470.65	1922.69
471.022	1929.02
471.394	2018.28
471.766	1990.71
472.138	2056.92
472.51	2084.49
472.882	2148.22
473.253	2165.85
473.625	2261.21
473.997	2306.41
474.369	2302.57
474.74	2330.81
475.112	2409.91
475.484	2454.43
475.855	2556.57
476.227	2510.47
476.598	2639.96
476.97	2690.8
477.341	2754.08
477.713	2857.81
478.084	2876.34
478.455	3009.21
478.827	2999.05
479.198	3135.77
479.569	3164.01
479.94	3354.29
480.311	3368.08
480.682	3487.62
481.053	3611.01
481.424	3705.24
481.795	3759.03
482.166	3884.67
482.537	3952.24
482.908	4071.79
483.279	4158.11
483.65	4286.47
484.021	4419.57
484.391	4491.89
484.762	4587.7
485.133	4689.17
485.503	4756.97
485.874	4956.73
486.244	5074.92
486.615	5226.78
486.985	5343.84
487.356	5487.34
487.726	5553.55
488.097	5741.35
488.467	5847.56
488.837	5962.81
489.207	6151.73
489.578	6342.91
489.948	6398.28
490.318	6545.62
490.688	6674.88
491.058	6801.21
491.428	6965.72
491.798	7113.29
492.168	7344.69
492.538	7470.34
492.908	7593.73
493.278	7760.5
493.648	7785.81
494.017	8027.61
494.387	8156.42
494.757	8278.45
495.126	8405.46
495.496	8508.51
495.866	8661.95
496.235	8816.75
496.605	8931.77
496.974	8973.58
497.344	9218.77
497.713	9342.61
498.082	9420.57
498.452	9560.68
498.821	9669.15
499.19	9764.97
499.559	9909.15
499.928	10021.91
500.298	10148.24
500.667	10234.11
501.036	10232.08
501.405	10455.8
501.774	10539.86
502.143	10657.38
502.512	10768.11
502.88	10842.23
503.249	10883.81
503.618	11012.62
503.987	11123.13
504.356	11169.9
504.724	11315.66
505.093	11251.94
505.462	11410.58
505.83	11506.62
506.199	11632.72
506.567	11837.23
506.936	11789.77
507.304	12043.55
507.672	12096.43
508.041	12093.04
508.409	12152.93
508.777	12323.77
509.145	12447.61
509.514	12397.67
509.882	12463.2
510.25	12555.18
510.618	12551.56
510.986	12668.62
511.354	12816.87
511.722	12854.38
512.09	12918.78
512.458	12883.31
512.826	13043.53
513.193	13185.22
513.561	13175.05
513.929	13212.56
514.297	13417.3
514.664	13368.72
515.032	13384.76
515.4	13525.1
515.767	13533.01
516.135	13508.37
516.502	13480.35
516.869	13674.7
517.237	13754.47
517.604	13661.82
517.972	13791.08
518.339	13831.53
518.706	13820.91
519.073	13880.12
519.44	13902.49
519.808	13950.4
520.175	14022.48
520.542	14053.9
520.909	14156.27
521.276	14137.74
521.643	14223.61
522.009	14288.01
522.376	14278.75
522.743	14264.29
523.11	14439.87
523.477	14475.35
523.843	14488.91
524.21	14676.03
524.577	14609.81
524.943	14626.76
525.31	14690.49
525.676	14691.85
526.043	14762.35
526.409	14809.81
526.776	14952.86
527.142	14871.05
527.508	14932.07
527.874	14961.67
528.241	14949.24
528.607	15010.71
528.973	15095
529.339	14979.97
529.705	15078.28
530.071	15113.53
530.437	15070.37
530.803	15168.89
531.169	15154.43
531.535	15080.76
531.901	15024.72
532.267	15031.27
532.632	15156.47
532.998	15086.19
533.364	15070.37
533.73	15134.32
534.095	15163.92
534.461	15106.07
534.826	15095.45
535.192	15054.32
535.557	15098.61
535.923	15049.8
536.288	15111.95
536.653	15111.5
537.019	14936.58
537.384	15003.93
537.749	15028.11
538.114	14990.82
538.479	14866.98
538.845	14934.55
539.21	14818.85
539.575	14828.56
539.94	14822.24
540.305	14922.35
540.67	14798.96
541.034	14762.13
541.399	14794.89
541.764	14719.19
542.129	14709.25
542.494	14648.68
542.858	14659.53
543.223	14644.84
543.587	14535.47
543.952	14484.17
544.316	14505.18
544.681	14478.97
545.045	14474.9
545.41	14524.39
545.774	14476.71
546.138	14337.28
546.503	14321.91
546.867	14309.26
547.231	14332.53
547.595	14345.41
547.959	14220.45
548.324	14215.25
548.688	14128.24
549.052	14152.42
549.416	14144.29
549.779	14166.66
550.143	14100
550.507	14092.99
550.871	14001.02
551.235	13958.31
551.599	14088.92
551.962	13997.4
552.326	13862.26
552.689	13982.94
553.053	13884.18
553.417	13873.79
553.78	13988.81
554.143	13850.29
554.507	13835.6
554.87	13861.58
555.234	13793.34
555.597	13722.15
555.96	13819.1
556.323	13777.07
556.686	13712.44
557.05	13839.89
557.413	13659.78
557.776	13719.44
558.139	13764.64
558.502	13772.1
558.865	13717.86
559.228	13770.29
559.59	13731.19
559.953	13723.06
560.316	13805.54
560.679	13796.05
561.041	13816.39
561.404	13763.96
561.767	13817.07
562.129	13740.68
562.492	13835.82
562.854	13714.24
563.217	13775.03
563.579	13824.3
563.941	13856.39
564.304	13864.52
564.666	13913.56
565.028	13844.18
565.39	13879.21
565.753	13898.65
566.115	13900
566.477	13923.5
566.839	13909.04
567.201	14035.59
567.563	13961.47
567.925	14099.32
568.287	14044.4
568.648	13973.22
569.01	14026.1
569.372	14175.02
569.734	14053.67
570.095	14085.76
570.457	14118.53
570.819	14142.71
571.18	14120.33
571.542	14163.05
571.903	14196.94
572.265	14224.74
572.626	14221.8
572.987	14231.97
573.349	14191.07
573.71	14240.11
574.071	14257.51
574.432	14279.43
574.794	14352.19
575.155	14381.57
575.516	14226.55
575.877	14325.53
576.238	14346.09
576.599	14315.13
576.96	14338.63
577.32	14306.09
577.681	14326.43
578.042	14428.58
578.403	14356.26
578.763	14326.43
579.124	14369.14
579.485	14392.19
579.845	14415.47
580.206	14339.54
580.566	14334.57
580.927	14328.01
581.287	14442.81
581.648	14456.37
582.008	14450.95
582.368	14371.85
582.728	14381.57
583.089	14455.92
583.449	14331.4
583.809	14313.78
584.169	14379.09
584.529	14329.14
584.889	14334.57
585.249	14323.49
585.609	14266.77
585.969	14357.16
586.329	14173.21
586.688	14320.56
587.048	14198.3
587.408	14182.48
587.768	14262.7
588.127	14201.46
588.487	14257.51
588.846	14296.83
589.206	14214.57
589.565	14102.93
589.925	14342.7
590.284	14144.29
590.643	14243.04
591.003	14225.64
591.362	14241.69
591.721	14275.36
592.08	14147.9
592.44	14189.94
592.799	14133.44
593.158	14172.31
593.517	14149.71
593.876	14090.51
594.235	14140
594.593	14092.77
594.952	14204.17
595.311	14119.66
595.67	14153.78
596.029	14203.04
596.387	14184.97
596.746	14184.74
597.104	14056.61
597.463	14045.76
597.822	14116.49
598.18	14060.45
598.538	14041.24
598.897	14105.87
599.255	14043.27
599.613	14203.72
599.972	14151.97
600.33	14159.43
600.688	14015.93
601.046	14116.72
601.404	14147
601.762	14062.48
602.12	14208.24
602.478	14161.01
602.836	14186.1
603.194	14099.09
603.552	14147.9
603.91	14028.36
604.268	14045.99
604.625	14102.93
604.983	14195.36
605.341	14024.97
605.698	14121.69
606.056	14131.86
606.413	14066.1
606.771	14137.74
607.128	14157.4
607.485	14073.56
607.843	14123.05
608.2	14152.42
608.557	14148.13
608.914	14070.62
609.272	14258.41
609.629	14265.87
609.986	14297.28
610.343	14290.73
610.7	14351.06
611.057	14347.9
611.414	14332.76
611.771	14283.04
612.127	14290.05
612.484	14272.42
612.841	14302.25
613.198	14301.35
613.554	14303.15
613.911	14382.25
614.267	14263.16
614.624	14263.38
614.98	14290.95
615.337	14493.43
615.693	14404.85
616.05	14424.06
616.406	14443.94
616.762	14411.4
617.118	14387.22
617.475	14435.13
617.831	14512.87
618.187	14502.02
618.543	14506.54
618.899	14570.94
619.255	14497.27
619.611	14503.83
619.967	14602.13
620.323	14591.96
620.678	14503.38
621.034	14508.57
621.39	14511.29
621.746	14441.68
622.101	14614.56
622.457	14627.89
622.812	14603.94
623.168	14628.57
623.523	14554.67
623.879	14663.37
624.234	14475.81
624.589	14611.4
624.945	14554.45
625.3	14605.07
625.655	14547.22
626.01	14561.91
626.365	14622.92
626.72	14562.58
627.075	14567.1
627.43	14419.54
627.785	14554.67
628.14	14549.93
628.495	14501.34
628.85	14528.46
629.205	14514.22
629.559	14529.59
629.914	14460.89
630.269	14505.41
630.623	14457.05
630.978	14477.84
631.332	14507.22
631.687	14524.17
632.041	14436.71
632.396	14462.7
632.75	14411.85
633.104	14394.68
633.459	14320.1
633.813	14367.79
634.167	14352.87
634.521	14319.2
634.875	14327.11
635.229	14314.23
635.583	14284.17
635.937	14301.57
636.291	14216.6
636.645	14180.45
636.999	14114.91
637.352	14244.4
637.706	14064.97
638.06	14177.06
638.413	14115.14
638.767	14048.25
639.121	14085.53
639.474	13985.88
639.828	14012.32
640.181	14059.55
640.534	14058.64
640.888	14020.45
641.241	13933
641.594	13906.33
641.947	14033.78
642.301	13906.1
642.654	13992.88
643.007	13958.31
643.36	13973.67
643.713	13916.27
644.066	14076.49
644.419	13937.97
644.771	13811.19
645.124	13678.54
645.477	13683.06
645.83	13594.02
646.182	13522.84
646.535	13486.68
646.888	13490.97
647.24	13467.24
647.593	13551.54
647.945	13519.9
648.298	13375.5
648.65	13474.48
649.002	13398.09
649.355	13415.72
649.707	13434.03
650.059	13513.57
650.411	13673.12
650.763	13676.96
651.115	13787.46
651.467	13754.92
651.819	13701.14
652.171	13732.1
652.523	13707.46
652.875	13720.57
653.227	13732.1
653.578	13774.81
653.93	13677.63
654.282	13668.14
654.633	13675.6
654.985	13800.34
655.337	13761.25
655.688	13740.23
656.039	13817.97
656.391	13716.5
656.742	13759.44
657.094	13722.61
657.445	13790.63
657.796	13762.15
658.147	13783.39
658.498	13705.66
658.849	13779.1
659.2	13813.9
659.551	13738.2
659.902	13749.05
660.253	13765.09
660.604	13775.03
660.955	13737.07
661.306	13805.77
661.656	13784.07
662.007	13847.57
662.358	13817.74
662.708	13833.56
663.059	13763.28
663.409	13730.29
663.76	13855.03
664.11	13803.96
664.461	13879.66
664.811	13765.09
665.161	13893.45
665.511	13780.91
665.862	13768.48
666.212	13810.29
666.562	13780.23
666.912	13706.11
667.262	13757.41
667.612	13826.78
667.962	13852.32
668.312	13740.91
668.662	13806.44
669.011	13802.15
669.361	13731.64
669.711	13754.02
670.06	13791.53
670.41	13676.28
670.76	13805.99
671.109	13748.59
671.459	13631.08
671.808	13766.9
672.157	13741.36
672.507	13564.42
672.856	13714.02
673.205	13638.31
673.554	13670.4
673.904	13688.71
674.253	13707.46
674.602	13623.17
674.951	13410.3
675.3	13424.31
675.649	13670.86
675.998	13514.93
676.346	13505.21
676.695	13662.95
677.044	13479.67
677.393	13595.15
677.741	13534.81
678.09	13421.37
678.438	13529.62
678.787	13564.87
679.135	13490.75
679.484	13388.38
679.832	13436.06
680.181	13368.49
680.529	13367.81
680.877	13367.81
681.225	13313.8
681.573	13435.16
681.922	13355.61
682.27	13255.5
682.618	13239
682.966	13184.09
683.314	13189.06
683.661	13167.82
684.009	13113.81
684.357	13107.71
684.705	13031.55
685.053	13136.86
685.4	13031.78
685.748	13035.17
686.095	12944.32
686.443	12907.03
686.79	12952.23
687.138	13030.87
687.485	12886.92
687.832	12890.31
688.18	12921.95
688.527	12891.89
688.874	12859.35
689.221	12814.15
689.568	12799.69
689.915	12701.62
690.262	12679.02
690.609	12664.33
690.956	12563.31
691.303	12559.47
691.65	12501.17
691.997	12491.45
692.344	12390.44
692.69	12345.01
693.037	12368.52
693.383	12230.22
693.73	12285.35
694.077	12185.47
694.423	12223.21
694.769	12104.34
695.116	12044.68
695.462	12105.92
695.808	12020.5
696.155	12102.76
696.501	11929.43
696.847	11859.38
697.193	11795.42
697.539	11948.64
697.885	11729.44
698.231	11740.51
698.577	11705.48
698.923	11721.08
699.269	11625.94
699.614	11556.79
699.96	11551.81
700.306	11572.38
700.651	11425.26
700.997	11396.11
701.342	11426.62
701.688	11430.69
702.033	11275.44
702.379	11389.33
702.724	11173.75
703.069	11321.54
703.415	11063.92
703.76	11096.91
704.105	11201.32
704.45	11092.39
704.795	11011.72
705.14	10992.06
705.485	11011.04
705.83	10866.86
706.175	10890.59
706.52	10883.13
706.865	10838.84
707.209	10778.5
707.554	10715.9
707.899	10733.08
708.243	10676.81
708.588	10717.26
708.932	10623.25
709.277	10585.96
709.621	10690.37
709.966	10518.85
710.31	10537.38
710.654	10461.67
710.998	10511.84
711.342	10477.49
711.687	10383.94
712.031	10310.72
712.375	10324.05
712.719	10369.02
713.063	10345.07
713.407	10330.38
713.75	10313.66
714.094	10296.71
714.438	10252.41
714.782	10272.3
715.125	10183.26
715.469	10247.89
715.812	10149.37
716.156	10118.18
716.499	10088.8
716.843	10076.15
717.186	10106.66
717.53	10210.83
717.873	10163.15
718.216	10121.34
718.559	10055.58
718.902	10061.91
719.246	10013.32
719.589	9955.02
719.932	9913.21
720.275	9954.57
720.617	9943.27
720.96	9871.41
721.303	9947.56
721.646	9987.56
721.989	9907.79
722.331	9891.52
722.674	9928.35
723.016	9918.41
723.359	9866.44
723.701	9881.8
724.044	9823.5
724.386	9721.35
724.729	9830.05
725.071	9748.92
725.413	9813.33
725.755	9772.2
726.097	9770.39
726.439	9680.23
726.782	9761.13
727.124	9684.52
727.465	9687.91
727.807	9749.38
728.149	9674.8
728.491	9706.67
728.833	9720.22
729.175	9646.78
729.516	9646.55
729.858	9668.47
730.199	9675.25
730.541	9566.1
730.882	9647.01
731.224	9732.65
731.565	9584.86
731.906	9597.97
732.248	9612.2
732.589	9582.6
732.93	9592.77
733.271	9580.34
733.612	9584.18
733.953	9570.17
734.294	9556.61
734.635	9553.22
734.976	9604.3
735.317	9560.91
735.658	9597.74
735.999	9584.18
736.339	9618.08
736.68	9653.56
737.021	9575.37
737.361	9606.33
737.702	9596.61
738.042	9601.58
738.383	9616.72
738.723	9605.2
739.063	9581.02
739.404	9684.97
739.744	9632.09
740.084	9666.21
740.424	9674.12
740.764	9694.91
741.104	9727.46
741.444	9726.78
741.784	9690.85
742.124	9714.35
742.464	9772.65
742.804	9803.84
743.143	9768.58
743.483	9806.1
743.823	9737.4
744.162	9860.33
744.502	9871.18
744.841	9921.58
745.181	9927
745.52	9992.99
745.86	9954.12
746.199	10011.97
746.538	10013.55
746.877	10125.41
747.216	10256.26
747.556	10232.75
747.895	10218.06
748.234	10316.59
748.573	10328.12
748.911	10403.6
749.25	10534.89
749.589	10539.86
749.928	10580.32
750.267	10676.81
750.605	10712.06
750.944	10829.12
751.283	10843.58
751.621	11016.69
751.96	11017.14
752.298	11035.9
752.636	11273.18
752.975	11378.03
753.313	11417.58
753.651	11515.21
753.989	11614.86
754.327	11643.56
754.666	11882.43
755.004	11938.7
755.342	12145.25
755.679	12205.58
756.017	12393.37
756.355	12539.59
756.693	12641.96
757.031	12758.79
757.368	12831.78
757.706	13085.33
758.044	13113.36
758.381	13374.82
758.719	13493.46
759.056	13644.87
759.394	13795.37
759.731	13847.12
760.068	14083.95
760.405	14208.24
760.743	14393.1
761.08	14588.35
761.417	14673.99
761.754	14901.33
762.091	15099.07
762.428	15264.94
762.765	15327.08
763.102	15632.61
763.438	15776.34
763.775	15854.75
764.112	16083
764.449	16332.48
764.785	16406.6
765.122	16457.45
765.458	16609.99
765.795	16775.86
766.131	17033.25
766.467	17160.71
766.804	17286.58
767.14	17346.69
767.476	17605.67
767.812	17638.66
768.148	17798.88
768.485	17902.83
768.821	17908.94
769.157	18048.14
769.492	18228.25
769.828	18311.19
770.164	18357.51
770.5	18350.05
770.836	18599.09
771.171	18645.19
771.507	18816.93
771.842	18782.13
772.178	18898.51
772.513	19081.33
772.849	19196.81
773.184	19244.72
773.519	19317.03
773.855	19359.75
774.19	19409.69
774.525	19420.76
774.86	19547.76
775.195	19675.44
775.53	19658.04
775.865	19665.73
776.2	19639.29
776.535	19692.84
776.87	19712.96
777.205	19634.77
777.539	19785.04
777.874	19891.26
778.209	19822.33
778.543	19873.63
778.878	19840.86
779.212	19881.09
779.547	19761.99
779.881	19943.01
780.215	19973.51
780.55	19957.92
780.884	19983.46
781.218	19989.79
781.552	20028.88
781.886	19981.65
782.22	20015.32
782.554	19962.44
782.888	19764.48
783.222	19871.6
783.556	19834.99
783.889	19918.15
784.223	19663.01
784.557	19907.75
784.89	19816.91
785.224	19781.43
785.557	19667.31
785.891	19792.5
786.224	19770.58
786.558	19733.29
786.891	19577.82
787.224	19557.93
787.557	19611.04
787.891	19516.13
788.224	19580.3
788.557	19605.84
788.89	19530.81
789.223	19594.54
789.556	19489.46
789.888	19454.88
790.221	19367.43
790.554	19320.65
790.887	19285.85
791.219	19289.92
791.552	19219.64
791.884	19215.34
792.217	19105.51
792.549	19151.16
792.882	19002.01
793.214	18940.55
793.546	19127.21
793.879	18928.34
794.211	18951.39
794.543	18980.09
794.875	18889.7
795.207	18931.73
795.539	18848.12
795.871	18774.45
796.203	18652.87
796.535	18646.54
796.867	18600.9
797.198	18604.28
797.53	18570.16
797.862	18397.51
798.193	18494.01
798.525	18336.95
798.856	18369.04
799.188	18272.54
799.519	18160.45
799.85	18039.1
800.182	18069.16
800.513	18226.89
800.844	17888.82
801.175	18112.55
801.506	18141.47
801.837	18030.97
802.168	17987.13
802.499	17848.82
802.83	17858.09
803.161	17797.53
803.491	17752.78
803.822	17828.71
804.153	17676.85
804.483	17548.72
804.814	17549.4
805.145	17542.62
805.475	17479.79
805.805	17400.7
806.136	17432.34
806.466	17489.74
806.796	17418.1
807.126	17324.77
807.457	17281.83
807.787	17288.61
808.117	17189.86
808.447	17110.09
808.777	17175.62
809.107	17121.61
809.436	17101.27
809.766	17029.86
810.096	16947.61
810.426	16878.45
810.755	16942.18
811.085	16922.07
811.414	16783.32
811.744	16722.07
812.073	16731.34
812.403	16739.02
812.732	16634.85
813.061	16613.38
813.39	16546.94
813.719	16585.81
814.049	16624.45
814.378	16417.68
814.707	16498.58
815.036	16447.73
815.365	16313.5
815.693	16157.34
816.022	16258.13
816.351	16157.34
816.68	16078.93
817.008	16232.14
817.337	16099.04
817.665	16073.28
817.994	16114.41
818.322	16062.2
818.651	16014.3
818.979	15874.41
819.307	15982.43
819.636	15962.55
819.964	15907.41
820.292	15933.17
820.62	15934.52
820.948	15875.09
821.276	15913.51
821.604	15843.23
821.932	15886.16
822.259	15896.11
822.587	15880.51
822.915	15790.35
823.243	15892.27
823.57	15770.69
823.898	15824.92
824.225	15800.52
824.553	15827.86
824.88	15803.23
825.207	15827.18
825.535	15737.24
825.862	15924.36
826.189	15817.01
826.516	15961.87
826.843	15866.5
827.17	15822.44
827.497	15865.83
827.824	15811.14
828.151	15912.6
828.478	15865.6
828.805	15945.37
829.131	15927.52
829.458	15865.6
829.785	15770.69
830.111	15868.99
830.438	15883.68
830.764	15979.72
831.09	15874.64
831.417	15768.2
831.743	15798.26
832.069	15897.01
832.395	15718.94
832.722	15904.02
833.048	15760.97
833.374	15831.25
833.7	15669.67
834.026	15796.22
834.351	15775.43
834.677	15792.38
835.003	15720.97
835.329	15678.03
835.654	15768.43
835.98	15655.21
836.306	15654.31
836.631	15553.07
836.956	15639.17
837.282	15651.82
837.607	15597.81
837.932	15519.85
838.258	15490.92
838.583	15484.14
838.908	15522.11
839.233	15360.3
839.558	15434.65
839.883	15417.48
840.208	15287.31
840.533	15284.82
840.858	15248.21
841.182	15282.34
841.507	15236.01
841.832	15263.58
842.156	15175
842.481	15088.22
842.805	15146.75
843.13	15037.15
843.454	15002.8
843.778	14968
844.103	14964.38
844.427	14917.38
844.751	14888.68
845.075	14899.52
845.399	14747.21
845.723	14745.18
846.047	14765.29
846.371	14688.46
846.695	14633.99
847.019	14522.36
847.343	14483.04
847.666	14477.61
847.99	14387.67
848.313	14348.58
848.637	14286.21
848.96	14272.65
849.284	14244.4
849.607	14112.2
849.931	14080.79
850.254	13989.26
850.577	13980.23
850.9	13849.38
851.223	13806.22
851.546	13693.68
851.869	13603.51
852.192	13769.38
852.515	13516.28
852.838	13514.48
853.161	13542.72
853.483	13422.5
853.806	13355.16
854.129	13246.46
854.451	13415.49
854.774	13257.98
855.096	13275.16
855.419	13176.4
855.741	13203.07
856.063	13108.16
856.385	13015.51
856.708	13060.48
857.03	13006.47
857.352	13049.4
857.674	12927.15
857.996	12930.76
858.318	12737.32
858.64	12775.74
858.961	12789.75
859.283	12732.57
859.605	12602.86
859.926	12658.23
860.248	12656.64
860.57	12578.91
860.891	12644.44
861.212	12537.33
861.534	12489.87
861.855	12404.67
862.176	12417.1
862.498	12477.44
862.819	12448.74
863.14	12439.7
863.461	12363.54
863.782	12352.92
864.103	12327.39
864.424	12246.49
864.745	12290.78
865.065	12179.82
865.386	12128.3
865.707	12231.57
866.027	12155.64
866.348	12131.91
866.668	12130.1
866.989	12090.56
867.309	12015.98
867.63	12028.64
867.95	12060.05
868.27	11981.63
868.59	12020.5
868.91	11968.75
869.23	11882.2
869.55	11910
869.87	11911.35
870.19	11945.02
870.51	11929.66
870.83	11944.57
871.15	11833.62
871.469	11864.12
871.789	11876.1
872.109	11779.38
872.428	11717.91
872.748	11766.95
873.067	11777.12
873.386	11749.32
873.706	11640.17
874.025	11714.52
874.344	11576.9
874.663	11680.4
874.982	11583.23
875.301	11552.72
875.62	11553.62
875.939	11555.88
876.258	11599.72
876.577	11462.55
876.896	11550.91
877.214	11471.82
877.533	11460.29
877.852	11419.16
878.17	11459.39
878.489	11407.19
878.807	11447.18
879.125	11395.89
879.444	11420.52
879.762	11324.25
880.08	11315.44
880.398	11232.5
880.716	11342.78
881.034	11280.86
881.352	11236.57
881.67	11200.64
881.988	11167.42
882.306	11210.81
882.624	11168.32
882.941	11184.59
883.259	11070.47
883.577	11020.53
883.894	10989.57
884.212	11086.74
884.529	11005.39
884.846	10966.29
885.164	10939.63
885.481	10887.65
885.798	10887.88
886.115	10853.75
886.432	10841.1
886.75	10811.5
887.067	10779.86
887.383	10709.35
887.7	10731.05
888.017	10667.54
888.334	10708.45
888.651	10665.28
888.967	10704.38
889.284	10567.43
889.6	10522.92
889.917	10433.65
890.233	10500.77
890.55	10529.47
890.866	10437.49
891.182	10351.85
891.498	10402.69
891.815	10313.2
892.131	10313.66
892.447	10244.96
892.763	10312.3
893.079	10155.69
893.395	10158.41
893.71	10159.76
894.026	10158.63
894.342	10105.3
894.657	10075.24
894.973	10011.29
895.289	10031.4
895.604	10038.41
895.92	9839.09
896.235	9833.44
896.55	9870.5
896.865	9809.04
897.181	9708.93
897.496	9763.16
897.811	9746.89
898.126	9700.34
898.441	9648.81
898.756	9656.27
899.071	9567.01
899.386	9608.82
899.7	9458.76
900.015	9515.48
900.33	9410.18
900.644	9444.07
900.959	9373.57
901.273	9343.74
901.588	9275.26
901.902	9225.55
902.216	9202.72
902.531	9179.67
902.845	9179
903.159	9104.42
903.473	9101.94
903.787	9028.72
904.101	9077.08
904.415	9040.92
904.729	9017.87
905.042	8943.07
905.356	8850.87
905.67	8906.69
905.984	8844.99
906.297	8813.58
906.611	8836.41
906.924	8754.15
907.237	8731.32
907.551	8708.27
907.864	8628.5
908.177	8599.58
908.491	8614.72
908.804	8568.62
909.117	8487.94
909.43	8359.36
909.743	8405.68
910.056	8346.7
910.368	8375.4
910.681	8302.86
910.994	8223.77
911.307	8254.73
911.619	8186.93
911.932	8264.44
912.244	8100.83
912.557	8101.06
912.869	8064
913.181	8043.43
913.494	8024
913.806	7959.59
914.118	7974.06
914.43	7918.69
914.742	7909.88
915.054	7824.68
915.366	7787.39
915.678	7787.17
915.99	7736.77
916.302	7639.6
916.613	7651.58
916.925	7657.45
917.236	7606.38
917.548	7553.95
917.859	7574.07
918.171	7551.92
918.482	7498.81
918.794	7412.26
919.105	7441.87
919.416	7416.33
919.727	7391.7
920.038	7337.69
920.349	7241.65
920.66	7276.22
920.971	7224.02
921.282	7206.62
921.593	7164.59
921.903	7150.35
922.214	7119.62
922.525	7145.38
922.835	7078.94
923.146	7013.18
923.456	7025.38
923.767	6956
924.077	6975.89
924.387	6882.11
924.697	6899.96
925.008	6919.85
925.318	6877.14
925.628	6805.73
925.938	6790.58
926.248	6753.07
926.558	6726.41
926.867	6744.48
927.177	6716.91
927.487	6619.29
927.796	6597.59
928.106	6636.01
928.416	6547.65
928.725	6603.7
929.034	6545.17
929.344	6513.53
929.653	6504.26
929.962	6420.42
930.271	6389.69
930.581	6352.86
930.89	6333.65
931.199	6311.73
931.508	6312.63
931.817	6291.84
932.125	6242.58
932.434	6213.42
932.743	6141.34
933.051	6172.3
933.36	6086.42
933.669	6074.44
933.977	6132.3
934.286	6078.06
934.594	6050.49
934.902	6039.64
935.21	5985.18
935.519	5971.17
935.827	5984.96
936.135	5881.68
936.443	5893.66
936.751	5859.31
937.059	5859.31
937.367	5807.79
937.674	5831.29
937.982	5751.97
938.29	5741.35
938.597	5734.34
938.905	5649.15
939.213	5643.5
939.52	5601.69
939.827	5657.51
940.135	5610.28
940.442	5540.67
940.749	5553.1
941.056	5558.53
941.363	5492.77
941.67	5490.05
941.977	5391.75
942.284	5422.03
942.591	5391.98
942.898	5396.5
943.205	5404.86
943.511	5325.54
943.818	5333.9
944.125	5273.11
944.431	5275.82
944.738	5274.69
945.044	5222.04
945.35	5151.76
945.657	5111.98
945.963	5100.23
946.269	5107.92
946.575	5130.97
946.881	5054.58
947.187	5028.6
947.493	5018.65
947.799	4989.95
948.105	5003.74
948.41	4983.17
948.716	4940.01
949.022	4950.18
949.327	4916.96
949.633	4861.6
949.938	4879.45
950.244	4880.35
950.549	4807.36
950.854	4835.83
951.16	4768.72
951.465	4812.11
951.77	4775.5
952.075	4714.25
952.38	4713.58
952.685	4703.86
952.99	4598.33
953.294	4621.38
953.599	4603.3
953.904	4600.36
954.209	4617.53
954.513	4565.33
954.818	4550.87
955.122	4550.64
955.426	4522.62
955.731	4494.15
956.035	4493.24
956.339	4452.11
956.643	4490.53
956.948	4433.36
957.252	4405.79
957.556	4415.96
957.86	4366.92
958.163	4359.91
958.467	4288.05
958.771	4307.94
959.075	4309.97
959.378	4267.26
959.682	4263.19
959.985	4231.78
960.289	4232.46
960.592	4159.69
960.896	4164.66
961.199	4123.76
961.502	4176.87
961.805	4098.9
962.108	4063.42
962.411	4092.8
962.714	4058.23
963.017	4048.74
963.32	4040.15
963.623	3977.1
963.926	4028.62
964.228	3984.1
964.531	3968.29
964.833	3949.53
965.136	3945.24
965.438	3932.81
965.741	3876.31
966.043	3861.62
966.345	3865.24
966.648	3862.53
966.95	3842.19
967.252	3779.82
967.554	3806.71
967.856	3756.09
968.158	3705.24
968.46	3739.36
968.761	3720.38
969.063	3730.55
969.365	3683.1
969.666	3672.02
969.968	3660.27
970.269	3631.35
970.571	3630.89
970.872	3609.42
971.174	3562.65
971.475	3578.69
971.776	3555.19
972.077	3577.56
972.378	3545.25
972.679	3534.85
972.98	3499.82
973.281	3492.59
973.582	3497.79
973.883	3507.73
974.183	3419.83
974.484	3421.63
974.785	3428.64
975.085	3402.42
975.386	3413.27
975.686	3353.61
975.986	3350.22
976.287	3356.78
976.587	3296.89
976.887	3334.4
977.187	3299.83
977.487	3302.77
977.787	3266.38
978.087	3271.13
978.387	3221.19
978.687	3249.66
978.987	3186.84
979.286	3190
979.586	3181.87
979.885	3136.44
980.185	3125.37
980.484	3115.65
980.784	3083.34
981.083	3084.01
981.382	3117.23
981.682	3066.84
981.981	3056.9
982.28	3046.73
982.579	3015.77
982.878	3053.51
983.177	3013.06
983.475	3009.67
983.774	2985.26
984.073	2936.45
984.372	2921.76
984.67	2930.8
984.969	2908.2
985.267	2950.01
985.566	2896.45
985.864	2870.01
986.162	2917.01
986.461	2847.19
986.759	2863.23
987.057	2815.1
987.355	2830.91
987.653	2820.52
987.951	2799.28
988.249	2783.01
988.547	2768.77
988.844	2766.06
989.142	2792.27
989.44	2708.88
989.737	2698.94
990.035	2712.5
990.332	2692.39
990.63	2687.19
990.927	2674.08
991.224	2662.33
991.521	2644.7
991.819	2634.76
992.116	2637.25
992.413	2658.72
992.71	2577.59
993.006	2578.94
993.303	2554.54
993.6	2575.1
993.897	2521.09
994.193	2513.63
994.49	2537.81
994.787	2516.12
995.083	2462.56
995.379	2475.67
995.676	2461.66
995.972	2439.06
996.268	2439.51
996.565	2413.3
996.861	2364.94
997.157	2421.21
997.453	2375.56
997.749	2396.12
998.044	2388.21
998.34	2365.62
998.636	2389.8
998.932	2371.04
999.227	2303.47
999.523	2305.5
999.818	2340.98
1000.114	2279.97
1000.409	2272.96
1000.704	2262.34
1001	2255.56
1001.295	2262.57
1001.59	2232.74
1001.885	2190.03
1002.18	2238.39
1002.475	2181.67
1002.77	2198.84
1003.065	2206.07
1003.359	2184.83
1003.654	2169.24
1003.949	2172.85
1004.243	2118.84
1004.538	2103.48
1004.832	2101.22
1005.127	2065.96
1005.421	2075
1005.715	2041.78
1006.009	2049.01
1006.304	2037.71
1006.598	1996.36
1006.892	2042.91
1007.186	2017.15
1007.48	2006.76
1007.773	1982.8
1008.067	1943.71
1008.361	1975.57
1008.655	1938.28
1008.948	1917.72
1009.242	1955.01
1009.535	1912.07
1009.829	1892.41
1010.122	1892.63
1010.415	1878.62
1010.708	1871.62
1011.001	1875.46
1011.295	1852.41
1011.588	1835.91
1011.881	1837.27
1012.173	1836.59
1012.466	1807.66
1012.759	1799.98
1013.052	1781.45
1013.344	1766.99
1013.637	1744.84
1013.93	1748.23
1014.222	1743.71
1014.514	1746.2
1014.807	1723.37
1015.099	1729.47
1015.391	1696.03
1015.683	1681.57
1015.976	1702.13
1016.268	1673.66
1016.56	1655.58
1016.851	1632.98
1017.143	1646.54
1017.435	1594.56
1017.727	1603.15
1018.018	1595.47
1018.31	1606.54
1018.602	1592.3
1018.893	1583.04
1019.185	1574.9
1019.476	1562.93
1019.767	1551.17
1020.058	1537.61
1020.35	1515.24
1020.641	1484.06
1020.932	1524.06
1021.223	1498.75
1021.514	1487.67
1021.804	1469.82
1022.095	1461.01
1022.386	1458.75
1022.677	1457.39
1022.967	1438.41
1023.258	1447.67
1023.548	1437.73
1023.839	1407
1024.129	1413.32
1024.419	1401.12
1024.709	1382.82
1025	1372.2
1025.29	1360.22
1025.58	1344.63
1025.87	1345.98
1026.16	1326.77
1026.449	1343.95
1026.739	1339.43
1027.029	1337.17
1027.319	1286.32
1027.608	1313.21
1027.898	1294.46
1028.187	1276.83
1028.477	1292.42
1028.766	1256.94
1029.055	1243.61
1029.344	1231.18
1029.634	1240.9
1029.923	1241.8
1030.212	1212.43
1030.501	1211.75
1030.79	1190.51
1031.078	1203.39
1031.367	1221.24
1031.656	1178.08
1031.945	1174.91
1032.233	1157.51
1032.522	1155.7
1032.81	1128.81
1033.099	1126.55
1033.387	1152.09
1033.675	1119.77
1033.963	1131.3
1034.251	1122.48
1034.54	1085.2
1034.828	1087.01
1035.116	1087.46
1035.403	1102.6
1035.691	1069.15
1035.979	1104.41
1036.267	1040.9
1036.554	1041.58
1036.842	1036.16
1037.129	1057.4
1037.417	1052.2
1037.704	1054.92
1037.992	1023.05
1038.279	1020.57
1038.566	993.9
1038.853	993.9
1039.14	993.9
