Data from hue_10_FLMS001491_66.txt Node
Date: Mon Feb 06 15:32:20 GMT 2017
User: dcchb
Spectrometer: FLMS00149
Trigger mode: 0
Integration Time (sec): 2.000000E-2
Scans to average: 10
Electric dark correction enabled: true
Nonlinearity correction enabled: false
Boxcar width: 0
XAxis mode: Wavelengths
Number of Pixels in Spectrum: 2048
>>>>>Begin Spectral Data<<<<<
341.393	-7.09
341.776	-7.09
342.16	-7.09
342.543	-70.14
342.927	-59.74
343.31	-71.95
343.693	-55.9
344.077	-63.13
344.46	-50.48
344.843	-47.09
345.226	-38.28
345.61	-49.8
345.993	-19.07
346.376	-21.55
346.759	12.57
347.142	26.36
347.525	36.75
347.908	43.53
348.291	99.35
348.674	78.11
349.057	120.59
349.44	143.64
349.823	146.13
350.206	156.75
350.588	202.17
350.971	197.88
351.354	228.38
351.737	239.91
352.119	243.52
352.502	256.18
352.884	282.85
353.267	275.61
353.65	288.5
354.032	289.63
354.414	286.24
354.797	291.66
355.179	308.38
355.562	326.23
355.944	337.31
356.326	332.11
356.709	323.52
357.091	314.94
357.473	341.15
357.855	316.52
358.238	330.3
358.62	323.3
359.002	328.95
359.384	347.02
359.766	341.6
360.148	336.18
360.53	326.91
360.912	311.32
361.294	316.07
361.676	301.15
362.057	330.75
362.439	330.08
362.821	317.65
363.203	315.61
363.584	337.53
363.966	338.89
364.348	319.23
364.729	318.55
365.111	309.74
365.493	304.09
365.874	300.7
366.256	306.35
366.637	312.9
367.019	323.07
367.4	310.42
367.781	313.81
368.163	306.8
368.544	303.86
368.925	323.07
369.306	316.52
369.688	312.22
370.069	310.64
370.45	288.95
370.831	303.86
371.212	310.87
371.593	299.57
371.974	314.03
372.355	329.17
372.736	327.36
373.117	283.07
373.498	308.61
373.879	329.4
374.26	299.57
374.641	317.2
375.021	283.75
375.402	299.57
375.783	309.74
376.163	317.42
376.544	316.52
376.925	327.59
377.305	317.65
377.686	323.97
378.066	309.96
378.447	331.66
378.827	341.83
379.208	335.73
379.588	309.51
379.968	337.99
380.349	322.17
380.729	316.74
381.109	310.87
381.489	321.71
381.87	320.36
382.25	339.34
382.63	332.56
383.01	337.76
383.39	319.68
383.77	330.98
384.15	341.6
384.53	348.83
384.91	333.47
385.29	335.73
385.67	333.01
386.049	326.69
386.429	347.25
386.809	345.44
387.189	337.08
387.568	344.09
387.948	338.21
388.328	331.66
388.707	339.57
389.087	359
389.466	366.23
389.846	371.66
390.225	354.03
390.605	347.7
390.984	343.64
391.363	345.22
391.743	351.09
392.122	358.32
392.501	338.89
392.881	373.69
393.26	367.36
393.639	377.53
394.018	344.54
394.397	373.92
394.776	362.84
395.155	369.17
395.534	332.34
395.913	354.03
396.292	397.87
396.671	355.84
397.05	365.78
397.429	356.74
397.808	378.66
398.186	371.66
398.565	359.91
398.944	360.81
399.323	395.16
399.701	362.84
400.08	392.67
400.458	385.89
400.837	379.79
401.215	368.04
401.594	383.86
401.972	380.47
402.351	379.11
402.729	379.57
403.107	382.73
403.486	382.73
403.864	401.94
404.242	386.8
404.62	380.47
404.999	400.13
405.377	386.12
405.755	414.14
406.133	395.84
406.511	394.71
406.889	408.27
407.267	406.23
407.645	419.11
408.023	408.49
408.401	403.97
408.779	384.54
409.156	415.72
409.534	397.19
409.912	407.59
410.29	410.3
410.667	407.59
411.045	406.68
411.422	435.84
411.8	415.05
412.178	437.87
412.555	447.59
412.933	442.62
413.31	434.48
413.687	451.43
414.065	444.2
414.442	446.01
414.819	468.83
415.197	478.32
415.574	463.86
415.951	429.06
416.328	443.75
416.705	431.77
417.082	463.18
417.46	471.09
417.837	464.76
418.214	452.11
418.591	476.96
418.967	473.8
419.344	460.69
419.721	464.54
420.098	479.9
420.475	495.5
420.852	493.24
421.228	497.76
421.605	469.96
421.982	471.77
422.358	479
422.735	479.9
423.111	498.89
423.488	490.75
423.864	506.12
424.241	531.2
424.617	522.84
424.994	515.38
425.37	488.04
425.746	516.06
426.123	499.11
426.499	534.14
426.875	519.9
427.251	511.31
427.627	547.47
428.003	521.03
428.379	521.03
428.756	546.57
429.132	543.63
429.507	544.53
429.883	549.51
430.259	553.12
430.635	550.86
431.011	547.02
431.387	541.6
431.763	581.82
432.138	578.66
432.514	571.65
432.89	590.41
433.265	596.51
433.641	597.41
434.016	615.27
434.392	588.6
434.767	612.1
435.143	629.5
435.518	606.68
435.894	624.53
436.269	606.45
436.644	629.5
437.02	641.48
437.395	623.85
437.77	640.58
438.145	627.7
438.52	645.55
438.895	634.7
439.271	636.28
439.646	689.16
440.021	659.78
440.395	676.28
440.77	654.81
441.145	648.26
441.52	672.89
441.895	677.19
442.27	682.61
442.645	669.73
443.019	699.56
443.394	682.84
443.769	679.9
444.143	695.49
444.518	694.81
444.892	674.25
445.267	702.27
445.641	703.17
446.016	720.8
446.39	706.79
446.764	694.36
447.139	697.98
447.513	725.55
447.887	726.22
448.262	719.9
448.636	731.65
449.01	733.23
449.384	747.92
449.758	751.99
450.132	734.36
450.506	760.35
450.88	771.65
451.254	765.54
451.628	756.96
452.002	763.29
452.376	769.84
452.75	774.13
453.123	797.18
453.497	790.63
453.871	782.72
454.244	805.09
454.618	800.12
454.992	819.33
455.365	817.07
455.739	842.38
456.112	845.09
456.486	827.46
456.859	865.88
457.232	872.21
457.606	857.52
457.979	884.64
458.352	866.33
458.725	892.1
459.099	874.02
459.472	898.65
459.845	894.36
460.218	897.52
460.591	916.05
460.964	930.29
461.337	937.07
461.71	947.01
462.083	981.81
462.456	948.59
462.829	964.64
463.201	974.13
463.574	990.17
463.947	997.86
464.32	1027.01
464.692	1040.11
465.065	1038.31
465.438	1052.77
465.81	1051.64
466.183	1059.77
466.555	1059.1
466.928	1097.74
467.3	1071.53
467.672	1077.4
468.045	1145.87
468.417	1131.41
468.789	1160.56
469.161	1163.27
469.534	1165.53
469.906	1175.03
470.278	1201.92
470.65	1223.39
471.022	1235.36
471.394	1242.14
471.766	1251.18
472.138	1275.36
472.51	1314
472.882	1334.57
473.253	1335.02
473.625	1361.46
473.997	1368.92
474.369	1398.3
474.74	1406.21
475.112	1421.57
475.484	1437.39
475.855	1480.55
476.227	1499.08
476.598	1532.08
476.97	1554.45
477.341	1566.43
477.713	1578.18
478.084	1642.58
478.455	1649.14
478.827	1662.47
479.198	1721
479.569	1715.35
479.94	1769.36
480.311	1816.36
480.682	1863.6
481.053	1887.32
481.424	1906.08
481.795	1901.11
482.166	1950.37
482.537	1969.81
482.908	2043.03
483.279	2057.26
483.65	2130.48
484.021	2172.51
484.391	2186.98
484.762	2225.39
485.133	2205.06
485.503	2264.49
485.874	2311.49
486.244	2353.98
486.615	2375.22
486.985	2430.59
487.356	2477.14
487.726	2497.02
488.097	2517.36
488.467	2566.85
488.837	2605.72
489.207	2619.28
489.578	2676.46
489.948	2712.39
490.318	2755.55
490.688	2764.36
491.058	2846.17
491.428	2877.58
491.798	2898.82
492.168	2947.63
492.538	2941.98
492.908	3000.29
493.278	3022.89
493.648	3066.95
494.017	3095.88
494.387	3148.31
494.757	3163.45
495.126	3188.98
495.496	3244.58
495.866	3245.93
496.235	3286.83
496.605	3318.25
496.974	3296.1
497.344	3393.27
497.713	3408.19
498.082	3438.69
498.452	3453.38
498.821	3477.34
499.19	3499.26
499.559	3484.8
499.928	3542.42
500.298	3544.23
500.667	3588.52
501.036	3595.3
501.405	3598.01
501.774	3617.9
502.143	3709.2
502.512	3684.79
502.88	3733.6
503.249	3754.17
503.618	3748.74
503.987	3801.85
504.356	3858.34
504.724	3848.63
505.093	3824.22
505.462	3841.62
505.83	3866.25
506.199	3866.48
506.567	3967.95
506.936	3957.55
507.304	3982.86
507.672	4003.43
508.041	3986.03
508.409	4011.11
508.777	4060.83
509.145	4090.43
509.514	4069.64
509.882	4116.19
510.25	4118.9
510.618	4131.11
510.986	4162.29
511.354	4183.31
511.722	4217.66
512.09	4246.81
512.458	4265.57
512.826	4239.58
513.193	4310.76
513.561	4288.39
513.929	4325.9
514.297	4332.46
514.664	4347.82
515.032	4384.66
515.4	4375.85
515.767	4434.6
516.135	4455.17
516.502	4433.7
516.869	4455.17
517.237	4443.87
517.604	4460.36
517.972	4460.36
518.339	4514.37
518.706	4503.53
519.073	4526.58
519.44	4547.59
519.808	4599.12
520.175	4597.53
520.542	4644.09
520.909	4656.06
521.276	4601.38
521.643	4666.46
522.009	4681.6
522.376	4750.3
522.743	4766.8
523.11	4735.84
523.477	4792.78
523.843	4822.61
524.21	4844.76
524.577	4887.7
524.943	4889.28
525.31	4879.56
525.676	4938.77
526.043	4984.19
526.409	4959.56
526.776	5023.06
527.142	5020.8
527.508	5076.39
527.874	5093.57
528.241	5108.71
528.607	5121.59
528.973	5170.63
529.339	5172.21
529.705	5216.05
530.071	5305.09
530.437	5253.11
530.803	5350.96
531.169	5292.21
531.535	5350.51
531.901	5367.91
532.267	5360.45
532.632	5461.69
532.998	5473.22
533.364	5486.1
533.73	5460.79
534.095	5491.07
534.461	5549.83
534.826	5564.06
535.192	5579.66
535.557	5567.23
535.923	5582.82
536.288	5681.12
536.653	5656.04
537.019	5674.79
537.384	5699.65
537.749	5741.01
538.114	5690.61
538.479	5721.12
538.845	5752.53
539.21	5762.48
539.575	5856.94
539.94	5870.04
540.305	5862.13
540.67	5885.64
541.034	5893.77
541.399	5917.73
541.764	5912.3
542.129	5977.61
542.494	6052.86
542.858	6040.89
543.223	6069.13
543.587	6091.05
543.952	6104.16
544.316	6142.58
544.681	6112.3
545.045	6148.91
545.41	6185.29
545.774	6192.52
546.138	6187.55
546.503	6246.53
546.867	6234.33
547.231	6283.82
547.595	6311.61
547.959	6366.53
548.324	6305.29
548.688	6399.3
549.052	6402.01
549.416	6389.13
549.779	6409.46
550.143	6462.57
550.507	6496.69
550.871	6542.57
551.235	6538.5
551.599	6611.72
551.962	6566.3
552.326	6562.45
552.689	6645.84
553.053	6651.72
553.417	6623.47
553.78	6719.74
554.143	6673.64
554.507	6708.44
554.87	6747.31
555.234	6797.25
555.597	6789.57
555.96	6770.81
556.323	6837.25
556.686	6821.2
557.05	6838.15
557.413	6871.15
557.776	6883.8
558.139	6956.34
558.502	6913.86
558.865	6978.26
559.228	7026.85
559.59	7032.95
559.953	7046.51
560.316	7139.39
560.679	7111.59
561.041	7150.69
561.404	7124.93
561.767	7253.51
562.129	7203.34
562.492	7304.81
562.854	7191.82
563.217	7148.2
563.579	7235.88
563.941	7335.09
564.304	7332.15
564.666	7397.46
565.028	7350.91
565.39	7386.61
565.753	7417.12
566.115	7452.37
566.477	7462.32
566.839	7496.89
567.201	7506.38
567.563	7600.17
567.925	7707.51
568.287	7588.64
568.648	7655.08
569.01	7718.13
569.372	7769.43
569.734	7799.26
570.095	7817.11
570.457	7919.48
570.819	7853.72
571.18	7933.94
571.542	7931.91
571.903	7968.75
572.265	8019.37
572.626	8053.04
572.987	8102.98
573.349	8122.64
573.71	8172.36
574.071	8298
574.432	8297.55
574.794	8293.03
575.155	8383.42
575.516	8334.39
575.877	8446.92
576.238	8487.15
576.599	8560.59
576.96	8580.48
577.32	8714.49
577.681	8717.65
578.042	8845.56
578.403	8917.87
578.763	8957.42
579.124	9021.15
579.485	9115.16
579.845	9215.94
580.206	9323.74
580.566	9349.95
580.927	9513.56
581.287	9625.88
581.648	9731.41
582.008	9882.14
582.368	9996.71
582.728	10060.44
583.089	10230.38
583.449	10410.49
583.809	10554.21
584.169	10739.52
584.529	10727.77
584.889	11068.1
585.249	11086.4
585.609	11231.71
585.969	11503.34
586.329	11649.55
586.688	11804.35
587.048	11998.7
587.408	12172.25
587.768	12449.53
588.127	12620.15
588.487	12689.3
588.846	13089.29
589.206	13210.87
589.565	13460.58
589.925	13798.42
590.284	13935.82
590.643	14173.78
591.003	14404.06
591.362	14755.69
591.721	14938.73
592.08	15165.17
592.44	15445.16
592.799	15680.63
593.158	15951.59
593.517	16175.08
593.876	16483.32
594.235	16790.66
594.593	16975.06
594.952	17382.28
595.311	17617.98
595.67	17963.28
596.029	18262.71
596.387	18532.54
596.746	18881.68
597.104	19074.89
597.463	19288.9
597.822	19570.25
598.18	19871.26
598.538	20120.74
598.897	20514.86
599.255	20638.69
599.613	21120.26
599.972	21345.57
600.33	21614.26
600.688	21801.38
601.046	22190.74
601.404	22513.45
601.762	22703.27
602.12	23059.2
602.478	23206.76
602.836	23532.18
603.194	23728.56
603.552	23997.02
603.91	24147.3
604.268	24478.37
604.625	24785.03
604.983	25136.2
605.341	25269.76
605.698	25518.79
606.056	25802.85
606.413	26055.28
606.771	26320.81
607.128	26584.3
607.485	26616.16
607.843	26981.13
608.2	27318.52
608.557	27602.58
608.914	27649.58
609.272	28024.49
609.629	28328.21
609.986	28406.4
610.343	28588.32
610.7	28930.45
611.057	29000.06
611.414	29150.34
611.771	29472.36
612.127	29731.79
612.484	29780.83
612.841	30142.17
613.198	30243.41
613.554	30272.11
613.911	30691.76
614.267	30776.73
614.624	30987.12
614.98	31055.6
615.337	31536.94
615.693	31542.81
616.05	31608.12
616.406	31907.32
616.762	31940.54
617.118	32017.38
617.475	32151.39
617.831	32432.06
618.187	32546.86
618.543	32754.76
618.899	33227.97
619.255	33108.65
619.611	33186.61
619.967	33402.2
620.323	33626.83
620.678	33458.24
621.034	33602.87
621.39	33722.64
621.746	33891.23
622.101	34249.18
622.457	34192.69
622.812	34279.47
623.168	34490.08
623.523	34514.71
623.879	34685.1
624.234	34518.33
624.589	34719.68
624.945	34886.23
625.3	34852.56
625.655	35089.16
626.01	35082.38
626.365	35189.27
626.72	35119.67
627.075	35189.27
627.43	35333.68
627.785	35342.71
628.14	35356.73
628.495	35402.15
628.85	35464.52
629.205	35557.62
629.559	35757.39
629.914	35653.44
630.269	35544.52
630.623	35695.02
630.978	35726.21
631.332	35885.07
631.687	35990.83
632.041	35799.65
632.396	35917.61
632.75	35767.79
633.104	35919.42
633.459	35798.3
633.813	35809.37
634.167	35949.93
634.521	35941.12
634.875	35951.96
635.229	35989.93
635.583	35868.8
635.937	35905.86
636.291	35965.07
636.645	35945.64
636.999	35933.89
637.352	36024.96
637.706	35921.46
638.06	36132.52
638.413	35917.84
638.767	35944.05
639.121	36011.17
639.474	35830.39
639.828	35873.77
640.181	36000.1
640.534	36004.39
640.888	35845.07
641.241	35859.54
641.594	35809.37
641.947	35904.96
642.301	35902.02
642.654	35866.09
643.007	35931.63
643.36	35737.05
643.713	35752.42
644.066	36076.93
644.419	35697.28
644.771	35525.08
645.124	35289.83
645.477	35137.97
645.83	35170.52
646.182	34869.28
646.535	34730.98
646.888	34934.14
647.24	34722.17
647.593	35003.74
647.945	34804.88
648.298	34681.26
648.65	34606.91
649.002	34622.51
649.355	34661.6
649.707	34685.1
650.059	34880.58
650.411	35120.35
650.763	35317.63
651.115	35550.39
651.467	35490.51
651.819	35468.36
652.171	35402.6
652.523	35318.08
652.875	35393.79
653.227	35250.97
653.578	35602.59
653.93	35396.5
654.282	35311.08
654.633	35291.42
654.985	35371.64
655.337	35387.01
655.688	35237.63
656.039	35429.04
656.391	35120.57
656.742	35208.03
657.094	35313.79
657.445	35310.4
657.796	35318.53
658.147	35199.22
658.498	35046.68
658.849	35403.05
659.2	35221.81
659.551	35183.17
659.902	35253
660.253	35043.97
660.604	35283.73
660.955	35181.36
661.306	35266.78
661.656	35060.91
662.007	35221.36
662.358	35109.5
662.708	35227.69
663.059	35042.84
663.409	34982.72
663.76	35238.54
664.11	35139.33
664.461	35137.97
664.811	35092.55
665.161	35207.8
665.511	34933.69
665.862	35138.88
666.212	35179.1
666.562	35237.18
666.912	35039.67
667.262	34893.69
667.612	35070.86
667.962	35158.76
668.312	35126.22
668.662	35103.63
669.011	35117.41
669.361	34966.91
669.711	35036.73
670.06	34868.38
670.41	34838.1
670.76	34897.75
671.109	35039.9
671.459	34935.27
671.808	34948.6
672.157	34901.6
672.507	34682.17
672.856	34728.49
673.205	34824.08
673.554	34931.88
673.904	34885.78
674.253	34953.57
674.602	34855.95
674.951	34363.31
675.3	34164.67
675.649	34786.35
675.998	34611.43
676.346	34659.79
676.695	34870.86
677.044	34446.92
677.393	34726.91
677.741	34658.21
678.09	34735.5
678.438	34545.9
678.787	34521.04
679.135	34549.74
679.484	34383.19
679.832	34627.93
680.181	34205.34
680.529	34405.56
680.877	34244.89
681.225	34207.38
681.573	34437.65
681.922	34234.95
682.27	34096.42
682.618	34139.36
682.966	33959.7
683.314	34093.71
683.661	34008.29
684.009	33803.32
684.357	33855.97
684.705	33615.08
685.053	33851.68
685.4	33774.39
685.748	33614.4
686.095	33586.83
686.443	33565.59
686.79	33435.19
687.138	33524.68
687.485	33547.51
687.832	33435.19
688.18	33387.51
688.527	33167.4
688.874	33062.1
689.221	33054.19
689.568	33003.12
689.915	32849.22
690.262	33008.99
690.609	32952.04
690.956	32612.62
691.303	32629.34
691.65	32519.06
691.997	32693.52
692.344	32357.71
692.69	32247.88
693.037	32406.29
693.383	32100.77
693.73	32180.09
694.077	31978.06
694.423	32133.31
694.769	31919.08
695.116	31796.82
695.462	31892.64
695.808	31744.62
696.155	31737.16
696.501	31532.19
696.847	31621.68
697.193	31298.53
697.539	31449.71
697.885	31177.63
698.231	31150.51
698.577	31121.81
698.923	31037.97
699.269	30926.79
699.614	30769.05
699.96	30722.95
700.306	30716.17
700.651	30597.53
700.997	30523.86
701.342	30429.62
701.688	30475.05
702.033	30335.16
702.379	30188.95
702.724	30172.91
703.069	30352.56
703.415	29890.88
703.76	29961.39
704.105	29911.9
704.45	29786.93
704.795	29802.52
705.14	29656.54
705.485	29677.78
705.83	29601.4
706.175	29579.7
706.52	29474.62
706.865	29333.61
707.209	29398.01
707.554	29239.15
707.899	29368.41
708.243	29177.91
708.588	29186.49
708.932	28929.1
709.277	28816.56
709.621	28843.45
709.966	28649.11
710.31	28897.69
710.654	28607.98
710.998	28590.35
711.342	28671.48
711.687	28456.79
712.031	28326.63
712.375	28305.16
712.719	28302.67
713.063	28245.95
713.407	28260.19
713.75	28190.13
714.094	28033.98
714.438	28074.66
714.782	28089.35
715.125	27895.45
715.469	27927.99
715.812	27756.25
716.156	27685.06
716.499	27653.65
716.843	27773.2
717.186	27524.39
717.53	27653.43
717.873	27518.74
718.216	27474.67
718.559	27369.82
718.902	27267.45
719.246	27252.08
719.589	27323.04
719.932	27088.47
720.275	27152.42
720.617	26993.56
720.96	26956.95
721.303	26975.25
721.646	26921.47
721.989	26959.21
722.331	26944.97
722.674	26795.59
723.016	26914.91
723.359	26863.16
723.701	26742.26
724.044	26674.24
724.386	26507.69
724.729	26620.23
725.071	26551.08
725.413	26527.35
725.755	26498.43
726.097	26541.14
726.439	26252.56
726.782	26201.26
727.124	26360.8
727.465	26160.81
727.807	26201.26
728.149	26123.75
728.491	26043.3
728.833	26223.18
729.175	25991.1
729.516	26018.44
729.858	25937.54
730.199	25977.09
730.541	25871.1
730.882	25801.95
731.224	25832.23
731.565	25772.8
731.906	25756.53
732.248	25665
732.589	25637.21
732.93	25499.36
733.271	25583.42
733.612	25600.37
733.953	25548.85
734.294	25434.73
734.635	25491
734.976	25420.94
735.317	25449.42
735.658	25339.36
735.999	25343.66
736.339	25220.04
736.68	25295.07
737.021	25229.31
737.361	25075.19
737.702	25266.82
738.042	25105.47
738.383	25048.07
738.723	25142.76
739.063	25036.09
739.404	25119.25
739.744	25039.03
740.084	24900.73
740.424	24920.16
740.764	24769.89
741.104	24845.36
741.444	24823.67
741.784	24731.69
742.124	24766.95
742.464	24690.11
742.804	24590.46
743.143	24646.5
743.483	24647.18
743.823	24531.7
744.162	24426.17
744.502	24578.03
744.841	24461.64
745.181	24487.86
745.52	24381.42
745.86	24423.91
746.199	24400.63
746.538	24384.36
746.877	24366.73
747.216	24364.47
747.556	24282.21
747.895	24272.27
748.234	24163.8
748.573	24078.83
748.911	24054.42
749.25	23969.91
749.589	24008.32
749.928	23944.14
750.267	23848.78
750.605	23859.17
750.944	23851.72
751.283	23730.14
751.621	23916.12
751.96	23728.78
752.298	23632.51
752.636	23632.29
752.975	23627.99
753.313	23605.17
753.651	23603.59
753.989	23436.14
754.327	23370.6
754.666	23324.27
755.004	23299.87
755.342	23363.14
755.679	23395.68
756.017	23102.81
756.355	23271.85
756.693	23124.05
757.031	23137.61
757.368	22993.43
757.706	23024.17
758.044	22935.13
758.381	22970.61
758.719	22811.97
759.056	22843.83
759.394	22710.05
759.731	22670.28
760.068	22679.32
760.405	22524.29
760.743	22428.7
761.08	22539.44
761.417	22351.42
761.754	22371.98
762.091	22326.33
762.428	22191.87
762.765	22120.92
763.102	22168.15
763.438	22064.19
763.775	21998.66
764.112	22013.12
764.449	21935.38
764.785	21755.05
765.122	21592.34
765.458	21658.78
765.795	21585.79
766.131	21511.67
766.467	21524.1
766.804	21476.86
767.14	21346.25
767.476	21285.01
767.812	21106.93
768.148	21198.91
768.485	21101.73
768.821	21022.64
769.157	20883.89
769.492	20799.37
769.828	20829.88
770.164	20637.11
770.5	20659.03
770.836	20577
771.171	20470.34
771.507	20368.87
771.842	20243.22
772.178	20170.46
772.513	20259.5
772.849	20118.93
773.184	20131.36
773.519	20048.65
773.855	19953.97
774.19	19956.68
774.525	19816.57
774.86	19845.04
775.195	19753.97
775.53	19660.19
775.865	19637.82
776.2	19383.81
776.535	19317.6
776.87	19350.14
777.205	19345.4
777.539	19210.94
777.874	19344.94
778.209	19115.34
778.543	19120.99
778.878	18863.37
779.212	18817.5
779.547	18791.74
779.881	18789.7
780.215	18662.25
780.55	18816.14
780.884	18549.94
781.218	18433.1
781.552	18410.73
781.886	18384.97
782.22	18299.77
782.554	18197.4
782.888	17985.66
783.222	18061.81
783.556	17895.72
783.889	17849.62
784.223	17838.99
784.557	17683.29
784.89	17805.32
785.224	17727.36
785.557	17592
785.891	17567.59
786.224	17511.32
786.558	17495.73
786.891	17312
787.224	17222.74
787.557	17225.68
787.891	17155.4
788.224	17146.58
788.557	17078.11
788.89	17154.49
789.223	17060.94
789.556	16947.94
789.888	16848.96
790.221	16807.61
790.554	16753.83
790.887	16689.65
791.219	16599.48
791.552	16567.39
791.884	16450.33
792.217	16428.18
792.549	16420.95
792.882	16226.16
793.214	16184.12
793.546	16237.45
793.879	16018.25
794.211	16021.64
794.543	16008.99
794.875	15993.17
795.207	15969.66
795.539	15868.42
795.871	15900.97
796.203	15723.57
796.535	15690.8
796.867	15654.42
797.198	15650.35
797.53	15569.68
797.862	15463.92
798.193	15483.35
798.525	15492.39
798.856	15434.99
799.188	15210.81
799.519	15251.27
799.85	15178.95
800.182	15187.09
800.513	15178.5
800.844	15019.41
801.175	15072.29
801.506	15041.78
801.837	14982.12
802.168	14961.78
802.499	14800.66
802.83	14748.23
803.161	14760.43
803.491	14718.62
803.822	14669.13
804.153	14696.48
804.483	14510.04
804.814	14422.36
805.145	14532.41
805.475	14470.04
805.805	14397.5
806.136	14387.56
806.466	14326.54
806.796	14349.37
807.126	14213.78
807.457	14180.79
807.787	14276.38
808.117	14144.85
808.447	14073.9
808.777	14156.83
809.107	13991.41
809.436	13988.7
809.766	13875.26
810.096	13934.46
810.426	13937.18
810.755	13901.92
811.085	13894.47
811.414	13785.32
811.744	13669.16
812.073	13690.18
812.403	13655.83
812.732	13550.75
813.061	13580.35
813.39	13547.58
813.719	13443.63
814.049	13538.54
814.378	13396.63
814.707	13426.91
815.036	13445.44
815.365	13355.95
815.693	13203.18
816.022	13231.66
816.351	13195.05
816.68	13089.74
817.008	13132
817.337	13043.41
817.665	13071.44
817.994	12986.92
818.322	12988.5
818.651	12939.01
818.979	12967.03
819.307	12922.74
819.636	12922.97
819.964	12781.73
820.292	12897.43
820.62	12799.13
820.948	12834.15
821.276	12857.88
821.604	12810.65
821.932	12828.28
822.259	12807.04
822.587	12819.24
822.915	12683.2
823.243	12743.31
823.57	12664.67
823.898	12776.75
824.225	12669.41
824.553	12663.09
824.88	12789.64
825.207	12700.82
825.535	12689.75
825.862	12689.98
826.189	12687.72
826.516	12741.73
826.843	12825.79
827.17	12741.95
827.497	12779.92
827.824	12755.96
828.151	12758.68
828.478	12701.95
828.805	12764.33
829.131	12689.07
829.458	12678
829.785	12580.15
830.111	12656.98
830.438	12750.09
830.764	12665.57
831.09	12734.27
831.417	12654.05
831.743	12764.78
832.069	12630.09
832.395	12696.53
832.722	12633.93
833.048	12653.14
833.374	12631.22
833.7	12533.15
834.026	12560.49
834.351	12690.43
834.677	12636.42
835.003	12578.12
835.329	12540.83
835.654	12485.46
835.98	12514.84
836.306	12492.02
836.631	12376.31
836.956	12508.06
837.282	12453.6
837.607	12341.29
837.932	12372.7
838.258	12333.83
838.583	12362.08
838.908	12289.76
839.233	12284.34
839.558	12348.74
839.883	12251.8
840.208	12144
840.533	12184.45
840.858	12181.06
841.182	12122.31
841.507	12167.96
841.832	12063.78
842.156	12054.06
842.481	12083.89
842.805	12015.64
843.13	12010.67
843.454	12002.54
843.778	11958.92
844.103	11978.13
844.427	11866.04
844.751	11799.38
845.075	11874.41
845.399	11889.09
845.723	11753.5
846.047	11770.91
846.371	11655.2
846.695	11625.82
847.019	11551.48
847.343	11600.97
847.666	11439.61
847.99	11358.26
848.313	11390.12
848.637	11277.36
848.96	11345.61
849.284	11269.9
849.607	11239.17
849.931	11119.62
850.254	11143.35
850.577	11084.14
850.9	10947.88
851.223	10945.84
851.546	10863.13
851.869	10854.55
852.192	10873.75
852.515	10732.97
852.838	10740.42
853.161	10750.14
853.483	10664.49
853.806	10678.05
854.129	10604.38
854.451	10571.16
854.774	10504.72
855.096	10487.78
855.419	10544.27
855.741	10502.01
856.063	10370.04
856.385	10382.24
856.708	10369.36
857.03	10295.01
857.352	10328.46
857.674	10273.32
857.996	10234.45
858.318	10186.54
858.64	10186.54
858.961	10189.03
859.283	10068.35
859.605	10096.15
859.926	10044.85
860.248	10035.81
860.57	9994.68
860.891	9981.8
861.212	9949.48
861.534	9962.59
861.855	9894.34
862.176	9879.2
862.498	9930.5
862.819	9926.21
863.14	9841.01
863.461	9743.39
863.782	9817.96
864.103	9791.97
864.424	9744.97
864.745	9780.45
865.065	9697.06
865.386	9693.45
865.707	9718.76
866.027	9723.05
866.348	9669.27
866.668	9705.65
866.989	9642.83
867.309	9565.54
867.63	9579.32
867.95	9586.56
868.27	9523.05
868.59	9518.08
868.91	9514.69
869.23	9493
869.55	9420.01
869.87	9444.64
870.19	9480.8
870.51	9442.6
870.83	9441.47
871.15	9368.71
871.469	9398.09
871.789	9433.11
872.109	9340.46
872.428	9294.81
872.748	9397.18
873.067	9349.73
873.386	9336.17
873.706	9316.05
874.025	9242.61
874.344	9211.88
874.663	9250.29
874.982	9129.17
875.301	9181.37
875.62	9208.26
875.939	9136.62
876.258	9144.53
876.577	9082.39
876.896	9178.2
877.214	9094.59
877.533	9116.29
877.852	9039.9
878.17	9081.94
878.489	9006.23
878.807	9071.32
879.125	9050.07
879.444	9018.89
879.762	8949.74
880.08	8958.32
880.398	8941.15
880.716	8934.82
881.034	8937.31
881.352	8905.67
881.67	8900.47
881.988	8949.96
882.306	8802.4
882.624	8832
882.941	8770.76
883.259	8734.15
883.577	8775.28
883.894	8778.22
884.212	8742.74
884.529	8691.44
884.846	8687.37
885.164	8672.46
885.481	8679.01
885.798	8739.57
886.115	8665.9
886.432	8573.48
886.75	8507.49
887.067	8526.92
887.383	8526.47
887.7	8544.55
888.017	8483.31
888.334	8474.27
888.651	8455.06
888.967	8413.48
889.284	8379.36
889.6	8387.94
889.917	8351.33
890.233	8317.66
890.55	8299.81
890.866	8247.38
891.182	8237.66
891.498	8234.73
891.815	8206.03
892.131	8211.68
892.447	8173.26
892.763	8179.59
893.079	8130.77
893.395	8124
893.71	8058.91
894.026	8080.61
894.342	8031.12
894.657	7964.23
894.973	7989.76
895.289	7949.54
895.604	7989.99
895.92	7851.01
896.235	7869.31
896.55	7881.74
896.865	7831.57
897.181	7799.94
897.496	7790.22
897.811	7744.57
898.126	7696.21
898.441	7745.02
898.756	7610.56
899.071	7660.28
899.386	7647.85
899.7	7571.69
900.015	7495.54
900.33	7430.91
900.644	7446.27
900.959	7378.93
901.273	7455.09
901.588	7435.2
901.902	7410.57
902.216	7333.06
902.531	7258.26
902.845	7346.39
903.159	7240.85
903.473	7201.08
903.787	7216.67
904.101	7197.01
904.415	7182.1
904.729	7136
905.042	7108.43
905.356	7064.36
905.67	7098.49
905.984	7088.09
906.297	6991.14
906.611	6980.3
906.924	6993.18
907.237	6946.4
907.551	6894.2
907.864	6925.16
908.177	6884.25
908.491	6844.03
908.804	6850.58
909.117	6763.35
909.43	6769.45
909.743	6696.01
910.056	6702.79
910.368	6679.97
910.681	6614.66
910.994	6623.7
911.307	6626.86
911.619	6513.19
911.932	6573.08
912.244	6509.12
912.557	6508.44
912.869	6433.87
913.181	6482.23
913.494	6450.37
913.806	6389.58
914.118	6389.58
914.43	6274.55
914.742	6313.87
915.054	6313.42
915.366	6282.91
915.678	6260.32
915.99	6214.44
916.302	6132.41
916.613	6134.67
916.925	6188.91
917.236	6102.58
917.548	6048.8
917.859	6113.88
918.171	5970.38
918.482	6016.48
918.794	5957.5
919.105	5982.13
919.416	5904.84
919.727	5921.34
920.038	5889.93
920.349	5871.85
920.66	5828.24
920.971	5849.03
921.282	5802.93
921.593	5806.32
921.903	5768.35
922.214	5725.41
922.525	5658.98
922.835	5666.88
923.146	5606.32
923.456	5622.14
923.767	5595.7
924.077	5629.37
924.387	5551.63
924.697	5467.12
925.008	5454.24
925.318	5491.75
925.628	5437.29
925.938	5452.65
926.248	5446.33
926.558	5392.54
926.867	5327.46
927.177	5340.57
927.487	5315.71
927.796	5265.31
928.106	5288.36
928.416	5246.78
928.725	5222.38
929.034	5226.44
929.344	5208.59
929.653	5174.47
929.962	5121.59
930.271	5149.16
930.581	5074.58
930.89	5095.6
931.199	5048.6
931.508	5073.68
931.817	4998.2
932.125	4965.66
932.434	4985.32
932.743	4944.87
933.051	4914.14
933.36	4905.77
933.669	4865.55
933.977	4834.82
934.286	4866.45
934.594	4858.54
934.902	4786.68
935.21	4777.64
935.519	4808.15
935.827	4768.38
936.135	4758.21
936.443	4714.14
936.751	4680.7
937.059	4669.62
937.367	4613.35
937.674	4622.17
937.982	4631.21
938.29	4588.5
938.597	4569.29
938.905	4535.84
939.213	4521.83
939.52	4497.65
939.827	4502.17
940.135	4464.66
940.442	4426.47
940.749	4445.45
941.056	4427.14
941.363	4430.08
941.67	4347.37
941.977	4374.04
942.284	4285.45
942.591	4353.25
942.898	4293.36
943.205	4328.61
943.511	4303.76
943.818	4263.08
944.125	4224.66
944.431	4208.62
944.738	4174.04
945.044	4195.29
945.35	4144.21
945.657	4156.42
945.963	4090.66
946.269	4122.29
946.575	4110.99
946.881	4040.94
947.187	4081.16
947.493	4044.1
947.799	3976.53
948.105	4006.36
948.41	3954.39
948.716	3969.08
949.022	3928.63
949.327	3959.36
949.633	3907.61
949.938	3940.6
950.244	3921.62
950.549	3851.34
950.854	3823.77
951.16	3842.53
951.465	3821.51
951.77	3773.6
952.075	3756.65
952.38	3809.31
952.685	3751.68
952.99	3726.82
953.294	3762.53
953.599	3718.91
953.904	3699.03
954.209	3674.62
954.513	3654.06
954.818	3654.51
955.122	3623.77
955.426	3596.66
955.731	3576.54
956.035	3575.19
956.339	3596.43
956.643	3533.83
956.948	3517.11
957.252	3526.15
957.556	3529.31
957.86	3503.78
958.163	3501.52
958.467	3489.32
958.771	3449.54
959.075	3440.05
959.378	3400.96
959.682	3416.55
959.985	3393.27
960.289	3329.09
960.592	3315.99
960.896	3325.93
961.199	3327.74
961.502	3331.35
961.805	3328.64
962.108	3269.66
962.411	3276.21
962.714	3248.19
963.017	3236.89
963.32	3206.16
963.623	3201.64
963.926	3212.94
964.228	3158.93
964.531	3176.33
964.833	3177.23
965.136	3155.99
965.438	3134.97
965.741	3106.05
966.043	3106.27
966.345	3097.46
966.648	3060.63
966.95	3101.08
967.252	3061.53
967.554	3056.33
967.856	3023.79
968.158	2990.8
968.46	3017.46
968.761	3008.65
969.063	2979.5
969.365	2989.44
969.666	2969.78
969.968	2960.06
970.269	2923.91
970.571	2950.57
970.872	2930.91
971.174	2880.52
971.475	2880.07
971.776	2885.26
972.077	2827.41
972.378	2841.42
972.679	2862.89
972.98	2798.26
973.281	2791.71
973.582	2801.2
973.883	2787.64
974.183	2746.06
974.484	2773.85
974.785	2751.48
975.085	2738.15
975.386	2748.77
975.686	2721.43
975.986	2717.36
976.287	2681.2
976.587	2645.95
976.887	2643.69
977.187	2671.94
977.487	2609.56
977.787	2631.48
978.087	2645.95
978.387	2590.36
978.687	2610.02
978.987	2596.01
979.286	2582.9
979.586	2596.91
979.885	2555.1
980.185	2550.36
980.484	2544.48
980.784	2514.43
981.083	2483.01
981.382	2506.29
981.682	2477.59
981.981	2455.44
982.28	2464.48
982.579	2457.93
982.878	2447.76
983.177	2444.82
983.475	2452.51
983.774	2405.73
984.073	2344.71
984.372	2393.75
984.67	2387.65
984.969	2366.86
985.267	2404.82
985.566	2375.9
985.864	2333.41
986.162	2337.25
986.461	2353.3
986.759	2330.02
987.057	2287.99
987.355	2272.62
987.653	2286.63
987.951	2269.69
988.249	2269.23
988.547	2250.48
988.844	2234.43
989.142	2238.05
989.44	2223.36
989.737	2212.74
990.035	2204.38
990.332	2206.64
990.63	2243.02
990.927	2174.55
991.224	2142.01
991.521	2144.72
991.819	2129.58
992.116	2102.23
992.413	2137.03
992.71	2090.71
993.006	2125.28
993.303	2073.99
993.6	2095.91
993.897	2106.53
994.193	2086.87
994.49	2090.26
994.787	2043.7
995.083	2030.82
995.379	2003.7
995.676	2042.12
995.972	2015
996.268	1998.73
996.565	1973.65
996.861	2001.44
997.157	1985.17
997.453	1959.41
997.749	1935.46
998.044	1918.51
998.34	1921.22
998.636	1930.03
998.932	1914.67
999.227	1887.1
999.523	1919.64
999.818	1889.13
1000.114	1859.3
1000.409	1851.17
1000.704	1878.28
1001	1823.6
1001.295	1875.35
1001.59	1843.71
1001.885	1833.99
1002.18	1838.51
1002.475	1815.69
1002.77	1794.9
1003.065	1781.11
1003.359	1789.92
1003.654	1772.3
1003.949	1764.84
1004.243	1751.51
1004.538	1733.65
1004.832	1682.13
1005.127	1737.5
1005.421	1707.44
1005.715	1715.58
1006.009	1679.19
1006.304	1695.69
1006.598	1682.13
1006.892	1637.39
1007.186	1658.4
1007.48	1681.45
1007.773	1653.21
1008.067	1617.05
1008.361	1626.31
1008.655	1595.35
1008.948	1582.02
1009.242	1579.08
1009.535	1578.4
1009.829	1571.17
1010.122	1551.29
1010.415	1552.19
1010.708	1569.82
1011.001	1522.59
1011.295	1519.65
1011.588	1539.54
1011.881	1503.38
1012.173	1499.31
1012.466	1513.32
1012.759	1478.07
1013.052	1494.34
1013.344	1463.38
1013.637	1439.88
1013.93	1450.27
1014.222	1441.46
1014.514	1438.97
1014.807	1447.33
1015.099	1428.8
1015.391	1406.88
1015.683	1416.38
1015.976	1426.77
1016.268	1367.79
1016.56	1388.81
1016.851	1370.05
1017.143	1372.31
1017.435	1367.11
1017.727	1366.88
1018.018	1345.64
1018.31	1332.31
1018.602	1337.96
1018.893	1309.03
1019.185	1306.32
1019.476	1288.69
1019.767	1264.97
1020.058	1296.15
1020.35	1257.74
1020.641	1270.39
1020.932	1268.36
1021.223	1255.02
1021.514	1222.26
1021.804	1244.85
1022.095	1223.84
1022.386	1203.5
1022.677	1221.58
1022.967	1181.58
1023.258	1183.61
1023.548	1204.63
1023.839	1202.82
1024.129	1173.44
1024.419	1175.25
1024.709	1145.87
1025	1167.12
1025.29	1138.64
1025.58	1137.96
1025.87	1105.2
1026.16	1123.95
1026.449	1111.75
1026.739	1104.07
1027.029	1125.99
1027.319	1100.9
1027.608	1094.8
1027.898	1103.16
1028.187	1075.37
1028.477	1072.66
1028.766	1053.9
1029.055	1042.15
1029.344	1055.71
1029.634	1047.8
1029.923	1039.89
1030.212	1041.47
1030.501	1027.68
1030.79	980
1031.078	1026.1
1031.367	1021.58
1031.656	1025.2
1031.945	998.76
1032.233	1002.15
1032.522	995.6
1032.81	1018.87
1033.099	977.97
1033.387	953.11
1033.675	945.65
1033.963	946.33
1034.251	947.23
1034.54	962.6
1034.828	966.9
1035.116	944.75
1035.403	902.94
1035.691	936.84
1035.979	916.95
1036.267	920.34
1036.554	891.64
1036.842	905.2
1037.129	898.87
1037.417	856.62
1037.704	887.12
1037.992	893.23
1038.279	867.69
1038.566	858.42
1038.853	858.42
1039.14	858.42
