Data from hue_110_FLMS001491_00065.txt Node
Date: Tue Feb 07 17:01:40 GMT 2017
User: dcchb
Spectrometer: FLMS00149
Trigger mode: 0
Integration Time (sec): 2.000000E-2
Scans to average: 10
Electric dark correction enabled: true
Nonlinearity correction enabled: false
Boxcar width: 0
XAxis mode: Wavelengths
Number of Pixels in Spectrum: 2048
>>>>>Begin Spectral Data<<<<<
341.393	-33.01
341.776	-33.01
342.16	-33.01
342.543	-58.09
342.927	-75.94
343.31	-68.94
343.693	-68.26
344.077	-83.85
344.46	-70.29
344.843	-54.7
345.226	-40.47
345.61	-35.95
345.993	-15.61
346.376	-14.25
346.759	30.04
347.142	44.5
347.525	49.93
347.908	50.15
348.291	91.51
348.674	90.6
349.057	95.58
349.44	112.53
349.823	131.73
350.206	165.86
350.588	205.63
350.971	219.42
351.354	225.52
351.737	226.19
352.119	231.17
352.502	252.41
352.884	263.48
353.267	262.58
353.65	280.2
354.032	291.96
354.414	301.22
354.797	320.88
355.179	321.33
355.562	326.76
355.944	325.4
356.326	334.67
356.709	319.53
357.091	338.96
357.473	351.84
357.855	319.75
358.238	322.24
358.62	324.27
359.002	332.63
359.384	343.93
359.766	356.59
360.148	329.69
360.53	338.06
360.912	344.61
361.294	336.93
361.676	324.72
362.057	326.08
362.439	312.75
362.821	312.52
363.203	333.54
363.584	315.46
363.966	311.62
364.348	332.18
364.729	330.15
365.111	311.84
365.493	296.48
365.874	287.44
366.256	292.63
366.637	310.94
367.019	322.69
367.4	313.88
367.781	300.54
368.163	312.07
368.544	300.77
368.925	306.42
369.306	312.07
369.688	319.98
370.069	310.71
370.45	319.53
370.831	307.1
371.212	313.65
371.593	320.66
371.974	305.97
372.355	322.69
372.736	299.64
373.117	306.64
373.498	320.66
373.879	298.74
374.26	287.21
374.641	301.22
375.021	305.97
375.402	311.84
375.783	333.54
376.163	318.62
376.544	304.38
376.925	319.07
377.305	333.54
377.686	332.63
378.066	334.67
378.447	331.5
378.827	323.82
379.208	328.34
379.588	311.62
379.968	313.42
380.349	326.53
380.729	334.44
381.109	321.56
381.489	331.95
381.87	348.23
382.25	354.33
382.63	351.16
383.01	329.92
383.39	355.68
383.77	351.84
384.15	341.9
384.53	338.96
384.91	358.62
385.29	330.82
385.67	347.1
386.049	331.05
386.429	352.29
386.809	333.76
387.189	354.55
387.568	335.8
387.948	337.6
388.328	357.04
388.707	351.62
389.087	363.59
389.466	363.82
389.846	366.98
390.225	354.1
390.605	367.66
390.984	362.69
391.363	366.3
391.743	362.91
392.122	364.5
392.501	359.52
392.881	389.58
393.26	374.67
393.639	369.02
394.018	367.43
394.397	370.6
394.776	385.29
395.155	379.86
395.534	402.24
395.913	363.14
396.292	392.52
396.671	395.68
397.05	380.09
397.429	383.48
397.808	395.46
398.186	367.43
398.565	390.03
398.944	377.6
399.323	396.59
399.701	411.73
400.08	414.21
400.458	402.69
400.837	376.02
401.215	416.25
401.594	408.79
401.972	423.93
402.351	416.7
402.729	412.63
403.107	412.18
403.486	400.65
403.864	417.15
404.242	404.95
404.62	433.87
404.999	425.96
405.377	426.87
405.755	430.71
406.133	408.34
406.511	434.78
406.889	434.55
407.267	432.29
407.645	429.58
408.023	459.18
408.401	445.17
408.779	450.37
409.156	469.58
409.534	439.07
409.912	465.28
410.29	434.78
410.667	449.24
411.045	448.11
411.422	452.4
411.8	464.38
412.178	480.43
412.555	496.24
412.933	505.06
413.31	508.22
413.687	500.54
414.065	478.17
414.442	468.22
414.819	480.2
415.197	523.59
415.574	488.56
415.951	498.73
416.328	518.62
416.705	516.36
417.082	510.71
417.46	542.34
417.837	519.52
418.214	534.66
418.591	539.63
418.967	534.89
419.344	552.29
419.721	522.01
420.098	536.24
420.475	543.02
420.852	542.8
421.228	569.91
421.605	563.81
421.982	566.52
422.358	564.72
422.735	545.73
423.111	578.95
423.488	577.82
423.864	574.43
424.241	556.36
424.617	596.13
424.994	584.6
425.37	594.09
425.746	596.81
426.123	611.95
426.499	601.55
426.875	615.56
427.251	631.83
427.627	599.29
428.003	649.01
428.379	629.57
428.756	650.59
429.132	630.03
429.507	645.62
429.883	644.49
430.259	663.7
430.635	656.92
431.011	700.08
431.387	677.71
431.763	684.26
432.138	703.92
432.514	702.34
432.89	685.84
433.265	731.49
433.641	722.45
434.016	739.63
434.392	719.29
434.767	714.77
435.143	729.68
435.518	746.63
435.894	760.64
436.269	766.97
436.644	786.41
437.02	785.73
437.395	774.2
437.77	797.93
438.145	796.12
438.52	811.04
438.895	773.75
439.271	784.15
439.646	849.23
440.021	827.31
440.395	825.95
440.77	829.12
441.145	846.74
441.52	852.39
441.895	862.56
442.27	868.21
442.645	854.65
443.019	883.58
443.394	884.48
443.769	875.22
444.143	866.18
444.518	888.32
444.892	870.92
445.267	897.36
445.641	900.75
446.016	911.83
446.39	898.04
446.764	932.16
447.139	920.87
447.513	931.71
447.887	921.32
448.262	938.04
448.636	954.76
449.01	978.72
449.384	978.94
449.758	963.35
450.132	969
450.506	973.29
450.88	979.85
451.254	994.99
451.628	1010.58
452.002	1018.04
452.376	1026.17
452.75	1056.91
453.123	1043.35
453.497	1015.55
453.871	1067.75
454.244	1093.06
454.618	1089
454.992	1090.8
455.365	1116.34
455.739	1147.3
456.112	1122.67
456.486	1147.98
456.859	1163.35
457.232	1186.85
457.606	1170.35
457.979	1204.47
458.352	1224.59
458.725	1238.6
459.099	1253.06
459.472	1277.92
459.845	1271.14
460.218	1290.57
460.591	1280.86
460.964	1312.27
461.337	1336.45
461.71	1378.25
462.083	1364.47
462.456	1352.72
462.829	1396.79
463.201	1411.02
463.574	1432.94
463.947	1458.93
464.32	1480.4
464.692	1488.31
465.065	1484.01
465.438	1523.56
465.81	1561.75
466.183	1589.55
466.555	1631.36
466.928	1627.51
467.3	1664.8
467.672	1657.8
468.045	1711.58
468.417	1742.31
468.789	1752.48
469.161	1768.53
469.534	1775.53
469.906	1854.63
470.278	1885.36
470.65	1882.87
471.022	1928.07
471.394	1987.28
471.766	2029.54
472.138	2046.71
472.51	2100.04
472.882	2149.31
473.253	2188.63
473.625	2233.83
473.997	2281.73
474.369	2308.85
474.74	2400.15
475.112	2431.33
475.484	2482.41
475.855	2498.68
476.227	2552.69
476.598	2665.9
476.97	2736.41
477.341	2785.45
477.713	2862.06
478.084	2905.22
478.455	3003.97
478.827	3036.97
479.198	3166.23
479.569	3258.43
479.94	3337.07
480.311	3429.27
480.682	3482.61
481.053	3597.63
481.424	3683.05
481.795	3767.12
482.166	3862.48
482.537	3979.99
482.908	4143.61
483.279	4188.8
483.65	4306.77
484.021	4436.93
484.391	4512.64
484.762	4645.29
485.133	4705.85
485.503	4867.65
485.874	4983.36
486.244	5168.44
486.615	5275.1
486.985	5382.44
487.356	5560.74
487.726	5672.15
488.097	5794.18
488.467	5930.68
488.837	6070.79
489.207	6215.19
489.578	6331.34
489.948	6535.18
490.318	6617.21
490.688	6738.79
491.058	6878.9
491.428	7061.95
491.798	7147.82
492.168	7417.19
492.538	7515.49
492.908	7643.63
493.278	7847.01
493.648	7959.78
494.017	8070.73
494.387	8219.66
494.757	8375.13
495.126	8467.11
495.496	8637.05
495.866	8699.19
496.235	8874.78
496.605	8994.33
496.974	9086.3
497.344	9251.04
497.713	9441.32
498.082	9539.4
498.452	9715.66
498.821	9781.65
499.19	9840.41
499.559	9995.2
499.928	10152.04
500.298	10288.08
500.667	10423.89
501.036	10406.94
501.405	10576.43
501.774	10689.42
502.143	10776.65
502.512	10842.41
502.88	11075.85
503.249	11057.77
503.618	11183.19
503.987	11229.97
504.356	11289.63
504.724	11465.22
505.093	11476.52
505.462	11657.31
505.83	11681.49
506.199	11829.05
506.567	11914.25
506.936	11930.52
507.304	12147.92
507.672	12124.19
508.041	12333.9
508.409	12326.22
508.777	12430.62
509.145	12531.18
509.514	12542.03
509.882	12679.2
510.25	12652.31
510.618	12772.31
510.986	12811.4
511.354	12955.13
511.722	13022.92
512.09	13126.42
512.458	13048.23
512.826	13202.8
513.193	13221.56
513.561	13264.5
513.929	13472.4
514.297	13527.31
514.664	13596.69
515.032	13624.03
515.4	13669.46
515.767	13742.68
516.135	13721.88
516.502	13692.51
516.869	13939.96
517.237	13956
517.604	13947.87
517.972	13927.3
518.339	14038.03
518.706	14099.28
519.073	14076.68
519.44	14130.24
519.808	14191.48
520.175	14303.79
520.542	14327.29
520.909	14433.96
521.276	14387.63
521.643	14471.24
522.009	14561.64
522.376	14623.56
522.743	14686.15
523.11	14721.18
523.477	14765.02
523.843	14833.49
524.21	14893.83
524.577	14929.76
524.943	15015.86
525.31	15063.09
525.676	15079.82
526.043	15218.12
526.409	15146.48
526.776	15290.43
527.142	15250.43
527.508	15266.93
527.874	15406.59
528.241	15467.38
528.607	15304.89
528.973	15466.02
529.339	15433.48
529.705	15563.19
530.071	15540.59
530.437	15555.28
530.803	15628.73
531.169	15571.1
531.535	15504.66
531.901	15488.84
532.267	15529.07
532.632	15640.48
532.998	15662.17
533.364	15629.63
533.73	15581.05
534.095	15659.01
534.461	15630.08
534.826	15687.71
535.192	15689.29
535.557	15706.01
535.923	15645.68
536.288	15577.88
536.653	15615.39
537.019	15550.99
537.384	15598.22
537.749	15526.58
538.114	15497.43
538.479	15541.95
538.845	15512.35
539.21	15494.49
539.575	15470.77
539.94	15388.73
540.305	15487.49
540.67	15376.98
541.034	15383.31
541.399	15403.65
541.764	15351.22
542.129	15322.07
542.494	15338.34
542.858	15349.64
543.223	15313.03
543.587	15297.66
543.952	15206.37
544.316	15202.98
544.681	15193.94
545.045	15224.22
545.41	15216.31
545.774	15084.56
546.138	15149.64
546.503	15038.01
546.867	15024
547.231	15110.32
547.595	15033.49
547.959	15030.78
548.324	14962.08
548.688	14920.95
549.052	15036.88
549.416	14794.85
549.779	14862.87
550.143	14880.27
550.507	14857.22
550.871	14816.09
551.235	14829.88
551.599	14791.46
551.962	14743.1
552.326	14756.89
552.689	14784
553.053	14749.2
553.417	14675.08
553.78	14794.17
554.143	14628.3
554.507	14779.03
554.87	14692.93
555.234	14807.73
555.597	14574.07
555.96	14642.31
556.323	14559.6
556.686	14566.38
557.05	14711.24
557.413	14565.03
557.776	14517.34
558.139	14689.54
558.502	14586.27
558.865	14578.36
559.228	14603.67
559.59	14641.63
559.953	14601.41
560.316	14676.89
560.679	14605.48
561.041	14673.27
561.404	14706.94
561.767	14841.86
562.129	14614.52
562.492	14790.11
562.854	14724.57
563.217	14698.81
563.579	14738.36
563.941	14765.25
564.304	14779.26
564.666	14838.92
565.028	14801.63
565.39	14777.45
565.753	14860.84
566.115	14846.15
566.477	14864.23
566.839	14870.56
567.201	14945.58
567.563	14939.03
567.925	15064.45
568.287	14960.5
568.648	14974.51
569.01	15052.25
569.372	15109.87
569.734	14989.42
570.095	15098.35
570.457	15121.4
570.819	15035.3
571.18	15103.54
571.542	15216.08
571.903	15103.32
572.265	15139.93
572.626	15122.98
572.987	15082.3
573.349	15180.6
573.71	15259.02
574.071	15182.64
574.432	15267.83
574.794	15315.06
575.155	15265.57
575.516	15219.25
575.877	15275.97
576.238	15303.54
576.599	15250.43
576.96	15275.06
577.32	15263.09
577.681	15373.59
578.042	15355.06
578.403	15423.08
578.763	15391.45
579.124	15400.94
579.485	15351.22
579.845	15387.38
580.206	15421.28
580.566	15292.69
580.927	15416.76
581.287	15399.81
581.648	15311.67
582.008	15363.65
582.368	15304.89
582.728	15390.32
583.089	15306.48
583.449	15378.79
583.809	15371.11
584.169	15370.43
584.529	15281.39
584.889	15423.31
585.249	15219.7
585.609	15295.18
585.969	15396.64
586.329	15299.47
586.688	15323.2
587.048	15308.74
587.408	15181.51
587.768	15175.63
588.127	15195.07
588.487	15201.62
588.846	15264.67
589.206	15124.79
589.565	15162.53
589.925	15258.57
590.284	15174.28
590.643	15208.17
591.003	15184.45
591.362	15181.28
591.721	15178.57
592.08	15189.42
592.44	15217.89
592.799	15201.62
593.158	15128.85
593.517	15096.76
593.876	15104.67
594.235	15127.5
594.593	15133.6
594.952	15085.92
595.311	15056.31
595.67	15067.39
596.029	15156.42
596.387	15212.02
596.746	15096.54
597.104	15033.04
597.463	15054.28
597.822	15147.84
598.18	15008.63
598.538	14934.28
598.897	15051.79
599.255	14987.84
599.613	15206.59
599.972	15029.65
600.33	15128.63
600.688	15011.12
601.046	15003.43
601.404	15155.29
601.762	15144.67
602.12	15144.45
602.478	15113.03
602.836	15052.02
603.194	15166.37
603.552	15141.06
603.91	15033.26
604.268	15046.14
604.625	15025.35
604.983	15090.66
605.341	15049.53
605.698	15153.71
606.056	15184.67
606.413	15057.44
606.771	15117.1
607.128	15109.65
607.485	15046.14
607.843	14987.16
608.2	15048.86
608.557	15094.5
608.914	15066.26
609.272	15217.66
609.629	15180.38
609.986	15176.54
610.343	15137.89
610.7	15244.33
611.057	15108.06
611.414	15142.19
611.771	15136.09
612.127	15214.5
612.484	15248.85
612.841	15297.66
613.198	15155.07
613.554	15225.8
613.911	15337.89
614.267	15273.03
614.624	15276.42
614.98	15341.05
615.337	15362.75
615.693	15312.35
616.05	15458.79
616.406	15429.64
616.762	15388.51
617.118	15415.85
617.475	15442.29
617.831	15412.01
618.187	15461.05
618.543	15504.89
618.899	15607.49
619.255	15551.44
619.611	15449.75
619.967	15505.34
620.323	15583.76
620.678	15562.29
621.034	15535.62
621.39	15435.06
621.746	15435.06
622.101	15681.83
622.457	15473.93
622.812	15460.37
623.168	15597.99
623.523	15556.86
623.879	15534.72
624.234	15470.31
624.589	15522.52
624.945	15519.13
625.3	15469.86
625.655	15498.34
626.01	15516.41
626.365	15559.12
626.72	15478.67
627.075	15473.93
627.43	15499.24
627.785	15464.89
628.14	15476.42
628.495	15560.25
628.85	15510.09
629.205	15448.17
629.559	15555.51
629.914	15507.6
630.269	15462.63
630.623	15342.86
630.978	15400.03
631.332	15442.52
631.687	15338.57
632.041	15385.57
632.396	15349.19
632.75	15265.35
633.104	15308.96
633.459	15270.32
633.813	15241.17
634.167	15292.01
634.521	15230.09
634.875	15253.82
635.229	15174.5
635.583	15209.76
635.937	15150.55
636.291	15090.21
636.645	15136.31
636.999	15097.67
637.352	15137.44
637.706	15041.62
638.06	15058.57
638.413	15109.42
638.767	15051.34
639.121	15075.07
639.474	14948.07
639.828	14934.73
640.181	15006.37
640.534	14898.58
640.888	14938.58
641.241	14819.26
641.594	14887.5
641.947	14915.07
642.301	14934.73
642.654	14945.58
643.007	14945.58
643.36	14910.78
643.713	14853.61
644.066	14954.85
644.419	14833.72
644.771	14799.6
645.124	14593.73
645.477	14549.43
645.83	14507.85
646.182	14413.62
646.535	14377.69
646.888	14487.06
647.24	14321.42
647.593	14407.29
647.945	14361.64
648.298	14215.88
648.65	14251.14
649.002	14280.74
649.355	14397.57
649.707	14329.55
650.059	14388.53
650.411	14578.81
650.763	14580.62
651.115	14739.03
651.467	14657.91
651.819	14636.66
652.171	14640.28
652.523	14589.21
652.875	14640.5
653.227	14566.83
653.578	14726.15
653.93	14640.28
654.282	14616.55
654.633	14602.99
654.985	14601.18
655.337	14703.55
655.688	14693.16
656.039	14671.46
656.391	14596.89
656.742	14660.39
657.094	14647.28
657.445	14694.06
657.796	14664.69
658.147	14672.14
658.498	14650.22
658.849	14692.25
659.2	14624.69
659.551	14643.67
659.902	14644.8
660.253	14634.63
660.604	14722.99
660.955	14578.81
661.306	14707.4
661.656	14674.63
662.007	14715.08
662.358	14624.46
662.708	14702.2
663.059	14756.43
663.409	14596.44
663.76	14719.37
664.11	14768.86
664.461	14725.7
664.811	14755.08
665.161	14730.9
665.511	14577.46
665.862	14640.05
666.212	14821.29
666.562	14774.74
666.912	14732.71
667.262	14707.17
667.612	14653.61
667.962	14720.5
668.312	14682.31
668.662	14687.51
669.011	14742.65
669.361	14712.82
669.711	14721.63
670.06	14604.12
670.41	14700.62
670.76	14653.84
671.109	14668.07
671.459	14730.9
671.808	14600.05
672.157	14602.54
672.507	14589.43
672.856	14562.77
673.205	14646.83
673.554	14668.75
673.904	14578.59
674.253	14625.36
674.602	14538.36
674.951	14306.73
675.3	14343.11
675.649	14541.98
675.998	14504.01
676.346	14540.17
676.695	14533.84
677.044	14370
677.393	14415.65
677.741	14436.44
678.09	14326.39
678.438	14317.8
678.787	14421.53
679.135	14300.17
679.484	14229.67
679.832	14344.02
680.181	14251.36
680.529	14270.57
680.877	14174.98
681.225	14225.83
681.573	14304.69
681.922	14110.58
682.27	14070.8
682.618	14211.36
682.966	14038.71
683.314	14090.46
683.661	14069.45
684.009	13957.58
684.357	13969.34
684.705	13948.77
685.053	13971.37
685.4	13893.63
685.748	13872.84
686.095	13905.38
686.443	13837.81
686.79	13758.72
687.138	13818.83
687.485	13746.29
687.832	13751.04
688.18	13728.66
688.527	13597.37
688.874	13633.75
689.221	13530.25
689.568	13521.66
689.915	13523.25
690.262	13492.29
690.609	13381.78
690.956	13351.27
691.303	13424.27
691.65	13331.84
691.997	13277.38
692.344	13207.32
692.69	13257.72
693.037	13262.24
693.383	13071.73
693.73	13030.15
694.077	12966.2
694.423	12972.53
694.769	12897.5
695.116	12901.57
695.462	12885.97
695.808	12793.55
696.155	12928.23
696.501	12727.56
696.847	12730.95
697.193	12548.13
697.539	12647.11
697.885	12581.35
698.231	12477.17
698.577	12486.21
698.923	12402.15
699.269	12368.25
699.614	12301.36
699.96	12286.22
700.306	12239.21
700.651	12206.44
700.997	12173.68
701.342	12100.23
701.688	12098.65
702.033	12066.79
702.379	11968.26
702.724	12000.57
703.069	11966.45
703.415	11836.51
703.76	11858.21
704.105	11909.96
704.45	11766.23
704.795	11756.51
705.14	11662.5
705.485	11685.55
705.83	11538.67
706.175	11551.32
706.52	11604.43
706.865	11498.44
707.209	11455.05
707.554	11434.94
707.899	11380.7
708.243	11382.74
708.588	11421.61
708.932	11203.08
709.277	11286.24
709.621	11219.8
709.966	11107.49
710.31	11199.24
710.654	11096.19
710.998	11123.08
711.342	11062.75
711.687	11047.38
712.031	10949.08
712.375	10946.59
712.719	11047.6
713.063	10991.56
713.407	10967.83
713.75	10889.64
714.094	10933.26
714.438	10850.32
714.782	10890.55
715.125	10804.22
715.469	10813.03
715.812	10722.42
716.156	10739.82
716.499	10754.51
716.843	10784.11
717.186	10681.06
717.53	10797.67
717.873	10755.18
718.216	10790.89
718.559	10729.42
718.902	10615.75
719.246	10639.25
719.589	10622.08
719.932	10512.7
720.275	10568.97
720.617	10587.28
720.96	10537.56
721.303	10580.72
721.646	10493.27
721.989	10499.14
722.331	10553.38
722.674	10506.15
723.016	10488.07
723.359	10489.65
723.701	10483.1
724.044	10405.81
724.386	10370.56
724.729	10424.12
725.071	10388.64
725.413	10371.24
725.755	10405.14
726.097	10314.74
726.439	10234.97
726.782	10281.07
727.124	10378.24
727.465	10339.6
727.807	10193.39
728.149	10292.14
728.491	10190.45
728.833	10271.35
729.175	10178.25
729.516	10237.91
729.858	10222.77
730.199	10277.91
730.541	10168.08
730.882	10273.61
731.224	10344.12
731.565	10199.04
731.906	10272.94
732.248	10252.6
732.589	10168.76
732.93	10208.31
733.271	10169.66
733.612	10179.38
733.953	10211.47
734.294	10162.66
734.635	10164.46
734.976	10159.04
735.317	10110.45
735.658	10236.78
735.999	10194.52
736.339	10117.01
736.68	10222.09
737.021	10180.06
737.361	10149.55
737.702	10195.2
738.042	10178.48
738.383	10173.96
738.723	10171.7
739.063	10203.33
739.404	10299.15
739.744	10235.42
740.084	10198.14
740.424	10345.02
740.764	10265.7
741.104	10317.68
741.444	10255.54
741.784	10277.46
742.124	10269.55
742.464	10384.8
742.804	10340.73
743.143	10345.48
743.483	10408.53
743.823	10375.53
744.162	10419.82
744.502	10454.4
744.841	10458.02
745.181	10504.34
745.52	10502.99
745.86	10603.1
746.199	10633.83
746.538	10576.43
746.877	10757.67
747.216	10821.4
747.556	10802.64
747.895	10877.67
748.234	10845.8
748.573	10931
748.911	10971.45
749.25	11096.64
749.589	11081.5
749.928	11162.18
750.267	11247.15
750.605	11325.34
750.944	11299.8
751.283	11445.56
751.621	11597.2
751.96	11723.29
752.298	11742.28
752.636	11889.84
752.975	11887.36
753.313	12022.27
753.651	12142.27
753.989	12174.36
754.327	12254.13
754.666	12420.9
755.004	12562.59
755.342	12688.24
755.679	12823.6
756.017	12884.17
756.355	12989.7
756.693	13138.62
757.031	13321.67
757.368	13371.39
757.706	13659.29
758.044	13653.64
758.381	13933.4
758.719	14002.78
759.056	14153.06
759.394	14349.44
759.731	14488.42
760.068	14580.17
760.405	14673.05
760.743	14809.31
761.08	15094.05
761.417	15175.63
761.754	15244.78
762.091	15524.32
762.428	15661.95
762.765	15707.82
763.102	16082.27
763.438	16064.87
763.775	16183.97
764.112	16470.97
764.449	16546.44
764.785	16665.54
765.122	16695.59
765.458	16902.82
765.795	16983.27
766.131	17164.28
766.467	17275.92
766.804	17432.52
767.14	17407.66
767.476	17672.29
767.812	17653.31
768.148	17879.74
768.485	17940.31
768.821	18032.51
769.157	18054.88
769.492	18197.47
769.828	18404.47
770.164	18371.25
770.5	18422.78
770.836	18637.01
771.171	18583.23
771.507	18771.02
771.842	18632.94
772.178	18822.77
772.513	18790.45
772.849	18869.32
773.184	18994.74
773.519	19055.76
773.855	19063.67
774.19	19189.09
774.525	19042.87
774.86	19279.93
775.195	19221.85
775.53	19273.83
775.865	19204.45
776.2	19263.21
776.535	19235.86
776.87	19307.95
777.205	19386.59
777.539	19308.4
777.874	19450.1
778.209	19319.03
778.543	19342.75
778.878	19286.48
779.212	19391.57
779.547	19378.91
779.881	19480.6
780.215	19382.08
780.55	19538.68
780.884	19400.15
781.218	19380.72
781.552	19423.2
781.886	19402.64
782.22	19362.87
782.554	19432.02
782.888	19279.93
783.222	19316.54
783.556	19335.3
783.889	19244.68
784.223	19144.34
784.557	19138.01
784.89	19240.38
785.224	19093.95
785.557	18970.56
785.891	19076.09
786.224	19031.35
786.558	19044.68
786.891	18952.71
787.224	18906.38
787.557	18773.28
787.891	18925.36
788.224	18931.47
788.557	18775.54
788.89	18941.18
789.223	18882.88
789.556	18716.56
789.888	18739.61
790.221	18591.36
790.554	18596.79
790.887	18643.56
791.219	18544.58
791.552	18528.31
791.884	18454.42
792.217	18416
792.549	18388.43
792.882	18192.73
793.214	18225.72
793.546	18283.12
793.879	18117.48
794.211	17993.64
794.543	18161.09
794.875	18176.01
795.207	18153.41
795.539	18051.71
795.871	18072.28
796.203	17841.78
796.535	17830.7
796.867	17899.4
797.198	17763.59
797.53	17783.93
797.862	17738.28
798.193	17633.19
798.525	17507.55
798.856	17688.79
799.188	17443.82
799.519	17432.52
799.85	17289.25
800.182	17303.03
800.513	17337.84
800.844	17212.64
801.175	17342.58
801.506	17267.1
801.837	17187.78
802.168	17208.35
802.499	17065.07
802.83	17009.71
803.161	16973.78
803.491	16955.7
803.822	16949.14
804.153	16853.1
804.483	16752.54
804.814	16728.81
805.145	16661.92
805.475	16710.28
805.805	16610.85
806.136	16706.21
806.466	16651.75
806.796	16584.41
807.126	16507.57
807.457	16542.6
807.787	16404.3
808.117	16455.82
808.447	16333.34
808.777	16328.82
809.107	16294.7
809.436	16277.52
809.766	16240.91
810.096	16109.39
810.426	16047.02
810.755	16256.28
811.085	16094.48
811.414	16073.69
811.744	15990.75
812.073	16023.75
812.403	15946.69
812.732	15834.37
813.061	15814.71
813.39	15811.1
813.719	15779.68
814.049	15853.81
814.378	15734.04
814.707	15728.16
815.036	15640.93
815.365	15555.96
815.693	15361.84
816.022	15488.39
816.351	15470.09
816.68	15358.9
817.008	15488.17
817.337	15310.77
817.665	15307.61
817.994	15245.23
818.322	15304.89
818.651	15287.27
818.979	15270.32
819.307	15265.35
819.636	15184.22
819.964	15079.36
820.292	15216.53
820.62	15229.42
820.948	15042.3
821.276	15130.21
821.604	14991.46
821.932	15086.14
822.259	15125.92
822.587	15103.77
822.915	15045.24
823.243	15026.71
823.57	15033.71
823.898	15084.11
824.225	15024.9
824.553	15049.31
824.88	15034.39
825.207	15140.15
825.535	14990.33
825.862	15045.92
826.189	15033.94
826.516	15110.77
826.843	15159.36
827.17	15115.75
827.497	15152.58
827.824	15167.5
828.151	15147.61
828.478	14988.52
828.805	15095.86
829.131	15092.47
829.458	15022.64
829.785	15042.98
830.111	15077.78
830.438	15107.16
830.764	15072.13
831.09	15080.27
831.417	14988.97
831.743	15055.18
832.069	15054.51
832.395	14838.92
832.722	15042.08
833.048	14949.42
833.374	15039.14
833.7	14998.24
834.026	14920.27
834.351	15029.2
834.677	14972.93
835.003	14918.46
835.329	14852.7
835.654	14876.43
835.98	14878.46
836.306	14847.96
836.631	14857.22
836.956	14828.07
837.282	14809.77
837.607	14774.29
837.932	14762.31
838.258	14723.44
838.583	14706.72
838.908	14641.18
839.233	14710.56
839.558	14646.38
839.883	14584.01
840.208	14548.53
840.533	14588.53
840.858	14553.73
841.182	14559.38
841.507	14454.75
841.832	14427.63
842.156	14397.8
842.481	14448.19
842.805	14381.3
843.13	14285.94
843.454	14285.94
843.778	14252.04
844.103	14181.99
844.427	14193.74
844.751	14197.8
845.075	14169.33
845.399	14089.56
845.723	14003.91
846.047	14052.95
846.371	13880.52
846.695	13922.56
847.019	13668.55
847.343	13786.97
847.666	13654.32
847.99	13567.99
848.313	13593.3
848.637	13530.48
848.96	13398.05
849.284	13443.93
849.607	13375.68
849.931	13343.14
850.254	13264.95
850.577	13195.57
850.9	13116.48
851.223	13059.98
851.546	13061.79
851.869	13004.39
852.192	13007.55
852.515	12843.72
852.838	12819.99
853.161	12882.13
853.483	12743.38
853.806	12670.39
854.129	12665.64
854.451	12665.42
854.774	12560.79
855.096	12552.2
855.419	12544.06
855.741	12566.44
856.063	12406.89
856.385	12440.11
856.708	12320.34
857.03	12339.32
857.352	12292.54
857.674	12322.6
857.996	12219.55
858.318	12177.07
858.64	12196.73
858.961	12103.17
859.283	12091.42
859.605	12016.62
859.926	12038.99
860.248	12030.63
860.57	11956.28
860.891	11915.15
861.212	11935.49
861.534	11840.35
861.855	11862.5
862.176	11768.72
862.498	11804.2
862.819	11805.55
863.14	11666.8
863.461	11789.96
863.782	11693.92
864.103	11680.81
864.424	11666.35
864.745	11673.8
865.065	11578.89
865.386	11569.17
865.707	11613.92
866.027	11606.23
866.348	11542.51
866.668	11490.53
866.989	11493.47
867.309	11352.23
867.63	11409.18
867.95	11473.13
868.27	11333.25
868.59	11359.46
868.91	11395.17
869.23	11284.21
869.55	11241.27
869.87	11355.17
870.19	11306.58
870.51	11289.41
870.83	11321.72
871.15	11173.93
871.469	11206.24
871.789	11326.92
872.109	11210.31
872.428	11107.04
872.748	11171.9
873.067	11212.12
873.386	11163.53
873.706	11053.71
874.025	11089.64
874.344	10986.82
874.663	11074.04
874.982	10967.83
875.301	10965.12
875.62	11028.85
875.939	11001.96
876.258	10946.82
876.577	10939.59
876.896	10899.81
877.214	10886.25
877.533	10808.97
877.852	10846.71
878.17	10860.94
878.489	10831.34
878.807	10814.39
879.125	10752.47
879.444	10752.92
879.762	10774.39
880.08	10778.46
880.398	10687.61
880.716	10735.3
881.034	10663.21
881.352	10690.78
881.67	10635.64
881.988	10664.34
882.306	10554.28
882.624	10585.02
882.941	10508.86
883.259	10468.19
883.577	10420.28
883.894	10420.5
884.212	10477
884.529	10487.39
884.846	10406.27
885.164	10350.45
885.481	10352.48
885.798	10306.38
886.115	10242.88
886.432	10293.27
886.75	10261.18
887.067	10259.38
887.383	10203.33
887.7	10255.31
888.017	10148.42
888.334	10133.5
888.651	10139.61
888.967	10055.09
889.284	10052.15
889.6	9987.52
889.917	9973.96
890.233	9961.98
890.55	9854.87
890.866	9872.04
891.182	9876.56
891.498	9788.43
891.815	9809.67
892.131	9833.85
892.447	9780.29
892.763	9752.5
893.079	9631.82
893.395	9634.08
893.71	9617.36
894.026	9556.12
894.342	9587.98
894.657	9450.13
894.973	9479.28
895.289	9453.52
895.604	9479.51
895.92	9387.08
896.235	9337.59
896.55	9314.32
896.865	9282.68
897.181	9288.56
897.496	9242.91
897.811	9234.77
898.126	9143.7
898.441	9108.9
898.756	9133.31
899.071	9075.68
899.386	9054.21
899.7	8984.83
900.015	8906.87
900.33	8898.96
900.644	8878.85
900.959	8917.94
901.273	8887.89
901.588	8832.75
901.902	8785.29
902.216	8755.69
902.531	8749.59
902.845	8741
903.159	8674.33
903.473	8592.08
903.787	8656.93
904.101	8497.62
904.415	8521.8
904.729	8499.2
905.042	8487.22
905.356	8439.76
905.67	8462.36
905.984	8475.92
906.297	8370.84
906.611	8311.86
906.924	8340.33
907.237	8264.85
907.551	8222.37
907.864	8177.62
908.177	8121.13
908.491	8079.77
908.804	8052.88
909.117	8008.14
909.43	8022.83
909.743	7976.27
910.056	7905.77
910.368	7964.3
910.681	7900.8
910.994	7846.11
911.307	7787.13
911.619	7776.05
911.932	7804.53
912.244	7731.99
912.557	7674.13
912.869	7611.99
913.181	7573.35
913.494	7635.94
913.806	7520.24
914.118	7449.06
914.43	7423.52
914.742	7442.95
915.054	7416.29
915.366	7413.35
915.678	7372.9
915.99	7359.79
916.302	7320.02
916.613	7269.17
916.925	7224.88
917.236	7247.03
917.548	7210.64
917.859	7209.29
918.171	7125.67
918.482	7099.91
918.794	7138.33
919.105	7087.71
919.416	6989.86
919.727	7002.29
920.038	6994.15
920.349	6937.88
920.66	6887.04
920.971	6881.16
921.282	6880.71
921.593	6781.73
921.903	6741.28
922.214	6718.68
922.525	6735.63
922.835	6713.93
923.146	6658.12
923.456	6688.85
923.767	6600.26
924.077	6601.17
924.387	6570.89
924.697	6489.08
925.008	6536.54
925.318	6492.02
925.628	6489.76
925.938	6403.89
926.248	6447.5
926.558	6339.71
926.867	6324.79
927.177	6359.14
927.487	6328.86
927.796	6261.97
928.106	6242.76
928.416	6218.58
928.725	6226.94
929.034	6141.52
929.344	6174.74
929.653	6125.25
929.962	6078.47
930.271	6064.69
930.581	6097.68
930.89	6017.91
931.199	5943.78
931.508	5911.69
931.817	5969.55
932.125	5913.28
932.434	5937.68
932.743	5908.76
933.051	5882.54
933.36	5887.29
933.669	5766.16
933.977	5766.39
934.286	5730.46
934.594	5781.98
934.902	5727.52
935.21	5684.81
935.519	5673.73
935.827	5636.45
936.135	5575.88
936.443	5555.55
936.751	5520.97
937.059	5584.25
937.367	5538.37
937.674	5539.73
937.982	5501.54
938.29	5482.55
938.597	5435.78
938.905	5354.65
939.213	5321.65
939.52	5342.44
939.827	5325.5
940.135	5283.24
940.442	5253.41
940.749	5279.4
941.056	5237.36
941.363	5223.35
941.67	5199.4
941.977	5153.3
942.284	5075.78
942.591	5171.15
942.898	5121.66
943.205	5073.52
943.511	5067.65
943.818	5097.48
944.125	5029.46
944.431	5028.33
944.738	4993.3
945.044	4942.45
945.35	4990.14
945.657	4884.83
945.963	4878.5
946.269	4851.61
946.575	4870.14
946.881	4826.98
947.187	4800.31
947.493	4760.99
947.799	4775.68
948.105	4778.84
948.41	4718.51
948.716	4757.83
949.022	4648.68
949.327	4705.62
949.633	4608.68
949.938	4643.03
950.244	4643.03
950.549	4615.68
950.854	4600.77
951.16	4539.53
951.465	4531.62
951.77	4535.23
952.075	4466.54
952.38	4470.38
952.685	4447.1
952.99	4412.75
953.294	4422.24
953.599	4418.4
953.904	4375.24
954.209	4357.61
954.513	4352.19
954.818	4318.29
955.122	4338.4
955.426	4272.19
955.731	4278.29
956.035	4253.66
956.339	4226.77
956.643	4222.02
956.948	4174.57
957.252	4162.81
957.556	4159.2
957.86	4138.18
958.163	4107.45
958.467	4097.51
958.771	4113.55
959.075	4053.89
959.378	4037.85
959.682	4064.51
959.985	4041.69
960.289	3998.75
960.592	3974.57
960.896	3941.13
961.199	3914.69
961.502	3928.02
961.805	3891.18
962.108	3914.91
962.411	3882.6
962.714	3870.39
963.017	3829.26
963.32	3856.83
963.623	3782.94
963.926	3822.03
964.228	3770.73
964.531	3729.83
964.833	3759.66
965.136	3714.01
965.438	3748.36
965.741	3719.44
966.043	3651.87
966.345	3640.34
966.648	3625.2
966.95	3602.83
967.252	3605.77
967.554	3552.21
967.856	3583.17
968.158	3548.37
968.46	3629.95
968.761	3555.37
969.063	3532.77
969.365	3516.73
969.666	3506.11
969.968	3481.48
970.269	3461.36
970.571	3445.77
970.872	3418.88
971.174	3401.25
971.475	3396.96
971.776	3389.95
972.077	3382.5
972.378	3371.2
972.679	3357.41
972.98	3340.91
973.281	3320.35
973.582	3282.84
973.883	3297.75
974.183	3332.1
974.484	3281.93
974.785	3241.93
975.085	3266.79
975.386	3228.6
975.686	3245.78
975.986	3201.94
976.287	3179.11
976.587	3165.78
976.887	3114.71
977.187	3162.61
977.487	3141.37
977.787	3108.15
978.087	3084.65
978.387	3048.95
978.687	3066.35
978.987	3061.15
979.286	3022.28
979.586	3054.82
979.885	2982.28
980.185	3019.57
980.484	2928.95
980.784	2936.86
981.083	2969.4
981.382	2959.68
981.682	2911.32
981.981	2932.34
982.28	2886.46
982.579	2869.74
982.878	2840.82
983.177	2878.55
983.475	2854.15
983.774	2822.28
984.073	2774.6
984.372	2818.22
984.67	2797.88
984.969	2783.42
985.267	2799.23
985.566	2760.14
985.864	2744.77
986.162	2738.67
986.461	2695.73
986.759	2700.03
987.057	2678.11
987.355	2696.64
987.653	2691.89
987.951	2646.7
988.249	2633.81
988.547	2642.63
988.844	2607.37
989.142	2588.39
989.44	2570.99
989.737	2582.74
990.035	2562.86
990.332	2596.08
990.63	2545.91
990.927	2526.25
991.224	2561.73
991.521	2566.92
991.819	2531.44
992.116	2475.63
992.413	2497.32
992.71	2450.09
993.006	2445.8
993.303	2461.39
993.6	2423.42
993.897	2450.99
994.193	2422.07
994.49	2419.58
994.787	2354.27
995.083	2372.8
995.379	2361.51
995.676	2360.38
995.972	2341.39
996.268	2327.38
996.565	2310.21
996.861	2286.25
997.157	2270.89
997.453	2278.8
997.749	2281.96
998.044	2278.12
998.34	2243.32
998.636	2223.43
998.932	2206.93
999.227	2206.48
999.523	2192.92
999.818	2212.13
1000.114	2152.7
1000.409	2216.65
1000.704	2137.33
1001	2143.43
1001.295	2152.7
1001.59	2144.56
1001.885	2112.7
1002.18	2095.98
1002.475	2081.51
1002.77	2051.68
1003.065	2073.15
1003.359	2093.49
1003.654	2044.68
1003.949	2022.31
1004.243	2028.18
1004.538	2017.56
1004.832	2001.97
1005.127	1997.45
1005.421	2011.46
1005.715	1959.03
1006.009	1956.32
1006.304	1993.38
1006.598	1950.22
1006.892	1919.26
1007.186	1877.68
1007.48	1948.18
1007.773	1883.1
1008.067	1867.96
1008.361	1854.4
1008.655	1875.42
1008.948	1824.34
1009.242	1850.78
1009.535	1851.46
1009.829	1810.79
1010.122	1827.51
1010.415	1780.05
1010.708	1789.09
1011.001	1774.85
1011.295	1776.21
1011.588	1770.33
1011.881	1706.38
1012.173	1750.45
1012.466	1731.47
1012.759	1736.44
1013.052	1708.19
1013.344	1718.81
1013.637	1692.14
1013.93	1672.48
1014.222	1633.84
1014.514	1666.16
1014.807	1652.6
1015.099	1641.52
1015.391	1619.6
1015.683	1596.78
1015.976	1601.75
1016.268	1604.46
1016.56	1598.36
1016.851	1565.14
1017.143	1574.63
1017.435	1551.81
1017.727	1537.35
1018.018	1502.55
1018.31	1547.74
1018.602	1500.51
1018.893	1519.49
1019.185	1493.96
1019.476	1512.04
1019.767	1473.39
1020.058	1470.23
1020.35	1477.46
1020.641	1447.18
1020.932	1431.59
1021.223	1434.52
1021.514	1420.97
1021.804	1409.21
1022.095	1384.58
1022.386	1399.72
1022.677	1385.94
1022.967	1384.13
1023.258	1376.67
1023.548	1376.67
1023.839	1385.26
1024.129	1354.75
1024.419	1340.29
1024.709	1345.49
1025	1310.01
1025.29	1313.17
1025.58	1287.18
1025.87	1281.53
1026.16	1242.44
1026.449	1263
1026.739	1277.01
1027.029	1234.76
1027.319	1254.42
1027.608	1242.44
1027.898	1219.39
1028.187	1209.22
1028.477	1214.64
1028.766	1198.15
1029.055	1204.7
1029.344	1164.25
1029.634	1179.62
1029.923	1171.71
1030.212	1167.64
1030.501	1166.73
1030.79	1152.72
1031.078	1157.92
1031.367	1144.81
1031.656	1122.22
1031.945	1145.72
1032.233	1126.74
1032.522	1098.94
1032.81	1088.54
1033.099	1079.28
1033.387	1067.53
1033.675	1076.12
1033.963	1086.28
1034.251	1095.1
1034.54	1067.98
1034.828	1039.73
1035.116	1045.83
1035.403	1050.81
1035.691	1028.43
1035.979	1025.04
1036.267	1039.51
1036.554	1007.64
1036.842	1014.42
1037.129	1013.29
1037.417	986.4
1037.704	985.5
1037.992	975.1
1038.279	973.97
1038.566	980.3
1038.853	980.3
1039.14	980.3
