Data from hue_60_FLMS001491_18.txt Node
Date: Mon Feb 06 15:12:01 GMT 2017
User: dcchb
Spectrometer: FLMS00149
Trigger mode: 0
Integration Time (sec): 2.000000E-2
Scans to average: 10
Electric dark correction enabled: true
Nonlinearity correction enabled: false
Boxcar width: 0
XAxis mode: Wavelengths
Number of Pixels in Spectrum: 2048
>>>>>Begin Spectral Data<<<<<
341.393	-14.04
341.776	-14.04
342.16	-14.04
342.543	-56.52
342.927	-58.33
343.31	-77.09
343.693	-66.24
344.077	-72.34
344.46	-50.65
344.843	-54.49
345.226	-38.9
345.61	-28.95
345.993	-20.82
346.376	-0.71
346.759	-0.93
347.142	21.21
347.525	49.46
347.908	63.47
348.291	86.75
348.674	76.81
349.057	113.42
349.44	121.1
349.823	153.87
350.206	150.02
350.588	192.06
350.971	204.71
351.354	223.69
351.737	240.19
352.119	225.28
352.502	256.24
352.884	270.47
353.267	267.08
353.65	311.38
354.032	304.6
354.414	301.66
354.797	315.22
355.179	300.98
355.562	307.76
355.944	340.3
356.326	317.93
356.709	337.59
357.091	350.02
357.473	339.62
357.855	357.48
358.238	338.27
358.62	334.43
359.002	341.66
359.384	339.17
359.766	336.69
360.148	352.73
360.53	324.26
360.912	334.88
361.294	336.23
361.676	324.26
362.057	327.19
362.439	338.27
362.821	322.45
363.203	340.53
363.584	333.52
363.966	331.49
364.348	328.32
364.729	340.98
365.111	299.62
365.493	322
365.874	324.48
366.256	311.83
366.637	338.49
367.019	300.3
367.4	328.1
367.781	329.91
368.163	334.43
368.544	311.6
368.925	323.13
369.306	322.68
369.688	329.68
370.069	335.78
370.45	324.48
370.831	317.03
371.212	316.35
371.593	322.9
371.974	317.48
372.355	328.1
372.736	325.39
373.117	321.09
373.498	336.01
373.879	314.09
374.26	329.68
374.641	296.01
375.021	328.78
375.402	322
375.783	319.51
376.163	319.96
376.544	325.61
376.925	341.43
377.305	343.01
377.686	327.19
378.066	330.81
378.447	353.41
378.827	328.1
379.208	347.99
379.588	317.7
379.968	331.49
380.349	347.53
380.729	346.18
381.109	350.47
381.489	339.85
381.87	330.13
382.25	320.42
382.63	347.99
383.01	340.98
383.39	351.37
383.77	324.48
384.15	333.52
384.53	344.14
384.91	356.57
385.29	347.31
385.67	352.96
386.049	337.82
386.429	371.26
386.809	371.94
387.189	360.19
387.568	362.45
387.948	367.87
388.328	354.09
388.707	377.36
389.087	361.54
389.466	338.95
389.846	394.99
390.225	355.89
390.605	335.1
390.984	371.49
391.363	357.48
391.743	365.39
392.122	364.71
392.501	371.26
392.881	379.17
393.26	370.58
393.639	374.88
394.018	345.05
394.397	396.12
394.776	388.66
395.155	402.22
395.534	359.96
395.913	377.59
396.292	385.95
396.671	367.65
397.05	383.24
397.429	380.98
397.808	361.32
398.186	366.97
398.565	376.23
398.944	359.96
399.323	384.59
399.701	388.89
400.08	377.81
400.458	413.52
400.837	379.4
401.215	399.28
401.594	392.28
401.972	392.28
402.351	402.45
402.729	399.28
403.107	404.71
403.486	427.76
403.864	394.99
404.242	399.74
404.62	407.19
404.999	407.64
405.377	424.14
405.755	432.5
406.133	416.23
406.511	418.49
406.889	419.17
407.267	417.59
407.645	431.6
408.023	413.07
408.401	430.92
408.779	418.94
409.156	411.26
409.534	421.43
409.912	416.68
410.29	437.7
410.667	437.02
411.045	464.82
411.422	456.68
411.8	417.14
412.178	431.82
412.555	446.06
412.933	450.81
413.31	464.14
413.687	472.73
414.065	463.24
414.442	467.76
414.819	483.8
415.197	474.31
415.574	476.8
415.951	465.5
416.328	489.22
416.705	477.93
417.082	478.6
417.46	495.78
417.837	488.55
418.214	493.52
418.591	496.46
418.967	472.5
419.344	506.85
419.721	499.85
420.098	507.53
420.475	509.79
420.852	515.44
421.228	542.56
421.605	523.12
421.982	515.21
422.358	523.12
422.735	529.68
423.111	517.25
423.488	542.56
423.864	542.33
424.241	510.47
424.617	547.75
424.994	535.32
425.37	522.9
425.746	511.82
426.123	522.22
426.499	533.29
426.875	557.92
427.251	556.57
427.627	570.58
428.003	564.7
428.379	573.29
428.756	579.17
429.132	594.98
429.507	586.4
429.883	582.78
430.259	601.31
430.635	599.28
431.011	597.24
431.387	589.56
431.763	616.45
432.138	620.52
432.514	595.21
432.89	612.61
433.265	620.75
433.641	616.68
434.016	636.11
434.392	639.95
434.767	656.68
435.143	639.5
435.518	659.84
435.894	665.49
436.269	647.64
436.644	679.73
437.02	675.21
437.395	664.81
437.77	679.73
438.145	672.04
438.52	712.27
438.895	688.09
439.271	691.93
439.646	714.98
440.021	696.9
440.395	701.65
440.77	698.48
441.145	720.18
441.52	709.33
441.895	715.21
442.27	707.75
442.645	726.96
443.019	750.46
443.394	740.07
443.769	753.4
444.143	721.08
444.518	776.9
444.892	757.47
445.267	774.41
445.641	762.44
446.016	765.15
446.39	781.42
446.764	776
447.139	794.75
447.513	769.22
447.887	757.47
448.262	801.08
448.636	790.23
449.01	813.28
449.384	792.95
449.758	786.84
450.132	796.79
450.506	807.86
450.88	815.77
451.254	826.62
451.628	838.14
452.002	836.33
452.376	852.38
452.75	842.66
453.123	852.83
453.497	858.71
453.871	883.56
454.244	882.66
454.618	885.6
454.992	898.93
455.365	896.9
455.739	897.12
456.112	925.6
456.486	926.95
456.859	966.05
457.232	943
457.606	966.27
457.979	933.96
458.352	943.45
458.725	1029.1
459.099	979.38
459.472	1022.32
459.845	1012.83
460.218	1046.05
460.591	1036.78
460.964	1026.39
461.337	1066.84
461.71	1066.16
462.083	1082.2
462.456	1069.32
462.829	1124.24
463.201	1124.91
463.574	1128.3
463.947	1147.29
464.32	1165.59
464.692	1190.22
465.065	1182.99
465.438	1201.97
465.81	1240.17
466.183	1226.61
466.555	1268.64
466.928	1282.65
467.3	1273.84
467.672	1301.41
468.045	1339.6
468.417	1337.56
468.789	1375.3
469.161	1387.96
469.534	1412.82
469.906	1442.19
470.278	1458.69
470.65	1482.19
471.022	1507.5
471.394	1555.41
471.766	1546.82
472.138	1584.56
472.51	1630.21
472.882	1689.42
473.253	1675.41
473.625	1716.31
473.997	1778.23
474.369	1796.76
474.74	1855.52
475.112	1881.96
475.484	1949.07
475.855	1996.98
476.227	1996.76
476.598	2089.41
476.97	2124.89
477.341	2182.06
477.713	2211.67
478.084	2262.51
478.455	2342.74
478.827	2444.43
479.198	2476.52
479.569	2544.09
479.94	2609.62
480.311	2686.23
480.682	2780.24
481.053	2892.78
481.424	2945.88
481.795	3003.51
482.166	3098.87
482.537	3152.21
482.908	3296.61
483.279	3401.24
483.65	3482.82
484.021	3639.2
484.391	3705.19
484.762	3767.78
485.133	3874.67
485.503	3953.77
485.874	4139.75
486.244	4195.79
486.615	4387.43
486.985	4474.88
487.356	4604.82
487.726	4731.82
488.097	4843.46
488.467	4958.03
488.837	5080.74
489.207	5294.52
489.578	5414.74
489.948	5560.5
490.318	5722.31
490.688	5746.04
491.058	5959.36
491.428	6139.47
491.798	6268.06
492.168	6509.63
492.538	6585.34
492.908	6757.99
493.278	6861.71
493.648	7037.07
494.017	7157.3
494.387	7354.58
494.757	7484.75
495.126	7642.93
495.496	7723.16
495.866	7849.71
496.235	8080.44
496.605	8219.19
496.974	8403.37
497.344	8555.68
497.713	8633.19
498.082	8809.46
498.452	8992.5
498.821	9109.79
499.19	9324.25
499.559	9359.27
499.928	9602.88
500.298	9726.04
500.667	9926.26
501.036	9879.03
501.405	10212.58
501.774	10315.86
502.143	10429.75
502.512	10495.74
502.88	10690.09
503.249	10763.76
503.618	11009.17
503.987	11062.51
504.356	11259.79
504.724	11403.74
505.093	11431.08
505.462	11655.48
505.83	11787.68
506.199	11935.7
506.567	12112.42
506.936	12198.3
507.304	12441.68
507.672	12442.36
508.041	12658.62
508.409	12736.36
508.777	12959.86
509.145	13075.33
509.514	13206.63
509.882	13254.76
510.25	13482.78
510.618	13567.75
510.986	13576.56
511.354	13813.85
511.722	14034.4
512.09	14206.15
512.458	14165.25
512.826	14370.22
513.193	14515.07
513.561	14602.3
513.929	14782.18
514.297	14871.22
514.664	14999.35
515.032	15073.25
515.4	15331.77
515.767	15396.18
516.135	15516.17
516.502	15457.64
516.869	15815.15
517.237	15891.08
517.604	15972.66
517.972	16221.69
518.339	16338.3
518.706	16307.34
519.073	16490.39
519.44	16596.82
519.808	16714.79
520.175	16813.99
520.542	17097.15
520.909	17214.43
521.276	17250.37
521.643	17517.7
522.009	17601.54
522.376	17752.73
522.743	17838.82
523.11	18066.39
523.477	18265.25
523.843	18380.96
524.21	18558.58
524.577	18698.01
524.943	18818.91
525.31	18888.29
525.676	19202.86
526.043	19251.67
526.409	19481.72
526.776	19597.42
527.142	19674.26
527.508	19787.02
527.874	19970.29
528.241	19988.15
528.607	20243.06
528.973	20390.62
529.339	20342.71
529.705	20529.38
530.071	20720.1
530.437	20747.22
530.803	20984.5
531.169	21111.06
531.535	21123.48
531.901	21313.54
532.267	21355.79
532.632	21498.39
532.998	21619.29
533.364	21709.01
533.73	21779.74
534.095	21916.91
534.461	22031.48
534.826	22157.13
535.192	22280.97
535.557	22403.22
535.923	22379.5
536.288	22479.61
536.653	22577.46
537.019	22616.33
537.384	22685.25
537.749	22903.55
538.114	22891.12
538.479	23071.46
538.845	23089.08
539.21	23035.3
539.575	23114.62
539.94	23301.05
540.305	23365.91
540.67	23327.04
541.034	23544.89
541.399	23577.43
541.764	23675.06
542.129	23812.9
542.494	23890.64
542.858	23982.17
543.223	23907.37
543.587	24131.99
543.952	24063.52
544.316	24253.57
544.681	24187.58
545.045	24312.1
545.41	24505.99
545.774	24507.12
546.138	24635.26
546.503	24567.69
546.867	24721.36
547.231	24874.8
547.595	24964.06
547.959	25000.44
548.324	24913.44
548.688	25199.76
549.052	25196.82
549.416	25228.69
549.779	25256.26
550.143	25385.07
550.507	25503.48
550.871	25697.15
551.235	25546.87
551.599	25888.1
551.962	25893.08
552.326	25915.67
552.689	26171.04
553.053	26000.64
553.417	26058.72
553.78	26486.05
554.143	26321.09
554.507	26461.87
554.87	26532.61
555.234	26828.64
555.597	26697.12
555.96	26871.81
556.323	26967.17
556.686	27009.66
557.05	27301.63
557.413	27265.47
557.776	27446.48
558.139	27431.79
558.502	27708.17
558.865	27605.35
559.228	27876.3
559.59	27973.02
559.953	28037.43
560.316	28329.17
560.679	28434.48
561.041	28432.22
561.404	28592.44
561.767	28819.1
562.129	28648.26
562.492	28914.47
562.854	29002.15
563.217	29031.07
563.579	29336.38
563.941	29391.97
564.304	29417.73
564.666	29723.71
565.028	29723.94
565.39	29902.46
565.753	29976.81
566.115	30113.08
566.477	30348.33
566.839	30291.38
567.201	30572.05
567.563	30479.17
567.925	30824.47
568.287	30752.16
568.648	30781.54
569.01	30909.22
569.372	31306.95
569.734	31140.85
570.095	31483.89
570.457	31540.61
570.819	31561.63
571.18	31564.34
571.542	31844.33
571.903	31856.08
572.265	31964.56
572.626	32034.38
572.987	32169.75
573.349	32167.94
573.71	32336.3
574.071	32491.32
574.432	32599.11
574.794	32814.93
575.155	32572
575.516	32677.76
575.877	32772.22
576.238	32838.2
576.599	32926.11
576.96	32977.41
577.32	32990.52
577.681	33125.88
578.042	33301.02
578.403	33289.49
578.763	33392.54
579.124	33296.27
579.485	33534.91
579.845	33591.18
580.206	33583.04
580.566	33525.19
580.927	33613.1
581.287	33750.95
581.648	33633.44
582.008	33819.42
582.368	33745.07
582.728	33908.23
583.089	33654.91
583.449	33760.44
583.809	33996.14
584.169	34056.93
584.529	34000.21
584.889	34028.46
585.249	33973.77
585.609	33888.35
585.969	34088.57
586.329	34015.57
586.688	34041.11
587.048	34004.28
587.408	34072.75
587.768	33978.51
588.127	34006.54
588.487	34044.95
588.846	34209.47
589.206	34176.02
589.565	34182.8
589.925	34298.05
590.284	34131.96
590.643	34176.25
591.003	34400.88
591.362	34349.8
591.721	34275.45
592.08	34332.85
592.44	34465.73
592.799	34356.81
593.158	34352.06
593.517	34423.7
593.876	34538.72
594.235	34349.58
594.593	34371.05
594.952	34500.99
595.311	34446.75
595.67	34402.91
596.029	34688.78
596.387	34745.95
596.746	34816.23
597.104	34776.91
597.463	34733.52
597.822	34843.35
598.18	34707.53
598.538	34870.24
598.897	34822.78
599.255	34622.79
599.613	35334.41
599.972	34863.91
600.33	35008.09
600.688	34954.98
601.046	35162.21
601.404	35316.11
601.762	35133.74
602.12	35386.39
602.478	35238.14
602.836	35269.78
603.194	35218.48
603.552	35338.48
603.91	35259.84
604.268	35392.49
604.625	35319.95
604.983	35524.01
605.341	35323.56
605.698	35580.96
606.056	35659.37
606.413	35640.84
606.771	35749.31
607.128	35704.12
607.485	35714.74
607.843	35746.83
608.2	36030.44
608.557	35940.04
608.914	36119.7
609.272	36180.94
609.629	36225.23
609.986	36345.68
610.343	36293.48
610.7	36441.05
611.057	36459.8
611.414	36461.39
611.771	36582.96
612.127	36569.86
612.484	36721.72
612.841	36798.78
613.198	36713.81
613.554	36788.38
613.911	36981.37
614.267	37027.25
614.624	36941.6
614.98	37074.7
615.337	37242.16
615.693	37205.55
616.05	37220.69
616.406	37426.56
616.762	37232.44
617.118	37265.88
617.475	37364.41
617.831	37443.51
618.187	37481.02
618.543	37444.18
618.899	37589.27
619.255	37789.03
619.611	37668.59
619.967	37836.94
620.323	37822.71
620.678	37766.89
621.034	37623.16
621.39	37740.67
621.746	37655.48
622.101	38213.43
622.457	37879.65
622.812	37919.65
623.168	38056.6
623.523	38135.92
623.879	38198.29
624.234	37963.27
624.589	38250.94
624.945	38235.35
625.3	38310.15
625.655	38243.94
626.01	38281.9
626.365	38338.17
626.72	38363.03
627.075	38208.01
627.43	38255.92
627.785	38228.57
628.14	38396.48
628.495	38419.07
628.85	38305.86
629.205	38316.48
629.559	38503.14
629.914	38294.11
630.269	38292.52
630.623	38325.07
630.978	38223.6
631.332	38300.43
631.687	38447.55
632.041	38141.57
632.396	38281.68
632.75	38293.2
633.104	38266.31
633.459	38202.58
633.813	38103.83
634.167	38166.2
634.521	38159.19
634.875	38217.5
635.229	38214.56
635.583	38036.26
635.937	38119.65
636.291	38010.72
636.645	38049.14
636.999	37829.94
637.352	38072.19
637.706	37794.68
638.06	37786.1
638.413	37886.89
638.767	37768.47
639.121	37935.02
639.474	37731.41
639.828	37714.91
640.181	37883.95
640.534	37836.94
640.888	37669.04
641.241	37656.83
641.594	37686.66
641.947	37685.53
642.301	37735.02
642.654	37727.12
643.007	37514.01
643.36	37620.23
643.713	37367.8
644.066	37547.01
644.419	37395.82
644.771	37090.52
645.124	36789.51
645.477	36796.29
645.83	36540.93
646.182	36435.17
646.535	36311.33
646.888	36409.18
647.24	36209.64
647.593	36505.45
647.945	36250.77
648.298	36160.15
648.65	36189.53
649.002	36011.45
649.355	36237.89
649.707	36100.04
650.059	36296.87
650.411	36735.05
650.763	36701.61
651.115	37126.23
651.467	37063.4
651.819	36999.68
652.171	36942.96
652.523	36810.53
652.875	36821.15
653.227	36702.51
653.578	36847.36
653.93	36804.43
654.282	36591.1
654.633	36430.43
654.985	36594.26
655.337	36738.67
655.688	36755.39
656.039	36784.77
656.391	36482.18
656.742	36533.02
657.094	36639.46
657.445	36748.84
657.796	36436.75
658.147	36530.54
658.498	36414.38
658.849	36642.17
659.2	36623.87
659.551	36369.86
659.902	36551.1
660.253	36481.95
660.604	36486.24
660.955	36311.33
661.306	36521.72
661.656	36282.41
662.007	36520.37
662.358	36456.64
662.708	36376.42
663.059	36406.47
663.409	36225.46
663.76	36404.21
664.11	36349.98
664.461	36333.93
664.811	36287.15
665.161	36363.31
665.511	36344.33
665.862	36319.47
666.212	36292.35
666.562	36518.56
666.912	36334.16
667.262	36255.97
667.612	36248.74
667.962	36218.68
668.312	36148.85
668.662	36392.46
669.011	36295.97
669.361	36114.73
669.711	36302.97
670.06	36118.8
670.41	36069.53
670.76	36070.44
671.109	36249.19
671.459	36268.17
671.808	36112.47
672.157	36188.4
672.507	35921.29
672.856	35954.51
673.205	36004
673.554	36106.37
673.904	35985.47
674.253	36182.3
674.602	36147.95
674.951	35600.62
675.3	35420.06
675.649	35825.7
675.998	35757.68
676.346	35864.79
676.695	35952.47
677.044	35647.62
677.393	35790.67
677.741	35859.82
678.09	35801.52
678.438	35707.73
678.787	35811.23
679.135	35672.03
679.484	35478.36
679.832	35645.81
680.181	35440.62
680.529	35666.15
680.877	35402.43
681.225	35336.22
681.573	35502.99
681.922	35333.05
682.27	35243.79
682.618	35307.29
682.966	35155.88
683.314	35328.31
683.661	35046.06
684.009	34847.87
684.357	34885.61
684.705	34825.04
685.053	34931.93
685.4	34919.73
685.748	34764.03
686.095	34724.26
686.443	34541.21
686.79	34595.9
687.138	34633.41
687.485	34556.8
687.832	34589.8
688.18	34463.92
688.527	34336.92
688.874	34269.35
689.221	34151.39
689.568	34205.85
689.915	33957.27
690.262	34143.71
690.609	33920.44
690.956	33765.86
691.303	33767.22
691.65	33583.04
691.997	33548.69
692.344	33487.9
692.69	33414.69
693.037	33406.78
693.383	33062.15
693.73	33299.21
694.077	33048.37
694.423	33151.64
694.769	32966.79
695.116	32833.23
695.462	32887.02
695.808	32767.47
696.155	32801.14
696.501	32644.99
696.847	32554.37
697.193	32399.57
697.539	32571.54
697.885	32368.39
698.231	32205.9
698.577	32140.82
698.923	32035.29
699.269	31921.17
699.614	31821.73
699.96	31978.79
700.306	31778.35
700.651	31539.48
700.997	31591.01
701.342	31649.99
701.688	31454.06
702.033	31334.29
702.379	31493.15
702.724	31343.78
703.069	31393.72
703.415	31005.71
703.76	31007.52
704.105	31014.52
704.45	30828.77
704.795	30744.25
705.14	30677.36
705.485	30572.5
705.83	30620.41
706.175	30596.68
706.52	30495.44
706.865	30434.43
707.209	30183.58
707.554	30186.3
707.899	30224.26
708.243	30083.93
708.588	29971.16
708.932	29819.3
709.277	29761.45
709.621	29827.44
709.966	29686.42
710.31	29647.1
710.654	29477.84
710.998	29460.21
711.342	29598.74
711.687	29404.4
712.031	29362.14
712.375	29327.79
712.719	29279.65
713.063	29084.4
713.407	29226.32
713.75	29156.49
714.094	29015.03
714.438	28894.35
714.782	28958.76
715.125	28829.5
715.469	28855.71
715.812	28704.53
716.156	28584.53
716.499	28705.66
716.843	28616.85
717.186	28506.34
717.53	28587.24
717.873	28671.76
718.216	28492.1
718.559	28464.53
718.902	28258.66
719.246	28390.41
719.589	28225.22
719.932	28099.35
720.275	28077.88
720.617	27915.85
720.96	28027.48
721.303	27952.46
721.646	27889.63
721.989	27716.08
722.331	27759.92
722.674	27682.63
723.016	27789.75
723.359	27614.39
723.701	27703.65
724.044	27496.2
724.386	27417.56
724.729	27562.18
725.071	27485.8
725.413	27316.54
725.755	27379.36
726.097	27205.81
726.439	27088.98
726.782	27173.04
727.124	27116.32
727.465	27028.64
727.807	27077.45
728.149	26939.15
728.491	26924.46
728.833	26933.73
729.175	26842.2
729.516	26734.18
729.858	26792.04
730.199	26700.74
730.541	26766.73
730.882	26721.53
731.224	26667.52
731.565	26536
731.906	26644.02
732.248	26590.46
732.589	26446.28
732.93	26441.08
733.271	26459.16
733.612	26392.72
733.953	26357.92
734.294	26208.77
734.635	26213.07
734.976	26255.78
735.317	26046.97
735.658	26093.75
735.999	26093.97
736.339	26079.74
736.68	26118.38
737.021	25968.55
737.361	26037.03
737.702	26069.79
738.042	25940.98
738.383	25893.98
738.723	25976.46
739.063	25741.89
739.404	25802.46
739.744	25722.01
740.084	25527.21
740.424	25665.74
740.764	25660.54
741.104	25606.3
741.444	25468.68
741.784	25378.29
742.124	25429.13
742.464	25412.18
742.804	25379.19
743.143	25254.45
743.483	25520.2
743.823	25200.44
744.162	25170.61
744.502	25290.38
744.841	25134
745.181	25157.5
745.52	25066.88
745.86	25150.27
746.199	24851.07
746.538	24917.51
746.877	25114.57
747.216	24940.78
747.556	24893.78
747.895	24836.61
748.234	24822.82
748.573	24782.14
748.911	24764.52
749.25	24579.44
749.589	24519.1
749.928	24555.71
750.267	24557.07
750.605	24518.88
750.944	24426.45
751.283	24407.24
751.621	24394.58
751.96	24365.21
752.298	24223.06
752.636	24136.74
752.975	24156.4
753.313	24054.48
753.651	24107.36
753.989	24037.98
754.327	24001.6
754.666	23857.65
755.004	23873.02
755.342	23818.55
755.679	23740.36
756.017	23644.55
756.355	23622.63
756.693	23674.6
757.031	23778.33
757.368	23469.64
757.706	23525.91
758.044	23344.67
758.381	23493.14
758.719	23336.53
759.056	23309.19
759.394	23197.78
759.731	22998.46
760.068	23057.22
760.405	22933.61
760.743	22931.8
761.08	22849.99
761.417	22758.24
761.754	22699.94
762.091	22572.26
762.428	22598.25
762.765	22500.17
763.102	22527.06
763.438	22406.39
763.775	22239.16
764.112	22278.48
764.449	22308.54
764.785	22221.99
765.122	22138.6
765.458	22064.25
765.795	21906.29
766.131	21979.05
766.467	21743.81
766.804	21719.85
767.14	21610.25
767.476	21655.67
767.812	21416.13
768.148	21653.87
768.485	21399.41
768.821	21240.09
769.157	21421.33
769.492	21265.18
769.828	21194.44
770.164	21049.36
770.5	20980.21
770.836	20932.98
771.171	20916.71
771.507	20747.45
771.842	20684.85
772.178	20558.98
772.513	20557.85
772.849	20510.39
773.184	20400.11
773.519	20434.24
773.855	20311.75
774.19	20164.64
774.525	20248.03
774.86	20102.95
775.195	20056.85
775.53	19962.16
775.865	19893.23
776.2	19650.3
776.535	19505.22
776.87	19568.72
777.205	19527.14
777.539	19545.67
777.874	19451.89
778.209	19278.33
778.543	19205.57
778.878	19231.56
779.212	19067.94
779.547	19122.86
779.881	19059.58
780.215	18862.3
780.55	18955.63
780.884	18843.09
781.218	18755.86
781.552	18664.34
781.886	18543.66
782.22	18460.05
782.554	18485.14
782.888	18288.08
783.222	18176.67
783.556	18264.12
783.889	18140.06
784.223	18140.06
784.557	17982.55
784.89	17998.37
785.224	17931.93
785.557	17828.43
785.891	17794.98
786.224	17668.89
786.558	17738.94
786.891	17563.8
787.224	17551.37
787.557	17525.84
787.891	17500.53
788.224	17407.88
788.557	17377.37
788.89	17322.23
789.223	17295.11
789.556	17091.73
789.888	17044.27
790.221	17031.16
790.554	16881.79
790.887	16900.32
791.219	16812.86
791.552	16791.39
791.884	16711.4
792.217	16638.86
792.549	16584.17
792.882	16393.21
793.214	16422.59
793.546	16422.59
793.879	16373.33
794.211	16165.65
794.543	16321.35
794.875	16140.79
795.207	16208.36
795.539	16181.92
795.871	16105.54
796.203	15973.56
796.535	15957.74
796.867	15906.9
797.198	15835.94
797.53	15783.96
797.862	15689.73
798.193	15686.56
798.525	15658.77
798.856	15604.08
799.188	15428.27
799.519	15362.28
799.85	15294.26
800.182	15322.51
800.513	15316.86
800.844	15249.97
801.175	15305.78
801.506	15301.04
801.837	15171.55
802.168	15155.96
802.499	15048.84
802.83	15017.66
803.161	14954.15
803.491	14986.02
803.822	14946.92
804.153	14865.8
804.483	14781.28
804.814	14753.71
805.145	14716.19
805.475	14656.54
805.805	14642.75
806.136	14597.33
806.466	14552.58
806.796	14651.79
807.126	14434.62
807.457	14362.98
807.787	14428.29
808.117	14378.35
808.447	14287.96
808.777	14300.61
809.107	14228.07
809.436	14183.33
809.766	14231.01
810.096	14135.42
810.426	14094.29
810.755	14050.22
811.085	13999.83
811.414	14048.19
811.744	13925.93
812.073	13887.74
812.403	13802.55
812.732	13789.44
813.061	13775.65
813.39	13713.06
813.719	13610.91
814.049	13705.37
814.378	13624.47
814.707	13634.64
815.036	13544.25
815.365	13479.62
815.693	13377.7
816.022	13427.64
816.351	13321.43
816.68	13355.78
817.008	13384.93
817.337	13156.69
817.665	13238.49
817.994	13153.52
818.322	13186.07
818.651	13104.26
818.979	13100.19
819.307	13167.99
819.636	13009.57
819.964	13047.31
820.292	13032.4
820.62	12955.56
820.948	12954.66
821.276	12978.84
821.604	12960.08
821.932	12944.94
822.259	12915.11
822.587	12958.95
822.915	12975.68
823.243	12965.05
823.57	12984.04
823.898	12863.59
824.225	12920.54
824.553	12892.06
824.88	12882.12
825.207	12900.88
825.535	12864.72
825.862	12944.26
826.189	12848.9
826.516	12943.36
826.843	12906.98
827.17	12873.31
827.497	12908.11
827.824	12911.5
828.151	12934.77
828.478	12937.26
828.805	12949.69
829.131	12808.45
829.458	12855.68
829.785	12803.02
830.111	12860.2
830.438	12872.63
830.764	12851.84
831.09	12805.51
831.417	12822.46
831.743	12899.29
832.069	12732.29
832.395	12772.29
832.722	12822.46
833.048	12753.76
833.374	12755.79
833.7	12683.93
834.026	12782.23
834.351	12779.75
834.677	12698.39
835.003	12730.03
835.329	12705.63
835.654	12636.7
835.98	12607.78
836.306	12590.15
836.631	12584.73
836.956	12616.36
837.282	12620.88
837.607	12549.47
837.932	12528.46
838.258	12528.46
838.583	12587.21
838.908	12541.11
839.233	12424.05
839.558	12442.13
839.883	12355.81
840.208	12362.81
840.533	12294.56
840.858	12374.56
841.182	12362.13
841.507	12263.15
841.832	12243.27
842.156	12217.28
842.481	12230.61
842.805	12204.17
843.13	12100.22
843.454	12212.76
843.778	12099.09
844.103	12028.58
844.427	12091.86
844.751	12024.97
845.075	11978.19
845.399	11953.33
845.723	11893.22
846.047	11834.69
846.371	11773.67
846.695	11825.2
847.019	11714.01
847.343	11717.4
847.666	11609.38
847.99	11594.92
848.313	11570.51
848.637	11477.41
848.96	11424.53
849.284	11438.54
849.607	11297.3
849.931	11313.35
850.254	11257.53
850.577	11168.72
850.9	11106.35
851.223	11099.57
851.546	11052.56
851.869	11086.23
852.192	11089.17
852.515	10953.13
852.838	10920.14
853.161	10882.17
853.483	10817.54
853.806	10815.28
854.129	10820.03
854.451	10767.37
854.774	10721.72
855.096	10718.56
855.419	10582.29
855.741	10552.46
856.063	10537.1
856.385	10486.02
856.708	10362.41
857.03	10421.84
857.352	10476.31
857.674	10435.18
857.996	10360.83
858.318	10296.42
858.64	10298.01
858.961	10203.32
859.283	10178.69
859.605	10164.68
859.926	10220.49
860.248	10145.69
860.57	10167.39
860.891	10093.72
861.212	10089.88
861.534	10084.23
861.855	10089.2
862.176	10060.05
862.498	9987.28
862.819	10018.01
863.14	9984.12
863.461	9942.31
863.782	9873.84
864.103	9932.37
864.424	9853.05
864.745	9879.03
865.065	9802.2
865.386	9798.58
865.707	9744.57
866.027	9741.86
866.348	9778.47
866.668	9819.83
866.989	9699.6
867.309	9687.85
867.63	9731.69
867.95	9699.38
868.27	9629.78
868.59	9567.63
868.91	9621.87
869.23	9620.51
869.55	9548.42
869.87	9598.59
870.19	9600.17
870.51	9557.91
870.83	9606.5
871.15	9481.08
871.469	9472.04
871.789	9487.86
872.109	9521.08
872.428	9453.96
872.748	9495.09
873.067	9418.26
873.386	9403.34
873.706	9444.92
874.025	9383.91
874.344	9332.83
874.663	9364.7
874.982	9298.03
875.301	9263.68
875.62	9321.31
875.939	9286.28
876.258	9295.77
876.577	9237.47
876.896	9212.16
877.214	9222.78
877.533	9120.64
877.852	9275.89
878.17	9146.17
878.489	9138.71
878.807	9163.8
879.125	9123.12
879.444	9146.85
879.762	9027.98
880.08	9053.52
880.398	9102.11
880.716	9066.4
881.034	9054.2
881.352	9004.48
881.67	9079.28
881.988	9019.4
882.306	8989.57
882.624	8947.08
882.941	8877.93
883.259	8905.5
883.577	8854.65
883.894	8852.17
884.212	8856.91
884.529	8837.48
884.846	8787.99
885.164	8773.75
885.481	8752.28
885.798	8739.63
886.115	8687.2
886.432	8709.8
886.75	8698.73
887.067	8616.24
887.383	8589.12
887.7	8673.64
888.017	8592.51
888.334	8629.35
888.651	8526.98
888.967	8515.91
889.284	8449.47
889.6	8442.91
889.917	8458.96
890.233	8425.51
890.55	8350.26
890.866	8388.45
891.182	8372.41
891.498	8340.09
891.815	8227.55
892.131	8270.94
892.447	8212.86
892.763	8216.25
893.079	8189.81
893.395	8179.19
893.71	8157.27
894.026	8169.25
894.342	8129.48
894.657	8036.14
894.973	8097.61
895.289	8050.83
895.604	8021.23
895.92	7973.32
896.235	7948.69
896.55	7894.45
896.865	7906.2
897.181	7884.96
897.496	7786.43
897.811	7858.3
898.126	7784.85
898.441	7755.02
898.756	7779.65
899.071	7707.11
899.386	7741.92
899.7	7652.2
900.015	7611.3
900.33	7537.17
900.644	7609.49
900.959	7587.34
901.273	7592.54
901.588	7437.97
901.902	7478.42
902.216	7418.53
902.531	7391.87
902.845	7433.45
903.159	7332.21
903.473	7377.63
903.787	7290.4
904.101	7286.11
904.415	7207.92
904.729	7219.67
905.042	7200.01
905.356	7143.96
905.67	7153.68
905.984	7099.9
906.297	7090.41
906.611	7012.22
906.924	7089.05
907.237	7075.49
907.551	6984.87
907.864	6953.46
908.177	6976.29
908.491	6936.51
908.804	6946.23
909.117	6835.05
909.43	6835.95
909.743	6794.14
910.056	6792.56
910.368	6768.38
910.681	6729.51
910.994	6739.23
911.307	6652.68
911.619	6635.5
911.932	6588.05
912.244	6600.7
912.557	6576.07
912.869	6533.36
913.181	6521.61
913.494	6459.46
913.806	6410.2
914.118	6450.88
914.43	6375.62
914.742	6349.18
915.054	6387.83
915.366	6312.12
915.678	6295.4
915.99	6279.35
916.302	6230.09
916.613	6131.56
916.925	6150.32
917.236	6123.43
917.548	6141.28
917.859	6158
918.171	6098.34
918.482	6088.4
918.794	6017.21
919.105	5998.91
919.416	5961.17
919.727	5962.75
920.038	5962.75
920.349	5880.04
920.66	5915.07
920.971	5889.76
921.282	5874.39
921.593	5797.33
921.903	5754.62
922.214	5763.21
922.525	5781.51
922.835	5709.2
923.146	5678.24
923.456	5642.99
923.767	5598.24
924.077	5647.73
924.387	5667.39
924.697	5618.81
925.008	5577.45
925.318	5521.18
925.628	5556.66
925.938	5511.69
926.248	5436.44
926.558	5445.03
926.867	5396.89
927.177	5402.54
927.487	5388.98
927.796	5366.84
928.106	5341.98
928.416	5306.72
928.725	5323.67
929.034	5250.91
929.344	5283.45
929.653	5231.25
929.962	5205.71
930.271	5205.03
930.581	5106.96
930.89	5087.97
931.199	5117.58
931.508	5095.66
931.817	5062.66
932.125	5066.28
932.434	5045.49
932.743	4997.58
933.051	4995.32
933.36	4947.64
933.669	4924.14
933.977	4901.09
934.286	4902.44
934.594	4887.75
934.902	4823.8
935.21	4827.87
935.519	4824.93
935.827	4796.91
936.135	4763.91
936.443	4735.44
936.751	4724.82
937.059	4720.07
937.367	4660.64
937.674	4699.28
937.982	4652.73
938.29	4649.79
938.597	4638.04
938.905	4589
939.213	4578.83
939.52	4536.35
939.827	4544.03
940.135	4527.08
940.442	4504.94
940.749	4471.04
941.056	4490.7
941.363	4420.42
941.67	4492.96
941.977	4379.97
942.284	4381.78
942.591	4357.15
942.898	4339.52
943.205	4347.43
943.511	4315.11
943.818	4291.38
944.125	4235.11
944.431	4284.83
944.738	4238.96
945.044	4205.06
945.35	4198.96
945.657	4165.29
945.963	4176.13
946.269	4147.21
946.575	4138.39
946.881	4121.22
947.187	4051.16
947.493	4099.52
947.799	4034.89
948.105	4040.09
948.41	4020.88
948.716	4012.52
949.022	3985.18
949.327	3922.35
949.633	3951.73
949.938	3943.82
950.244	3985.86
950.549	3912.41
950.854	3924.61
951.16	3871.96
951.465	3885.07
951.77	3807.1
952.075	3792.87
952.38	3819.08
952.685	3784.28
952.99	3797.61
953.294	3792.64
953.599	3758.74
953.904	3694.11
954.209	3670.38
954.513	3712.42
954.818	3665.19
955.122	3659.54
955.426	3677.39
955.731	3649.82
956.035	3626.54
956.339	3613.66
956.643	3595.58
956.948	3563.95
957.252	3555.13
957.556	3538.18
957.86	3525.3
958.163	3516.94
958.467	3507.68
958.771	3496.38
959.075	3451.63
959.378	3445.53
959.682	3442.82
959.985	3452.31
960.289	3378.19
960.592	3396.49
960.896	3375.02
961.199	3351.07
961.502	3366.66
961.805	3339.09
962.108	3309.94
962.411	3306.1
962.714	3251.86
963.017	3276.27
963.32	3283.95
963.623	3228.59
963.926	3236.72
964.228	3217.06
964.531	3230.4
964.833	3189.72
965.136	3187.91
965.438	3193.56
965.741	3130.96
966.043	3109.27
966.345	3133.22
966.648	3142.26
966.95	3112.66
967.252	3118.31
967.554	3057.97
967.856	3076.05
968.158	2994.24
968.46	3027.01
968.761	3021.81
969.063	3042.15
969.365	2985.66
969.666	2984.98
969.968	2978.42
970.269	2956.5
970.571	2946.56
970.872	2936.84
971.174	2888.48
971.475	2903.85
971.776	2889.16
972.077	2895.04
972.378	2848.71
972.679	2835.15
972.98	2860.24
973.281	2840.58
973.582	2813.68
973.883	2813.46
974.183	2796.96
974.484	2761.48
974.785	2743.18
975.085	2744.08
975.386	2752.89
975.686	2727.58
975.986	2737.3
976.287	2714.7
976.587	2701.37
976.887	2662.27
977.187	2657.08
977.487	2644.87
977.787	2631.99
978.087	2633.8
978.387	2626.57
978.687	2634.7
978.987	2601.94
979.286	2624.31
979.586	2562.16
979.885	2541.37
980.185	2589.06
980.484	2518.55
980.784	2515.84
981.083	2560.13
981.382	2524.43
981.682	2529.62
981.981	2511.09
982.28	2501.37
982.579	2453.24
982.878	2484.65
983.177	2474.48
983.475	2450.08
983.774	2432.68
984.073	2395.84
984.372	2411.21
984.67	2425.9
984.969	2402.85
985.267	2380.93
985.566	2356.75
985.864	2366.92
986.162	2336.41
986.461	2326.24
986.759	2319.01
987.057	2303.87
987.355	2322.4
987.653	2302.74
987.951	2286.92
988.249	2306.58
988.547	2279.91
988.844	2268.84
989.142	2215.51
989.44	2262.74
989.737	2263.19
990.035	2203.3
990.332	2184.32
990.63	2221.38
990.927	2181.61
991.224	2180.25
991.521	2166.47
991.819	2158.56
992.116	2136.86
992.413	2134.83
992.71	2107.71
993.006	2109.52
993.303	2088.96
993.6	2129.18
993.897	2119.01
994.193	2092.57
994.49	2076.08
994.787	2053.7
995.083	2051.22
995.379	2048.28
995.676	2028.62
995.972	2042.86
996.268	2025
996.565	2003.99
996.861	1983.87
997.157	2006.47
997.453	1970.99
997.749	1986.81
998.044	1935.06
998.34	1935.29
998.636	1942.07
998.932	1918.57
999.227	1909.75
999.523	1936.42
999.818	1878.57
1000.114	1877.21
1000.409	1866.59
1000.704	1871.11
1001	1816.65
1001.295	1844.22
1001.59	1857.32
1001.885	1806.25
1002.18	1806.7
1002.475	1820.26
1002.77	1814.84
1003.065	1769.19
1003.359	1814.39
1003.654	1776.2
1003.949	1762.19
1004.243	1744.78
1004.538	1733.26
1004.832	1722.41
1005.127	1740.94
1005.421	1712.7
1005.715	1698.23
1006.009	1684.67
1006.304	1680.15
1006.598	1689.42
1006.892	1691.45
1007.186	1643.09
1007.48	1632.02
1007.773	1643.54
1008.067	1627.73
1008.361	1618.91
1008.655	1637.44
1008.948	1622.53
1009.242	1607.16
1009.535	1613.49
1009.829	1573.72
1010.122	1572.13
1010.415	1587.05
1010.708	1532.13
1011.001	1583.66
1011.295	1541.17
1011.588	1521.97
1011.881	1497.11
1012.173	1511.12
1012.466	1525.58
1012.759	1465.7
1013.052	1545.02
1013.344	1499.14
1013.637	1471.57
1013.93	1474.28
1014.222	1441.74
1014.514	1448.97
1014.807	1449.43
1015.099	1423.89
1015.391	1429.76
1015.683	1391.57
1015.976	1429.99
1016.268	1406.94
1016.56	1386.38
1016.851	1398.13
1017.143	1390.67
1017.435	1357.45
1017.727	1350.67
1018.018	1349.77
1018.31	1337.56
1018.602	1341.63
1018.893	1322.87
1019.185	1304.57
1019.476	1319.71
1019.767	1301.86
1020.058	1290.33
1020.35	1288.75
1020.641	1291.24
1020.932	1251.01
1021.223	1246.94
1021.514	1265.7
1021.804	1243.55
1022.095	1237.91
1022.386	1238.13
1022.677	1225.48
1022.967	1212.37
1023.258	1194.74
1023.548	1193.16
1023.839	1170.56
1024.129	1173.73
1024.419	1173.5
1024.709	1138.92
1025	1144.8
1025.29	1141.86
1025.58	1158.81
1025.87	1141.86
1026.16	1122.43
1026.449	1139.6
1026.739	1122.43
1027.029	1098.47
1027.319	1110.9
1027.608	1089.89
1027.898	1084.46
1028.187	1066.38
1028.477	1082.88
1028.766	1079.27
1029.055	1077.46
1029.344	1056.89
1029.634	1052.15
1029.923	1029.78
1030.212	1045.14
1030.501	1022.54
1030.79	1030.23
1031.078	1021.41
1031.367	1007.85
1031.656	1012.37
1031.945	1008.76
1032.233	989.55
1032.522	997.91
1032.81	977.8
1033.099	969.89
1033.387	966.73
1033.675	953.84
1033.963	961.75
1034.251	958.59
1034.54	954.75
1034.828	972.38
1035.116	920.85
1035.403	927.18
1035.691	919.04
1035.979	920.17
1036.267	919.5
1036.554	912.49
1036.842	903.68
1037.129	888.08
1037.417	877.46
1037.704	905.03
1037.992	890.12
1038.279	869.55
1038.566	861.64
1038.853	861.64
1039.14	861.64
