Data from hue_120_FLMS001491_00036.txt Node
Date: Tue Feb 07 16:59:17 GMT 2017
User: dcchb
Spectrometer: FLMS00149
Trigger mode: 0
Integration Time (sec): 2.000000E-2
Scans to average: 10
Electric dark correction enabled: true
Nonlinearity correction enabled: false
Boxcar width: 0
XAxis mode: Wavelengths
Number of Pixels in Spectrum: 2048
>>>>>Begin Spectral Data<<<<<
341.393	-25.08
341.776	-25.08
342.16	-25.08
342.543	-63.5
342.927	-71.64
343.31	-81.81
343.693	-73.9
344.077	-65.99
344.46	-56.27
344.843	-50.85
345.226	-32.32
345.61	-36.38
345.993	-21.47
346.376	4.52
346.759	14.69
347.142	19.43
347.525	43.39
347.908	60.34
348.291	98.08
348.674	81.35
349.057	97.17
349.44	126.78
349.823	147.11
350.206	160.67
350.588	183.72
350.971	203.84
351.354	223.5
351.737	234.57
352.119	258.52
352.502	262.82
352.884	267.34
353.267	285.19
353.65	289.94
354.032	306.43
354.414	298.75
354.797	284.06
355.179	320.9
355.562	327.9
355.944	317.73
356.326	336.26
356.709	326.32
357.091	366.09
357.473	335.58
357.855	351.86
358.238	330.16
358.62	369.03
359.002	351.63
359.384	364.96
359.766	355.7
360.148	345.08
360.53	316.38
360.912	331.29
361.294	322.48
361.676	321.8
362.057	350.27
362.439	338.75
362.821	332.19
363.203	299.65
363.584	351.18
363.966	322.48
364.348	315.7
364.729	308.24
365.111	308.01
365.493	321.8
365.874	310.27
366.256	317.51
366.637	314.34
367.019	313.66
367.4	309.37
367.781	326.77
368.163	305.75
368.544	324.74
368.925	311.18
369.306	334.91
369.688	310.5
370.069	295.59
370.45	315.47
370.831	317.73
371.212	305.08
371.593	284.74
371.974	315.25
372.355	326.09
372.736	322.93
373.117	315.92
373.498	300.11
373.879	311.63
374.26	319.77
374.641	310.95
375.021	322.48
375.402	315.25
375.783	321.8
376.163	333.78
376.544	328.8
376.925	319.09
377.305	317.05
377.686	343.27
378.066	351.86
378.447	341.46
378.827	322.25
379.208	354.34
379.588	345.3
379.968	340.78
380.349	347.79
380.729	337.84
381.109	346.43
381.489	327.45
381.87	345.08
382.25	361.57
382.63	360.89
383.01	356.6
383.39	359.76
383.77	352.08
384.15	358.41
384.53	338.52
384.91	346.21
385.29	351.63
385.67	361.57
386.049	357.96
386.429	353.21
386.809	352.53
387.189	355.47
387.568	364.51
387.948	361.8
388.328	374.68
388.707	372.65
389.087	361.35
389.466	379.43
389.846	368.8
390.225	385.53
390.605	371.74
390.984	372.42
391.363	380.78
391.743	388.69
392.122	380.78
392.501	385.07
392.881	390.95
393.26	377.84
393.639	370.16
394.018	382.81
394.397	389.59
394.776	397.05
395.155	415.81
395.534	381.68
395.913	374.23
396.292	384.85
396.671	402.02
397.05	394.11
397.429	405.87
397.808	405.19
398.186	411.51
398.565	409.71
398.944	407.67
399.323	404.06
399.701	411.51
400.08	412.87
400.458	409.25
400.837	423.27
401.215	415.36
401.594	429.59
401.972	431.18
402.351	421.23
402.729	426.66
403.107	433.21
403.486	427.56
403.864	424.17
404.242	431.4
404.62	450.38
404.999	452.87
405.377	447.45
405.755	450.84
406.133	428.01
406.511	456.71
406.889	460.33
407.267	448.58
407.645	464.85
408.023	459.65
408.401	482.47
408.779	482.47
409.156	480.44
409.534	480.21
409.912	465.98
410.29	469.37
410.667	452.87
411.045	465.3
411.422	502.36
411.8	485.41
412.178	493.77
412.555	508.91
412.933	516.37
413.31	503.72
413.687	512.3
414.065	512.53
414.442	513.43
414.819	530.83
415.197	517.05
415.574	533.55
415.951	528.35
416.328	565.63
416.705	542.36
417.082	560.89
417.46	539.19
417.837	537.39
418.214	558.86
418.591	554.34
418.967	545.75
419.344	555.24
419.721	570.38
420.098	548.69
420.475	559.08
420.852	562.47
421.228	596.37
421.605	585.75
421.982	578.29
422.358	585.52
422.735	573.32
423.111	577.16
423.488	611.06
423.864	612.64
424.241	621.68
424.617	595.92
424.994	616.71
425.37	625.97
425.746	607.22
426.123	611.51
426.499	616.71
426.875	640.66
427.251	659.19
427.627	650.38
428.003	665.07
428.379	656.93
428.756	684.95
429.132	693.54
429.507	685.86
429.883	664.39
430.259	685.18
430.635	690.6
431.011	709.36
431.387	693.54
431.763	706.65
432.138	706.42
432.514	747.32
432.89	748.23
433.265	742.58
433.641	741
434.016	754.78
434.392	756.82
434.767	759.53
435.143	776.93
435.518	785.29
435.894	788.91
436.269	792.75
436.644	801.79
437.02	809.24
437.395	816.25
437.77	814.44
438.145	817.38
438.52	814.22
438.895	835.46
439.271	833.2
439.646	829.58
440.021	850.37
440.395	871.16
440.77	856.93
441.145	875.01
441.52	873.65
441.895	886.76
442.27	888.79
442.645	877.04
443.019	881.78
443.394	887.21
443.769	900.77
444.143	894.44
444.518	877.72
444.892	919.07
445.267	955.91
445.641	959.52
446.016	926.53
446.39	929.24
446.764	957.04
447.139	954.33
447.513	963.59
447.887	969.01
448.262	984.83
448.636	977.15
449.01	967.43
449.384	994.55
449.758	1006.3
450.132	1024.15
450.506	1024.83
450.88	1017.6
451.254	1015.11
451.628	1058.73
452.002	1085.85
452.376	1062.57
452.75	1083.81
453.123	1084.49
453.497	1101.44
453.871	1105.51
454.244	1101.67
454.618	1129.46
454.992	1123.81
455.365	1142.34
455.739	1182.79
456.112	1180.31
456.486	1169.46
456.859	1186.86
457.232	1227.76
457.606	1205.62
457.979	1226.86
458.352	1255.79
458.725	1285.39
459.099	1279.97
459.472	1302.11
459.845	1313.41
460.218	1355.9
460.591	1358.16
460.964	1344.37
461.337	1383.01
461.71	1375.33
462.083	1398.38
462.456	1411.04
462.829	1420.98
463.201	1446.97
463.574	1481.09
463.947	1484.71
464.32	1514.54
464.692	1527.19
465.065	1517.7
465.438	1574.65
465.81	1600.41
466.183	1609.22
466.555	1644.25
466.928	1665.27
467.3	1692.84
467.672	1675.66
468.045	1747.75
468.417	1762.67
468.789	1801.99
469.161	1832.04
469.534	1839.95
469.906	1922.66
470.278	1915.66
470.65	1938.03
471.022	1964.24
471.394	2001.08
471.766	2032.04
472.138	2096.67
472.51	2136.67
472.882	2154.52
473.253	2171.24
473.625	2242.2
473.997	2332.14
474.369	2339.6
474.74	2393.16
475.112	2437.68
475.484	2547.28
475.855	2574.62
476.227	2624.79
476.598	2700.27
476.97	2772.13
477.341	2813.71
477.713	2859.59
478.084	2902.97
478.455	2989.3
478.827	3122.18
479.198	3203.53
479.569	3278.56
479.94	3375.28
480.311	3431.77
480.682	3538.44
481.053	3618.89
481.424	3696.63
481.795	3812.1
482.166	3959.22
482.537	3972.55
482.908	4070.85
483.279	4221.13
483.65	4327.34
484.021	4464.74
484.391	4538.19
484.762	4583.61
485.133	4739.76
485.503	4859.99
485.874	5022.47
486.244	5097.95
486.615	5345.62
486.985	5447.09
487.356	5525.73
487.726	5642.79
488.097	5822.22
488.467	5894.08
488.837	6066.73
489.207	6220.85
489.578	6354.64
489.948	6518.02
490.318	6633.5
490.688	6751.69
491.058	6909.42
491.428	7109.19
491.798	7218.79
492.168	7407.04
492.538	7510.99
492.908	7671.66
493.278	7747.82
493.648	7922.5
494.017	8064.42
494.387	8156.4
494.757	8409.04
495.126	8506.22
495.496	8568.59
495.866	8738.53
496.235	8899.2
496.605	8985.98
496.974	9092.19
497.344	9249.47
497.713	9424.38
498.082	9549.81
498.452	9640.42
498.821	9696.24
499.19	9800.87
499.559	9864.83
499.928	10051.04
500.298	10264.59
500.667	10296.23
501.036	10340.97
501.405	10492.83
501.774	10545.94
502.143	10677.23
502.512	10766.27
502.88	10885.36
503.249	10927.4
503.618	11045.59
503.987	11153.15
504.356	11260.04
504.724	11319.25
505.093	11327.84
505.462	11436.54
505.83	11548.17
506.199	11617.55
506.567	11766.47
506.936	11818.67
507.304	11980.02
507.672	12063.64
508.041	12106.35
508.409	12188.61
508.777	12294.14
509.145	12292.78
509.514	12353.12
509.882	12445.55
510.25	12465.66
510.618	12618.43
510.986	12608.93
511.354	12742.49
511.722	12870.62
512.09	12930.06
512.458	12844.41
512.826	12958.08
513.193	13021.8
513.561	13072.88
513.929	13216.15
514.297	13188.81
514.664	13349.71
515.032	13349.93
515.4	13404.39
515.767	13441.68
516.135	13512.64
516.502	13410.49
516.869	13598.29
517.237	13608.91
517.604	13572.52
517.972	13695.46
518.339	13774.33
518.706	13789.47
519.073	13829.01
519.44	13858.84
519.808	13942.23
520.175	13878.28
520.542	13992.63
520.909	14144.94
521.276	14190.81
521.643	14139.97
522.009	14282.56
522.376	14233.07
522.743	14294.09
523.11	14351.71
523.477	14471.94
523.843	14527.3
524.21	14634.64
524.577	14624.47
524.943	14580.63
525.31	14637.81
525.676	14700.86
526.043	14681.65
526.409	14763.45
526.776	14917.12
527.142	14892.94
527.508	14955.54
527.874	14957.35
528.241	15001.19
528.607	14908.53
528.973	15005.48
529.339	14982.43
529.705	15036.89
530.071	15126.61
530.437	15080.06
530.803	15116.44
531.169	15088.87
531.535	15082.32
531.901	15004.35
532.267	15088.87
532.632	15124.8
532.998	15111.02
533.364	15083.45
533.73	15136.78
534.095	15178.58
534.461	15142.2
534.826	15061.07
535.192	15087.74
535.557	15163.9
535.923	15058.14
536.288	15146.49
536.653	15101.98
537.019	15003.22
537.384	14984.24
537.749	14978.59
538.114	15002.54
538.479	14923.9
538.845	14971.36
539.21	14900.63
539.575	14908.08
539.94	14868.76
540.305	14877.35
540.67	14772.94
541.034	14858.82
541.399	14867.86
541.764	14776.79
542.129	14774.53
542.494	14724.13
542.858	14728.43
543.223	14690.24
543.587	14714.64
543.952	14640.29
544.316	14536.57
544.681	14639.62
545.045	14644.81
545.41	14570.01
545.774	14517.58
546.138	14516.45
546.503	14454.54
546.867	14438.04
547.231	14394.42
547.595	14438.49
547.959	14375.22
548.324	14284.6
548.688	14351.71
549.052	14268.1
549.416	14198.5
549.779	14215.45
550.143	14259.74
550.507	14195.78
550.871	14152.4
551.235	14080.76
551.599	14196.24
551.962	14127.09
552.326	14088.67
552.689	14062
553.053	13989.24
553.417	13995.56
553.78	14034.43
554.143	14000.99
554.507	14066.75
554.87	14076.01
555.234	14064.71
555.597	13951.5
555.96	13948.56
556.323	13956.24
556.686	14039.86
557.05	13970.25
557.413	13959.18
557.776	14003.02
558.139	13990.82
558.502	13904.27
558.865	13885.06
559.228	13940.42
559.59	13981.55
559.953	13950.37
560.316	14045.51
560.679	13913.31
561.041	14000.99
561.404	13967.99
561.767	14001.89
562.129	13893.42
562.492	14012.96
562.854	13954.89
563.217	14006.41
563.579	14027.65
563.941	13951.27
564.304	14029.01
564.666	14205.5
565.028	14091.38
565.39	14175.22
565.753	14267.42
566.115	14198.72
566.477	14221.77
566.839	14111.72
567.201	14239.4
567.563	14235.11
567.925	14220.42
568.287	14241.66
568.648	14269
569.01	14300.19
569.372	14271.49
569.734	14271.26
570.095	14345.84
570.457	14321.66
570.819	14361.2
571.18	14420.86
571.542	14413.41
571.903	14392.39
572.265	14485.49
572.626	14375.89
572.987	14545.15
573.349	14426.51
573.71	14516.23
574.071	14524.59
574.432	14540.18
574.794	14582.44
575.155	14550.13
575.516	14531.82
575.877	14638.49
576.238	14520.3
576.599	14667.64
576.96	14611.37
577.32	14571.82
577.681	14503.57
578.042	14579.5
578.403	14596.68
578.763	14631.93
579.124	14664.47
579.485	14643.68
579.845	14596.68
580.206	14612.05
580.566	14697.01
580.927	14658.15
581.287	14712.61
581.648	14562.1
582.008	14673.29
582.368	14618.6
582.728	14665.15
583.089	14641.2
583.449	14664.25
583.809	14638.26
584.169	14645.49
584.529	14633.51
584.889	14748.54
585.249	14569.56
585.609	14550.58
585.969	14637.58
586.329	14513.97
586.688	14666.28
587.048	14550.58
587.408	14495.89
587.768	14513.52
588.127	14561.88
588.487	14483.24
588.846	14570.92
589.206	14421.54
589.565	14486.62
589.925	14552.61
590.284	14454.76
590.643	14517.58
591.003	14488.21
591.362	14514.87
591.721	14440.07
592.08	14440.52
592.44	14459.28
592.799	14481.43
593.158	14423.58
593.517	14355.1
593.876	14450.47
594.235	14485.49
594.593	14391.49
594.952	14447.3
595.311	14321.88
595.67	14412.28
596.029	14445.72
596.387	14521.65
596.746	14391.94
597.104	14373.18
597.463	14407.08
597.822	14431.03
598.18	14403.46
598.538	14305.39
598.897	14387.19
599.255	14238.72
599.613	14487.08
599.972	14366.85
600.33	14381.54
600.688	14417.47
601.046	14364.59
601.404	14398.04
601.762	14313.52
602.12	14424.93
602.478	14360.98
602.836	14400.53
603.194	14326.4
603.552	14361.66
603.91	14358.72
604.268	14552.84
604.625	14378.83
604.983	14472.16
605.341	14290.47
605.698	14407.53
606.056	14451.15
606.413	14338.15
606.771	14442.11
607.128	14403.01
607.485	14373.41
607.843	14383.8
608.2	14462.9
608.557	14429.9
608.914	14430.36
609.272	14454.54
609.629	14485.04
609.986	14560.75
610.343	14484.59
610.7	14556.23
611.057	14538.37
611.414	14579.28
611.771	14492.5
612.127	14634.64
612.484	14619.28
612.841	14667.18
613.198	14586.96
613.554	14631.71
613.911	14719.84
614.267	14658.37
614.624	14664.7
614.98	14703.12
615.337	14757.13
615.693	14686.17
616.05	14639.84
616.406	14815.43
616.762	14773.85
617.118	14707.18
617.475	14738.14
617.831	14747.86
618.187	14748.31
618.543	14730.23
618.899	14812.04
619.255	14797.13
619.611	14795.54
619.967	14824.47
620.323	14905.14
620.678	14867.18
621.034	14849.1
621.39	14768.2
621.746	14831.93
622.101	14956.44
622.457	14756.22
622.812	14817.24
623.168	14842.77
623.523	14860.85
623.879	14914.86
624.234	14712.38
624.589	14877.8
624.945	14838.48
625.3	14839.38
625.655	14874.41
626.01	14835.32
626.365	14836.9
626.72	14809.55
627.075	14797.8
627.43	14854.98
627.785	14774.07
628.14	14802.32
628.495	14802.55
628.85	14820.63
629.205	14765.71
629.559	14768.43
629.914	14708.54
630.269	14720.74
630.623	14746.05
630.978	14646.62
631.332	14654.76
631.687	14906.27
632.041	14710.35
632.396	14671.03
632.75	14716.9
633.104	14699.27
633.459	14553.52
633.813	14535.21
634.167	14603.68
634.521	14518.71
634.875	14586.74
635.229	14617.47
635.583	14483.91
635.937	14521.2
636.291	14531.14
636.645	14492.73
636.999	14391.03
637.352	14444.59
637.706	14414.99
638.06	14416.12
638.413	14449.56
638.767	14410.92
639.121	14429.9
639.474	14333.86
639.828	14339.06
640.181	14310.13
640.534	14341.32
640.888	14321.66
641.241	14160.98
641.594	14235.56
641.947	14275.1
642.301	14203.47
642.654	14286.18
643.007	14227.2
643.36	14213.86
643.713	14229.23
644.066	14195.33
644.419	14109.69
644.771	14080.08
645.124	13937.94
645.477	13918.73
645.83	13876.47
646.182	13779.52
646.535	13716.7
646.888	13834.44
647.24	13662.47
647.593	13813.87
647.945	13776.36
648.298	13664.5
648.65	13621.11
649.002	13633.99
649.355	13710.83
649.707	13678.28
650.059	13780.88
650.411	13884.83
650.763	13897.49
651.115	14067.88
651.467	14088.22
651.819	14037.82
652.171	14039.63
652.523	14053.42
652.875	14019.29
653.227	13890.03
653.578	14016.13
653.93	13952.4
654.282	13919.18
654.633	13844.16
654.985	13926.41
655.337	13988.33
655.688	13949.69
656.039	14042.79
656.391	13916.24
656.742	14004.15
657.094	13932.52
657.445	14084.83
657.796	14013.19
658.147	13959.86
658.498	14021.33
658.849	14039.86
659.2	13949.01
659.551	13984.04
659.902	13999.41
660.253	13955.79
660.604	14051.61
660.955	13883.02
661.306	14003.47
661.656	13965.73
662.007	13965.96
662.358	13940.65
662.708	13994.89
663.059	14024.49
663.409	13793.76
663.76	14063.59
664.11	14031.04
664.461	14024.26
664.811	14023.59
665.161	13973.87
665.511	13980.2
665.862	13996.24
666.212	13983.59
666.562	14044.83
666.912	13955.34
667.262	14108.78
667.612	14050.93
667.962	14066.97
668.312	14071.27
668.662	14122.34
669.011	14063.59
669.361	13980.2
669.711	14036.47
670.06	13972.97
670.41	13962.8
670.76	13953.76
671.109	14038.95
671.459	13952.18
671.808	13935.68
672.157	13979.75
672.507	13949.24
672.856	13927.09
673.205	13932.52
673.554	13925.74
673.904	13912.18
674.253	13911.5
674.602	13922.57
674.951	13676.02
675.3	13632.86
675.649	13812.97
675.998	13755.12
676.346	13742.92
676.695	13797.38
677.044	13674.44
677.393	13722.58
677.741	13819.98
678.09	13796.47
678.438	13699.98
678.787	13703.59
679.135	13679.87
679.484	13613.65
679.832	13703.14
680.181	13629.7
680.529	13592.86
680.877	13561.45
681.225	13502.47
681.573	13624.95
681.922	13432.64
682.27	13471.28
682.618	13517.61
682.966	13478.29
683.314	13500.89
683.661	13336.15
684.009	13371.17
684.357	13309.71
684.705	13321.01
685.053	13273.32
685.4	13286.43
685.748	13195.13
686.095	13154.91
686.443	13210.73
686.79	13107
687.138	13164.4
687.485	13158.52
687.832	13009.38
688.18	13141.8
688.527	13032.2
688.874	12979.77
689.221	12952.43
689.568	12862.94
689.915	12946.1
690.262	12804.41
690.609	12842.6
690.956	12756.05
691.303	12812.09
691.65	12733.22
691.997	12728.7
692.344	12599.67
692.69	12609.16
693.037	12587.92
693.383	12455.49
693.73	12456.62
694.077	12315.38
694.423	12374.82
694.769	12332.33
695.116	12335.72
695.462	12239.23
695.808	12229.28
696.155	12322.61
696.501	12106.57
696.847	12125.78
697.193	11983.19
697.539	12095.73
697.885	12017.54
698.231	11924.21
698.577	11904.09
698.923	11900.25
699.269	11845.11
699.614	11704.33
699.96	11720.82
700.306	11736.87
700.651	11696.19
700.997	11589.75
701.342	11643.76
701.688	11513.37
702.033	11487.83
702.379	11484.44
702.724	11451.9
703.069	11499.81
703.415	11319.02
703.76	11324.9
704.105	11286.71
704.45	11332.13
704.795	11242.64
705.14	11230.44
705.485	11128.97
705.83	11089.65
706.175	11143.66
706.52	11063.89
706.865	10968.75
707.209	11008.98
707.554	10946.6
707.899	10935.53
708.243	10900.05
708.588	10925.81
708.932	10821.41
709.277	10791.35
709.621	10742.09
709.966	10733.05
710.31	10798.36
710.654	10631.81
710.998	10696.22
711.342	10624.81
711.687	10672.49
712.031	10546.16
712.375	10497.8
712.719	10580.29
713.063	10540.51
713.407	10544.13
713.75	10475.66
714.094	10468.43
714.438	10465.04
714.782	10456.67
715.125	10413.51
715.469	10474.98
715.812	10311.14
716.156	10293.51
716.499	10303.23
716.843	10349.33
717.186	10248.54
717.53	10301.88
717.873	10270.24
718.216	10240.18
718.559	10203.35
718.902	10107.3
719.246	10161.54
719.589	10139.39
719.932	10083.8
720.275	10068.89
720.617	10040.19
720.96	10119.28
721.303	10066.4
721.646	10056.01
721.989	9986.18
722.331	10103.24
722.674	10013.97
723.016	10052.62
723.359	9975.33
723.701	10039.28
724.044	9926.07
724.386	9902.34
724.729	9993.64
725.071	9921.55
725.413	9912.51
725.755	9933.52
726.097	9879.51
726.439	9820.53
726.782	9858.27
727.124	9943.02
727.465	9767.43
727.807	9847.88
728.149	9759.97
728.491	9825.05
728.833	9838.61
729.175	9767.88
729.516	9832.74
729.858	9739.63
730.199	9850.14
730.541	9797.26
730.882	9837.93
731.224	9807.2
731.565	9743.92
731.906	9815.11
732.248	9851.49
732.589	9726.75
732.93	9650.59
733.271	9708.22
733.612	9763.36
733.953	9716.58
734.294	9753.64
734.635	9669.58
734.976	9826.41
735.317	9592.06
735.658	9733.08
735.999	9818.27
736.339	9753.19
736.68	9755
737.021	9724.49
737.361	9719.97
737.702	9840.19
738.042	9692.63
738.383	9735.56
738.723	9785.96
739.063	9741.66
739.404	9712.96
739.744	9760.65
740.084	9784.15
740.424	9816.69
740.764	9766.07
741.104	9799.06
741.444	9837.03
741.784	9746.86
742.124	9839.52
742.464	9857.82
742.804	9882.45
743.143	9828.67
743.483	9940.53
743.823	9896.91
744.162	9971.49
744.502	9935.33
744.841	9938.95
745.181	10046.52
745.52	10019.4
745.86	10113.41
746.199	10127.19
746.538	10095.78
746.877	10213.97
747.216	10295.32
747.556	10269.11
747.895	10294.64
748.234	10434.08
748.573	10391.14
748.911	10472.94
749.25	10569.44
749.589	10547.29
749.928	10658.25
750.267	10744.58
750.605	10738.25
750.944	10816.89
751.283	10918.13
751.621	11025.7
751.96	11050.33
752.298	11115.19
752.636	11248.52
752.975	11225.47
753.313	11355.63
753.651	11541.62
753.989	11540.94
754.327	11700.26
754.666	11710.43
755.004	11870.2
755.342	12100.7
755.679	12231.99
756.017	12242.39
756.355	12410.75
756.693	12614.13
757.031	12591.99
757.368	12763.96
757.706	12932.32
758.044	13099.09
758.381	13254.79
758.719	13317.62
759.056	13582.92
759.394	13666.76
759.731	13770.03
760.068	13871.73
760.405	14130.93
760.743	14215.22
761.08	14531.82
761.417	14514.42
761.754	14727.52
762.091	14934.07
762.428	15010.9
762.765	15103.78
763.102	15441.85
763.438	15508.97
763.775	15632.13
764.112	15842.52
764.449	15965.91
764.785	16012.46
765.122	16141.5
765.458	16314.6
765.795	16519.34
766.131	16641.6
766.467	16732.89
766.804	16789.39
767.14	16943.28
767.476	17120.91
767.812	17239.77
768.148	17437.73
768.485	17498.07
768.821	17498.97
769.157	17635.47
769.492	17854.45
769.828	17933.31
770.164	17974.89
770.5	18082.91
770.836	18205.17
771.171	18267.99
771.507	18281.33
771.842	18435.67
772.178	18422.34
772.513	18600.87
772.849	18720.19
773.184	18648.78
773.519	18716.12
773.855	18755.89
774.19	18839.5
774.525	18981.42
774.86	19057.35
775.195	19157.24
775.53	19104.58
775.865	19120.63
776.2	19122.89
776.535	19147.75
776.87	19188.42
777.205	19264.13
777.539	19216.67
777.874	19365.14
778.209	19228.65
778.543	19313.62
778.878	19275.88
779.212	19289.89
779.547	19398.59
779.881	19480.17
780.215	19284.69
780.55	19491.46
780.884	19364.91
781.218	19397.46
781.552	19524.01
781.886	19326.95
782.22	19332.37
782.554	19317.46
782.888	19274.75
783.222	19215.31
783.556	19265.93
783.889	19234.52
784.223	19142.55
784.557	19232.71
784.89	19221.87
785.224	19131.7
785.557	19031.59
785.891	19099.84
786.224	19161.3
786.558	19134.64
786.891	18987.52
787.224	18901.2
787.557	19041.08
787.891	18968.31
788.224	18852.84
788.557	19010.35
788.89	18931.48
789.223	18956.34
789.556	18933.29
789.888	18851.48
790.221	18783.01
790.554	18680.19
790.887	18685.61
791.219	18721.77
791.552	18630.02
791.884	18585.5
792.217	18592.51
792.549	18512.51
792.882	18329.46
793.214	18367.43
793.546	18492.4
793.879	18422.11
794.211	18315.22
794.543	18306.64
794.875	18170.82
795.207	18342.79
795.539	18194.32
795.871	18169.92
796.203	18159.3
796.535	18021.22
796.867	18020.09
797.198	17981
797.53	17964.05
797.862	17854.45
798.193	17885.63
798.525	17813.54
798.856	17864.39
799.188	17636.82
799.519	17575.58
799.85	17554.79
800.182	17576.71
800.513	17528.58
800.844	17399.99
801.175	17603.6
801.506	17522.93
801.837	17395.7
802.168	17330.62
802.499	17279.09
802.83	17326.78
803.161	17247
803.491	17184.63
803.822	17174.24
804.153	17156.84
804.483	17038.42
804.814	17033
805.145	16987.35
805.475	16880.46
805.805	16846.11
806.136	16881.82
806.466	16877.52
806.796	16906
807.126	16732.67
807.457	16711.88
807.787	16691.99
808.117	16609.05
808.447	16602.73
808.777	16704.42
809.107	16517.76
809.436	16462.39
809.766	16501.49
810.096	16364.99
810.426	16357.99
810.755	16328.16
811.085	16355.95
811.414	16360.47
811.744	16139.46
812.073	16180.14
812.403	16160.93
812.732	16048.62
813.061	16001.61
813.39	15973.14
813.719	16007.04
814.049	16112.8
814.378	15967.04
814.707	15859.7
815.036	15958.68
815.365	15847.94
815.693	15782.41
816.022	15667.16
816.351	15712.58
816.68	15602.98
817.008	15689.08
817.337	15561.62
817.665	15500.16
817.994	15501.29
818.322	15508.74
818.651	15392.82
818.979	15381.06
819.307	15451.35
819.636	15386.94
819.964	15238.47
820.292	15437.33
820.62	15463.32
820.948	15337
821.276	15387.17
821.604	15356.66
821.932	15475.3
822.259	15343.78
822.587	15302.42
822.915	15349.2
823.243	15265.59
823.57	15392.36
823.898	15388.97
824.225	15270.78
824.553	15242.99
824.88	15331.8
825.207	15455.64
825.535	15329.31
825.862	15420.39
826.189	15266.49
826.516	15388.97
826.843	15444.11
827.17	15375.64
827.497	15381.74
827.824	15379.93
828.151	15398.92
828.478	15317.11
828.805	15506.03
829.131	15401.63
829.458	15388.52
829.785	15378.58
830.111	15255.64
830.438	15446.83
830.764	15409.31
831.09	15383.55
831.417	15331.35
831.743	15365.7
832.069	15384.23
832.395	15255.64
832.722	15362.31
833.048	15255.19
833.374	15309.2
833.7	15215.87
834.026	15325.92
834.351	15176.32
834.677	15124.12
835.003	15174.74
835.329	15231.46
835.654	15196.44
835.98	15167.96
836.306	15200.05
836.631	15101.52
836.956	15140.84
837.282	15137.68
837.607	14959.15
837.932	15035.08
838.258	15000.28
838.583	14962.54
838.908	14930.45
839.233	14900.17
839.558	14939.49
839.883	14855.43
840.208	14782.66
840.533	14900.63
840.858	14839.84
841.182	14812.04
841.507	14754.87
841.832	14642.78
842.156	14743.34
842.481	14694.75
842.805	14659.5
843.13	14568.2
843.454	14571.59
843.778	14530.24
844.103	14390.58
844.427	14415.44
844.751	14469.22
845.075	14300.19
845.399	14312.84
845.723	14273.3
846.047	14282.34
846.371	14141.78
846.695	14272.17
847.019	14097.71
847.343	14000.08
847.666	13881.22
847.99	13894.1
848.313	13913.31
848.637	13768.45
848.96	13747.44
849.284	13789.47
849.607	13572.98
849.931	13595.57
850.254	13612.98
850.577	13495.01
850.9	13372.76
851.223	13339.31
851.546	13285.75
851.869	13177.51
852.192	13301.8
852.515	13154.46
852.838	13186.77
853.161	13173.66
853.483	13060.67
853.806	13033.56
854.129	12992.43
854.451	12999.21
854.774	12835.82
855.096	12814.35
855.419	12770.74
855.741	12733.45
856.063	12653.45
856.385	12629.72
856.708	12645.32
857.03	12630.63
857.352	12593.79
857.674	12555.83
857.996	12498.2
858.318	12351.09
858.64	12514.93
858.961	12304.31
859.283	12376.62
859.605	12287.81
859.926	12364.19
860.248	12256.63
860.57	12224.99
860.891	12218.44
861.212	12106.8
861.534	12110.42
861.855	12066.35
862.176	12016.86
862.498	12033.36
862.819	12062.73
863.14	12016.86
863.461	11941.83
863.782	11966.24
864.103	11940.25
864.424	11812.8
864.745	11894.83
865.065	11770.09
865.386	11791.33
865.707	11824.1
866.027	11796.3
866.348	11795.17
866.668	11791.55
866.989	11729.64
867.309	11636.53
867.63	11638.11
867.95	11693.93
868.27	11598.11
868.59	11610.77
868.91	11585.91
869.23	11546.36
869.55	11523.99
869.87	11560.83
870.19	11541.39
870.51	11571.45
870.83	11577.32
871.15	11399.7
871.469	11427.27
871.789	11435.18
872.109	11388.4
872.428	11302.53
872.748	11415.52
873.067	11385.46
873.386	11371.68
873.706	11399.47
874.025	11163.32
874.344	11270.66
874.663	11200.38
874.982	11194.73
875.301	11202.42
875.62	11205.36
875.939	11165.36
876.258	11169.2
876.577	11126.94
876.896	11078.35
877.214	11101.63
877.533	11094.85
877.852	11067.51
878.17	11052.14
878.489	11051.91
878.807	10968.53
879.125	11072.7
879.444	11032.48
879.762	11008.3
880.08	10961.29
880.398	10903.22
880.716	10912.03
881.034	10897.57
881.352	10918.81
881.67	10854.18
881.988	10816.66
882.306	10793.84
882.624	10791.13
882.941	10716.1
883.259	10689.21
883.577	10695.99
883.894	10606.5
884.212	10681.53
884.529	10623
884.846	10632.94
885.164	10585.71
885.481	10627.07
885.798	10553.39
886.115	10573.06
886.432	10545.26
886.75	10444.47
887.067	10467.75
887.383	10385.26
887.7	10386.17
888.017	10380.74
888.334	10359.28
888.651	10305.72
888.967	10262.78
889.284	10253.06
889.6	10176.23
889.917	10227.3
890.233	10189.79
890.55	10092.16
890.866	10188.88
891.182	10067.08
891.498	10040.19
891.815	10014.88
892.131	9978.49
892.447	9918.84
892.763	9922.9
893.079	9926.97
893.395	9886.29
893.71	9867.76
894.026	9837.93
894.342	9785.05
894.657	9726.75
894.973	9736.02
895.289	9742.34
895.604	9629.58
895.92	9566.3
896.235	9536.02
896.55	9520.88
896.865	9478.39
897.181	9411.28
897.496	9468.23
897.811	9400.88
898.126	9361.34
898.441	9302.81
898.756	9305.52
899.071	9194.79
899.386	9275.46
899.7	9138.06
900.015	9214.22
900.33	9065.98
900.644	9108.46
900.959	9129.25
901.273	9076.82
901.588	9022.14
901.902	9002.93
902.216	8898.98
902.531	8959.31
902.845	8879.99
903.159	8831.18
903.473	8833.89
903.787	8786.89
904.101	8743.27
904.415	8758.41
904.729	8634.12
905.042	8626.44
905.356	8652.88
905.67	8651.98
905.984	8585.31
906.297	8569.94
906.611	8484.07
906.924	8443.62
907.237	8507.12
907.551	8420.34
907.864	8374.92
908.177	8320.69
908.491	8344.19
908.804	8280.23
909.117	8273.45
909.43	8161.14
909.743	8203.63
910.056	8105.55
910.368	8073.23
910.681	8085.66
910.994	8061.48
911.307	7990.75
911.619	7930.64
911.932	7927.25
912.244	7873.47
912.557	7887.02
912.869	7786.46
913.181	7826.46
913.494	7774.48
913.806	7689.52
914.118	7721.83
914.43	7621.49
914.742	7615.62
915.054	7620.36
915.366	7597.31
915.678	7504.66
915.99	7495.17
916.302	7482.29
916.613	7421.05
916.925	7453.14
917.236	7361.39
917.548	7374.27
917.859	7299.92
918.171	7264.67
918.482	7267.61
918.794	7268.06
919.105	7188.74
919.416	7174.27
919.727	7200.94
920.038	7137.89
920.349	7125.24
920.66	7065.8
920.971	7064
921.282	7097.44
921.593	6960.04
921.903	6918.91
922.214	6892.25
922.525	6894.06
922.835	6836.43
923.146	6813.15
923.456	6821.52
923.767	6753.27
924.077	6734.96
924.387	6704.23
924.697	6707.62
925.008	6654.74
925.318	6583.78
925.628	6643.67
925.938	6541.3
926.248	6495.42
926.558	6484.58
926.867	6507.63
927.177	6427.63
927.487	6483.45
927.796	6394.63
928.106	6337.69
928.416	6358.7
928.725	6366.84
929.034	6321.19
929.344	6250.23
929.653	6337.23
929.962	6249.78
930.271	6209.78
930.581	6142.21
930.89	6144.47
931.199	6141.99
931.508	6108.77
931.817	6104.02
932.125	6060.63
932.434	6047.98
932.743	6036.9
933.051	5992.84
933.36	5960.07
933.669	5937.7
933.977	5921.65
934.286	5862.67
934.594	5859.73
934.902	5853.86
935.21	5798.72
935.519	5770.47
935.827	5751.94
936.135	5749.91
936.443	5666.07
936.751	5688.89
937.059	5673.3
937.367	5644.82
937.674	5598.04
937.982	5570.02
938.29	5544.26
938.597	5552.62
938.905	5471.49
939.213	5501.1
939.52	5459.07
939.827	5467.88
940.135	5457.71
940.442	5395.34
940.749	5410.71
941.056	5376.36
941.363	5310.37
941.67	5292.06
941.977	5287.32
942.284	5280.99
942.591	5256.13
942.898	5188.56
943.205	5180.43
943.511	5144.05
943.818	5158.96
944.125	5135.68
944.431	5139.75
944.738	5105.63
945.044	5060.88
945.35	5048.23
945.657	4987.44
945.963	4996.7
946.269	4985.63
946.575	4973.43
946.881	4951.28
947.187	4909.7
947.493	4915.8
947.799	4835.13
948.105	4835.58
948.41	4838.52
948.716	4821.57
949.022	4756.03
949.327	4756.71
949.633	4747.22
949.938	4717.84
950.244	4731.63
950.549	4662.7
950.854	4662.48
951.16	4654.11
951.465	4640.33
951.77	4599.43
952.075	4572.31
952.38	4559.65
952.685	4542.25
952.99	4519.88
953.294	4519.66
953.599	4525.3
953.904	4501.58
954.209	4425.42
954.513	4435.14
954.818	4377.29
955.122	4366.44
955.426	4383.61
955.731	4357.85
956.035	4342.94
956.339	4326.89
956.643	4286.21
956.948	4290.28
957.252	4253
957.556	4275.37
957.86	4260
958.163	4217.06
958.467	4215.26
958.771	4141.81
959.075	4185.88
959.378	4132.55
959.682	4105.2
959.985	4084.19
960.289	4061.59
960.592	4095.94
960.896	4048.03
961.199	3999.22
961.502	4045.54
961.805	4019.1
962.108	3946.11
962.411	3974.13
962.714	3956.96
963.017	3912.44
963.32	3945.88
963.623	3897.98
963.926	3898.43
964.228	3854.81
964.531	3871.08
964.833	3855.49
965.136	3820.92
965.438	3781.82
965.741	3761.26
966.043	3787.02
966.345	3719.68
966.648	3757.19
966.95	3711.09
967.252	3688.72
967.554	3653.24
967.856	3676.29
968.158	3635.84
968.46	3648.72
968.761	3613.69
969.063	3623.86
969.365	3607.36
969.666	3583.41
969.968	3525.11
970.269	3520.59
970.571	3496.86
970.872	3510.19
971.174	3499.79
971.475	3504.99
971.776	3468.84
972.077	3450.53
972.378	3422.06
972.679	3433.13
972.98	3389.06
973.281	3411.44
973.582	3376.63
973.883	3366.92
974.183	3387.48
974.484	3347.26
974.785	3291.66
975.085	3343.64
975.386	3300.48
975.686	3293.25
975.986	3255.73
976.287	3265
976.587	3228.62
976.887	3193.14
977.187	3227.71
977.487	3196.3
977.787	3203.98
978.087	3166.92
978.387	3167.6
978.687	3130.31
978.987	3139.13
979.286	3075.63
979.586	3133.93
979.885	3087.15
980.185	3067.94
980.484	3048.96
980.784	3009.19
981.083	3060.26
981.382	3008.51
981.682	3018.68
981.981	3027.04
982.28	2994.95
982.579	2961.5
982.878	2966.93
983.177	2945.46
983.475	2937.1
983.774	2895.52
984.073	2894.61
984.372	2883.54
984.67	2848.96
984.969	2859.81
985.267	2843.77
985.566	2818.23
985.864	2802.86
986.162	2778.23
986.461	2768.74
986.759	2785.92
987.057	2771.45
987.355	2712.02
987.653	2757.89
987.951	2740.94
988.249	2711.79
988.547	2698.91
988.844	2710.44
989.142	2685.81
989.44	2655.3
989.737	2657.78
990.035	2673.38
990.332	2615.98
990.63	2615.75
990.927	2589.08
991.224	2596.54
991.521	2563.55
991.819	2571.23
992.116	2552.7
992.413	2554.51
992.71	2523.78
993.006	2499.14
993.303	2502.31
993.6	2526.49
993.897	2480.16
994.193	2472.25
994.49	2430.44
994.787	2457.11
995.083	2418.69
995.379	2414.63
995.676	2412.82
995.972	2395.64
996.268	2354.51
996.565	2378.92
996.861	2337.57
997.157	2350.67
997.453	2345.02
997.749	2297.79
998.044	2294.85
998.34	2311.58
998.636	2270.67
998.932	2282.43
999.227	2275.65
999.523	2236.1
999.818	2250.56
1000.114	2248.53
1000.409	2229.55
1000.704	2202.2
1001	2182.77
1001.295	2183.9
1001.59	2171.92
1001.885	2160.85
1002.18	2161.3
1002.475	2147.29
1002.77	2152.71
1003.065	2108.87
1003.359	2108.19
1003.654	2098.7
1003.949	2094.41
1004.243	2075.88
1004.538	2065.71
1004.832	2071.81
1005.127	2027.07
1005.421	2013.28
1005.715	2010.57
1006.009	2017.35
1006.304	1999.72
1006.598	2004.92
1006.892	1970.34
1007.186	1948.88
1007.48	1950.01
1007.773	1943.9
1008.067	1923.11
1008.361	1911.59
1008.655	1896
1008.948	1888.99
1009.242	1884.24
1009.535	1863.91
1009.829	1841.99
1010.122	1851.93
1010.415	1828.65
1010.708	1824.81
1011.001	1801.99
1011.295	1803.79
1011.588	1794.3
1011.881	1801.53
1012.173	1771.93
1012.466	1750.69
1012.759	1753.17
1013.052	1765.6
1013.344	1689.45
1013.637	1703.68
1013.93	1716.34
1014.222	1736.68
1014.514	1707.98
1014.807	1684.02
1015.099	1694.42
1015.391	1659.84
1015.683	1646.28
1015.976	1645.15
1016.268	1625.72
1016.56	1646.74
1016.851	1628.88
1017.143	1578.26
1017.435	1574.87
1017.727	1605.83
1018.018	1568.09
1018.31	1547.08
1018.602	1564.48
1018.893	1544.59
1019.185	1511.82
1019.476	1520.41
1019.767	1500.3
1020.058	1524.25
1020.35	1493.29
1020.641	1494.88
1020.932	1472.28
1021.223	1480.41
1021.514	1464.59
1021.804	1448.32
1022.095	1444.71
1022.386	1437.7
1022.677	1434.31
1022.967	1413.75
1023.258	1410.13
1023.548	1395.22
1023.839	1402.45
1024.129	1381.21
1024.419	1343.92
1024.709	1372.85
1025	1366.52
1025.29	1331.04
1025.58	1328.78
1025.87	1295.56
1026.16	1315.22
1026.449	1327.65
1026.739	1297.14
1027.029	1283.13
1027.319	1280.87
1027.608	1256.24
1027.898	1260.53
1028.187	1270.48
1028.477	1257.37
1028.766	1257.14
1029.055	1204.49
1029.344	1230.93
1029.634	1201.32
1029.923	1202
1030.212	1198.61
1030.501	1176.47
1030.79	1199.74
1031.078	1131.04
1031.367	1148.67
1031.656	1157.71
1031.945	1143.7
1032.233	1156.58
1032.522	1134.89
1032.81	1142.79
1033.099	1127.43
1033.387	1097.82
1033.675	1085.4
1033.963	1099.86
1034.251	1114.1
1034.54	1092.85
1034.828	1065.96
1035.116	1056.02
1035.403	1057.15
1035.691	1067.77
1035.979	1044.27
1036.267	1039.29
1036.554	1027.09
1036.842	1042.68
1037.129	1038.16
1037.417	1022.57
1037.704	994.55
1037.992	1010.14
1038.279	1013.31
1038.566	997.71
1038.853	997.71
1039.14	997.71
