Data from hue_38_FLMS001491_00057.txt Node
Date: Tue Feb 07 17:31:41 GMT 2017
User: dcchb
Spectrometer: FLMS00149
Trigger mode: 0
Integration Time (sec): 2.000000E-2
Scans to average: 10
Electric dark correction enabled: true
Nonlinearity correction enabled: false
Boxcar width: 0
XAxis mode: Wavelengths
Number of Pixels in Spectrum: 2048
>>>>>Begin Spectral Data<<<<<
341.393	-18.63
341.776	-18.63
342.16	-18.63
342.543	-47.78
342.927	-65.86
343.31	-57.72
343.693	-72.19
344.077	-63.37
344.46	-64.73
344.843	-37.61
345.226	-69.93
345.61	-32.64
345.993	-14.11
346.376	-18.63
346.759	10.3
347.142	21.82
347.525	51.65
347.908	57.53
348.291	77.64
348.674	91.88
349.057	120.12
349.44	127.13
349.823	144.3
350.206	165.09
350.588	195.15
350.971	210.29
351.354	202.61
351.737	244.64
352.119	267.01
352.502	267.24
352.884	288.93
353.267	273.57
353.65	273.57
354.032	295.94
354.414	333
354.797	315.15
355.179	336.16
355.562	324.19
355.944	324.19
356.326	330.06
356.709	334.13
357.091	324.41
357.473	349.95
357.855	342.72
358.238	325.32
358.62	351.3
359.002	338.65
359.384	346.11
359.766	349.27
360.148	348.59
360.53	354.47
360.912	341.14
361.294	326.22
361.676	347.69
362.057	345.65
362.439	337.29
362.821	338.65
363.203	328.03
363.584	346.56
363.966	308.82
364.348	314.47
364.729	316.95
365.111	313.57
365.493	335.49
365.874	309.95
366.256	323.51
366.637	322.6
367.019	321.7
367.4	311.31
367.781	323.51
368.163	320.57
368.544	318.99
368.925	321.93
369.306	337.97
369.688	302.49
370.069	328.48
370.45	325.77
370.831	321.93
371.212	322.15
371.593	326.67
371.974	322.83
372.355	314.92
372.736	318.99
373.117	322.38
373.498	301.14
373.879	325.99
374.26	333.23
374.641	338.88
375.021	303.4
375.402	323.06
375.783	333.9
376.163	325.32
376.544	344.98
376.925	325.77
377.305	335.94
377.686	353.56
378.066	333.68
378.447	315.6
378.827	333.45
379.208	346.56
379.588	330.74
379.968	335.26
380.349	348.82
380.729	331.19
381.109	331.19
381.489	360.57
381.87	347.69
382.25	334.13
382.63	330.74
383.01	351.3
383.39	352.89
383.77	362.15
384.15	362.83
384.53	359.89
384.91	340.46
385.29	371.42
385.67	352.66
386.049	356.95
386.429	368.03
386.809	353.34
387.189	351.76
387.568	362.6
387.948	346.78
388.328	376.84
388.707	372.77
389.087	368.7
389.466	368.25
389.846	361.93
390.225	372.09
390.605	382.94
390.984	377.29
391.363	378.2
391.743	369.38
392.122	378.87
392.501	387.46
392.881	375.26
393.26	379.55
393.639	400.34
394.018	383.17
394.397	376.16
394.776	371.64
395.155	391.53
395.534	382.49
395.913	368.7
396.292	404.18
396.671	388.82
397.05	391.98
397.429	383.39
397.808	398.08
398.186	418.42
398.565	387.91
398.944	417.74
399.323	387.24
399.701	394.24
400.08	414.35
400.458	396.05
400.837	410.96
401.215	427.01
401.594	431.75
401.972	401.92
402.351	410.51
402.729	400.57
403.107	425.43
403.486	412.32
403.864	399.44
404.242	424.52
404.62	396.73
404.999	456.84
405.377	434.92
405.755	428.36
406.133	450.74
406.511	430.4
406.889	454.13
407.267	429.04
407.645	448.7
408.023	438.76
408.401	442.6
408.779	466.56
409.156	430.17
409.534	441.92
409.912	457.29
410.29	457.74
410.667	471.98
411.045	484.41
411.422	440.12
411.8	459.55
412.178	466.1
412.555	485.76
412.933	476.95
413.31	491.64
413.687	477.63
414.065	501.58
414.442	508.59
414.819	500.23
415.197	508.36
415.574	514.69
415.951	494.58
416.328	495.71
416.705	514.24
417.082	521.7
417.46	535.48
417.837	556.5
418.214	536.61
418.591	548.14
418.967	512.66
419.344	521.02
419.721	542.26
420.098	550.17
420.475	545.65
420.852	548.59
421.228	517.63
421.605	532.99
421.982	556.72
422.358	554.24
422.735	563.73
423.111	558.53
423.488	585.65
423.864	568.7
424.241	574.58
424.617	565.31
424.994	587.46
425.37	588.81
425.746	563.5
426.123	577.29
426.499	589.72
426.875	603.28
427.251	605.53
427.627	618.87
428.003	614.57
428.379	618.19
428.756	598.08
429.132	631.3
429.507	636.72
429.883	624.07
430.259	664.74
430.635	633.56
431.011	656.61
431.387	655.7
431.763	668.58
432.138	676.95
432.514	682.6
432.89	679.21
433.265	681.24
433.641	680.34
434.016	723.5
434.392	717.85
434.767	714.91
435.143	712.65
435.518	713.78
435.894	721.46
436.269	737.06
436.644	742.48
437.02	766.89
437.395	723.5
437.77	740.22
438.145	738.19
438.52	760.11
438.895	778.19
439.271	790.39
439.646	796.26
440.021	786.55
440.395	783.61
440.77	790.61
441.145	783.38
441.52	796.94
441.895	812.99
442.27	827.45
442.645	804.4
443.019	832.65
443.394	837.39
443.769	855.02
444.143	835.36
444.518	857.28
444.892	838.98
445.267	847.11
445.641	864.96
446.016	869.93
446.39	865.19
446.764	867.22
447.139	854.12
447.513	898.18
447.887	856.83
448.262	896.83
448.636	897.96
449.01	892.31
449.384	894.79
449.758	910.84
450.132	888.69
450.506	930.72
450.88	917.17
451.254	923.49
451.628	936.83
452.002	942.25
452.376	982.47
452.75	976.15
453.123	1010.27
453.497	962.59
453.871	1003.26
454.244	987.67
454.618	1038.52
454.992	1052.08
455.365	1010.04
455.739	1020.89
456.112	1067.9
456.486	1058.63
456.859	1068.12
457.232	1107.89
457.606	1091.62
457.979	1091.17
458.352	1127.1
458.725	1125.97
459.099	1167.78
459.472	1168.23
459.845	1181.56
460.218	1194.67
460.591	1179.31
460.964	1207.1
461.337	1249.81
461.71	1251.85
462.083	1262.69
462.456	1254.56
462.829	1271.28
463.201	1278.51
463.574	1281.45
463.947	1299.3
464.32	1358.96
464.692	1351.5
465.065	1366.87
465.438	1412.52
465.81	1391.5
466.183	1406.42
466.555	1436.47
466.928	1449.35
467.3	1456.81
467.672	1474.21
468.045	1523.02
468.417	1519.18
468.789	1580.65
469.161	1559.41
469.534	1616.13
469.906	1663.36
470.278	1662.68
470.65	1673.3
471.022	1702.46
471.394	1732.28
471.766	1753.75
472.138	1812.73
472.51	1820.42
472.882	1866.07
473.253	1881.66
473.625	1935.9
473.997	1992.84
474.369	1972.96
474.74	2064.48
475.112	2099.28
475.484	2122.56
475.855	2165.95
476.227	2214.53
476.598	2297.69
476.97	2306.96
477.341	2376.11
477.713	2416.33
478.084	2441.42
478.455	2547.4
478.827	2587.63
479.198	2657.23
479.569	2684.58
479.94	2815.19
480.311	2827.4
480.682	2939.94
481.053	3002.08
481.424	3086.15
481.795	3147.61
482.166	3191.46
482.537	3315.07
482.908	3396.65
483.279	3465.8
483.65	3618.79
484.021	3661.5
484.391	3688.39
484.762	3829.63
485.133	3850.2
485.503	4002.73
485.874	4106.69
486.244	4160.92
486.615	4301.26
486.985	4389.39
487.356	4511.19
487.726	4561.82
488.097	4705.54
488.467	4759.78
488.837	4896.95
489.207	4994.35
489.578	5178.3
489.948	5218.97
490.318	5319.08
490.688	5370.38
491.058	5529.7
491.428	5642.24
491.798	5754.33
492.168	5936.47
492.538	5994.09
492.908	6087.2
493.278	6275.67
493.648	6315.44
494.017	6445.83
494.387	6520.18
494.757	6619.61
495.126	6736.67
495.496	6807.86
495.866	6902.09
496.235	7017.8
496.605	7140.05
496.974	7272.7
497.344	7328.07
497.713	7400.38
498.082	7446.26
498.452	7657.33
498.821	7697.78
499.19	7794.27
499.559	7902.97
499.928	7997.66
500.298	8142.51
500.667	8210.98
501.036	8205.11
501.405	8327.59
501.774	8386.12
502.143	8585.66
502.512	8586.34
502.88	8706.11
503.249	8773.23
503.618	8836.96
503.987	8882.38
504.356	9014.35
504.724	9135.48
505.093	9119.21
505.462	9248.7
505.83	9281.01
506.199	9431.07
506.567	9521.23
506.936	9547.67
507.304	9593.77
507.672	9746.31
508.041	9862.01
508.409	9866.53
508.777	10012.97
509.145	10086.87
509.514	10123.7
509.882	10200.08
510.25	10273.08
510.618	10319.86
510.986	10292.96
511.354	10620.19
511.722	10587.42
512.09	10723.23
512.458	10669.68
512.826	10788.09
513.193	10834.42
513.561	10899.28
513.929	11009.78
514.297	11138.14
514.664	11186.05
515.032	11196.89
515.4	11248.42
515.767	11335.65
516.135	11486.38
516.502	11432.14
516.869	11623.1
517.237	11583.55
517.604	11640.72
517.972	11752.36
518.339	11941.73
518.706	11901.96
519.073	11987.16
519.44	11998.68
519.808	12148.73
520.175	12085.46
520.542	12311.67
520.909	12351.21
521.276	12343.53
521.643	12509.85
522.009	12553.02
522.376	12670.3
522.743	12742.39
523.11	12875.49
523.477	12938.77
523.843	12952.78
524.21	13092.66
524.577	13239.1
524.943	13263.28
525.31	13364.97
525.676	13457.4
526.043	13570.17
526.409	13652.65
526.776	13712.99
527.142	13739.43
527.508	13884.73
527.874	13955.69
528.241	14059.87
528.607	14046.31
528.973	14280.2
529.339	14194.78
529.705	14382.57
530.071	14459.86
530.437	14540.54
530.803	14510.93
531.169	14666.86
531.535	14607.88
531.901	14681.32
532.267	14792.05
532.632	14896.46
532.998	14927.87
533.364	15000.41
533.73	15107.3
534.095	15256.45
534.461	15328.99
534.826	15284.7
535.192	15382.32
535.557	15570.34
535.923	15571.02
536.288	15589.1
536.653	15617.34
537.019	15635.2
537.384	15789.54
537.749	15821.41
538.114	15896.66
538.479	15924.91
538.845	16027.05
539.21	16041.06
539.575	16068.18
539.94	16010.33
540.305	16239.93
540.67	16218.91
541.034	16250.55
541.399	16341.62
541.764	16450.32
542.129	16554.95
542.494	16541.84
542.858	16632.91
543.223	16700.7
543.587	16816.63
543.952	16724.66
544.316	16881.49
544.681	16843.75
545.045	17069.28
545.41	17083.07
545.774	17070.86
546.138	17179.79
546.503	17301.37
546.867	17249.62
547.231	17387.69
547.595	17484.19
547.959	17517.18
548.324	17476.96
548.688	17563.51
549.052	17634.47
549.416	17641.92
549.779	17730.96
550.143	17809.38
550.507	17805.99
550.871	17942.03
551.235	18000.11
551.599	18073.1
551.962	18121.01
552.326	18182.02
552.689	18284.17
553.053	18250.04
553.417	18266.99
553.78	18579.53
554.143	18330.94
554.507	18516.48
554.87	18638.28
555.234	18739.3
555.597	18669.47
555.96	18737.04
556.323	18786.07
556.686	18773.42
557.05	18947.88
557.413	18935.45
557.776	19031.04
558.139	19160.08
558.502	19228.77
558.865	19315.1
559.228	19374.31
559.59	19456.11
559.953	19488.65
560.316	19659.27
560.679	19687.52
561.041	19815.65
561.404	19854.75
561.767	20082.76
562.129	19864.69
562.492	20176.09
562.854	20111.01
563.217	20098.13
563.579	20172.7
563.941	20328.18
564.304	20506.25
564.666	20450.44
565.028	20542.86
565.39	20577.67
565.753	20751.45
566.115	20793.7
566.477	20943.53
566.839	20831.67
567.201	21089.52
567.563	21087.26
567.925	21287.03
568.287	21172.45
568.648	21333.13
569.01	21431.88
569.372	21625.77
569.734	21497.41
570.095	21651.54
570.457	21758.88
570.819	21770.4
571.18	21845.88
571.542	21956.16
571.903	22059.66
572.265	22120.9
572.626	22249.03
572.987	22349.14
573.349	22308.92
573.71	22523.15
574.071	22650.6
574.432	22733.54
574.794	22920.2
575.155	23003.82
575.516	23087.2
575.877	23077.94
576.238	23287.2
576.599	23442
576.96	23441.77
577.32	23616
577.681	23816.45
578.042	23920.18
578.403	23993.62
578.763	24128.98
579.124	24327.4
579.485	24421.63
579.845	24516.77
580.206	24659.37
580.566	24812.81
580.927	24980.71
581.287	25157.66
581.648	25242.85
582.008	25448.27
582.368	25658.66
582.728	25882.84
583.089	25994.47
583.449	26075.83
583.809	26368.93
584.169	26617.51
584.529	26580.45
584.889	27117.83
585.249	27015.01
585.609	27240.09
585.969	27604.37
586.329	27674.43
586.688	28012.05
587.048	28139.27
587.408	28319.61
587.768	28601.63
588.127	28689.99
588.487	28909.65
588.846	29287.04
589.206	29288.4
589.565	29499.92
589.925	29922.05
590.284	30064.87
590.643	30287.47
591.003	30550.28
591.362	30711.41
591.721	30889.71
592.08	31076.37
592.44	31382.8
592.799	31709.8
593.158	31818.5
593.517	31972.62
593.876	32293.06
594.235	32331.71
594.593	32666.61
594.952	32886.04
595.311	33012.14
595.67	33361.06
596.029	33705.91
596.387	33912.91
596.746	34189.96
597.104	34132.34
597.463	34402.16
597.822	34791.75
598.18	34769.61
598.538	34874.69
598.897	35322.36
599.255	35196.49
599.613	35812.97
599.972	35926.64
600.33	36083.7
600.688	36052.06
601.046	36373.18
601.404	36643.91
601.762	36821.31
602.12	37124.12
602.478	37180.17
602.836	37399.6
603.194	37346.94
603.552	37620.83
603.91	37709.19
604.268	38079.8
604.625	37951.9
604.983	38286.13
605.341	38240.03
605.698	38545.1
606.056	38627.59
606.413	38664.42
606.771	39084.98
607.128	39232.99
607.485	39197.97
607.843	39268.47
608.2	39747.56
608.557	39820.77
608.914	39871.4
609.272	40181.67
609.629	40208.11
609.986	40399.97
610.343	40274.32
610.7	40757.93
611.057	40714.76
611.414	40719.28
611.771	41103.45
612.127	41125.37
612.484	41264.58
612.841	41434.07
613.198	41510.45
613.554	41663.66
613.911	41848.07
614.267	41951.79
614.624	41983.66
614.98	42110.66
615.337	42500.25
615.693	42272.24
616.05	42307.26
616.406	42568.73
616.762	42546.13
617.118	42753.35
617.475	42752.22
617.831	42952.22
618.187	42999
618.543	43026.79
618.899	43340.46
619.255	43363.51
619.611	43181.82
619.967	43578.64
620.323	43622.48
620.678	43706.55
621.034	43486.67
621.39	43511.98
621.746	43525.99
622.101	44057.27
622.457	43874.91
622.812	44027.22
623.168	44072.19
623.523	44193.77
623.879	44366.19
624.234	44108.35
624.589	44162.81
624.945	44345.85
625.3	44309.24
625.655	44422.91
626.01	44266.99
626.365	44523.7
626.72	44419.07
627.075	44467.66
627.43	44622.46
627.785	44473.31
628.14	44697.48
628.495	44669.01
628.85	44727.99
629.205	44563.48
629.559	44788.55
629.914	44553.98
630.269	44743.58
630.623	44661.78
630.978	44504.95
631.332	44785.39
631.687	44794.2
632.041	44640.54
632.396	44805.73
632.75	44462.46
633.104	44775.45
633.459	44640.31
633.813	44556.24
634.167	44600.54
634.521	44609.58
634.875	44726.86
635.229	44794.43
635.583	44543.36
635.937	44562.12
636.291	44478.28
636.645	44571.61
636.999	44645.73
637.352	44715.79
637.706	44452.97
638.06	44582.46
638.413	44479.41
638.767	44529.58
639.121	44565.73
639.474	44391.95
639.828	44504.95
640.181	44370.26
640.534	44346.76
640.888	44332.07
641.241	44138.4
641.594	44338.4
641.947	44484.61
642.301	44259.53
642.654	44331.62
643.007	44250.49
643.36	44230.83
643.713	44182.47
644.066	44409.81
644.419	44198.74
644.771	43852.76
645.124	43562.37
645.477	43461.58
645.83	43229.95
646.182	42960.58
646.535	42980.69
646.888	43036.96
647.24	42789.51
647.593	42988.83
647.945	42918.77
648.298	42840.36
648.65	42855.5
649.002	42782.96
649.355	42924.2
649.707	42891.2
650.059	43065.44
650.411	43505.65
650.763	43663.84
651.115	43995.35
651.467	43737.06
651.819	43662.71
652.171	43762.82
652.523	43649.15
652.875	43630.84
653.227	43345.2
653.578	43746.1
653.93	43746.77
654.282	43446.89
654.633	43342.49
654.985	43475.59
655.337	43473.56
655.688	43377.97
656.039	43611.18
656.391	43260.23
656.742	43311.98
657.094	43380.23
657.445	43518.76
657.796	43394.92
658.147	43368.48
658.498	43253.68
658.849	43428.59
659.2	43280.12
659.551	43245.54
659.902	43345.88
660.253	43214.81
660.604	43453.45
660.955	43100.69
661.306	43239.22
661.656	43327.8
662.007	43214.13
662.358	43250.74
662.708	43335.71
663.059	43182.04
663.409	43025.89
663.76	43299.55
664.11	43184.75
664.461	43311.3
664.811	43173
665.161	43265.66
665.511	43211.19
665.862	43247.58
666.212	43218.43
666.562	43149.28
666.912	43026.79
667.262	43039.67
667.612	43059.11
667.962	43076.51
668.312	42947.47
668.662	43306.11
669.011	43172.55
669.361	43130.52
669.711	42996.74
670.06	43045.32
670.41	43041.26
670.76	42883.29
671.109	42992.89
671.459	42942.05
671.808	42914.48
672.157	43045.32
672.507	42824.99
672.856	42726.46
673.205	42789.96
673.554	42847.59
673.904	42842.84
674.253	42930.3
674.602	43016.85
674.951	42438.79
675.3	42136.87
675.649	42764.88
675.998	42761.71
676.346	42710.42
676.695	42810.75
677.044	42407.83
677.393	42635.39
677.741	42700.93
678.09	42559.46
678.438	42488.28
678.787	42367.6
679.135	42545.45
679.484	42388.84
679.832	42503.64
680.181	42158.34
680.529	42370.31
680.877	42224.78
681.225	41999.25
681.573	42290.09
681.922	42176.65
682.27	41988.63
682.618	42095.97
682.966	41923.54
683.314	41995.86
683.661	41697.11
684.009	41672.48
684.357	41533.5
684.705	41663.89
685.053	41622.76
685.4	41593.84
685.748	41433.16
686.095	41359.49
686.443	41089.67
686.79	41153.17
687.138	41230.46
687.485	41338.48
687.832	41081.98
688.18	41228.2
688.527	40917.24
688.874	40985.49
689.221	40862.33
689.568	40653.07
689.915	40635.89
690.262	40639.51
690.609	40592.73
690.956	40403.36
691.303	40440.65
691.65	40214.21
691.997	40283.14
692.344	39980.09
692.69	39957.72
693.037	39998.17
693.383	39528.13
693.73	39732.87
694.077	39487
694.423	39634.79
694.769	39352.31
695.116	39379.43
695.462	39299.88
695.808	39135.14
696.155	39322.71
696.501	38890.4
696.847	39042.72
697.193	38810.41
697.539	38825.32
697.885	38545.78
698.231	38593.01
698.577	38566.34
698.923	38383.52
699.269	38329.06
699.614	38195.96
699.96	38030.09
700.306	38061.5
700.651	37966.13
700.997	37741.28
701.342	37722.07
701.688	37727.27
702.033	37653.6
702.379	37560.04
702.724	37411.8
703.069	37454.28
703.415	37078.93
703.76	37124.12
704.105	37064.69
704.45	36991.7
704.795	36784.7
705.14	36770.01
705.485	36692.95
705.83	36506.51
706.175	36727.07
706.52	36522.33
706.865	36377.25
707.209	36436.68
707.554	36127.76
707.899	36339.74
708.243	35986.07
708.588	36052.74
708.932	35763.03
709.277	35782.69
709.621	35715.12
709.966	35544.05
710.31	35586.76
710.654	35404.62
710.998	35307.22
711.342	35415.69
711.687	35292.53
712.031	35177.28
712.375	35074.69
712.719	35144.29
713.063	35036.27
713.407	35206.43
713.75	34903.39
714.094	34894.58
714.438	34669.72
714.782	34745.43
715.125	34484.42
715.469	34507.92
715.812	34440.13
716.156	34333.01
716.499	34381.82
716.843	34448.71
717.186	34169.85
717.53	34164.65
717.873	34221.6
718.216	34006.69
718.559	33975.5
718.902	33557.21
719.246	33825.45
719.589	33640.37
719.932	33552.24
720.275	33709.3
720.617	33535.74
720.96	33521.51
721.303	33507.72
721.646	33509.75
721.989	33267.95
722.331	33392.7
722.674	33216.43
723.016	33275.86
723.359	33340.27
723.701	33315.18
724.044	33007.85
724.386	32967.62
724.729	33033.16
725.071	32835.87
725.413	32930.33
725.755	32907.51
726.097	32663.68
726.439	32710.45
726.782	32728.98
727.124	32782.99
727.465	32565.37
727.807	32509.78
728.149	32454.42
728.491	32432.04
728.833	32403.12
729.175	32293.06
729.516	32323.12
729.858	32264.14
730.199	32198.83
730.541	31976.69
730.882	32111.6
731.224	32251.93
731.565	32087.19
731.906	31997.93
732.248	31974.2
732.589	31717.71
732.93	31773.75
733.271	31791.16
733.612	31813.75
733.953	31858.27
734.294	31664.15
734.635	31603.14
734.976	31538.05
735.317	31444.5
735.658	31388.91
735.999	31366.31
736.339	31356.82
736.68	31345.07
737.021	31302.58
737.361	31121.12
737.702	31366.99
738.042	31145.52
738.383	31079.99
738.723	31104.39
739.063	31028.46
739.404	31094
739.744	30835.02
740.084	30880.67
740.424	30825.76
740.764	30758.87
741.104	30929.94
741.444	30702.37
741.784	30679.77
742.124	30743.05
742.464	30514.13
742.804	30512.55
743.143	30574.46
743.483	30425.77
743.823	30435.26
744.162	30378.31
744.502	30363.4
744.841	30225.77
745.181	30412.89
745.52	30278.65
745.86	30303.74
746.199	30231.87
746.538	30062.39
746.877	30270.29
747.216	30117.53
747.556	29896.06
747.895	30098.77
748.234	29911.21
748.573	29882.05
748.911	29867.59
749.25	29839.12
749.589	29693.36
749.928	29720.93
750.267	29756.86
750.605	29587.82
750.944	29603.87
751.283	29452.69
751.621	29469.86
751.96	29360.03
752.298	29302.41
752.636	29368.39
752.975	29282.07
753.313	29132.92
753.651	29242.3
753.989	28990.1
754.327	28982.19
754.666	28940.16
755.004	28819.93
755.342	28919.14
755.679	29004.11
756.017	28731.8
756.355	28741.07
756.693	28605.48
757.031	28579.26
757.368	28515.54
757.706	28514.41
758.044	28437.8
758.381	28379.27
758.719	28299.27
759.056	28293.85
759.394	28133.62
759.731	28011.59
760.068	28098.37
760.405	27863.8
760.743	27876.23
761.08	27808.89
761.417	27633.52
761.754	27555.11
762.091	27540.65
762.428	27494.55
762.765	27396.92
763.102	27541.55
763.438	27203.25
763.775	27253.87
764.112	27150.83
764.449	27116.25
764.785	27007.1
765.122	26886.2
765.458	26712.87
765.795	26676.94
766.131	26607.11
766.467	26671.52
766.804	26493.44
767.14	26361.47
767.476	26342.49
767.812	26234.24
768.148	26241.25
768.485	25976.85
768.821	25800.58
769.157	25838.09
769.492	25762.16
769.828	25738.66
770.164	25559.91
770.5	25472.23
770.836	25485.56
771.171	25244.66
771.507	25319.24
771.842	25027.72
772.178	25062.29
772.513	25053.48
772.849	25035.85
773.184	24827.95
773.519	24835.18
773.855	24626.37
774.19	24537.11
774.525	24486.71
774.86	24485.58
775.195	24382.76
775.53	24277.68
775.865	24210.79
776.2	24003.11
776.535	23909.33
776.87	23958.14
777.205	23847.86
777.539	23689
777.874	23682.67
778.209	23480.41
778.543	23562.9
778.878	23417.82
779.212	23338.04
779.547	23263.24
779.881	23281.55
780.215	23060.09
780.55	23037.71
780.884	22835.46
781.218	22833.65
781.552	22850.15
781.886	22727.44
782.22	22612.41
782.554	22585.75
782.888	22326.77
783.222	22297.17
783.556	22257.39
783.889	22143.05
784.223	21994.35
784.557	21965.65
784.89	21967.46
785.224	21887.91
785.557	21614.7
785.891	21637.3
786.224	21584.42
786.558	21619.67
786.891	21495.83
787.224	21341.49
787.557	21272.56
787.891	21168.61
788.224	21187.59
788.557	21082.74
788.89	21140.59
789.223	21071.89
789.556	20917.09
789.888	20773.59
790.221	20759.81
790.554	20614.73
790.887	20620.15
791.219	20514.39
791.552	20440.04
791.884	20367.05
792.217	20335.86
792.549	20246.83
792.882	20095.42
793.214	20076.44
793.546	20095.87
793.879	19937.46
794.211	19920.73
794.543	19931.35
794.875	19837.57
795.207	19851.58
795.539	19618.14
795.871	19707.86
796.203	19521.2
796.535	19377.47
796.867	19290.47
797.198	19303.8
797.53	19300.86
797.862	19132.51
798.193	19205.95
798.525	19091.83
798.856	19059.06
799.188	18896.13
799.519	18822.46
799.85	18701.56
800.182	18764.15
800.513	18815.23
800.844	18556.7
801.175	18620.65
801.506	18676.7
801.837	18480.77
802.168	18514.22
802.499	18396.25
802.83	18300.44
803.161	18288.23
803.491	18243.94
803.822	18305.18
804.153	18099.99
804.483	18081.23
804.814	17902.03
805.145	17848.25
805.475	17919.66
805.805	17799.89
806.136	17903.84
806.466	17807.12
806.796	17863.39
807.126	17617.07
807.457	17636.5
807.787	17585.43
808.117	17432.44
808.447	17427.01
808.777	17414.36
809.107	17417.75
809.436	17416.17
809.766	17247.58
810.096	17191.31
810.426	17194.03
810.755	17090.53
811.085	16988.61
811.414	16976.4
811.744	16905.22
812.073	16893.47
812.403	16866.8
812.732	16779.35
813.061	16746.58
813.39	16751.1
813.719	16631.33
814.049	16730.99
814.378	16604.89
814.707	16590.88
815.036	16527.38
815.365	16389.3
815.693	16329.64
816.022	16312.47
816.351	16291.22
816.68	16223.2
817.008	16197.44
817.337	16109.76
817.665	15977.11
817.994	16122.19
818.322	16079.7
818.651	15952.25
818.979	15953.38
819.307	15928.75
819.636	16039.48
819.964	15804.01
820.292	15919.03
820.62	15849.88
820.948	15751.58
821.276	15827.51
821.604	15822.99
821.932	15886.26
822.259	15895.75
822.587	15729.66
822.915	15702.09
823.243	15779.6
823.57	15734.63
823.898	15715.42
824.225	15596.1
824.553	15718.13
824.88	15695.53
825.207	15710.9
825.535	15698.25
825.862	15785.25
826.189	15682.43
826.516	15780.73
826.843	15778.02
827.17	15833.38
827.497	15714.06
827.824	15723.56
828.151	15778.92
828.478	15654.4
828.805	15721.3
829.131	15683.56
829.458	15670.45
829.785	15589.32
830.111	15658.47
830.438	15712.93
830.764	15674.07
831.09	15713.16
831.417	15582.77
831.743	15688.3
832.069	15582.77
832.395	15562.88
832.722	15632.03
833.048	15574.41
833.374	15616.21
833.7	15536.89
834.026	15550.23
834.351	15550.68
834.677	15568.53
835.003	15517.46
835.329	15515.65
835.654	15585.03
835.98	15414.64
836.306	15476.56
836.631	15389.55
836.956	15437.69
837.282	15373.28
837.607	15359.05
837.932	15368.76
838.258	15298.93
838.583	15357.69
838.908	15116.57
839.233	15225.04
839.558	15147.98
839.883	15096.68
840.208	15133.74
840.533	14996.12
840.858	15036.57
841.182	15053.29
841.507	14936.91
841.832	14949.11
842.156	14920.41
842.481	14893.75
842.805	14779.4
843.13	14840.41
843.454	14816.46
843.778	14837.25
844.103	14651.27
844.427	14803.35
844.751	14752.73
845.075	14554.77
845.399	14593.64
845.723	14484.94
846.047	14538.28
846.371	14464.38
846.695	14409.47
847.019	14273.42
847.343	14251.73
847.666	14190.26
847.99	14085.86
848.313	14107.55
848.637	13969.25
848.96	14011.51
849.284	13951.17
849.607	13778.75
849.931	13831.18
850.254	13682.25
850.577	13618.98
850.9	13533.1
851.223	13587.57
851.546	13497.4
851.869	13419.21
852.192	13381.02
852.515	13288.59
852.838	13254.92
853.161	13282.94
853.483	13219.89
853.806	13122.72
854.129	13112.78
854.451	13043.4
854.774	12983.51
855.096	12952.33
855.419	12871.43
855.741	12896.74
856.063	12822.39
856.385	12807.25
856.708	12784.88
857.03	12691.09
857.352	12749.85
857.674	12687.7
857.996	12624.43
858.318	12510.08
858.64	12527.48
858.961	12531.1
859.283	12371.1
859.605	12429.4
859.926	12424.21
860.248	12372.91
860.57	12324.55
860.891	12333.81
861.212	12234.38
861.534	12326.13
861.855	12166.81
862.176	12165.91
862.498	12188.28
862.819	12162.29
863.14	12098.34
863.461	12166.36
863.782	12101.05
864.103	12080.71
864.424	12070.54
864.745	12074.16
865.065	11949.64
865.386	11951.9
865.707	11891.79
866.027	11924.33
866.348	11837.56
866.668	11929.98
866.989	11857.89
867.309	11788.97
867.63	11814.73
867.95	11788.52
868.27	11673.49
868.59	11728.63
868.91	11758.46
869.23	11783.77
869.55	11665.13
869.87	11698.58
870.19	11725.02
870.51	11678.46
870.83	11640.95
871.15	11500.62
871.469	11520.5
871.789	11572.7
872.109	11551.24
872.428	11425.36
872.748	11517.56
873.067	11487.51
873.386	11566.15
873.706	11439.83
874.025	11327.06
874.344	11416.32
874.663	11374.52
874.982	11338.59
875.301	11320.51
875.62	11292.94
875.939	11306.04
876.258	11243
876.577	11254.52
876.896	11195.76
877.214	11165.26
877.533	11184.92
877.852	11247.74
878.17	11197.12
878.489	11193.51
878.807	11117.35
879.125	11174.3
879.444	11101.76
879.762	11039.16
880.08	11127.29
880.398	11060.18
880.716	11044.13
881.034	10951.93
881.352	11000.52
881.67	10910.12
881.988	10933.17
882.306	10880.52
882.624	10799.39
882.941	10833.06
883.259	10745.61
883.577	10801.43
883.894	10750.35
884.212	10776.57
884.529	10735.44
884.846	10648.66
885.164	10638.94
885.481	10565.95
885.798	10655.67
886.115	10583.8
886.432	10528.89
886.75	10526.63
887.067	10521.66
887.383	10508.55
887.7	10560.08
888.017	10478.27
888.334	10422.68
888.651	10385.39
888.967	10391.27
889.284	10335.67
889.6	10306.07
889.917	10269.24
890.233	10233.08
890.55	10184.27
890.866	10201.21
891.182	10240.31
891.498	10077.38
891.815	10122.57
892.131	10067.66
892.447	10106.3
892.763	10048.68
893.079	10008.23
893.395	9997.38
893.71	9993.08
894.026	9951.96
894.342	9916.48
894.657	9892.97
894.973	9820.21
895.289	9834.67
895.604	9810.04
895.92	9680.78
896.235	9663.15
896.55	9680.78
896.865	9588.8
897.181	9580.21
897.496	9551.97
897.811	9501.8
898.126	9515.13
898.441	9415.02
898.756	9434.68
899.071	9354.68
899.386	9355.59
899.7	9378.86
900.015	9261.35
900.33	9244.86
900.644	9128.7
900.959	9263.61
901.273	9163.95
901.588	9118.98
901.902	9104.07
902.216	9048.25
902.531	9027.23
902.845	9033.11
903.159	8908.37
903.473	8921.7
903.787	8864.53
904.101	8792.21
904.415	8806.45
904.729	8756.51
905.042	8734.13
905.356	8718.32
905.67	8740.24
905.984	8746.34
906.297	8649.84
906.611	8625.44
906.924	8603.29
907.237	8571.88
907.551	8541.37
907.864	8476.97
908.177	8438.1
908.491	8485.33
908.804	8358.55
909.117	8366.23
909.43	8314.71
909.743	8276.29
910.056	8199.69
910.368	8210.08
910.681	8184.54
910.994	8101.38
911.307	8123.98
911.619	8072.46
911.932	8047.37
912.244	7966.25
912.557	7972.57
912.869	7935.51
913.181	7955.17
913.494	7868.62
913.806	7829.07
914.118	7841.73
914.43	7788.62
914.742	7758.12
915.054	7716.31
915.366	7693.26
915.678	7692.35
915.99	7634.05
916.302	7558.8
916.613	7499.36
916.925	7462.08
917.236	7509.99
917.548	7412.14
917.859	7477.44
918.171	7400.61
918.482	7352.48
918.794	7356.77
919.105	7316.32
919.416	7251.24
919.727	7243.33
920.038	7258.24
920.349	7211.01
920.66	7189.09
920.971	7116.55
921.282	7097.12
921.593	7038.36
921.903	7024.12
922.214	6956.55
922.525	6943.67
922.835	6920.85
923.146	6846.95
923.456	6891.47
923.767	6856.9
924.077	6838.59
924.387	6785.71
924.697	6784.81
925.008	6697.13
925.318	6718.82
925.628	6656.9
925.938	6667.07
926.248	6566.51
926.558	6604.93
926.867	6580.29
927.177	6545.72
927.487	6522.67
927.796	6461.88
928.106	6492.39
928.416	6451.48
928.725	6401.31
929.034	6374.87
929.344	6402.67
929.653	6342.56
929.962	6271.15
930.271	6219.17
930.581	6233.64
930.89	6203.81
931.199	6130.36
931.508	6171.72
931.817	6163.35
932.125	6100.53
932.434	6083.81
932.743	6019.86
933.051	6039.97
933.36	5989.35
933.669	5978.05
933.977	5912.06
934.286	5944.15
934.594	5928.78
934.902	5851.95
935.21	5842.69
935.519	5808.56
935.827	5753.87
936.135	5719.52
936.443	5713.65
936.751	5737.38
937.059	5694.67
937.367	5713.2
937.674	5685.18
937.982	5626.65
938.29	5611.5
938.597	5630.71
938.905	5550.49
939.213	5533.99
939.52	5466.2
939.827	5506.2
940.135	5449.7
940.442	5390.27
940.749	5438.4
941.056	5349.82
941.363	5320.89
941.67	5332.64
941.977	5301.68
942.284	5310.95
942.591	5272.53
942.898	5228.46
943.205	5207.9
943.511	5160.67
943.818	5164.51
944.125	5157.73
944.431	5123.16
944.738	5106.43
945.044	5104.4
945.35	5090.16
945.657	5039.09
945.963	5006.1
946.269	4982.82
946.575	4953.44
946.881	4950.96
947.187	4909.6
947.493	4957.96
947.799	4906.89
948.105	4871.86
948.41	4836.38
948.716	4849.27
949.022	4836.38
949.327	4841.36
949.633	4750.51
949.938	4720.23
950.244	4723.62
950.549	4712.32
950.854	4679.1
951.16	4680
951.465	4641.81
951.77	4637.97
952.075	4598.65
952.38	4595.94
952.685	4552.32
952.99	4506.22
953.294	4546.9
953.599	4500.12
953.904	4427.81
954.209	4467.13
954.513	4503.51
954.818	4431.65
955.122	4372.22
955.426	4374.7
955.731	4346.68
956.035	4347.36
956.339	4379.22
956.643	4322.05
956.948	4302.84
957.252	4284.31
957.556	4254.7
957.86	4259
958.163	4209.96
958.467	4148.04
958.771	4216.74
959.075	4174.93
959.378	4156.85
959.682	4145.1
959.985	4158.21
960.289	4060.13
960.592	4107.14
960.896	4061.94
961.199	4045.67
961.502	4034.37
961.805	3991.21
962.108	3973.58
962.411	3958.22
962.714	3955.05
963.017	3923.87
963.32	3950.76
963.623	3889.29
963.926	3886.35
964.228	3866.47
964.531	3802.29
964.833	3815.17
965.136	3805.45
965.438	3793.47
965.741	3762.74
966.043	3760.03
966.345	3739.69
966.648	3755.28
966.95	3690.65
967.252	3657.66
967.554	3662.18
967.856	3650.43
968.158	3655.4
968.46	3636.64
968.761	3630.31
969.063	3630.31
969.365	3566.36
969.666	3584.89
969.968	3582.41
970.269	3568.85
970.571	3542.86
970.872	3528.62
971.174	3494.72
971.475	3511.9
971.776	3505.8
972.077	3454.5
972.378	3429.87
972.679	3430.55
972.98	3450.21
973.281	3356.88
973.582	3371.34
973.883	3375.86
974.183	3371.56
974.484	3375.18
974.785	3352.58
975.085	3309.87
975.386	3297.67
975.686	3280.94
975.986	3264.22
976.287	3308.97
976.587	3212.47
976.887	3249.76
977.187	3207.95
977.487	3253.6
977.787	3153.72
978.087	3168.41
978.387	3138.12
978.687	3170.44
978.987	3137.22
979.286	3131.34
979.586	3107.39
979.885	3095.64
980.185	3051.12
980.484	3051.35
980.784	3025.58
981.083	3011.57
981.382	3033.27
981.682	2988.52
981.981	3007.05
982.28	2958.24
982.579	2942.65
982.878	2944.91
983.177	2893.61
983.475	2933.61
983.774	2899.03
984.073	2867.17
984.372	2885.02
984.67	2854.74
984.969	2892.71
985.267	2881.18
985.566	2840.96
985.864	2795.31
986.162	2813.16
986.461	2762.77
986.759	2783.33
987.057	2731.58
987.355	2751.47
987.653	2753.05
987.951	2700.85
988.249	2742.43
988.547	2720.73
988.844	2683.67
989.142	2701.53
989.44	2644.58
989.737	2641.64
990.035	2625.37
990.332	2631.02
990.63	2627.4
990.927	2615.65
991.224	2590.12
991.521	2584.01
991.819	2538.37
992.116	2537.01
992.413	2557.35
992.71	2510.34
993.006	2534.07
993.303	2485.94
993.6	2492.72
993.897	2495.2
994.193	2468.08
994.49	2441.87
994.787	2461.31
995.083	2410.91
995.379	2444.13
995.676	2434.41
995.972	2394.19
996.268	2349.22
996.565	2364.81
996.861	2365.49
997.157	2363.91
997.453	2355.77
997.749	2364.36
998.044	2284.59
998.34	2313.96
998.636	2310.57
998.932	2258.82
999.227	2268.77
999.523	2259.95
999.818	2250.24
1000.114	2202.33
1000.409	2230.8
1000.704	2214.31
1001	2199.39
1001.295	2179.28
1001.59	2189
1001.885	2162.56
1002.18	2170.92
1002.475	2127.75
1002.77	2130.47
1003.065	2100.64
1003.359	2083.24
1003.654	2117.59
1003.949	2098.83
1004.243	2068.77
1004.538	2031.26
1004.832	2041.2
1005.127	2068.1
1005.421	2027.42
1005.715	2009.79
1006.009	2027.87
1006.304	2020.64
1006.598	1977.7
1006.892	1982
1007.186	1948.55
1007.48	1978.83
1007.773	1945.16
1008.067	1959.62
1008.361	1906.97
1008.655	1935.9
1008.948	1905.61
1009.242	1883.69
1009.535	1873.52
1009.829	1864.48
1010.122	1878.5
1010.415	1847.54
1010.708	1838.95
1011.001	1812.73
1011.295	1779.97
1011.588	1793.53
1011.881	1788.1
1012.173	1798.05
1012.466	1809.57
1012.759	1757.6
1013.052	1757.14
1013.344	1713.08
1013.637	1723.47
1013.93	1707.65
1014.222	1697.26
1014.514	1669.24
1014.807	1699.29
1015.099	1685.96
1015.391	1657.48
1015.683	1676.47
1015.976	1670.37
1016.268	1636.92
1016.56	1641.21
1016.851	1613.64
1017.143	1579.29
1017.435	1600.54
1017.727	1603.25
1018.018	1577.94
1018.31	1549.01
1018.602	1567.77
1018.893	1547.66
1019.185	1559.41
1019.476	1527.32
1019.767	1536.36
1020.058	1517.83
1020.35	1508.79
1020.641	1482.8
1020.932	1483.7
1021.223	1459.07
1021.514	1448
1021.804	1425.4
1022.095	1430.15
1022.386	1444.16
1022.677	1438.73
1022.967	1432.63
1023.258	1390.83
1023.548	1404.84
1023.839	1374.33
1024.129	1383.82
1024.419	1386.53
1024.709	1364.39
1025	1349.24
1025.29	1329.13
1025.58	1315.12
1025.87	1322.13
1026.16	1329.58
1026.449	1311.51
1026.739	1307.89
1027.029	1271.05
1027.319	1271.51
1027.608	1279.87
1027.898	1261.34
1028.187	1239.64
1028.477	1247.78
1028.766	1218.63
1029.055	1223.6
1029.344	1222.24
1029.634	1222.92
1029.923	1205.29
1030.212	1191.28
1030.501	1183.37
1030.79	1177.05
1031.078	1168.23
1031.367	1177.05
1031.656	1152.87
1031.945	1142.47
1032.233	1172.3
1032.522	1157.38
1032.81	1136.14
1033.099	1114.67
1033.387	1127.78
1033.675	1117.84
1033.963	1101.34
1034.251	1096.14
1034.54	1130.94
1034.828	1062.47
1035.116	1093.88
1035.403	1080.32
1035.691	1075.81
1035.979	1066.77
1036.267	1052.75
1036.554	1067.67
1036.842	1022.02
1037.129	1016.6
1037.417	1043.04
1037.704	1020.44
1037.992	1012.53
1038.279	1001.46
1038.566	989.48
1038.853	989.48
1039.14	989.48
