Data from hue_180_FLMS001491_00091.txt Node
Date: Tue Feb 07 16:47:43 GMT 2017
User: dcchb
Spectrometer: FLMS00149
Trigger mode: 0
Integration Time (sec): 2.000000E-2
Scans to average: 10
Electric dark correction enabled: true
Nonlinearity correction enabled: false
Boxcar width: 0
XAxis mode: Wavelengths
Number of Pixels in Spectrum: 2048
>>>>>Begin Spectral Data<<<<<
341.393	-19.46
341.776	-19.46
342.16	-19.46
342.543	-57.65
342.927	-54.72
343.31	-61.04
343.693	-79.35
344.077	-66.47
344.46	-68.95
344.843	-45
345.226	-39.58
345.61	-30.99
345.993	-16.52
346.376	19.86
346.759	11.5
347.142	23.7
347.525	35.23
347.908	50.59
348.291	66.41
348.674	84.94
349.057	115.67
349.44	124.71
349.823	159.74
350.206	154.32
350.588	197.25
350.971	195.22
351.354	214.2
351.737	229.34
352.119	245.62
352.502	256.01
352.884	279.74
353.267	275.9
353.65	293.3
354.032	307.99
354.414	300.3
354.797	294.65
355.179	319.29
355.562	301.21
355.944	311.15
356.326	327.19
356.709	352.05
357.091	333.3
357.473	347.31
357.855	342.79
358.238	328.1
358.62	338.95
359.002	339.85
359.384	344.37
359.766	350.25
360.148	317.03
360.53	323.13
360.912	328.55
361.294	321.77
361.676	312.05
362.057	319.51
362.439	329.91
362.821	319.29
363.203	354.99
363.584	322.45
363.966	320.19
364.348	316.8
364.729	300.98
365.111	314.54
365.493	317.48
365.874	302.34
366.256	304.6
366.637	289.68
367.019	302.34
367.4	310.92
367.781	322.45
368.163	316.12
368.544	323.13
368.925	293.98
369.306	318.38
369.688	296.91
370.069	298.72
370.45	284.94
370.831	328.32
371.212	293.07
371.593	300.98
371.974	323.13
372.355	336.46
372.736	311.38
373.117	314.09
373.498	316.35
373.879	291.04
374.26	317.93
374.641	320.64
375.021	310.47
375.402	320.19
375.783	308.44
376.163	320.87
376.544	302.34
376.925	321.09
377.305	317.03
377.686	322.45
378.066	316.57
378.447	316.35
378.827	328.32
379.208	344.37
379.588	309.57
379.968	341.21
380.349	301.43
380.729	318.83
381.109	308.44
381.489	327.42
381.87	309.57
382.25	337.36
382.63	329.91
383.01	317.7
383.39	342.79
383.77	345.05
384.15	330.13
384.53	356.35
384.91	339.4
385.29	361.77
385.67	343.01
386.049	342.56
386.429	371.26
386.809	339.85
387.189	351.37
387.568	351.15
387.948	348.21
388.328	373.75
388.707	358.61
389.087	355.22
389.466	345.27
389.846	377.81
390.225	357.48
390.605	352.28
390.984	356.12
391.363	368.55
391.743	356.35
392.122	369.68
392.501	381.43
392.881	387.53
393.26	356.12
393.639	396.12
394.018	369.68
394.397	372.17
394.776	403.8
395.155	402.45
395.534	365.61
395.913	384.59
396.292	394.09
396.671	378.72
397.05	382.33
397.429	390.92
397.808	391.15
398.186	391.83
398.565	394.31
398.944	378.27
399.323	393.41
399.701	389.11
400.08	392.96
400.458	402
400.837	406.29
401.215	403.35
401.594	401.09
401.972	414.88
402.351	404.03
402.729	412.16
403.107	408.77
403.486	438.38
403.864	432.5
404.242	445.61
404.62	437.93
404.999	424.59
405.377	428.66
405.755	442.22
406.133	432.95
406.511	450.36
406.889	460.07
407.267	453.29
407.645	436.57
408.023	458.26
408.401	458.26
408.779	461.2
409.156	488.77
409.534	494.2
409.912	498.26
410.29	501.88
410.667	511.6
411.045	506.17
411.422	525.16
411.8	523.57
412.178	510.92
412.555	533.29
412.933	540.3
413.31	534.65
413.687	546.85
414.065	571.71
414.442	559.05
414.819	568.77
415.197	577.58
415.574	594.08
415.951	591.14
416.328	576
416.705	610.35
417.082	630.46
417.46	643.12
417.837	649.45
418.214	624.81
418.591	634.31
418.967	632.27
419.344	657.13
419.721	660.29
420.098	646.28
420.475	676.11
420.852	679.95
421.228	690.8
421.605	697.35
421.982	689.9
422.358	722.66
422.735	721.53
423.111	744.81
423.488	759.95
423.864	764.25
424.241	779.61
424.617	786.84
424.994	781.19
425.37	788.88
425.746	805.37
426.123	809.89
426.499	813.96
426.875	863.23
427.251	860.29
427.627	872.72
428.003	872.72
428.379	888.31
428.756	888.31
429.132	901.19
429.507	899.84
429.883	927.63
430.259	955.65
430.635	950
431.011	963.11
431.387	963.11
431.763	993.39
432.138	978.93
432.514	1014.41
432.89	1005.14
433.265	1012.37
433.641	1057.12
434.016	1052.37
434.392	1066.16
434.767	1101.41
435.143	1096.21
435.518	1104.58
435.894	1129.66
436.269	1171.24
436.644	1180.28
437.02	1150.22
437.395	1201.52
437.77	1221.18
438.145	1292.82
438.52	1271.8
438.895	1261.18
439.271	1278.58
439.646	1309.77
440.021	1338.02
440.395	1353.38
440.77	1340.05
441.145	1389.99
441.52	1404.91
441.895	1402.42
442.27	1408.3
442.645	1405.36
443.019	1439.71
443.394	1452.36
443.769	1488.07
444.143	1481.51
444.518	1485.36
444.892	1467.5
445.267	1499.59
445.641	1530.1
446.016	1531.68
446.39	1530.33
446.764	1529.88
447.139	1561.96
447.513	1561.96
447.887	1605.58
448.262	1612.36
448.636	1619.82
449.01	1644.45
449.384	1653.04
449.758	1658.46
450.132	1702.75
450.506	1677.67
450.88	1707.72
451.254	1703.43
451.628	1719.7
452.002	1777.33
452.376	1779.81
452.75	1823.88
453.123	1776.65
453.497	1832.01
453.871	1828.4
454.244	1878.11
454.618	1865.01
454.992	1937.55
455.365	1934.16
455.739	1978.9
456.112	1964.21
456.486	2008.51
456.859	1997.43
457.232	2054.38
457.606	2073.82
457.979	2132.35
458.352	2141.61
458.725	2136.86
459.099	2168.28
459.472	2210.54
459.845	2249.18
460.218	2243.75
460.591	2276.3
460.964	2300.02
461.337	2342.06
461.71	2365.56
462.083	2445.33
462.456	2454.6
462.829	2405.56
463.201	2451.88
463.574	2489.17
463.947	2560.58
464.32	2588.6
464.692	2650.3
465.065	2635.16
465.438	2655.27
465.81	2733.46
466.183	2740.24
466.555	2790.63
466.928	2783.18
467.3	2812.1
467.672	2916.05
468.045	2977.52
468.417	2999.89
468.789	3010.06
469.161	3057.97
469.534	3125.31
469.906	3196.72
470.278	3219.77
470.65	3248.93
471.022	3310.17
471.394	3344.06
471.766	3368.47
472.138	3449.15
472.51	3545.19
472.882	3588.58
473.253	3594.23
473.625	3669.03
473.997	3722.13
474.369	3825.41
474.74	3871.06
475.112	3913.77
475.484	4019.53
475.855	4098.85
476.227	4133.87
476.598	4257.94
476.97	4290.71
477.341	4371.61
477.713	4455.9
478.084	4525.28
478.455	4659.51
478.827	4678.27
479.198	4814.99
479.569	4880.52
479.94	5015.43
480.311	5056.11
480.682	5153.51
481.053	5312.15
481.424	5413.39
481.795	5437.34
482.166	5565.02
482.537	5683.44
482.908	5745.58
483.279	5882.98
483.65	6015.18
484.021	6120.71
484.391	6170.43
484.762	6270.54
485.133	6336.98
485.503	6465.11
485.874	6558.67
486.244	6682.96
486.615	6784.2
486.985	6882.28
487.356	7003.4
487.726	7093.34
488.097	7233.45
488.467	7347.58
488.837	7454.01
489.207	7621.01
489.578	7627.79
489.948	7765.87
490.318	7888.58
490.688	7998.41
491.058	8043.83
491.428	8162.92
491.798	8247.21
492.168	8401.33
492.538	8436.13
492.908	8565.4
493.278	8626.64
493.648	8706.41
494.017	8760.87
494.387	8922.67
494.757	9006.51
495.126	9143.46
495.496	9071.15
495.866	9125.83
496.235	9307.07
496.605	9342.55
496.974	9446.73
497.344	9466.84
497.713	9521.76
498.082	9625.71
498.452	9692.6
498.821	9707.06
499.19	9718.81
499.559	9865.7
499.928	9920.61
500.298	9943.44
500.667	10034.51
501.036	10047.84
501.405	10166.94
501.774	10090.78
502.143	10208.97
502.512	10228.18
502.88	10278.8
503.249	10212.13
503.618	10395.18
503.987	10402.64
504.356	10432.47
504.724	10479.7
505.093	10521.05
505.462	10535.74
505.83	10576.87
506.199	10690.54
506.567	10754.94
506.936	10737.54
507.304	10877.65
507.672	10799.01
508.041	10831.78
508.409	10860.03
508.777	11008.5
509.145	10974.6
509.514	10997.65
509.882	11019.34
510.25	11067.25
510.618	11117.87
510.986	11043.52
511.354	11134.82
511.722	11181.15
512.09	11247.36
512.458	11184.31
512.826	11302.05
513.193	11357.64
513.561	11362.84
513.929	11369.84
514.297	11385.21
514.664	11474.25
515.032	11455.49
515.4	11517.64
515.767	11493.45
516.135	11462.72
516.502	11457.98
516.869	11577.97
517.237	11594.92
517.604	11509.27
517.972	11594.47
518.339	11614.81
518.706	11604.86
519.073	11581.14
519.44	11648.93
519.808	11693
520.175	11730.96
520.542	11708.14
520.909	11806.21
521.276	11750.4
521.643	11857.51
522.009	11832.2
522.376	11810.06
522.743	11783.62
523.11	11878.98
523.477	11934.35
523.843	11867.68
524.21	11982.71
524.577	11961.01
524.943	11990.84
525.31	11993.33
525.676	12063.84
526.043	12039.43
526.409	12063.16
526.776	12092.76
527.142	12081.01
527.508	12027.23
527.874	12075.81
528.241	12091.86
528.607	11993.1
528.973	12087.34
529.339	12056.38
529.705	12029.94
530.071	12096.83
530.437	12017.51
530.803	12050.73
531.169	12039.88
531.535	11967.34
531.901	12010.73
532.267	11971.63
532.632	12016.15
532.998	12002.37
533.364	11948.13
533.73	11961.24
534.095	11963.5
534.461	11855.03
534.826	11813.67
535.192	11858.42
535.557	11846.44
535.923	11806.21
536.288	11672.21
536.653	11673.34
537.019	11626.78
537.384	11583.4
537.749	11553.11
538.114	11567.35
538.479	11503.62
538.845	11511.31
539.21	11405.1
539.575	11428.6
539.94	11376.85
540.305	11391.08
540.67	11322.84
541.034	11286.91
541.399	11284.42
541.764	11278.77
542.129	11254.59
542.494	11157.87
542.858	11085.33
543.223	11092.11
543.587	11099.11
543.952	10972.79
544.316	10940.48
544.681	10884.88
545.045	10929.63
545.41	10897.31
545.774	10890.31
546.138	10846.69
546.503	10792.46
546.867	10753.14
547.231	10725.34
547.595	10705.45
547.959	10667.71
548.324	10550.43
548.688	10506.14
549.052	10423.88
549.416	10462.3
549.779	10345.01
550.143	10432.69
550.507	10348.85
550.871	10310.89
551.235	10244.22
551.599	10274.73
551.962	10149.08
552.326	10178.24
552.689	10193.83
553.053	10114.06
553.417	10102.76
553.78	10119.25
554.143	9938.24
554.507	10058.69
554.87	9905.7
555.234	10055.75
555.597	9884.01
555.96	9909.99
556.323	9884.23
556.686	9800.62
557.05	9846.04
557.413	9830
557.776	9811.69
558.139	9819.83
558.502	9734.63
558.865	9837
559.228	9807.85
559.59	9754.07
559.953	9711.58
560.316	9776.21
560.679	9715.65
561.041	9701.41
561.404	9818.7
561.767	9740.05
562.129	9623.9
562.492	9726.27
562.854	9705.48
563.217	9714.29
563.579	9711.35
563.941	9671.13
564.304	9729.43
564.666	9730.34
565.028	9747.06
565.39	9623.45
565.753	9723.56
566.115	9686.72
566.477	9700.28
566.839	9665.48
567.201	9705.03
567.563	9708.42
567.925	9753.84
568.287	9739.6
568.648	9735.53
569.01	9732.6
569.372	9702.09
569.734	9729.66
570.095	9697.34
570.457	9783.22
570.819	9726.72
571.18	9751.81
571.542	9684.01
571.903	9730.56
572.265	9746.16
572.626	9724.24
572.987	9693.95
573.349	9693.73
573.71	9747.74
574.071	9664.8
574.432	9764.01
574.794	9821.18
575.155	9769.21
575.516	9690.34
575.877	9736.66
576.238	9742.09
576.599	9754.07
576.96	9765.82
577.32	9776.66
577.681	9718.81
578.042	9801.97
578.403	9743.44
578.763	9761.07
579.124	9727.63
579.485	9810.34
579.845	9769.66
580.206	9729.89
580.566	9780.28
580.927	9707.97
581.287	9771.69
581.648	9706.61
582.008	9715.87
582.368	9674.75
582.728	9735.76
583.089	9696.67
583.449	9712.94
583.809	9680.85
584.169	9633.39
584.529	9690.79
584.889	9675.65
585.249	9632.71
585.609	9589.1
585.969	9715.65
586.329	9578.93
586.688	9626.39
587.048	9601.98
587.408	9594.52
587.768	9570.12
588.127	9585.48
588.487	9484.92
588.846	9540.96
589.206	9494.86
589.565	9504.13
589.925	9559.49
590.284	9464.13
590.643	9463.23
591.003	9531.47
591.362	9573.05
591.721	9501.19
592.08	9441.76
592.44	9452.15
592.799	9426.16
593.158	9438.82
593.517	9465.71
593.876	9453.28
594.235	9471.14
594.593	9430.23
594.952	9456.45
595.311	9388.2
595.67	9406.28
596.029	9426.16
596.387	9457.8
596.746	9390.91
597.104	9392.72
597.463	9391.82
597.822	9394.75
598.18	9378.48
598.538	9356.11
598.897	9405.6
599.255	9332.38
599.613	9466.16
599.972	9378.71
600.33	9306.39
600.688	9290.8
601.046	9389.1
601.404	9367.18
601.762	9372.15
602.12	9401.31
602.478	9338.03
602.836	9447.18
603.194	9266.62
603.552	9321.08
603.91	9373.51
604.268	9339.16
604.625	9289.9
604.983	9300.29
605.341	9330.12
605.698	9317.69
606.056	9362.89
606.413	9298.03
606.771	9292.61
607.128	9414.19
607.485	9267.07
607.843	9357.47
608.2	9385.94
608.557	9363.12
608.914	9375.77
609.272	9433.4
609.629	9435.88
609.986	9363.57
610.343	9345.26
610.7	9395.66
611.057	9360.4
611.414	9373.28
611.771	9374.41
612.127	9427.52
612.484	9371.25
612.841	9426.39
613.198	9391.59
613.554	9380.97
613.911	9404.02
614.267	9458.48
614.624	9404.92
614.98	9394.53
615.337	9413.06
615.693	9419.39
616.05	9489.44
616.406	9470.01
616.762	9422.55
617.118	9520.85
617.475	9477.91
617.831	9489.67
618.187	9505.94
618.543	9454.86
618.899	9552.49
619.255	9498.25
619.611	9545.71
619.967	9487.63
620.323	9555.88
620.678	9575.09
621.034	9538.7
621.39	9488.54
621.746	9472.27
622.101	9604.01
622.457	9500.51
622.812	9550.68
623.168	9545.94
623.523	9528.53
623.879	9529.89
624.234	9441.31
624.589	9531.25
624.945	9512.49
625.3	9535.54
625.655	9583
626.01	9506.39
626.365	9482.43
626.72	9504.58
627.075	9521.3
627.43	9525.37
627.785	9490.8
628.14	9534.64
628.495	9505.03
628.85	9462.55
629.205	9453.96
629.559	9553.17
629.914	9472.27
630.269	9473.17
630.623	9471.81
630.978	9464.58
631.332	9430.91
631.687	9392.95
632.041	9446.5
632.396	9382.55
632.75	9396.79
633.104	9378.26
633.459	9299.61
633.813	9346.62
634.167	9306.39
634.521	9311.37
634.875	9299.39
635.229	9335.09
635.583	9200.18
635.937	9239.5
636.291	9247.86
636.645	9216
636.999	9209.22
637.352	9293.74
637.706	9173.52
638.06	9193.4
638.413	9221.65
638.767	9149.34
639.121	9182.56
639.474	9173.97
639.828	9198.6
640.181	9107.3
640.534	9177.13
640.888	9145.27
641.241	9060.52
641.594	9082.9
641.947	9162.89
642.301	9133.97
642.654	9109.34
643.007	9126.96
643.36	9030.02
643.713	9042.45
644.066	9048.1
644.419	9058.49
644.771	9048.1
645.124	8911.83
645.477	8893.07
645.83	8799.51
646.182	8874.31
646.535	8797.93
646.888	8819.4
647.24	8757.71
647.593	8849.23
647.945	8776.69
648.298	8758.84
648.65	8741.21
649.002	8781.66
649.355	8787.54
649.707	8751.15
650.059	8792.06
650.411	8863.92
650.763	8942.11
651.115	9024.59
651.467	8946.86
651.819	8912.73
652.171	8965.84
652.523	8968.32
652.875	8940.75
653.227	8813.53
653.578	9005.16
653.93	8938.27
654.282	8951.6
654.633	8936.46
654.985	8922.45
655.337	8935.78
655.688	8927.65
656.039	8949.79
656.391	8935.56
656.742	8972.62
657.094	8979.17
657.445	8983.92
657.796	9015.1
658.147	8972.62
658.498	8997.25
658.849	8994.54
659.2	8976.01
659.551	8938.27
659.902	8985.27
660.253	8987.76
660.604	8994.31
660.955	8963.58
661.306	9034.76
661.656	9060.98
662.007	9012.16
662.358	8989.79
662.708	9000.19
663.059	9030.92
663.409	9012.62
663.76	9002.67
664.11	9055.55
664.461	9045.16
664.811	9038.15
665.161	9101.43
665.511	9030.92
665.862	9108.88
666.212	9057.36
666.562	9054.2
666.912	9007.19
667.262	9035.67
667.612	9070.92
667.962	9045.38
668.312	9009.68
668.662	9116.34
669.011	8987.53
669.361	9001.77
669.711	9028.89
670.06	9021.66
670.41	9016.68
670.76	9060.07
671.109	9004.03
671.459	8981.43
671.808	8955.67
672.157	9008.77
672.507	8903.69
672.856	8970.58
673.205	8999.96
673.554	8990.47
673.904	8951.15
674.253	8963.35
674.602	8970.81
674.951	8872.28
675.3	8770.14
675.649	8881.55
675.998	8804.26
676.346	8801.55
676.695	8848.78
677.044	8846.29
677.393	8929.45
677.741	8863.47
678.09	8803.58
678.438	8803.13
678.787	8859.63
679.135	8822.11
679.484	8769.68
679.832	8784.83
680.181	8753.87
680.529	8782.34
680.877	8762.68
681.225	8774.2
681.573	8801.32
681.922	8677.48
682.27	8683.13
682.618	8669.57
682.966	8618.95
683.314	8633.42
683.661	8636.13
684.009	8637.03
684.357	8523.59
684.705	8509.8
685.053	8499.86
685.4	8548.45
685.748	8454.44
686.095	8476.59
686.443	8477.94
686.79	8438.85
687.138	8460.09
687.485	8458.51
687.832	8401.33
688.18	8419.41
688.527	8409.92
688.874	8346.19
689.221	8302.8
689.568	8295.35
689.915	8273.2
690.262	8257.38
690.609	8205.86
690.956	8175.8
691.303	8183.49
691.65	8162.69
691.997	8150.94
692.344	8101.91
692.69	8061.68
693.037	8088.12
693.383	7989.82
693.73	7965.86
694.077	7898.3
694.423	7947.33
694.769	7877.73
695.116	7897.39
695.462	7870.73
695.808	7887.45
696.155	7870.95
696.501	7788.47
696.847	7747.34
697.193	7677.06
697.539	7754.8
697.885	7661.24
698.231	7630.28
698.577	7642.26
698.923	7588.02
699.269	7524.75
699.614	7533.11
699.96	7459.66
700.306	7490.4
700.651	7405.2
700.997	7427.35
701.342	7387.12
701.688	7359.1
702.033	7281.81
702.379	7314.81
702.724	7303.06
703.069	7315.49
703.415	7153.23
703.76	7191.2
704.105	7169.27
704.45	7192.78
704.795	7178.31
705.14	7112.55
705.485	7054.7
705.83	7049.28
706.175	7038.66
706.52	6998.88
706.865	7009.96
707.209	6993.23
707.554	6923.86
707.899	6957.3
708.243	6894.93
708.588	6907.36
708.932	6833.69
709.277	6825.33
709.621	6856.97
709.966	6768.83
710.31	6767.93
710.654	6777.19
710.998	6748.72
711.342	6755.5
711.687	6767.25
712.031	6704.88
712.375	6677.31
712.719	6704.43
713.063	6692.23
713.407	6646.58
713.75	6604.54
714.094	6639.8
714.438	6592.57
714.782	6683.19
715.125	6560.93
715.469	6584.21
715.812	6517.31
716.156	6510.08
716.499	6502.4
716.843	6489.07
717.186	6468.95
717.53	6541.72
717.873	6474.15
718.216	6523.64
718.559	6440.93
718.902	6415.17
719.246	6468.28
719.589	6383.76
719.932	6508.95
720.275	6478.67
720.617	6430.76
720.96	6405.91
721.303	6377.88
721.646	6434.83
721.989	6378.56
722.331	6406.36
722.674	6373.14
723.016	6347.83
723.359	6369.3
723.701	6379.01
724.044	6342.18
724.386	6272.8
724.729	6338.56
725.071	6320.03
725.413	6281.16
725.755	6355.74
726.097	6315.06
726.439	6294.5
726.782	6274.16
727.124	6319.35
727.465	6267.83
727.807	6287.94
728.149	6238.68
728.491	6242.29
728.833	6334.95
729.175	6266.25
729.516	6228.96
729.858	6256.3
730.199	6287.26
730.541	6274.38
730.882	6218.79
731.224	6256.3
731.565	6262.41
731.906	6238.45
732.248	6287.26
732.589	6240.03
732.93	6255.17
733.271	6230.09
733.612	6220.15
733.953	6229.86
734.294	6294.95
734.635	6264.67
734.976	6254.04
735.317	6238.9
735.658	6273.25
735.999	6257.43
736.339	6268.51
736.68	6245.46
737.021	6300.82
737.361	6284.33
737.702	6286.36
738.042	6295.85
738.383	6248.62
738.723	6228.06
739.063	6300.37
739.404	6299.02
739.744	6319.81
740.084	6299.02
740.424	6371.1
740.764	6360.48
741.104	6400.03
741.444	6394.61
741.784	6397.09
742.124	6411.55
742.464	6368.62
742.804	6439.35
743.143	6447.49
743.483	6493.36
743.823	6502.85
744.162	6548.05
744.502	6618.78
744.841	6569.52
745.181	6612.23
745.52	6657.2
745.86	6674.37
746.199	6700.59
746.538	6745.33
746.877	6832.79
747.216	6809.51
747.556	6842.05
747.895	6935.38
748.234	6936.06
748.573	6967.47
748.911	7049.5
749.25	7055.38
749.589	7135.15
749.928	7223.74
750.267	7268.48
750.605	7388.7
750.944	7380.79
751.283	7468.7
751.621	7581.24
751.96	7622.37
752.298	7677.96
752.636	7830.95
752.975	7890.61
753.313	7952.53
753.651	8082.02
753.989	8136.03
754.327	8170.15
754.666	8359.75
755.004	8471.39
755.342	8638.16
755.679	8837.48
756.017	8819.17
756.355	8950.24
756.693	9084.25
757.031	9283.57
757.368	9314.08
757.706	9466.84
758.044	9622.09
758.381	9747.96
758.719	9902.31
759.056	10046.49
759.394	10218.01
759.731	10275.63
760.068	10486.93
760.405	10590.43
760.743	10719.69
761.08	11019.34
761.417	11063.41
761.754	11254.37
762.091	11386.79
762.428	11588.14
762.765	11680.57
763.102	11980
763.438	12110.39
763.775	12184.51
764.112	12408.01
764.449	12458.4
764.785	12639.87
765.122	12772.52
765.458	12910.14
765.795	13113.07
766.131	13178.38
766.467	13303.8
766.804	13492.72
767.14	13675.32
767.476	13840.96
767.812	13912.6
768.148	14037.12
768.485	14183.33
768.821	14343.55
769.157	14432.36
769.492	14535.41
769.828	14594.16
770.164	14716.65
770.5	14838
770.836	15067.6
771.171	15073.25
771.507	15111.21
771.842	15235.05
772.178	15418.78
772.513	15507.36
772.849	15491.54
773.184	15608.37
773.519	15800.91
773.855	15750.74
774.19	15899.89
774.525	15862.15
774.86	15979.66
775.195	16049.95
775.53	16104.86
775.865	16104.86
776.2	16089.04
776.535	16077.29
776.87	16185.53
777.205	16254.46
777.539	16283.16
777.874	16332.2
778.209	16352.54
778.543	16357.28
778.878	16343.5
779.212	16502.14
779.547	16340.33
779.881	16566.77
780.215	16562.7
780.55	16632.3
780.884	16590.27
781.218	16635.47
781.552	16694.9
781.886	16631.85
782.22	16599.31
782.554	16590.95
782.888	16520.89
783.222	16552.98
783.556	16466.88
783.889	16578.29
784.223	16478.18
784.557	16492.42
784.89	16618.74
785.224	16550.05
785.557	16529.93
785.891	16498.3
786.224	16553.43
786.558	16479.76
786.891	16496.71
787.224	16414.23
787.557	16397.05
787.891	16371.74
788.224	16478.86
788.557	16538.52
788.89	16531.97
789.223	16403.83
789.556	16443.61
789.888	16389.82
790.221	16320.45
790.554	16242.71
790.887	16283.39
791.219	16231.18
791.552	16210.62
791.884	16153.67
792.217	16199.32
792.549	16125.42
792.882	16081.58
793.214	16109.38
793.546	16042.94
793.879	16006.1
794.211	15900.57
794.543	16029.61
794.875	15940.12
795.207	16057.4
795.539	15926.11
795.871	15928.37
796.203	15786.22
796.535	15725.89
796.867	15665.77
797.198	15596.85
797.53	15700.8
797.862	15591.43
798.193	15619.9
798.525	15542.16
798.856	15606.12
799.188	15410.41
799.519	15436.4
799.85	15389.4
800.182	15407.02
800.513	15387.82
800.844	15219.01
801.175	15293.81
801.506	15327.7
801.837	15299.46
802.168	15249.06
802.499	15080.93
802.83	15151.89
803.161	15076.41
803.491	15132.91
803.822	15097.65
804.153	14986.92
804.483	14932.23
804.814	14939.24
805.145	14941.5
805.475	14912.8
805.805	14864.89
806.136	14875.06
806.466	14851.11
806.796	14779.02
807.126	14668.51
807.457	14671.68
807.787	14648.63
808.117	14619.93
808.447	14569.98
808.777	14621.73
809.107	14465.35
809.436	14530.44
809.766	14442.3
810.096	14408.18
810.426	14413.83
810.755	14359.59
811.085	14390.78
811.414	14392.14
811.744	14157.11
812.073	14217.9
812.403	14208.41
812.732	14072.6
813.061	14165.47
813.39	14067.17
813.719	14064.69
814.049	14092.03
814.378	14047.29
814.707	13987.17
815.036	14003.67
815.365	13938.59
815.693	13779.27
816.022	13874.86
816.351	13830.79
816.68	13713.96
817.008	13820.4
817.337	13711.7
817.665	13683.91
817.994	13686.62
818.322	13686.84
818.651	13565.04
818.979	13608.43
819.307	13731.59
819.636	13657.47
819.964	13541.54
820.292	13608.88
820.62	13584.25
820.948	13560.75
821.276	13635.77
821.604	13521.65
821.932	13570.69
822.259	13594.19
822.587	13532.72
822.915	13567.3
823.243	13598.94
823.57	13453.18
823.898	13607.75
824.225	13466.28
824.553	13505.61
824.88	13597.81
825.207	13584.02
825.535	13535.66
825.862	13602.55
826.189	13491.82
826.516	13561.88
826.843	13563.46
827.17	13601.65
827.497	13596
827.824	13519.39
828.151	13629.44
828.478	13587.41
828.805	13609.11
829.131	13617.92
829.458	13480.07
829.785	13488.88
830.111	13537.24
830.438	13577.92
830.764	13588.99
831.09	13588.32
831.417	13465.83
831.743	13626.51
832.069	13593.06
832.395	13447.75
832.722	13608.2
833.048	13500.63
833.374	13559.62
833.7	13443.46
834.026	13515.1
834.351	13484.14
834.677	13449.11
835.003	13504.25
835.329	13408.43
835.654	13423.12
835.98	13313.97
836.306	13363.69
836.631	13373.18
836.956	13432.16
837.282	13468.09
837.607	13269.23
837.932	13305.38
838.258	13319.62
838.583	13320.98
838.908	13175.9
839.233	13190.13
839.558	13202.56
839.883	13186.97
840.208	13125.95
840.533	13067.2
840.858	13108.33
841.182	13203.01
841.507	13095.9
841.832	12989.01
842.156	12968.44
842.481	13010.25
842.805	13007.09
843.13	12931.84
843.454	12842.8
843.778	12887.32
844.103	12795.57
844.427	12878.05
844.751	12745.63
845.075	12823.14
845.399	12715.12
845.723	12636.48
846.047	12581.34
846.371	12557.83
846.695	12590.6
847.019	12522.58
847.343	12372.3
847.666	12412.3
847.99	12255.24
848.313	12347.22
848.637	12249.14
848.96	12245.75
849.284	12238.97
849.607	12077.39
849.931	12114.23
850.254	11996.27
850.577	11981.58
850.9	11864.74
851.223	11911.52
851.546	11817.29
851.869	11718.99
852.192	11799.66
852.515	11727.12
852.838	11673.34
853.161	11621.59
853.483	11575.03
853.806	11443.29
854.129	11564.19
854.451	11430.63
854.774	11375.04
855.096	11360.58
855.419	11373.23
855.741	11345.44
856.063	11225.67
856.385	11215.04
856.708	11167.81
857.03	11133.92
857.352	11162.39
857.674	11098.21
857.996	11049.4
858.318	10975.95
858.64	11054.14
858.961	10959.23
859.283	10962.85
859.605	10840.36
859.926	10939.57
860.248	10832.91
860.57	10782.06
860.891	10831.55
861.212	10794.94
861.534	10727.37
861.855	10749.75
862.176	10771.67
862.498	10709.07
862.819	10627.04
863.14	10646.47
863.461	10621.84
863.782	10568.96
864.103	10605.12
864.424	10556.98
864.745	10573.93
865.065	10475.4
865.386	10428.62
865.707	10489.64
866.027	10449.87
866.348	10458.23
866.668	10405.8
866.989	10364.9
867.309	10376.2
867.63	10378.23
867.95	10387.27
868.27	10319.93
868.59	10304.11
868.91	10288.74
869.23	10274.5
869.55	10275.41
869.87	10266.82
870.19	10255.3
870.51	10238.57
870.83	10236.54
871.15	10204.45
871.469	10185.47
871.789	10176.2
872.109	10230.44
872.428	10098.46
872.748	10219.36
873.067	10103.66
873.386	10105.92
873.706	10115.86
874.025	10039.71
874.344	10016.43
874.663	10004.91
874.982	9967.17
875.301	9959.94
875.62	9997.67
875.939	9951.12
876.258	9971.69
876.577	9864.57
876.896	9945.92
877.214	9899.82
877.533	9935.53
877.852	9866.15
878.17	9765.59
878.489	9879.49
878.807	9779.15
879.125	9756.1
879.444	9799.94
879.762	9702.32
880.08	9776.44
880.398	9748.87
880.716	9749.09
881.034	9642.66
881.352	9659.15
881.67	9641.75
881.988	9634.52
882.306	9618.02
882.624	9535.31
882.941	9475.43
883.259	9510.91
883.577	9519.72
883.894	9481.76
884.212	9522.21
884.529	9437.24
884.846	9448.31
885.164	9397.46
885.481	9407.41
885.798	9345.26
886.115	9322.44
886.432	9348.65
886.75	9318.82
887.067	9262.33
887.383	9268.65
887.7	9261.2
888.017	9182.33
888.334	9233.63
888.651	9176.23
888.967	9182.33
889.284	9020.98
889.6	9048.32
889.917	9126.74
890.233	8980.3
890.55	8999.51
890.866	8996.57
891.182	8943.24
891.498	8906.86
891.815	8861.89
892.131	8926.06
892.447	8878.16
892.763	8813.07
893.079	8794.09
893.395	8791.83
893.71	8762.68
894.026	8710.48
894.342	8693.3
894.657	8663.7
894.973	8557.26
895.289	8631.16
895.604	8572.18
895.92	8571.72
896.235	8501.9
896.55	8490.37
896.865	8475.91
897.181	8382.35
897.496	8425.29
897.811	8366.98
898.126	8363.82
898.441	8319.53
898.756	8250.38
899.071	8205.18
899.386	8243.82
899.7	8148.23
900.015	8178.51
900.33	8114.33
900.644	8044.51
900.959	8101.23
901.273	8040.21
901.588	7970.61
901.902	8028.46
902.216	7894.45
902.531	7920.22
902.845	7918.63
903.159	7869.82
903.473	7846.32
903.787	7800.22
904.101	7729.49
904.415	7712.54
904.729	7695.81
905.042	7660.11
905.356	7622.6
905.67	7556.16
905.984	7620.34
906.297	7618.75
906.611	7549.83
906.924	7582.82
907.237	7447.91
907.551	7484.07
907.864	7477.06
908.177	7409.27
908.491	7353.9
908.804	7370.4
909.117	7295.15
909.43	7285.66
909.743	7182.38
910.056	7244.08
910.368	7195.26
910.681	7167.47
910.994	7104.87
911.307	7159.33
911.619	7006.57
911.932	7091.76
912.244	7010.18
912.557	6988.94
912.869	6906.23
913.181	6867.59
913.494	6915.72
913.806	6866.46
914.118	6895.84
914.43	6803.41
914.742	6774.26
915.054	6759.57
915.366	6749.4
915.678	6741.72
915.99	6699
916.302	6618.78
916.613	6626.46
916.925	6537.88
917.236	6590.76
917.548	6538.33
917.859	6581.72
918.171	6557.09
918.482	6486.81
918.794	6409.97
919.105	6388.73
919.416	6330.43
919.727	6316.64
920.038	6365.45
920.349	6352.57
920.66	6298.34
920.971	6349.64
921.282	6289.98
921.593	6244.55
921.903	6176.08
922.214	6141.28
922.525	6141.05
922.835	6146.93
923.146	6131.11
923.456	6028.06
923.767	6063.99
924.077	6048.85
924.387	6000.04
924.697	5988.74
925.008	5977.22
925.318	5960.72
925.628	5944.9
925.938	5856.09
926.248	5813.38
926.558	5817.22
926.867	5801.4
927.177	5814.73
927.487	5803.66
927.796	5751.91
928.106	5734.51
928.416	5680.5
928.725	5696.77
929.034	5627.62
929.344	5579.71
929.653	5585.36
929.962	5598.92
930.271	5555.31
930.581	5549.2
930.89	5471.24
931.199	5485.25
931.508	5461.52
931.817	5462.43
932.125	5402.54
932.434	5372.26
932.743	5362.32
933.051	5352.37
933.36	5336.78
933.669	5325.71
933.977	5289.1
934.286	5279.15
934.594	5269.89
934.902	5187.18
935.21	5242.32
935.519	5211.36
935.827	5218.37
936.135	5123.68
936.443	5085.04
936.751	5085.04
937.059	5079.84
937.367	5062.66
937.674	5094.08
937.982	5034.64
938.29	4990.8
938.597	4969.78
938.905	4896.34
939.213	4917.81
939.52	4929.56
939.827	4832.16
940.135	4878.49
940.442	4793.29
940.749	4835.78
941.056	4856.79
941.363	4728.89
941.67	4788.55
941.977	4768.21
942.284	4726.63
942.591	4729.56
942.898	4689.57
943.205	4641.21
943.511	4647.76
943.818	4663.13
944.125	4603.24
944.431	4595.78
944.738	4585.84
945.044	4546.52
945.35	4518.05
945.657	4494.09
945.963	4445.05
946.269	4454.32
946.575	4435.79
946.881	4472.85
947.187	4462.23
947.493	4395.56
947.799	4360.76
948.105	4359.63
948.41	4299.97
948.716	4348.56
949.022	4310.14
949.327	4257.03
949.633	4235.57
949.938	4260.42
950.244	4264.04
950.549	4197.38
950.854	4214.32
951.16	4186.75
951.465	4171.39
951.77	4177.94
952.075	4097.27
952.38	4071.5
952.685	4085.74
952.99	4090.49
953.294	4048
953.599	4048.23
953.904	4021.11
954.209	3984.73
954.513	3988.79
954.818	3949.02
955.122	3933.88
955.426	3936.37
955.731	3888.23
956.035	3895.24
956.339	3868.57
956.643	3899.76
956.948	3876.48
957.252	3844.39
957.556	3830.15
957.86	3803.04
958.163	3773.88
958.467	3814.11
958.771	3757.84
959.075	3751.06
959.378	3709.93
959.682	3692.3
959.985	3705.86
960.289	3636.26
960.592	3649.59
960.896	3640.78
961.199	3631.06
961.502	3594
961.805	3617.5
962.108	3589.26
962.411	3593.55
962.714	3520.78
963.017	3536.38
963.32	3549.71
963.623	3510.39
963.926	3495.47
964.228	3495.25
964.531	3451.18
964.833	3452.76
965.136	3444.4
965.438	3440.11
965.741	3395.59
966.043	3411.86
966.345	3398.53
966.648	3383.16
966.95	3344.74
967.252	3325.53
967.554	3314.46
967.856	3309.72
968.158	3286.89
968.46	3264.07
968.761	3256.84
969.063	3262.03
969.365	3216.38
969.666	3224.07
969.968	3176.61
970.269	3198.31
970.571	3156.5
970.872	3161.47
971.174	3173
971.475	3125.77
971.776	3180.91
972.077	3088.25
972.378	3133
972.679	3061.36
972.98	3089.38
973.281	3090.51
973.582	3047.58
973.883	3009.61
974.183	3019.78
974.484	3028.14
974.785	2991.53
975.085	2978.42
975.386	2965.09
975.686	2941.59
975.986	2930.06
976.287	2930.06
976.587	2882.83
976.887	2874.25
977.187	2893.91
977.487	2852.33
977.787	2849.84
978.087	2867.92
978.387	2843.06
978.687	2822.5
978.987	2819.11
979.286	2806.68
979.586	2774.59
979.885	2752.67
980.185	2776.4
980.484	2756.06
980.784	2728.49
981.083	2728.26
981.382	2715.61
981.682	2700.47
981.981	2727.13
982.28	2679.22
982.579	2657.75
982.878	2634.48
983.177	2649.62
983.475	2617.76
983.774	2633.35
984.073	2590.64
984.372	2599.9
984.67	2593.8
984.969	2606.46
985.267	2582.95
985.566	2521.26
985.864	2526.91
986.162	2500.02
986.461	2519
986.759	2506.35
987.057	2512.22
987.355	2443.75
987.653	2468.61
987.951	2443.75
988.249	2456.18
988.547	2470.87
988.844	2430.19
989.142	2421.15
989.44	2383.86
989.737	2359.23
990.035	2354.26
990.332	2408.5
990.63	2403.98
990.927	2339.35
991.224	2352
991.521	2329.18
991.819	2337.09
992.116	2296.41
992.413	2292.11
992.71	2253.47
993.006	2277.65
993.303	2276.52
993.6	2260.93
993.897	2256.64
994.193	2232.68
994.49	2235.85
994.787	2214.6
995.083	2207.6
995.379	2175.51
995.676	2174.38
995.972	2167.6
996.268	2173.25
996.565	2151.1
996.861	2129.63
997.157	2124.44
997.453	2106.36
997.749	2147.03
998.044	2080.82
998.34	2087.83
998.636	2087.37
998.932	2071.1
999.227	2053.93
999.523	2047.38
999.818	2056.41
1000.114	2002.63
1000.409	2030.2
1000.704	2026.36
1001	1966.93
1001.295	1959.47
1001.59	1974.16
1001.885	1980.03
1002.18	1956.76
1002.475	1936.19
1002.77	1942.75
1003.065	1919.02
1003.359	1883.99
1003.654	1876.76
1003.949	1883.09
1004.243	1855.29
1004.538	1855.29
1004.832	1869.08
1005.127	1859.13
1005.421	1867.95
1005.715	1807.61
1006.009	1792.02
1006.304	1790.66
1006.598	1839.02
1006.892	1802.64
1007.186	1771.68
1007.48	1763.32
1007.773	1751.79
1008.067	1761.73
1008.361	1741.17
1008.655	1737.55
1008.948	1719.02
1009.242	1729.19
1009.535	1672.7
1009.829	1670.89
1010.122	1662.53
1010.415	1678.12
1010.708	1632.47
1011.001	1659.59
1011.295	1644
1011.588	1629.31
1011.881	1602.87
1012.173	1611.91
1012.466	1611.23
1012.759	1584.79
1013.052	1585.01
1013.344	1586.82
1013.637	1564.45
1013.93	1568.29
1014.222	1555.19
1014.514	1574.85
1014.807	1537.78
1015.099	1528.07
1015.391	1503.21
1015.683	1533.49
1015.976	1499.59
1016.268	1470.22
1016.56	1473.83
1016.851	1471.35
1017.143	1456.43
1017.435	1462.53
1017.727	1445.81
1018.018	1447.39
1018.31	1423.21
1018.602	1456.43
1018.893	1409.88
1019.185	1380.05
1019.476	1383.89
1019.767	1376.43
1020.058	1374.17
1020.35	1338.02
1020.641	1356.55
1020.932	1355.64
1021.223	1351.8
1021.514	1345.7
1021.804	1322.42
1022.095	1321.07
1022.386	1295.98
1022.677	1309.09
1022.967	1273.84
1023.258	1286.27
1023.548	1261.86
1023.839	1254.4
1024.129	1280.84
1024.419	1238.13
1024.709	1221.41
1025	1232.48
1025.29	1258.92
1025.58	1231.13
1025.87	1186.83
1026.16	1194.74
1026.449	1175.31
1026.739	1191.35
1027.029	1165.36
1027.319	1159.04
1027.608	1195.87
1027.898	1172.14
1028.187	1159.72
1028.477	1137.34
1028.766	1137.79
1029.055	1118.13
1029.344	1119.94
1029.634	1111.35
1029.923	1110.9
1030.212	1094.41
1030.501	1096.21
1030.79	1085.59
1031.078	1099.83
1031.367	1088.08
1031.656	1065.93
1031.945	1072.94
1032.233	1060.96
1032.522	1045.14
1032.81	1035.88
1033.099	1036.55
1033.387	1042.43
1033.675	1017.57
1033.963	1010.79
1034.251	1055.09
1034.54	987.97
1034.828	1011.92
1035.116	983.22
1035.403	990
1035.691	979.38
1035.979	959.04
1036.267	982.77
1036.554	948.2
1036.842	960.4
1037.129	944.35
1037.417	951.59
1037.704	927.63
1037.992	916.56
1038.279	907.07
1038.566	900.51
1038.853	900.51
1039.14	900.51
