Data from hue_36_FLMS001491_00015.txt Node
Date: Tue Feb 07 17:29:27 GMT 2017
User: dcchb
Spectrometer: FLMS00149
Trigger mode: 0
Integration Time (sec): 2.000000E-2
Scans to average: 10
Electric dark correction enabled: true
Nonlinearity correction enabled: false
Boxcar width: 0
XAxis mode: Wavelengths
Number of Pixels in Spectrum: 2048
>>>>>Begin Spectral Data<<<<<
341.393	-0.56
341.776	-0.56
342.16	-0.56
342.543	-62.94
342.927	-93.22
343.31	-71.98
343.693	-66.33
344.077	-62.48
344.46	-84.63
344.843	-52.54
345.226	-43.5
345.61	-43.73
345.993	-22.94
346.376	-9.6
346.759	19.1
347.142	38.76
347.525	51.64
347.908	53.22
348.291	89.6
348.674	82.37
349.057	123.05
349.44	118.75
349.823	153.1
350.206	173.44
350.588	203.27
350.971	227.23
351.354	235.59
351.737	212.99
352.119	270.39
352.502	255.25
352.884	281.91
353.267	300.22
353.65	308.13
354.032	294.79
354.414	316.04
354.797	323.49
355.179	332.08
355.562	330.5
355.944	336.38
356.326	343.15
356.709	343.15
357.091	329.37
357.473	345.41
357.855	337.28
358.238	323.27
358.62	339.09
359.002	365.53
359.384	343.38
359.766	353.55
360.148	330.95
360.53	332.76
360.912	331.86
361.294	341.8
361.676	340.67
362.057	326.66
362.439	332.31
362.821	337.05
363.203	320.78
363.584	326.43
363.966	338.86
364.348	320.56
364.729	338.18
365.111	327.56
365.493	297.05
365.874	326.21
366.256	337.96
366.637	310.61
367.019	299.09
367.4	297.05
367.781	335.47
368.163	309.94
368.544	301.12
368.925	310.16
369.306	316.26
369.688	319.43
370.069	326.88
370.45	325.08
370.831	310.84
371.212	313.55
371.593	315.36
371.974	319.43
372.355	308.13
372.736	333.21
373.117	325.3
373.498	320.78
373.879	313.1
374.26	301.12
374.641	313.55
375.021	314.46
375.402	327.56
375.783	325.53
376.163	339.31
376.544	328.92
376.925	304.06
377.305	318.97
377.686	338.41
378.066	320.56
378.447	341.12
378.827	334.57
379.208	333.44
379.588	336.83
379.968	324.62
380.349	339.31
380.729	336.6
381.109	323.27
381.489	372.76
381.87	323.49
382.25	341.35
382.63	335.02
383.01	347
383.39	348.35
383.77	339.99
384.15	339.99
384.53	371.85
384.91	347
385.29	364.85
385.67	327.11
386.049	349.71
386.429	341.8
386.809	350.16
387.189	363.95
387.568	351.74
387.948	369.37
388.328	359.65
388.707	356.04
389.087	358.52
389.466	367.79
389.846	357.84
390.225	369.59
390.605	356.04
390.984	375.24
391.363	358.3
391.743	376.6
392.122	338.41
392.501	372.08
392.881	363.27
393.26	365.75
393.639	373.21
394.018	365.08
394.397	383.15
394.776	394.45
395.155	355.58
395.534	381.57
395.913	402.59
396.292	389.71
396.671	376.6
397.05	413.21
397.429	385.41
397.808	374.57
398.186	368.69
398.565	404.62
398.944	400.33
399.323	379.31
399.701	395.36
400.08	390.16
400.458	390.16
400.837	377.5
401.215	389.26
401.594	409.14
401.972	390.16
402.351	384.96
402.729	413.66
403.107	390.39
403.486	419.31
403.864	407.33
404.242	417.05
404.62	429.93
404.999	432.87
405.377	405.98
405.755	433.1
406.133	404.62
406.511	429.03
406.889	429.03
407.267	433.77
407.645	422.25
408.023	392.87
408.401	422.25
408.779	441.91
409.156	421.8
409.534	416.6
409.912	437.84
410.29	462.7
410.667	422.25
411.045	457.28
411.422	456.6
411.8	446.88
412.178	476.26
412.555	454.56
412.933	470.61
413.31	470.16
413.687	451.17
414.065	481.68
414.442	464.73
414.819	468.58
415.197	495.24
415.574	480.55
415.951	460.44
416.328	482.13
416.705	472.42
417.082	480.55
417.46	470.84
417.837	504.96
418.214	510.16
418.591	474.22
418.967	499.08
419.344	494.34
419.721	499.53
420.098	514
420.475	532.3
420.852	501.34
421.228	521.68
421.605	498.18
421.982	502.25
422.358	535.24
422.735	536.37
423.111	536.6
423.488	529.59
423.864	544.96
424.241	529.14
424.617	542.25
424.994	563.94
425.37	551.51
425.746	532.3
426.123	563.04
426.499	563.26
426.875	575.01
427.251	561.23
427.627	559.87
428.003	584.73
428.379	569.82
428.756	570.27
429.132	589.25
429.507	585.18
429.883	604.39
430.259	610.49
430.635	602.81
431.011	610.27
431.387	610.49
431.763	603.03
432.138	621.79
432.514	622.92
432.89	636.71
433.265	635.8
433.641	640.1
434.016	651.17
434.392	654.33
434.767	681.9
435.143	642.36
435.518	666.54
435.894	651.85
436.269	666.31
436.644	678.29
437.02	695.46
437.395	680.1
437.77	692.75
438.145	677.61
438.52	674.67
438.895	684.61
439.271	716.25
439.646	729.81
440.021	718.74
440.395	740.88
440.77	719.19
441.145	718.74
441.52	719.87
441.895	744.27
442.27	728
442.645	738.4
443.019	757.61
443.394	753.09
443.769	761.9
444.143	753.54
444.518	749.25
444.892	765.97
445.267	768.45
445.641	771.62
446.016	781.34
446.39	771.62
446.764	806.65
447.139	800.32
447.513	782.47
447.887	768.23
448.262	792.86
448.636	792.86
449.01	796.02
449.384	796.25
449.758	789.7
450.132	832.18
450.506	829.02
450.88	840.09
451.254	826.31
451.628	824.05
452.002	836.02
452.376	851.84
452.75	850.71
453.123	874.89
453.497	884.84
453.871	890.03
454.244	894.33
454.618	882.58
454.992	902.24
455.365	902.91
455.739	913.31
456.112	945.85
456.486	945.62
456.859	950.82
457.232	946.53
457.606	954.66
457.979	977.49
458.352	972.97
458.725	967.32
459.099	980.43
459.472	1023.59
459.845	1027.66
460.218	1026.3
460.591	1047.32
460.964	1055.23
461.337	1061.1
461.71	1071.5
462.083	1088.22
462.456	1104.04
462.829	1097.71
463.201	1129.8
463.574	1146.07
463.947	1141.55
464.32	1162.57
464.692	1157.6
465.065	1179.52
465.438	1184.26
465.81	1212.96
466.183	1231.04
466.555	1275.56
466.928	1199.4
467.3	1252.51
467.672	1288.89
468.045	1327.99
468.417	1330.25
468.789	1318.5
469.161	1345.84
469.534	1381.55
469.906	1407.53
470.278	1433.97
470.65	1449.79
471.022	1468.77
471.394	1490.92
471.766	1461.54
472.138	1508.55
472.51	1563.01
472.882	1601.43
473.253	1640.52
473.625	1640.52
473.997	1691.37
474.369	1698.37
474.74	1725.94
475.112	1786.96
475.484	1821.99
475.855	1856.79
476.227	1917.35
476.598	1924.36
476.97	1937.69
477.341	2030.34
477.713	2101.75
478.084	2103.33
478.455	2164.35
478.827	2173.39
479.198	2267.17
479.569	2281.41
479.94	2371.8
480.311	2405.7
480.682	2483.66
481.053	2571.34
481.424	2644.79
481.795	2680.72
482.166	2749.65
482.537	2777.67
482.908	2857.21
483.279	2930.21
483.65	3045.46
484.021	3096.98
484.391	3163.42
484.762	3239.35
485.133	3292.91
485.503	3390.08
485.874	3520.47
486.244	3563.41
486.615	3694.03
486.985	3709.39
487.356	3822.84
487.726	3928.37
488.097	3991.65
488.467	4061.93
488.837	4199.32
489.207	4304.18
489.578	4413.78
489.948	4448.58
490.318	4582.14
490.688	4649.26
491.058	4729.48
491.428	4862.81
491.798	4955.46
492.168	5023.26
492.538	5131.5
492.908	5188
493.278	5348.67
493.648	5374.43
494.017	5446.07
494.387	5591.83
494.757	5670.47
495.126	5806.29
495.496	5857.81
495.866	5980.97
496.235	6061.42
496.605	6152.49
496.974	6136
497.344	6333.05
497.713	6354.3
498.082	6444.24
498.452	6571.92
498.821	6643.78
499.19	6669.77
499.559	6802.87
499.928	6929.65
500.298	6968.74
500.667	7003.77
501.036	7099.14
501.405	7218.68
501.774	7188.17
502.143	7336.64
502.512	7398.56
502.88	7455.96
503.249	7446.02
503.618	7610.31
503.987	7606.01
504.356	7747.71
504.724	7805.78
505.093	7897.53
505.462	7928.27
505.83	7965.1
506.199	8095.04
506.567	8217.3
506.936	8251.2
507.304	8353.11
507.672	8346.33
508.041	8461.36
508.409	8535.48
508.777	8582.94
509.145	8656.38
509.514	8725.99
509.882	8756.27
510.25	8776.38
510.618	8857.96
510.986	8881.69
511.354	9044.62
511.722	9059.76
512.09	9233.99
512.458	9139.31
512.826	9316.93
513.193	9403.93
513.561	9377.95
513.929	9474.67
514.297	9498.39
514.664	9598.5
515.032	9661.55
515.4	9671.95
515.767	9697.94
516.135	9839.18
516.502	9725.51
516.869	9934.32
517.237	9977.25
517.604	9993.97
517.972	10125.5
518.339	10166.63
518.706	10165.95
519.073	10243.46
519.44	10312.61
519.808	10390.8
520.175	10426.51
520.542	10494.3
520.909	10512.6
521.276	10646.39
521.643	10751.69
522.009	10686.16
522.376	10808.64
522.743	10838.47
523.11	10942.65
523.477	11111.01
523.843	11059.94
524.21	11233.94
524.577	11229.2
524.943	11311.23
525.31	11454.73
525.676	11527.27
526.043	11492.47
526.409	11525.91
526.776	11643.65
527.142	11737.43
527.508	11827.82
527.874	11875.05
528.241	11963.87
528.607	12003.19
528.973	12101.49
529.339	12154.82
529.705	12273.24
530.071	12354.36
530.437	12338.09
530.803	12383.74
531.169	12509.16
531.535	12511.65
531.901	12637.75
532.267	12670.97
532.632	12734.69
532.998	12712.77
533.364	12800.23
533.73	12899.21
534.095	12933.33
534.461	12986.44
534.826	13006.32
535.192	13141.24
535.557	13237.96
535.923	13220.78
536.288	13349.59
536.653	13254.23
537.019	13298.97
537.384	13420.78
537.749	13574.9
538.114	13517.95
538.479	13547.33
538.845	13582.13
539.21	13669.36
539.575	13768.11
539.94	13737.83
540.305	13802.01
540.67	13860.99
541.034	13890.6
541.399	13905.06
541.764	13947.99
542.129	14109.35
542.494	14198.38
542.858	14163.13
543.223	14215.11
543.587	14411.03
543.952	14331.49
544.316	14425.27
544.681	14477.25
545.045	14520.64
545.41	14526.74
545.774	14661.42
546.138	14631.59
546.503	14613.74
546.867	14670.24
547.231	14957.69
547.595	14873.39
547.959	14925.82
548.324	14974.18
548.688	15060.96
549.052	15093.73
549.416	15130.79
549.779	15208.75
550.143	15200.39
550.507	15329.2
550.871	15376.66
551.235	15343.21
551.599	15464.11
551.962	15431.12
552.326	15539.37
552.689	15625.92
553.053	15587.95
553.417	15639.93
553.78	15800.38
554.143	15738.91
554.507	15796.76
554.87	15842.86
555.234	16030.88
555.597	15976.19
555.96	16036.75
556.323	16106.36
556.686	16111.55
557.05	16224.32
557.413	16301.61
557.776	16375.5
558.139	16400.81
558.502	16515.61
558.865	16491.43
559.228	16573.91
559.59	16605.33
559.953	16616.63
560.316	16916.05
560.679	16792.21
561.041	16914.24
561.404	17010.74
561.767	17134.35
562.129	17138.87
562.492	17304.74
562.854	17163.28
563.217	17257.74
563.579	17325.08
563.941	17365.76
564.304	17464.29
564.666	17583.83
565.028	17654.56
565.39	17608.01
565.753	17699.31
566.115	17833.77
566.477	17859.53
566.839	17987.44
567.201	17970.94
567.563	18090.48
567.925	18190.14
568.287	18233.98
568.648	18317.37
569.01	18343.59
569.372	18577.25
569.734	18460.87
570.095	18601.88
570.457	18626.97
570.819	18735.67
571.18	18948.09
571.542	18814.31
571.903	18880.29
572.265	19001.42
572.626	19116.45
572.987	19113.51
573.349	19257.23
573.71	19288.65
574.071	19382.2
574.432	19455.87
574.794	19782.64
575.155	19738.35
575.516	19687.5
575.877	19885.69
576.238	19814.06
576.599	20053.15
576.96	20132.01
577.32	20224.67
577.681	20370.65
578.042	20523.42
578.403	20580.59
578.763	20822.84
579.124	20825.55
579.485	21085.66
579.845	21255.83
580.206	21329.5
580.566	21345.09
580.927	21607.45
581.287	21705.98
581.648	21832.08
582.008	22040.66
582.368	22118.85
582.728	22323.82
583.089	22505.96
583.449	22602.46
583.809	22764.03
584.169	23017.36
584.529	23183.01
584.889	23446.05
585.249	23536.22
585.609	23612.15
585.969	23980.27
586.329	24007.17
586.688	24308.63
587.048	24493.03
587.408	24667.04
587.768	24859.35
588.127	25036.52
588.487	25229.96
588.846	25713.56
589.206	25570.74
589.565	25821.35
589.925	26229.48
590.284	26325.75
590.643	26490.49
591.003	26867.2
591.362	27078.95
591.721	27245.72
592.08	27437.13
592.44	27679.84
592.799	27939.49
593.158	28172.25
593.517	28399.37
593.876	28676.2
594.235	28679.36
594.593	28967.26
594.952	29225.11
595.311	29436.85
595.67	29726.79
596.029	30016.5
596.387	30259.66
596.746	30423.95
597.104	30445.64
597.463	30688.57
597.822	30977.83
598.18	30987.32
598.538	31222.79
598.897	31578.27
599.255	31542.33
599.613	32197.46
599.972	32012.6
600.33	32351.8
600.688	32336.66
601.046	32637.45
601.404	32931.9
601.762	33013.71
602.12	33414.15
602.478	33497.09
602.836	33734.37
603.194	33779.79
603.552	33970.75
603.91	33957.86
604.268	34344.97
604.625	34188.59
604.983	34615.25
605.341	34649.37
605.698	34871.06
606.056	35178.4
606.413	35206.19
606.771	35487.99
607.128	35532.06
607.485	35542.68
607.843	35717.82
608.2	35979.96
608.557	36246.17
608.914	36240.97
609.272	36328.2
609.629	36475.31
609.986	36848.41
610.343	36880.95
610.7	37217.67
611.057	37173.6
611.414	37272.58
611.771	37486.58
612.127	37590.09
612.484	37712.34
612.841	37870.3
613.198	37927.7
613.554	37955.5
613.911	38345.55
614.267	38342.38
614.624	38403.85
614.98	38452.44
615.337	38797.28
615.693	38721.81
616.05	38905.08
616.406	39144.85
616.762	39021.91
617.118	39104.62
617.475	39218.29
617.831	39412.18
618.187	39436.14
618.543	39572.86
618.899	39769.46
619.255	39763.14
619.611	39720.88
619.967	39971.49
620.323	40209.45
620.678	40082
621.034	39912.06
621.39	40122.22
621.746	40091.26
622.101	40574.87
622.457	40271.82
622.812	40538.71
623.168	40540.06
623.523	40603.79
623.879	40739.38
624.234	40568.31
624.589	40779.83
624.945	40822.54
625.3	40954.52
625.655	40827.97
626.01	40952.26
626.365	40947.28
626.72	41108.18
627.075	40914.29
627.43	40933.27
627.785	40901.41
628.14	41154.74
628.495	41121.07
628.85	41127.62
629.205	41119.71
629.559	41369.42
629.914	41192.7
630.269	41309.54
630.623	41251.68
630.978	41115.64
631.332	41316.54
631.687	41455.52
632.041	41163.78
632.396	41299.82
632.75	41125.59
633.104	41329.65
633.459	41096.43
633.813	41288.74
634.167	41162.65
634.521	41340.27
634.875	41247.16
635.229	41181.18
635.583	41067.96
635.937	41122.42
636.291	41179.6
636.645	41194.06
636.999	41099.15
637.352	41266.82
637.706	40991.35
638.06	41126.04
638.413	41133.04
638.767	41044.46
639.121	41103.66
639.474	40878.36
639.828	40934.63
640.181	41008.53
640.534	40973.72
640.888	40810.57
641.241	40710.68
641.594	40840.85
641.947	40977.11
642.301	40872.71
642.654	40920.84
643.007	40921.75
643.36	40886.72
643.713	40690.34
644.066	40945.48
644.419	40727.86
644.771	40434.76
645.124	40041.77
645.477	40065.95
645.83	39808.78
646.182	39660.77
646.535	39667.32
646.888	39751.38
647.24	39444.05
647.593	39708.22
647.945	39627.09
648.298	39490.83
648.65	39414.22
649.002	39243.15
649.355	39481.33
649.707	39510.94
650.059	39564.72
650.411	40018.27
650.763	40145.95
651.115	40437.69
651.467	40404.7
651.819	40250.81
652.171	40253.07
652.523	40215.55
652.875	40149.11
653.227	40045.16
653.578	40226.17
653.93	40262.78
654.282	40034.99
654.633	40058.95
654.985	40045.61
655.337	40026.18
655.688	40202.22
656.039	40208.32
656.391	39923.58
656.742	39941.66
657.094	40085.61
657.445	40157.93
657.796	39933.98
658.147	39922
658.498	39853.3
658.849	39959.29
659.2	40005.16
659.551	39851.95
659.902	39999.06
660.253	40024.37
660.604	39921.55
660.955	39765.17
661.306	39878.39
661.656	39802.91
662.007	39839.97
662.358	39902.57
662.708	39896.47
663.059	39898.27
663.409	39683.36
663.76	39906.18
664.11	39897.14
664.461	39786.19
664.811	39871.61
665.161	39758.62
665.511	39704.61
665.862	39804.49
666.212	39782.8
666.562	39839.74
666.912	39830.7
667.262	39711.84
667.612	39672.06
667.962	39896.47
668.312	39634.1
668.662	39878.84
669.011	39761.55
669.361	39669.13
669.711	39830.93
670.06	39575.57
670.41	39679.75
670.76	39650.37
671.109	39664.83
671.459	39590.48
671.808	39551.62
672.157	39597.26
672.507	39445.86
672.856	39426.87
673.205	39558.85
673.554	39531.28
673.904	39438.62
674.253	39680.65
674.602	39594.78
674.951	38952.54
675.3	38770.39
675.649	39491.96
675.998	39428.45
676.346	39444.5
676.695	39452.18
677.044	39182.36
677.393	39410.38
677.741	39360.43
678.09	39373.54
678.438	39207.67
678.787	39251.51
679.135	39281.34
679.484	39055.36
679.832	39193.21
680.181	38938.07
680.529	38995.02
680.877	38988.24
681.225	38901.91
681.573	39182.13
681.922	38862.37
682.27	38803.61
682.618	38777.4
682.966	38634.8
683.314	38863.72
683.661	38492.89
684.009	38429.84
684.357	38378.09
684.705	38315.04
685.053	38419.44
685.4	38354.13
685.748	38231.2
686.095	38121.14
686.443	37947.36
686.79	38037.3
687.138	37999.34
687.485	38061.71
687.832	37948.49
688.18	38021.71
688.527	37752.79
688.874	37695.17
689.221	37648.16
689.568	37651.1
689.915	37553.48
690.262	37679.12
690.609	37333.37
690.956	37375.18
691.303	37261.05
691.65	37096.99
691.997	37161.17
692.344	36869.2
692.69	36925.47
693.037	36967.5
693.383	36570.45
693.73	36792.14
694.077	36473.5
694.423	36603.67
694.769	36398.25
695.116	36272.38
695.462	36297.01
695.808	36143.8
696.155	36230.57
696.501	35864.93
696.847	36035.32
697.193	35541.1
697.539	35891.15
697.885	35713.07
698.231	35554.66
698.577	35464.04
698.923	35415
699.269	35238.73
699.614	34926.2
699.96	34999.64
700.306	35073.99
700.651	34904.51
700.997	34777.28
701.342	34677.39
701.688	34667
702.033	34593.1
702.379	34698.41
702.724	34521.01
703.069	34629.71
703.415	34159.89
703.76	34349.04
704.105	34264.3
704.45	34139.1
704.795	33946.79
705.14	33793.8
705.485	33906.34
705.83	33701.15
706.175	33599
706.52	33589.74
706.865	33545.67
707.209	33524.88
707.554	33425.45
707.899	33408.05
708.243	33160.15
708.588	33211.67
708.932	32989.98
709.277	32998.12
709.621	32945.24
709.966	32668.63
710.31	32846.93
710.654	32529.65
710.998	32627.5
711.342	32494.17
711.687	32503.21
712.031	32547.28
712.375	32183.9
712.719	32420.28
713.063	32236.78
713.407	32279.04
713.75	32111.59
714.094	32214.41
714.438	31933.51
714.782	31985.94
715.125	31886.28
715.469	31935.54
715.812	31678.15
716.156	31552.05
716.499	31605.84
716.843	31587.08
717.186	31433.41
717.53	31594.54
717.873	31585.72
718.216	31519.28
718.559	31294.43
718.902	31070.03
719.246	31208.33
719.589	31049.69
719.932	30995
720.275	31029.81
720.617	30991.16
720.96	30855.35
721.303	30879.08
721.646	30943.03
721.989	30675.92
722.331	30804.95
722.674	30672.98
723.016	30643.83
723.359	30638.63
723.701	30637.95
724.044	30452.65
724.386	30374.91
724.729	30592.3
725.071	30373.78
725.413	30319.99
725.755	30340.33
726.097	30221.47
726.439	30099.89
726.782	30156.38
727.124	30225.31
727.465	30079.55
727.807	30063.28
728.149	29875.03
728.491	30014.92
728.833	29844.75
729.175	29897.18
729.516	29717.07
729.858	29745.09
730.199	29757.97
730.541	29687.24
730.882	29637.07
731.224	29681.59
731.565	29391.66
731.906	29577.19
732.248	29520.92
732.589	29368.83
732.93	29205.67
733.271	29365.67
733.612	29366.8
733.953	29224.43
734.294	29148.05
734.635	29059.24
734.976	29242.51
735.317	29031.44
735.658	28880.48
735.999	29026.92
736.339	28862.63
736.68	28880.48
737.021	28744.44
737.361	28688.17
737.702	28837.09
738.042	28636.42
738.383	28704.22
738.723	28828.06
739.063	28698.79
739.404	28640.26
739.744	28650.66
740.084	28478.01
740.424	28603.43
740.764	28500.61
741.104	28485.24
741.444	28478.46
741.784	28318.01
742.124	28400.27
742.464	28314.17
742.804	28282.99
743.143	28174.29
743.483	28113.95
743.823	28055.87
744.162	27984.69
744.502	28205.7
744.841	27981.98
745.181	28005.93
745.52	27873.5
745.86	27972.26
746.199	27920.51
746.538	27822.88
746.877	27791.92
747.216	27711.47
747.556	27755.77
747.895	27746.28
748.234	27618.6
748.573	27573.4
748.911	27500.86
749.25	27427.87
749.589	27430.58
749.928	27521.2
750.267	27413.18
750.605	27474.42
750.944	27371.37
751.283	27136.12
751.621	27221.54
751.96	27101.55
752.298	27051.15
752.636	27020.19
752.975	26901.78
753.313	26800.31
753.651	26918.95
753.989	26748.11
754.327	26768.45
754.666	26551.28
755.004	26740.65
755.342	26702.01
755.679	26621.79
756.017	26523.26
756.355	26507.21
756.693	26424.05
757.031	26435.8
757.368	26283.49
757.706	26233.1
758.044	26100.9
758.381	26148.13
758.719	26062.03
759.056	26037.39
759.394	25923.73
759.731	25692.32
760.068	25732.77
760.405	25769.15
760.743	25628.59
761.08	25605.54
761.417	25488.03
761.754	25395.15
762.091	25430.86
762.428	25279.9
762.765	25189.73
763.102	25295.04
763.438	25084.88
763.775	24992.22
764.112	25034.48
764.449	24989.74
764.785	24917.2
765.122	24743.42
765.458	24584.1
765.795	24715.85
766.131	24482.18
766.467	24489.41
766.804	24304.56
767.14	24251.9
767.476	24312.02
767.812	24220.27
768.148	24133.04
768.485	24020.27
768.821	24006.94
769.157	23813.27
769.492	23748.19
769.828	23755.87
770.164	23548.42
770.5	23533.05
770.836	23593.16
771.171	23420.29
771.507	23368.99
771.842	23030.47
772.178	23095.32
772.513	23081.31
772.849	23049.9
773.184	22849.23
773.519	22827.31
773.855	22715.9
774.19	22703.92
774.525	22546.41
774.86	22537.37
775.195	22433.42
775.53	22427.77
775.865	22285.18
776.2	22134.9
776.535	22064.17
776.87	21856.49
777.205	21877.5
777.539	21923.83
777.874	21790.05
778.209	21699.66
778.543	21600
778.878	21521.58
779.212	21470.96
779.547	21434.35
779.881	21287.24
780.215	21265.32
780.55	21261.93
780.884	21099.45
781.218	21075.04
781.552	21082.04
781.886	20989.84
782.22	20865.78
782.554	20788.27
782.888	20585.33
783.222	20512.79
783.556	20383.76
783.889	20340.82
784.223	20202.07
784.557	20185.8
784.89	20252.24
785.224	20086.14
785.557	20010.43
785.891	19963.43
786.224	19941.96
786.558	19860.16
786.891	19697.22
787.224	19602.31
787.557	19626.49
787.891	19542.2
788.224	19506.49
788.557	19479.6
788.89	19542.88
789.223	19400.28
789.556	19286.61
789.888	19277.12
790.221	19147.86
790.554	18982.89
790.887	18949.45
791.219	18767.3
791.552	18851.14
791.884	18828.32
792.217	18744.7
792.549	18598.49
792.882	18529.57
793.214	18506.52
793.546	18513.3
793.879	18278.05
794.211	18195.11
794.543	18373.42
794.875	18196.92
795.207	18332.51
795.539	18141.33
795.871	18133.65
796.203	17843.71
796.535	17978.17
796.867	17913.09
797.198	17852.07
797.53	17838.74
797.862	17669.48
798.193	17708.35
798.525	17547.9
798.856	17591.51
799.188	17376.15
799.519	17438.98
799.85	17298.42
800.182	17254.12
800.513	17267.23
800.844	17102.94
801.175	17158.98
801.506	17058.42
801.837	17105.65
802.168	16985.43
802.499	16990.17
802.83	16884.64
803.161	16930.97
803.491	16807.35
803.822	16841.03
804.153	16706.34
804.483	16631.99
804.814	16482.39
805.145	16559
805.475	16454.6
805.805	16345.9
806.136	16347.25
806.466	16348.38
806.796	16310.42
807.126	16226.13
807.457	16194.26
807.787	16192.46
808.117	15998.34
808.447	16020.48
808.777	16138.67
809.107	15981.84
809.436	15885.12
809.766	15873.82
810.096	15807.83
810.426	15740.26
810.755	15821.62
811.085	15707.27
811.414	15725.58
811.744	15564.22
812.073	15514.73
812.403	15582.75
812.732	15432.02
813.061	15472.02
813.39	15433.83
813.719	15420.5
814.049	15455.07
814.378	15304.8
814.707	15233.38
815.036	15234.29
815.365	15186.38
815.693	15042.88
816.022	15054.86
816.351	15018.93
816.68	14900.51
817.008	15050.79
817.337	14935.09
817.665	14910.46
817.994	14817.35
818.322	14844.92
818.651	14805.6
818.979	14638.82
819.307	14801.31
819.636	14672.95
819.964	14583.68
820.292	14707.07
820.62	14610.35
820.948	14577.36
821.276	14707.07
821.604	14606.73
821.932	14626.85
822.259	14620.75
822.587	14597.92
822.915	14501.43
823.243	14590.24
823.57	14518.15
823.898	14461.88
824.225	14429.79
824.553	14505.04
824.88	14569
825.207	14541.2
825.535	14476.57
825.862	14557.24
826.189	14486.29
826.516	14559.28
826.843	14545.27
827.17	14603.8
827.497	14567.41
827.824	14503.23
828.151	14541.43
828.478	14503.46
828.805	14541.88
829.131	14407.87
829.458	14392.73
829.785	14413.75
830.111	14439.51
830.438	14526.28
830.764	14556.11
831.09	14448.09
831.417	14387.76
831.743	14435.21
832.069	14419.85
832.395	14449.45
832.722	14432.05
833.048	14350.24
833.374	14387.53
833.7	14272.51
834.026	14302.11
834.351	14342.11
834.677	14256.24
835.003	14313.18
835.329	14367.87
835.654	14221.66
835.98	14256.46
836.306	14226.63
836.631	14145.96
836.956	14210.81
837.282	14126.97
837.607	14116.35
837.932	14041.1
838.258	14082.68
838.583	14153.41
838.908	13992.06
839.233	13998.39
839.558	14021.89
839.883	13911.39
840.208	13877.04
840.533	13864.83
840.858	13933.53
841.182	13803.59
841.507	13834.78
841.832	13757.72
842.156	13688.34
842.481	13753.65
842.805	13667.55
843.13	13658.51
843.454	13650.38
843.778	13593.43
844.103	13550.72
844.427	13642.69
844.751	13526.99
845.075	13496.71
845.399	13454.45
845.723	13383.94
846.047	13370.16
846.371	13256.71
846.695	13246.09
847.019	13144.17
847.343	13152.76
847.666	13093.1
847.99	12960.45
848.313	12952.54
848.637	12877.97
848.96	12924.74
849.284	12850.17
849.607	12741.02
849.931	12725.65
850.254	12686.11
850.577	12582.83
850.9	12555.04
851.223	12501.03
851.546	12484.08
851.869	12364.31
852.192	12389.84
852.515	12280.47
852.838	12193.24
853.161	12232.79
853.483	12174.71
853.806	12168.61
854.129	12084.99
854.451	12079.12
854.774	12002.51
855.096	11907.14
855.419	11967.03
855.741	11956.63
856.063	11843.19
856.385	11805
856.708	11791.22
857.03	11732.23
857.352	11759.58
857.674	11702.18
857.996	11618.34
858.318	11559.58
858.64	11454.28
858.961	11454.05
859.283	11472.58
859.605	11452.47
859.926	11559.58
860.248	11400.94
860.57	11367.72
860.891	11376.54
861.212	11369.08
861.534	11234.17
861.855	11285.69
862.176	11276.65
862.498	11236.2
862.819	11252.7
863.14	11162.76
863.461	11121.63
863.782	11142.64
864.103	11062.42
864.424	11077.34
864.745	11088.86
865.065	11009.32
865.386	10995.98
865.707	11008.19
866.027	11020.39
866.348	10981.97
866.668	10935.19
866.989	10970.22
867.309	10851.35
867.63	10947.17
867.95	10900.84
868.27	10874.4
868.59	10876.21
868.91	10747.63
869.23	10775.42
869.55	10816.1
869.87	10810
870.19	10740.4
870.51	10773.16
870.83	10687.74
871.15	10722.77
871.469	10718.25
871.789	10737.23
872.109	10671.92
872.428	10602.55
872.748	10655.2
873.067	10623.56
873.386	10586.73
873.706	10595.54
874.025	10489.1
874.344	10466.5
874.663	10553.51
874.982	10524.13
875.301	10450.23
875.62	10458.82
875.939	10386.51
876.258	10468.31
876.577	10346.28
876.896	10452.04
877.214	10305.83
877.533	10376.11
877.852	10332.95
878.17	10327.75
878.489	10322.55
878.807	10344.25
879.125	10244.82
879.444	10229.22
879.762	10196.46
880.08	10226.51
880.398	10170.92
880.716	10181.77
881.034	10167.08
881.352	10155.55
881.67	10135.21
881.988	10089.79
882.306	10028.55
882.624	10045.95
882.941	10017.93
883.259	9972.96
883.577	9945.39
883.894	9954.43
884.212	9935.22
884.529	9858.16
884.846	9881.44
885.164	9904.49
885.481	9868.33
885.798	9770.93
886.115	9719.63
886.432	9775.68
886.75	9766.41
887.067	9750.37
887.383	9607.77
887.7	9644.61
888.017	9668.56
888.334	9661.55
888.651	9601.44
888.967	9592.4
889.284	9504.72
889.6	9476.02
889.917	9403.48
890.233	9398.06
890.55	9455.23
890.866	9379.75
891.182	9358.51
891.498	9365.52
891.815	9345.4
892.131	9338.4
892.447	9285.74
892.763	9209.81
893.079	9226.76
893.395	9122.36
893.71	9197.84
894.026	9168.46
894.342	9150.15
894.657	9085.07
894.973	9074.45
895.289	9125.07
895.604	9088.69
895.92	8969.37
896.235	8884.17
896.55	8952.65
896.865	8968.69
897.181	8848.47
897.496	8891.86
897.811	8772.76
898.126	8783.61
898.441	8719.88
898.756	8651.86
899.071	8669.26
899.386	8661.58
899.7	8608.93
900.015	8565.54
900.33	8526.89
900.644	8566.22
900.959	8500.91
901.273	8444.18
901.588	8450.06
901.902	8369.38
902.216	8356.5
902.531	8370.29
902.845	8365.99
903.159	8279.9
903.473	8215.72
903.787	8223.63
904.101	8220.24
904.415	8156.28
904.729	8105.21
905.042	8087.13
905.356	8063.63
905.67	8024.31
905.984	8090.07
906.297	7994.25
906.611	7982.95
906.924	7944.76
907.237	7911.54
907.551	7889.17
907.864	7819.79
908.177	7880.81
908.491	7780.02
908.804	7702.28
909.117	7686.01
909.43	7660.02
909.743	7632.45
910.056	7618.9
910.368	7620.93
910.681	7524.66
910.994	7563.53
911.307	7523.53
911.619	7450.09
911.932	7408.28
912.244	7424.32
912.557	7370.99
912.869	7376.64
913.181	7299.81
913.494	7320.6
913.806	7302.07
914.118	7266.59
914.43	7171
914.742	7169.64
915.054	7209.19
915.366	7139.36
915.678	7040.15
915.99	7057.78
916.302	7011
916.613	6979.82
916.925	6994.28
917.236	6935.07
917.548	6876.77
917.859	6854.62
918.171	6826.15
918.482	6832.7
918.794	6775.08
919.105	6753.38
919.416	6719.71
919.727	6732.37
920.038	6694.17
920.349	6609.2
920.66	6616.21
920.971	6592.93
921.282	6631.58
921.593	6514.07
921.903	6478.36
922.214	6444.46
922.525	6452.37
922.835	6403.79
923.146	6406.95
923.456	6361.98
923.767	6347.52
924.077	6316.56
924.387	6259.16
924.697	6255.99
925.008	6260.51
925.318	6222.77
925.628	6204.47
925.938	6176
926.248	6116.79
926.558	6130.12
926.867	6052.16
927.177	5977.36
927.487	5987.07
927.796	5965.83
928.106	5966.96
928.416	5928.77
928.725	5920.86
929.034	5890.81
929.344	5834.99
929.653	5868.66
929.962	5793.18
930.271	5780.98
930.581	5781.66
930.89	5708.21
931.199	5689.45
931.508	5696.69
931.817	5669.34
932.125	5634.77
932.434	5663.01
932.743	5579.85
933.051	5572.4
933.36	5544.37
933.669	5502.12
933.977	5488.33
934.286	5510.93
934.594	5472.74
934.902	5459.18
935.21	5403.59
935.519	5442.68
935.827	5375.79
936.135	5358.16
936.443	5326.07
936.751	5308.22
937.059	5292.18
937.367	5222.12
937.674	5243.14
937.982	5228.9
938.29	5203.82
938.597	5170.37
938.905	5142.35
939.213	5058.96
939.52	5099.87
939.827	5073.65
940.135	5012.41
940.442	5033.43
940.749	5042.92
941.056	5022.58
941.363	4975.58
941.67	4952.3
941.977	4963.15
942.284	4929.7
942.591	4891.74
942.898	4908.46
943.205	4865.75
943.511	4831.17
943.818	4828.23
944.125	4771.74
944.431	4760.44
944.738	4753.21
945.044	4695.58
945.35	4698.97
945.657	4664.85
945.963	4664.85
946.269	4617.62
946.575	4628.47
946.881	4578.75
947.187	4611.29
947.493	4590.95
947.799	4541.01
948.105	4499.66
948.41	4476.83
948.716	4527.45
949.022	4466.89
949.327	4441.8
949.633	4378.08
949.938	4422.14
950.244	4367.68
950.549	4385.99
950.854	4327.46
951.16	4289.72
951.465	4324.75
951.77	4311.41
952.075	4266.89
952.38	4282.94
952.685	4246.56
952.99	4173.34
953.294	4216.95
953.599	4170.85
953.904	4165.2
954.209	4141.25
954.513	4139.21
954.818	4097.86
955.122	4068.25
955.426	4070.29
955.731	4048.37
956.035	4028.48
956.339	4023.51
956.643	3978.09
956.948	3984.42
957.252	3947.13
957.556	3954.81
957.86	3897.86
958.163	3876.17
958.467	3899.67
958.771	3882.5
959.075	3913.23
959.378	3826.45
959.682	3855.15
959.985	3823.06
960.289	3805.66
960.592	3785.1
960.896	3756.4
961.199	3741.26
961.502	3721.37
961.805	3707.59
962.108	3711.65
962.411	3666.91
962.714	3624.2
963.017	3701.71
963.32	3652.9
963.623	3626.23
963.926	3615.61
964.228	3562.05
964.531	3557.99
964.833	3564.99
965.136	3536.52
965.438	3512.11
965.741	3522.05
966.043	3499.91
966.345	3475.73
966.648	3458.55
966.95	3444.77
967.252	3425.33
967.554	3419.68
967.856	3410.19
968.158	3374.26
968.46	3449.29
968.761	3363.19
969.063	3359.57
969.365	3335.62
969.666	3351.66
969.968	3313.7
970.269	3302.17
970.571	3272.8
970.872	3284.77
971.174	3238.67
971.475	3251.33
971.776	3195.06
972.077	3224.43
972.378	3200.25
972.679	3159.58
972.98	3202.74
973.281	3171.1
973.582	3141.05
973.883	3158.45
974.183	3084.1
974.484	3133.14
974.785	3094.04
975.085	3052.24
975.386	3120.71
975.686	3013.37
975.986	3059.92
976.287	3016.08
976.587	3007.94
976.887	3010.43
977.187	2990.77
977.487	2976.98
977.787	2926.14
978.087	2923.43
978.387	2927.49
978.687	2933.82
978.987	2922.3
979.286	2873.71
979.586	2854.5
979.885	2884.1
980.185	2850.43
980.484	2810.21
980.784	2844.78
981.083	2797.33
981.382	2796.42
981.682	2803.2
981.981	2808.17
982.28	2772.92
982.579	2753.26
982.878	2771.11
983.177	2708.52
983.475	2726.82
983.774	2692.7
984.073	2719.14
984.372	2702.41
984.67	2683.66
984.969	2646.37
985.267	2633.04
985.566	2645.02
985.864	2622.64
986.162	2594.4
986.461	2601.63
986.759	2558.69
987.057	2561.18
987.355	2519.14
987.653	2565.47
987.951	2570.44
988.249	2527.73
988.547	2525.92
988.844	2524.11
989.142	2490.44
989.44	2493.83
989.737	2517.56
990.035	2482.76
990.332	2447.51
990.63	2431.24
990.927	2448.64
991.224	2395.3
991.521	2397.56
991.819	2410.45
992.116	2388.3
992.413	2356.21
992.71	2358.47
993.006	2362.31
993.303	2347.17
993.6	2347.62
993.897	2301.52
994.193	2292.26
994.49	2279.38
994.787	2293.61
995.083	2270.34
995.379	2254.52
995.676	2226.04
995.972	2256.1
996.268	2219.26
996.565	2195.99
996.861	2214.74
997.157	2224.46
997.453	2194.41
997.749	2153.28
998.044	2158.7
998.34	2147.4
998.636	2123.9
998.932	2135.2
999.227	2129.55
999.523	2105.82
999.818	2094.3
1000.114	2087.06
1000.409	2125.25
1000.704	2085.03
1001	2070.79
1001.295	2080.51
1001.59	2021.75
1001.885	2017.01
1002.18	2039.83
1002.475	2001.87
1002.77	2001.19
1003.065	1975.65
1003.359	1995.09
1003.654	1955.77
1003.949	1954.41
1004.243	1954.19
1004.538	1938.14
1004.832	1908.99
1005.127	1886.39
1005.421	1909.44
1005.715	1877.13
1006.009	1866.05
1006.304	1902.44
1006.598	1866.96
1006.892	1839.84
1007.186	1823.34
1007.48	1838.93
1007.773	1832.16
1008.067	1808.2
1008.361	1802.33
1008.655	1757.13
1008.948	1754.42
1009.242	1785.15
1009.535	1774.3
1009.829	1748.99
1010.122	1724.36
1010.415	1731.37
1010.708	1741.54
1011.001	1697.92
1011.295	1671.48
1011.588	1711.93
1011.881	1667.87
1012.173	1649.34
1012.466	1669.45
1012.759	1643.46
1013.052	1626.28
1013.344	1648.21
1013.637	1629.67
1013.93	1595.33
1014.222	1627.87
1014.514	1584.7
1014.807	1587.19
1015.099	1579.96
1015.391	1583.12
1015.683	1576.79
1015.976	1534.31
1016.268	1536.12
1016.56	1545.38
1016.851	1518.49
1017.143	1517.81
1017.435	1511.49
1017.727	1489.79
1018.018	1470.36
1018.31	1491.15
1018.602	1483.69
1018.893	1436.23
1019.185	1438.49
1019.476	1454.31
1019.767	1424.48
1020.058	1453.18
1020.35	1401.21
1020.641	1418.15
1020.932	1380.87
1021.223	1395.56
1021.514	1366.63
1021.804	1372.28
1022.095	1358.5
1022.386	1324.6
1022.677	1319.63
1022.967	1332.96
1023.258	1344.94
1023.548	1295.9
1023.839	1311.94
1024.129	1288.21
1024.419	1296.58
1024.709	1305.62
1025	1260.19
1025.29	1280.08
1025.58	1271.04
1025.87	1279.85
1026.16	1244.6
1026.449	1244.37
1026.739	1212.28
1027.029	1219.29
1027.319	1204.83
1027.608	1205.96
1027.898	1179.52
1028.187	1178.16
1028.477	1184.49
1028.766	1191.27
1029.055	1166.18
1029.344	1159.86
1029.634	1162.34
1029.923	1144.04
1030.212	1176.58
1030.501	1136.81
1030.79	1108.33
1031.078	1133.42
1031.367	1095.45
1031.656	1104.72
1031.945	1092.06
1032.233	1086.64
1032.522	1070.37
1032.81	1079.63
1033.099	1061.33
1033.387	1038.5
1033.675	1059.07
1033.963	1038.96
1034.251	1026.3
1034.54	1054.32
1034.828	998.05
1035.116	1021.78
1035.403	1015.23
1035.691	989.92
1035.979	1015.91
1036.267	1001.89
1036.554	976.58
1036.842	968.68
1037.129	963.03
1037.417	978.17
1037.704	980.88
1037.992	975.68
1038.279	953.31
1038.566	933.42
1038.853	933.42
1039.14	933.42
