Data from hue_330_FLMS001491_83.txt Node
Date: Mon Feb 06 15:46:02 GMT 2017
User: dcchb
Spectrometer: FLMS00149
Trigger mode: 0
Integration Time (sec): 2.000000E-2
Scans to average: 10
Electric dark correction enabled: true
Nonlinearity correction enabled: false
Boxcar width: 0
XAxis mode: Wavelengths
Number of Pixels in Spectrum: 2048
>>>>>Begin Spectral Data<<<<<
341.393	-11.64
341.776	-11.64
342.16	-11.64
342.543	-44.18
342.927	-65.42
343.31	-73.11
343.693	-73.56
344.077	-76.5
344.46	-65.42
344.843	-59.32
345.226	-50.51
345.61	-38.98
345.993	-9.38
346.376	-9.83
346.759	27.46
347.142	43.95
347.525	45.99
347.908	63.16
348.291	84.63
348.674	95.93
349.057	95.48
349.44	131.41
349.823	151.75
350.206	173.67
350.588	203.95
350.971	222.71
351.354	230.62
351.737	235.14
352.119	258.86
352.502	253.21
352.884	275.59
353.267	288.02
353.65	291.63
354.032	281.69
354.414	298.86
354.797	304.51
355.179	322.59
355.562	308.58
355.944	317.84
356.326	344.28
356.709	321.69
357.091	345.41
357.473	319.2
357.855	341.8
358.238	352.65
358.62	340.22
359.002	350.39
359.384	346.09
359.766	350.16
360.148	349.71
360.53	331.18
360.912	340.67
361.294	326.43
361.676	329.14
362.057	352.87
362.439	341.8
362.821	337.05
363.203	328.69
363.584	345.41
363.966	314.68
364.348	334.12
364.729	318.97
365.111	321.69
365.493	315.81
365.874	305.64
366.256	324.62
366.637	305.87
367.019	288.92
367.4	311.29
367.781	308.35
368.163	322.14
368.544	317.39
368.925	319.88
369.306	328.47
369.688	303.38
370.069	316.49
370.45	307.22
370.831	323.49
371.212	312.42
371.593	307
371.974	311.29
372.355	304.74
372.736	324.4
373.117	310.61
373.498	307.9
373.879	328.24
374.26	317.84
374.641	311.52
375.021	296.38
375.402	324.4
375.783	322.36
376.163	311.52
376.544	335.02
376.925	316.49
377.305	322.82
377.686	298.18
378.066	336.15
378.447	328.24
378.827	352.42
379.208	353.1
379.588	341.12
379.968	333.21
380.349	341.57
380.729	336.6
381.109	316.04
381.489	321.46
381.87	351.06
382.25	343.15
382.63	332.99
383.01	328.01
383.39	347.67
383.77	332.31
384.15	339.31
384.53	361.23
384.91	351.74
385.29	359.65
385.67	371.4
386.049	358.07
386.429	366.21
386.809	363.27
387.189	339.77
387.568	352.65
387.948	353.1
388.328	353.1
388.707	339.99
389.087	356.49
389.466	373.21
389.846	380.22
390.225	395.36
390.605	353.78
390.984	370.27
391.363	390.84
391.743	356.04
392.122	370.27
392.501	347
392.881	384.96
393.26	372.31
393.639	380.89
394.018	388.8
394.397	370.95
394.776	394.23
395.155	365.98
395.534	384.74
395.913	400.33
396.292	393.32
396.671	394.68
397.05	398.97
397.429	414.57
397.808	387.45
398.186	410.27
398.565	381.35
398.944	415.7
399.323	369.59
399.701	384.06
400.08	411.63
400.458	403.04
400.837	418.41
401.215	407.56
401.594	405.07
401.972	428.35
402.351	409.59
402.729	408.92
403.107	424.51
403.486	425.41
403.864	432.64
404.242	433.55
404.62	435.81
404.999	439.2
405.377	444.17
405.755	444.62
406.133	435.13
406.511	455.92
406.889	434.45
407.267	438.52
407.645	459.54
408.023	468.12
408.401	449.59
408.779	466.77
409.156	466.77
409.534	472.64
409.912	485.98
410.29	485.3
410.667	492.76
411.045	482.81
411.422	485.52
411.8	504.28
412.178	508.57
412.555	513.32
412.933	506.99
413.31	529.36
413.687	524.39
414.065	546.54
414.442	536.37
414.819	540.44
415.197	537.05
415.574	568.69
415.951	577.05
416.328	561.91
416.705	576.37
417.082	584.28
417.46	554.45
417.837	558.52
418.214	597.61
418.591	594.67
418.967	617.5
419.344	587.89
419.721	615.24
420.098	633.32
420.475	626.31
420.852	635.58
421.228	658.85
421.605	670.15
421.982	661.34
422.358	678.51
422.735	678.97
423.111	653.2
423.488	685.52
423.864	689.36
424.241	701.79
424.617	711.73
424.994	695.01
425.37	700.43
425.746	707.89
426.123	738.17
426.499	731.85
426.875	729.81
427.251	738.62
427.627	776.59
428.003	780.21
428.379	784.5
428.756	774.1
429.132	772.75
429.507	779.75
429.883	801.67
430.259	800.32
430.635	802.8
431.011	821.33
431.387	822.46
431.763	839.86
432.138	879.41
432.514	871.95
432.89	885.74
433.265	871.5
433.641	864.95
434.016	873.76
434.392	891.84
434.767	897.26
435.143	924.38
435.518	911.95
435.894	934.55
436.269	965.06
436.644	970.48
437.02	982.69
437.395	978.62
437.77	975
438.145	1009.58
438.52	986.53
438.895	1016.36
439.271	1024.72
439.646	1008.67
440.021	1016.81
440.395	1046.41
440.77	1057.71
441.145	1037.37
441.52	1049.12
441.895	1069.46
442.27	1065.4
442.645	1073.31
443.019	1101.55
443.394	1066.98
443.769	1108.78
444.143	1095.68
444.518	1108.11
444.892	1083.02
445.267	1130.03
445.641	1159.63
446.016	1116.69
446.39	1107.88
446.764	1133.64
447.139	1135.45
447.513	1166.18
447.887	1155.11
448.262	1142.91
448.636	1139.74
449.01	1160.31
449.384	1181.55
449.758	1175.9
450.132	1212.96
450.506	1183.13
450.88	1191.49
451.254	1202.57
451.628	1216.35
452.002	1242.11
452.376	1224.71
452.75	1241.44
453.123	1230.59
453.497	1245.05
453.871	1255
454.244	1279.63
454.618	1277.14
454.992	1299.97
455.365	1295.45
455.739	1325.05
456.112	1329.34
456.486	1355.56
456.859	1337.93
457.232	1330.7
457.606	1354.2
457.979	1372.05
458.352	1400.3
458.725	1414.31
459.099	1400.75
459.472	1432.17
459.845	1416.12
460.218	1443.92
460.591	1445.72
460.964	1432.39
461.337	1484.37
461.71	1502.67
462.083	1505.38
462.456	1492.96
462.829	1517.59
463.201	1530.47
463.574	1546.51
463.947	1542.9
464.32	1601.65
464.692	1577.7
465.065	1633.97
465.438	1630.13
465.81	1650.01
466.183	1655.21
466.555	1696.11
466.928	1674.42
467.3	1684.14
467.672	1709.9
468.045	1711.48
468.417	1710.8
468.789	1725.94
469.161	1777.92
469.534	1783.12
469.906	1822.66
470.278	1815.66
470.65	1857.47
471.022	1866.5
471.394	1883.91
471.766	1918.71
472.138	1934.3
472.51	1953.51
472.882	1995.77
473.253	2002.77
473.625	2031.92
473.997	2031.47
474.369	2064.92
474.74	2076.67
475.112	2117.8
475.484	2149.44
475.855	2202.99
476.227	2186.04
476.598	2216.78
476.97	2270.79
477.341	2281.86
477.713	2325.7
478.084	2320.28
478.455	2369.32
478.827	2397.34
479.198	2446.83
479.569	2469.43
479.94	2494.06
480.311	2530.89
480.682	2576.99
481.053	2583.55
481.424	2644.11
481.795	2681.17
482.166	2712.13
482.537	2725.01
482.908	2769.98
483.279	2769.53
483.65	2821.06
484.021	2852.47
484.391	2869.87
484.762	2936.31
485.133	2924.56
485.503	2963.42
485.874	3048.39
486.244	3069.41
486.615	3113.7
486.985	3142.63
487.356	3158.22
487.726	3192.8
488.097	3243.64
488.467	3250.87
488.837	3339.01
489.207	3352.12
489.578	3450.42
489.948	3449.51
490.318	3458.1
490.688	3477.76
491.058	3524.09
491.428	3576.29
491.798	3590.98
492.168	3690.86
492.538	3654.48
492.908	3673.91
493.278	3736.96
493.648	3742.61
494.017	3785.55
494.387	3823.29
494.757	3830.97
495.126	3914.13
495.496	3858.54
495.866	3903.06
496.235	3936.28
496.605	3989.39
496.974	3957.52
497.344	4025.09
497.713	4042.49
498.082	4071.87
498.452	4085.43
498.821	4113.9
499.19	4110.51
499.559	4164.98
499.928	4187.57
500.298	4206.33
500.667	4186.9
501.036	4206.1
501.405	4263.28
501.774	4229.38
502.143	4257.4
502.512	4323.84
502.88	4378.75
503.249	4367.91
503.618	4357.29
503.987	4397.74
504.356	4418.3
504.724	4401.81
505.093	4436.15
505.462	4432.54
505.83	4475.93
506.199	4484.74
506.567	4526.1
506.936	4546.21
507.304	4571.74
507.672	4590.5
508.041	4576.49
508.409	4569.71
508.777	4661.23
509.145	4717.05
509.514	4674.11
509.882	4698.07
510.25	4705.07
510.618	4722.47
510.986	4751.63
511.354	4763.38
511.722	4764.06
512.09	4851.74
512.458	4802.25
512.826	4838.86
513.193	4853.09
513.561	4848.8
513.929	4906.42
514.297	4918.4
514.664	4949.81
515.032	4922.92
515.4	4937.84
515.767	4985.74
516.135	5036.59
516.502	4972.19
516.869	5062.13
517.237	5052.41
517.604	5035.23
517.972	5098.28
518.339	5092.86
518.706	5108
519.073	5129.02
519.44	5136.02
519.808	5225.06
520.175	5186.42
520.542	5221.44
520.909	5249.24
521.276	5229.58
521.643	5296.47
522.009	5338.28
522.376	5313.87
522.743	5331.5
523.11	5376.69
523.477	5427.09
523.843	5415.56
524.21	5461.21
524.577	5525.17
524.943	5531.49
525.31	5490.36
525.676	5582.34
526.043	5560.87
526.409	5626.18
526.776	5687.87
527.142	5697.36
527.508	5696.69
527.874	5764.26
528.241	5739.85
528.607	5733.07
528.973	5783.01
529.339	5800.19
529.705	5886.74
530.071	5929.67
530.437	5969.67
530.803	5959.28
531.169	6035.43
531.535	5989.11
531.901	6013.74
532.267	6041.31
532.632	6057.13
532.998	6129.22
533.364	6108.88
533.73	6206.96
534.095	6251.93
534.461	6262.55
534.826	6243.56
535.192	6265.03
535.557	6350.91
535.923	6303.45
536.288	6360.85
536.653	6368.76
537.019	6352.04
537.384	6423.9
537.749	6489.66
538.114	6460.06
538.479	6477.91
538.845	6548.19
539.21	6491.02
539.575	6558.36
539.94	6597
540.305	6631.58
540.67	6601.97
541.034	6644.91
541.399	6623.22
541.764	6697.34
542.129	6746.15
542.494	6755.87
542.858	6800.61
543.223	6785.7
543.587	6826.6
543.952	6781.86
544.316	6927.61
544.681	6892.59
545.045	6933.72
545.41	7010.1
545.774	6984.79
546.138	7010.32
546.503	7042.19
546.867	7074.73
547.231	7123.54
547.595	7163.54
547.959	7126.93
548.324	7179.36
548.688	7113.15
549.052	7201.51
549.416	7252.35
549.779	7272.01
550.143	7286.93
550.507	7302.52
550.871	7385.23
551.235	7400.14
551.599	7439.47
551.962	7363.08
552.326	7433.36
552.689	7441.95
553.053	7439.24
553.417	7516.75
553.78	7628.61
554.143	7568.28
554.507	7600.14
554.87	7581.16
555.234	7660.93
555.597	7603.08
555.96	7627.03
556.323	7717.42
556.686	7636.07
557.05	7777.31
557.413	7748.61
557.776	7769.4
558.139	7825.22
558.502	7857.31
558.865	7833.58
559.228	7943.41
559.59	7959.9
559.953	7959.9
560.316	8025.66
560.679	8036.06
561.041	8041.94
561.404	8071.77
561.767	8122.61
562.129	8139.11
562.492	8233.57
562.854	8166
563.217	8167.81
563.579	8229.95
563.941	8256.62
564.304	8314.7
564.666	8312.89
565.028	8315.37
565.39	8367.58
565.753	8339.55
566.115	8419.1
566.477	8407.12
566.839	8457.52
567.201	8494.8
567.563	8509.95
567.925	8550.4
568.287	8660.9
568.648	8619.55
569.01	8634.46
569.372	8721.47
569.734	8724.86
570.095	8776.61
570.457	8794.68
570.819	8867.9
571.18	8876.26
571.542	8914.45
571.903	8947.22
572.265	9024.28
572.626	9070.61
572.987	9130.04
573.349	9195.58
573.71	9209.14
574.071	9235.12
574.432	9264.95
574.794	9377.27
575.155	9374.33
575.516	9379.75
575.877	9518.05
576.238	9554.21
576.599	9617.04
576.96	9671.95
577.32	9767.31
577.681	9890.7
578.042	9996.69
578.403	10073.29
578.763	10138.6
579.124	10194.65
579.485	10341.76
579.845	10494.75
580.206	10438.71
580.566	10664.69
580.927	10746.05
581.287	10855.19
581.648	10935.42
582.008	11156.88
582.368	11228.29
582.728	11438.23
583.089	11558.45
583.449	11724.32
583.809	11890.87
584.169	11967.03
584.529	12177.65
584.889	12496.06
585.249	12531.31
585.609	12703.06
585.969	12963.39
586.329	13140.78
586.688	13396.37
587.048	13501.45
587.408	13879.75
587.768	14090.82
588.127	14217.37
588.487	14461.65
588.846	14742.1
589.206	14966.5
589.565	15173.27
589.925	15497.33
590.284	15728.51
590.643	15988.85
591.003	16333.24
591.362	16582.73
591.721	16732.33
592.08	17058.87
592.44	17410.5
592.799	17660.44
593.158	17927.78
593.517	18171.84
593.876	18452.74
594.235	18713.75
594.593	19053.4
594.952	19343.33
595.311	19546.04
595.67	19884.34
596.029	20233.48
596.387	20438.9
596.746	20757.76
597.104	21000.24
597.463	21344.18
597.822	21681.58
598.18	21828.92
598.538	22226.87
598.897	22612.85
599.255	22630.25
599.613	23258.94
599.972	23434.98
600.33	23708.87
600.688	23900.95
601.046	24277.89
601.404	24570.31
601.762	24697.99
602.12	25165.33
602.478	25485.09
602.836	25756.27
603.194	25895.48
603.552	26005.76
603.91	26342.02
604.268	26703.59
604.625	26856.36
604.983	27190.81
605.341	27322.11
605.698	27763.68
606.056	28032.37
606.413	28288.86
606.771	28540.38
607.128	28737.66
607.485	28783.08
607.843	29092
608.2	29465.1
608.557	29672.1
608.914	29792.1
609.272	30137.85
609.629	30474.79
609.986	30658.29
610.343	30621
610.7	31019.86
611.057	31076.81
611.414	31339.63
611.771	31532.17
612.127	31873.4
612.484	31977.35
612.841	32276.1
613.198	32267.29
613.554	32585.47
613.911	32791.79
614.267	33022.3
614.624	33030.66
614.98	33294.15
615.337	33579.34
615.693	33731.66
616.05	33716.29
616.406	34003.96
616.762	34006.22
617.118	34159.21
617.475	34325.76
617.831	34614.34
618.187	34689.6
618.543	34804.85
618.899	35166.42
619.255	35257.27
619.611	35172.07
619.967	35489.35
620.323	35663.58
620.678	35688.44
621.034	35685.5
621.39	35729.34
621.746	35898.6
622.101	36341.76
622.457	36078.94
622.812	36289.33
623.168	36492.71
623.523	36411.13
623.879	36717.11
624.234	36578.59
624.589	36805.47
624.945	36890.67
625.3	37047.5
625.655	37048.18
626.01	37070.78
626.365	37244.56
626.72	37125.92
627.075	37182.64
627.43	37278.68
627.785	37392.12
628.14	37494.49
628.495	37600.03
628.85	37470.54
629.205	37526.81
629.559	37756.63
629.914	37551.89
630.269	37710.31
630.623	37606.36
630.978	37692.46
631.332	37854.26
631.687	37871.21
632.041	37879.12
632.396	37991.43
632.75	37897.65
633.104	37883.86
633.459	37878.67
633.813	38019
634.167	38028.72
634.521	37957.76
634.875	37961.6
635.229	37891.55
635.583	37834.82
635.937	37940.13
636.291	38024.65
636.645	38016.74
636.999	37896.52
637.352	38117.08
637.706	37922.05
638.06	37969.06
638.413	37964.31
638.767	37906.23
639.121	37992.33
639.474	37795.5
639.828	37801.83
640.181	37906.01
640.534	37967.02
640.888	37851.32
641.241	37782.62
641.594	37843.64
641.947	37859.46
642.301	37696.07
642.654	37998.89
643.007	37809.74
643.36	37962.73
643.713	37732.45
644.066	37968.83
644.419	37618.11
644.771	37477.09
645.124	37200.94
645.477	37190.1
645.83	36920.72
646.182	36841.86
646.535	36753.27
646.888	36756.66
647.24	36605.7
647.593	36786.72
647.945	36828.3
648.298	36544.69
648.65	36603.44
649.002	36374.98
649.355	36571.58
649.707	36479.83
650.059	36759.82
650.411	37052.7
650.763	37279.81
651.115	37482.74
651.467	37518.67
651.819	37518.45
652.171	37443.2
652.523	37271.22
652.875	37275.74
653.227	37191.23
653.578	37467.38
653.93	37237.1
654.282	37288.17
654.633	37202.52
654.985	37186.48
655.337	37268.06
655.688	37208.63
656.039	37313.71
656.391	37106.48
656.742	37056.54
657.094	37156.65
657.445	37325.23
657.796	37225.35
658.147	37165.24
658.498	37179.93
658.849	37174.73
659.2	36996.88
659.551	37012.25
659.902	37227.16
660.253	37028.74
660.604	37181.28
660.955	36993.94
661.306	37075.52
661.656	37051.34
662.007	37000.72
662.358	37022.19
662.708	37099.93
663.059	37082.98
663.409	36807.28
663.76	37120.04
664.11	37169.31
664.461	37161.17
664.811	37009.31
665.161	37021.74
665.511	36921.63
665.862	36993.26
666.212	37065.81
666.562	37213.37
666.912	37094.28
667.262	36932.7
667.612	36927.28
667.962	37031.91
668.312	36905.58
668.662	37019.93
669.011	37082.53
669.361	36847.51
669.711	36898.8
670.06	36844.12
670.41	36759.82
670.76	36810.67
671.109	36901.29
671.459	36896.32
671.808	36828.75
672.157	36924.11
672.507	36700.84
672.856	36712.82
673.205	36699.04
673.554	36852.48
673.904	36699.26
674.253	36819.03
674.602	36723.67
674.951	36237.35
675.3	36093.85
675.649	36686.38
675.998	36615.87
676.346	36745.59
676.695	36858.58
677.044	36277.13
677.393	36478.93
677.741	36597.12
678.09	36513.28
678.438	36442.32
678.787	36490.9
679.135	36443.22
679.484	36335.65
679.832	36371.59
680.181	36249.56
680.529	36263.57
680.877	36302.21
681.225	36154.19
681.573	36344.69
681.922	36071.03
682.27	36012.05
682.618	36139.95
682.966	35925.95
683.314	35994.65
683.661	35952.16
684.009	35664.94
684.357	35577.71
684.705	35679.63
685.053	35712.39
685.4	35547.2
685.748	35512.85
686.095	35377.94
686.443	35192.18
686.79	35298.39
687.138	35191.73
687.485	35292.52
687.832	35184.27
688.18	35222.24
688.527	34998.97
688.874	34929.14
689.221	34882.36
689.568	35006.2
689.915	34801.46
690.262	34829.25
690.609	34749.71
690.956	34556.04
691.303	34605.76
691.65	34487.34
691.997	34327.8
692.344	34271.53
692.69	34214.58
693.037	34294.8
693.383	34013
693.73	34058.2
694.077	33847.81
694.423	33891.2
694.769	33844.87
695.116	33791.99
695.462	33676.52
695.808	33504.32
696.155	33736.18
696.501	33299.58
696.847	33397.88
697.193	33218
697.539	33313.14
697.885	33038.79
698.231	32994.5
698.577	32954.5
698.923	32915.86
699.269	32714.28
699.614	32577.56
699.96	32638.35
700.306	32594.06
700.651	32323.1
700.997	32199.27
701.342	32348.87
701.688	32160.4
702.033	32103.22
702.379	31983.68
702.724	31985.71
703.069	32004.02
703.415	31629.11
703.76	31771.93
704.105	31731.48
704.45	31564.93
704.795	31456.01
705.14	31300.76
705.485	31259.86
705.83	31250.36
706.175	31380.08
706.52	31305.28
706.865	31052.18
707.209	31090.14
707.554	30865.06
707.899	31063.93
708.243	30868.23
708.588	30835.91
708.932	30617.61
709.277	30515.69
709.621	30565.19
709.966	30395.02
710.31	30477.96
710.654	30205.87
710.998	30225.76
711.342	30217.4
711.687	30220.11
712.031	30121.58
712.375	30009.49
712.719	29945.77
713.063	29865.77
713.407	30047.46
713.75	29804.53
714.094	29852.44
714.438	29640.01
714.782	29660.8
715.125	29522.73
715.469	29594.59
715.812	29419.23
716.156	29227.37
716.499	29285.67
716.843	29298.1
717.186	29176.97
717.53	29310.08
717.873	29300.13
718.216	29221.72
718.559	29013.59
718.902	28816.53
719.246	28979.69
719.589	28927.71
719.932	28824.44
720.275	28761.62
720.617	28587.61
720.96	28701.51
721.303	28574.28
721.646	28724.33
721.989	28299.48
722.331	28501.28
722.674	28507.39
723.016	28473.49
723.359	28416.54
723.701	28454.51
724.044	28189.65
724.386	28185.81
724.729	28246.15
725.071	28191.69
725.413	28145.81
725.755	27973.84
726.097	27951.69
726.439	27812.04
726.782	27889.55
727.124	27961.19
727.465	27708.31
727.807	27687.07
728.149	27720.51
728.491	27688.65
728.833	27655.43
729.175	27558.71
729.516	27546.96
729.858	27507.64
730.199	27577.47
730.541	27442.78
730.882	27526.62
731.224	27471.71
731.565	27276.01
731.906	27312.39
732.248	27331.6
732.589	27187.19
732.93	26989.23
733.271	27077.82
733.612	27102
733.953	27062
734.294	26950.82
734.635	26893.64
734.976	27078.72
735.317	26882.8
735.658	26793.53
735.999	26846.41
736.339	26739.07
736.68	26796.47
737.021	26760.99
737.361	26610.26
737.702	26652.97
738.042	26638.51
738.383	26579.08
738.723	26634.67
739.063	26485.97
739.404	26416.82
739.744	26325.97
740.084	26328.01
740.424	26471.51
740.764	26370.95
741.104	26332.53
741.444	26204.85
741.784	26236.94
742.124	26275.81
742.464	26277.16
742.804	26118.3
743.143	26045.98
743.483	25986.55
743.823	25793.56
744.162	25834.01
744.502	26072.42
744.841	25784.97
745.181	25989.49
745.52	25827
745.86	25799.89
746.199	25818.64
746.538	25781.58
746.877	25764.63
747.216	25738.87
747.556	25685.31
747.895	25687.8
748.234	25421.82
748.573	25474.02
748.911	25421.14
749.25	25388.37
749.589	25373.01
749.928	25336.17
750.267	25377.98
750.605	25309.28
750.944	25097.53
751.283	25022.28
751.621	25210.07
751.96	24912.23
752.298	24946.58
752.636	24965.11
752.975	24834.04
753.313	24815.05
753.651	24823.64
753.989	24799.91
754.327	24674.04
754.666	24594.27
755.004	24542.97
755.342	24563.31
755.679	24483.09
756.017	24331.68
756.355	24416.87
756.693	24354.05
757.031	24315.41
757.368	24266.37
757.706	24108.18
758.044	24043.1
758.381	24201.28
758.719	24029.99
759.056	24009.88
759.394	23906.6
759.731	23777.11
760.068	23764.69
760.405	23691.02
760.743	23595.2
761.08	23651.24
761.417	23603.56
761.754	23497.12
762.091	23426.39
762.428	23285.38
762.765	23115.21
763.102	23182.1
763.438	23091.03
763.775	22921.32
764.112	22999.73
764.449	22981.88
764.785	22948.44
765.122	22710.25
765.458	22635.9
765.795	22600.87
766.131	22504.15
766.467	22530.14
766.804	22454.89
767.14	22251.73
767.476	22197.95
767.812	22298.06
768.148	22192.52
768.485	22064.84
768.821	21933.55
769.157	21898.07
769.492	21848.58
769.828	21794.12
770.164	21700.56
770.5	21547.12
770.836	21682.93
771.171	21408.59
771.507	21451.75
771.842	21240.68
772.178	21270.29
772.513	21182.38
772.849	21134.02
773.184	21005.44
773.519	20994.59
773.855	20826.46
774.19	20774.48
774.525	20748.95
774.86	20736.52
775.195	20735.16
775.53	20552.57
775.865	20480.93
776.2	20372.91
776.535	20193.03
776.87	20253.59
777.205	20227.83
777.539	20027.38
777.874	20106.03
778.209	19962.75
778.543	19902.64
778.878	19791.01
779.212	19816.99
779.547	19635.53
779.881	19640.05
780.215	19522.09
780.55	19487.28
780.884	19408.87
781.218	19378.59
781.552	19334.52
781.886	19189.21
782.22	19058.82
782.554	18993.74
782.888	18911.71
783.222	18842.56
783.556	18754.87
783.889	18764.37
784.223	18565.27
784.557	18579.29
784.89	18623.8
785.224	18374.77
785.557	18324.15
785.891	18469.91
786.224	18281.44
786.558	18297.48
786.891	18105.17
787.224	18039.64
787.557	18019.07
787.891	17897.27
788.224	17947.66
788.557	17898.4
788.89	17784.28
789.223	17865.63
789.556	17648.91
789.888	17578.18
790.221	17500.9
790.554	17414.8
790.887	17367.34
791.219	17332.31
791.552	17396.27
791.884	17297.74
792.217	17177.29
792.549	17172.09
792.882	16940.23
793.214	16924.41
793.546	17067.23
793.879	16850.52
794.211	16735.27
794.543	16835.6
794.875	16704.08
795.207	16776.85
795.539	16751.31
795.871	16583.86
796.203	16440.58
796.535	16439.91
796.867	16312.23
797.198	16344.32
797.53	16343.41
797.862	16170.31
798.193	16186.81
798.525	16163.53
798.856	16173.02
799.188	15949.3
799.519	15973.7
799.85	15876.08
800.182	15981.84
800.513	15933.25
800.844	15731.45
801.175	15781.39
801.506	15666.14
801.837	15599.25
802.168	15632.02
802.499	15613.94
802.83	15459.59
803.161	15512.7
803.491	15421.85
803.822	15348.18
804.153	15286.72
804.483	15258.24
804.814	15161.3
805.145	15154.29
805.475	15160.39
805.805	15103.67
806.136	15026.38
806.466	15095.31
806.796	15000.62
807.126	14796.79
807.457	14882.21
807.787	14891.02
808.117	14696
808.447	14732.83
808.777	14770.12
809.107	14673.17
809.436	14661.87
809.766	14636.56
810.096	14574.42
810.426	14518.83
810.755	14509.34
811.085	14436.8
811.414	14341.2
811.744	14322.22
812.073	14314.76
812.403	14282
812.732	14189.57
813.061	14213.07
813.39	14146.41
813.719	14170.36
814.049	14165.39
814.378	14093.08
814.707	14010.14
815.036	13894.44
815.365	13930.37
815.693	13791.39
816.022	13860.54
816.351	13815.79
816.68	13768.56
817.008	13866.42
817.337	13675.69
817.665	13647.66
817.994	13613.31
818.322	13550.94
818.651	13469.82
818.979	13497.84
819.307	13585.52
819.636	13428.69
819.964	13486.31
820.292	13471.62
820.62	13386.65
820.948	13364.28
821.276	13437.05
821.604	13359.08
821.932	13431.17
822.259	13318.63
822.587	13368.12
822.915	13307.11
823.243	13413.32
823.57	13264.4
823.898	13386.43
824.225	13259.2
824.553	13307.56
824.88	13219.2
825.207	13263.27
825.535	13352.3
825.862	13375.13
826.189	13301.91
826.516	13357.05
826.843	13344.62
827.17	13314.11
827.497	13383.49
827.824	13319.31
828.151	13401.57
828.478	13300.1
828.805	13395.69
829.131	13228.47
829.458	13318.41
829.785	13126.77
830.111	13208.81
830.438	13321.34
830.764	13239.99
831.09	13274.79
831.417	13279.54
831.743	13255.36
832.069	13227.11
832.395	13215.81
832.722	13257.84
833.048	13199.09
833.374	13216.94
833.7	13080.45
834.026	13155.93
834.351	13141.69
834.677	13178.98
835.003	13196.38
835.329	13104.85
835.654	13026.66
835.98	13024.18
836.306	13068.92
836.631	13000.9
836.956	13122.25
837.282	13089.03
837.607	12942.6
837.932	12902.37
838.258	12982.6
838.583	12990.05
838.908	12820.34
839.233	12923.16
839.558	12909.83
839.883	12782.6
840.208	12735.82
840.533	12808.36
840.858	12784.86
841.182	12704.86
841.507	12694.47
841.832	12643.62
842.156	12650.63
842.481	12621.25
842.805	12587.58
843.13	12562.72
843.454	12553
843.778	12507.58
844.103	12486.79
844.427	12449.5
844.751	12376.96
845.075	12423.74
845.399	12293.58
845.723	12356.62
846.047	12365.44
846.371	12264.2
846.695	12158.44
847.019	12155.73
847.343	12108.72
847.666	11993.02
847.99	11933.13
848.313	11960.02
848.637	11775.85
848.96	11800.48
849.284	11777.66
849.607	11712.12
849.931	11672.8
850.254	11573.14
850.577	11573.82
850.9	11532.24
851.223	11449.98
851.546	11435.52
851.869	11349.65
852.192	11414.5
852.515	11290.89
852.838	11231.23
853.161	11266.48
853.483	11139.03
853.806	11101.29
854.129	11114.17
854.451	11133.15
854.774	11038.24
855.096	10971.12
855.419	11002.99
855.741	10958.92
856.063	10887.51
856.385	10870.79
856.708	10838.92
857.03	10786.27
857.352	10767.74
857.674	10731.81
857.996	10761.64
858.318	10631.25
858.64	10615.2
858.961	10570.46
859.283	10612.72
859.605	10507.18
859.926	10537.01
860.248	10514.19
860.57	10472.38
860.891	10477.58
861.212	10398.26
861.534	10435.77
861.855	10356
862.176	10394.42
862.498	10355.32
862.819	10317.58
863.14	10302.89
863.461	10224.02
863.782	10260.63
864.103	10237.81
864.424	10148.77
864.745	10210.24
865.065	10151.71
865.386	10088.66
865.707	10159.17
866.027	10148.77
866.348	10060.64
866.668	10080.98
866.989	10093.63
867.309	9928.21
867.63	10105.38
867.95	9996.69
868.27	9898.61
868.59	9988.78
868.91	9941.32
869.23	9944.71
869.55	9879.4
869.87	9958.04
870.19	9945.61
870.51	9889.57
870.83	9864.03
871.15	9871.27
871.469	9842.11
871.789	9874.66
872.109	9886.41
872.428	9823.36
872.748	9850.48
873.067	9784.71
873.386	9773.64
873.706	9755.11
874.025	9701.78
874.344	9634.89
874.663	9662.01
874.982	9663.14
875.301	9658.62
875.62	9665.62
875.939	9568.67
876.258	9620.43
876.577	9588.34
876.896	9499.75
877.214	9543.14
877.533	9553.76
877.852	9516.47
878.17	9501.78
878.489	9538.17
878.807	9492.74
879.125	9459.3
879.444	9442.58
879.762	9417.72
880.08	9406.19
880.398	9438.73
880.716	9366.42
881.034	9301.11
881.352	9312.64
881.67	9309.02
881.988	9335.46
882.306	9295.24
882.624	9262.02
882.941	9202.81
883.259	9177.72
883.577	9206.42
883.894	9123.94
884.212	9094.79
884.529	9106.31
884.846	9112.87
885.164	9081
885.481	9017.73
885.798	9063.83
886.115	9008.01
886.432	8988.35
886.75	8929.37
887.067	8913.78
887.383	8909.26
887.7	8903.38
888.017	8883.95
888.334	8860.22
888.651	8817.73
888.967	8867.9
889.284	8729.37
889.6	8702.03
889.917	8692.77
890.233	8692.09
890.55	8676.27
890.866	8683.27
891.182	8669.72
891.498	8629.94
891.815	8574.35
892.131	8534.13
892.447	8436.28
892.763	8493.45
893.079	8494.35
893.395	8444.86
893.71	8413.9
894.026	8455.03
894.342	8402.38
894.657	8360.57
894.973	8331.87
895.289	8363.28
895.604	8266.56
895.92	8221.37
896.235	8205.09
896.55	8259.56
896.865	8249.84
897.181	8193.34
897.496	8158.32
897.811	8111.31
898.126	8097.98
898.441	8070.41
898.756	8038.55
899.071	7916.06
899.386	7996.74
899.7	7881.26
900.015	7872.22
900.33	7879
900.644	7837.42
900.959	7805.33
901.273	7791.32
901.588	7748.38
901.902	7712.9
902.216	7698.89
902.531	7661.61
902.845	7598.11
903.159	7578.44
903.473	7510.42
903.787	7478.56
904.101	7504.77
904.415	7488.5
904.729	7505.45
905.042	7448.73
905.356	7478.79
905.67	7353.82
905.984	7412.35
906.297	7324.89
906.611	7284.67
906.924	7303.65
907.237	7227.49
907.551	7190.66
907.864	7245.35
908.177	7193.82
908.491	7150.89
908.804	7084.22
909.117	7061.62
909.43	7075.41
909.743	7027.05
910.056	7040.83
910.368	6954.51
910.681	6906.15
910.994	6868.86
911.307	6930.55
911.619	6832.93
911.932	6889.2
912.244	6780.05
912.557	6790.44
912.869	6770.56
913.181	6686.04
913.494	6724.23
913.806	6656.21
914.118	6619.6
914.43	6583.67
914.742	6633.84
915.054	6558.58
915.366	6541.18
915.678	6520.17
915.99	6522.88
916.302	6372.15
916.613	6405.82
916.925	6380.74
917.236	6362.43
917.548	6370.57
917.859	6324.47
918.171	6304.81
918.482	6238.82
918.794	6260.97
919.105	6254.64
919.416	6194.53
919.727	6156.79
920.038	6164.7
920.349	6102.1
920.66	6036.79
920.971	6044.47
921.282	6045.83
921.593	5995.44
921.903	5973.97
922.214	6023.23
922.525	5952.5
922.835	5908.88
923.146	5852.39
923.456	5884.93
923.767	5814.2
924.077	5825.95
924.387	5830.24
924.697	5816.46
925.008	5780.75
925.318	5701.21
925.628	5749.11
925.938	5685.16
926.248	5632.28
926.558	5577.82
926.867	5611.04
927.177	5564.26
927.487	5549.8
927.796	5494.88
928.106	5510.02
928.416	5441.33
928.725	5460.99
929.034	5410.37
929.344	5433.42
929.653	5446.98
929.962	5374.66
930.271	5420.99
930.581	5326.53
930.89	5284.49
931.199	5249.47
931.508	5302.35
931.817	5257.6
932.125	5246.53
932.434	5177.15
932.743	5192.29
933.051	5130.37
933.36	5107.55
933.669	5103.48
933.977	5118.62
934.286	5060.54
934.594	5069.13
934.902	5033.43
935.21	4995.91
935.519	4985.07
935.827	4957.72
936.135	4943.71
936.443	4903.26
936.751	4863.94
937.059	4830.27
937.367	4826.65
937.674	4840.66
937.982	4787.33
938.29	4792.3
938.597	4783.72
938.905	4733.55
939.213	4712.98
939.52	4697.39
939.827	4722.02
940.135	4613.55
940.442	4644.51
940.749	4602.7
941.056	4575.59
941.363	4548.92
941.67	4581.69
941.977	4572.42
942.284	4506.89
942.591	4555.02
942.898	4491.29
943.205	4494.68
943.511	4447.91
943.818	4440.45
944.125	4394.57
944.431	4434.35
944.738	4412.88
945.044	4399.32
945.35	4304.41
945.657	4330.17
945.963	4297.4
946.269	4273.22
946.575	4304.18
946.881	4252.43
947.187	4281.81
947.493	4171.08
947.799	4190.06
948.105	4164.07
948.41	4183.51
948.716	4160.23
949.022	4128.14
949.327	4145.77
949.633	4070.51
949.938	4099.21
950.244	4070.29
950.549	4064.64
950.854	4030.29
951.16	4014.7
951.465	3978.99
951.77	3988.26
952.075	3967.47
952.38	3931.08
952.685	3914.59
952.99	3895.83
953.294	3900.12
953.599	3852.67
953.904	3835.27
954.209	3842.72
954.513	3827.58
954.818	3815.15
955.122	3847.7
955.426	3776.51
955.731	3759.11
956.035	3771.31
956.339	3723.86
956.643	3706.46
956.948	3673.46
957.252	3672.11
957.556	3643.86
957.86	3618.32
958.163	3663.29
958.467	3617.87
958.771	3588.72
959.075	3619.23
959.378	3563.64
959.682	3548.04
959.985	3529.06
960.289	3500.81
960.592	3504.43
960.896	3493.13
961.199	3484.77
961.502	3450.87
961.805	3437.54
962.108	3412.23
962.411	3423.53
962.714	3413.13
963.017	3373.13
963.32	3367.26
963.623	3360.02
963.926	3350.08
964.228	3352.34
964.531	3295.62
964.833	3275.96
965.136	3266.02
965.438	3289.97
965.741	3245.23
966.043	3247.71
966.345	3255.39
966.648	3222.63
966.95	3219.24
967.252	3172.01
967.554	3156.64
967.856	3162.06
968.158	3146.7
968.46	3139.24
968.761	3097.88
969.063	3098.79
969.365	3075.96
969.666	3098.34
969.968	3022.41
970.269	3033.25
970.571	3012.24
970.872	3046.13
971.174	3008.85
971.475	3006.36
971.776	2991.9
972.077	2960.04
972.378	2977.44
972.679	2946.02
972.98	2942.41
973.281	2944.89
973.582	2926.82
973.883	2951.45
974.183	2863.99
974.484	2850.66
974.785	2872.13
975.085	2856.99
975.386	2849.98
975.686	2849.53
975.986	2818.8
976.287	2800.27
976.587	2792.58
976.887	2797.78
977.187	2781.96
977.487	2772.02
977.787	2746.93
978.087	2718.46
978.387	2712.58
978.687	2716.65
978.987	2701.74
979.286	2706.93
979.586	2691.34
979.885	2669.65
980.185	2639.14
980.484	2642.98
980.784	2614.06
981.083	2591.23
981.382	2589.88
981.682	2584.9
981.981	2545.13
982.28	2534.06
982.579	2545.13
982.878	2546.26
983.177	2560.27
983.475	2528.86
983.774	2493.61
984.073	2471.91
984.372	2529.31
984.67	2449.77
984.969	2458.35
985.267	2467.62
985.566	2472.14
985.864	2409.54
986.162	2421.52
986.461	2409.77
986.759	2370.45
987.057	2402.99
987.355	2380.39
987.653	2382.65
987.951	2334.51
988.249	2352.14
988.547	2365.47
988.844	2358.92
989.142	2305.36
989.44	2307.4
989.737	2277.34
990.035	2282.76
990.332	2261.3
990.63	2261.75
990.927	2260.17
991.224	2267.4
991.521	2245.25
991.819	2231.92
992.116	2218.36
992.413	2212.71
992.71	2189.66
993.006	2221.3
993.303	2183.11
993.6	2175.65
993.897	2194.63
994.193	2147.18
994.49	2147.85
994.787	2136.55
995.083	2108.76
995.379	2097.91
995.676	2092.26
995.972	2094.52
996.268	2081.87
996.565	2044.13
996.861	2068.99
997.157	2033.05
997.453	2003
997.749	2028.53
998.044	1995.09
998.34	2041.64
998.636	2005.94
998.932	1967.29
999.227	1991.47
999.523	1973.39
999.818	1974.75
1000.114	1975.88
1000.409	1933.4
1000.704	1906.96
1001	1920.06
1001.295	1928.65
1001.59	1917.58
1001.885	1883.45
1002.18	1872.38
1002.475	1869.44
1002.77	1873.51
1003.065	1841.87
1003.359	1843.23
1003.654	1837.13
1003.949	1815.43
1004.243	1794.42
1004.538	1827.64
1004.832	1809.78
1005.127	1802.78
1005.421	1769.56
1005.715	1782.89
1006.009	1777.92
1006.304	1740.18
1006.598	1723.46
1006.892	1720.29
1007.186	1703.35
1007.48	1721.2
1007.773	1666.96
1008.067	1690.92
1008.361	1655.89
1008.655	1670.58
1008.948	1670.58
1009.242	1629.22
1009.535	1649.79
1009.829	1643.69
1010.122	1619.96
1010.415	1637.58
1010.708	1603.91
1011.001	1583.12
1011.295	1571.6
1011.588	1588.32
1011.881	1598.26
1012.173	1568.89
1012.466	1551.48
1012.759	1556.46
1013.052	1527.76
1013.344	1539.51
1013.637	1522.78
1013.93	1513.97
1014.222	1507.19
1014.514	1489.34
1014.807	1504.25
1015.099	1474.65
1015.391	1478.27
1015.683	1463.35
1015.976	1457.02
1016.268	1439.17
1016.56	1426.06
1016.851	1401.88
1017.143	1394.2
1017.435	1393.52
1017.727	1382.45
1018.018	1362.34
1018.31	1391.26
1018.602	1381.09
1018.893	1352.39
1019.185	1333.41
1019.476	1365.73
1019.767	1352.85
1020.058	1343.81
1020.35	1347.42
1020.641	1304.03
1020.932	1320.98
1021.223	1323.47
1021.514	1299.74
1021.804	1266.52
1022.095	1302.68
1022.386	1245.5
1022.677	1294.09
1022.967	1283.24
1023.258	1242.79
1023.548	1236.69
1023.839	1203.47
1024.129	1228.33
1024.419	1207.31
1024.709	1221.1
1025	1189.91
1025.29	1190.36
1025.58	1170.03
1025.87	1158.73
1026.16	1153.75
1026.449	1145.17
1026.739	1153.53
1027.029	1145.62
1027.319	1116.92
1027.608	1130.25
1027.898	1116.47
1028.187	1139.97
1028.477	1083.25
1028.766	1109.01
1029.055	1080.08
1029.344	1090.93
1029.634	1090.93
1029.923	1080.99
1030.212	1095.23
1030.501	1076.92
1030.79	1052.06
1031.078	1019.97
1031.367	1038.5
1031.656	1029.24
1031.945	1047.54
1032.233	1005.96
1032.522	1010.03
1032.81	992.86
1033.099	1011.16
1033.387	999.63
1033.675	995.34
1033.963	1012.52
1034.251	969.13
1034.54	971.16
1034.828	992.4
1035.116	968.22
1035.403	941.56
1035.691	963.93
1035.979	950.37
1036.267	920.54
1036.554	919.86
1036.842	938.62
1037.129	919.64
1037.417	932.07
1037.704	935.91
1037.992	901.78
1038.279	906.08
1038.566	889.81
1038.853	889.81
1039.14	889.81
