Data from hue_110_FLMS001491_00058.txt Node
Date: Tue Feb 07 17:01:32 GMT 2017
User: dcchb
Spectrometer: FLMS00149
Trigger mode: 0
Integration Time (sec): 2.000000E-2
Scans to average: 10
Electric dark correction enabled: true
Nonlinearity correction enabled: false
Boxcar width: 0
XAxis mode: Wavelengths
Number of Pixels in Spectrum: 2048
>>>>>Begin Spectral Data<<<<<
341.393	-20.69
341.776	-20.69
342.16	-20.69
342.543	-63.18
342.927	-70.63
343.31	-60.69
343.693	-77.87
344.077	-60.24
344.46	-52.33
344.843	-52.56
345.226	-50.75
345.61	-43.29
345.993	-31.99
346.376	1.23
346.759	10.27
347.142	32.19
347.525	49.14
347.908	57.05
348.291	82.36
348.674	92.75
349.057	104.73
349.44	137.72
349.823	162.81
350.206	180.66
350.588	196.93
350.971	200.77
351.354	233.09
351.737	223.37
352.119	229.47
352.502	269.92
352.884	281.45
353.267	278.06
353.65	273.09
354.032	294.78
354.414	300.88
354.797	290.71
355.179	326.64
355.562	313.76
355.944	336.81
356.326	332.07
356.709	310.15
357.091	330.71
357.473	354.67
357.855	341.11
358.238	352.18
358.62	338.62
359.002	329.58
359.384	335.01
359.766	331.39
360.148	348.79
360.53	348.34
360.912	331.16
361.294	338.85
361.676	332.97
362.057	341.33
362.439	326.64
362.821	327.1
363.203	350.37
363.584	333.42
363.966	324.38
364.348	331.39
364.729	335.46
365.111	329.58
365.493	308.57
365.874	333.65
366.256	309.02
366.637	324.84
367.019	327.1
367.4	348.34
367.781	294.78
368.163	323.71
368.544	310.83
368.925	297.27
369.306	329.36
369.688	309.24
370.069	321.9
370.45	323.93
370.831	315.12
371.212	331.39
371.593	324.61
371.974	312.86
372.355	330.49
372.736	311.05
373.117	328
373.498	315.8
373.879	324.84
374.26	306.08
374.641	334.78
375.021	316.02
375.402	320.32
375.783	329.13
376.163	325.74
376.544	343.82
376.925	320.54
377.305	309.02
377.686	333.88
378.066	337.49
378.447	344.72
378.827	329.58
379.208	306.53
379.588	336.36
379.968	353.31
380.349	338.17
380.729	330.03
381.109	339.52
381.489	323.93
381.87	316.7
382.25	346.08
382.63	361.9
383.01	336.81
383.39	365.06
383.77	336.14
384.15	332.52
384.53	336.14
384.91	355.8
385.29	359.86
385.67	335.46
386.049	358.51
386.429	351.95
386.809	346.76
387.189	356.93
387.568	342.01
387.948	329.81
388.328	351.05
388.707	355.8
389.087	366.19
389.466	367.77
389.846	346.53
390.225	360.54
390.605	370.03
390.984	371.16
391.363	349.69
391.743	371.61
392.122	368
392.501	355.57
392.881	386.98
393.26	372.74
393.639	362.35
394.018	378.62
394.397	369.35
394.776	375
395.155	360.77
395.534	383.59
395.913	384.27
396.292	383.14
396.671	390.15
397.05	365.51
397.429	366.42
397.808	392.4
398.186	378.62
398.565	397.6
398.944	377.49
399.323	408.9
399.701	374.78
400.08	391.28
400.458	396.02
400.837	429.92
401.215	415.91
401.594	408.45
401.972	365.29
402.351	398.51
402.729	428.34
403.107	402.35
403.486	419.3
403.864	416.13
404.242	415.23
404.62	423.82
404.999	410.71
405.377	412.97
405.755	419.97
406.133	414.1
406.511	412.29
406.889	440.31
407.267	420.88
407.645	424.04
408.023	426.08
408.401	440.54
408.779	431.95
409.156	442.12
409.534	423.36
409.912	439.64
410.29	476.92
410.667	462.23
411.045	454.78
411.422	457.04
411.8	456.13
412.178	467.43
412.555	453.19
412.933	448.45
413.31	468.34
413.687	485.96
414.065	468.56
414.442	459.52
414.819	476.7
415.197	495.91
415.574	483.7
415.951	473.76
416.328	506.07
416.705	492.06
417.082	487.54
417.46	497.94
417.837	495
418.214	503.59
418.591	516.24
418.967	502.68
419.344	506.53
419.721	526.64
420.098	511.05
420.475	518.05
420.852	540.88
421.228	549.24
421.605	513.53
421.982	534.55
422.358	541.78
422.735	509.69
423.111	551.72
423.488	545.4
423.864	553.98
424.241	534.55
424.617	555.79
424.994	537.26
425.37	567.54
425.746	570.48
426.123	561.21
426.499	558.5
426.875	554.43
427.251	564.15
427.627	579.29
428.003	585.39
428.379	591.5
428.756	590.14
429.132	601.44
429.507	591.5
429.883	586.3
430.259	601.66
430.635	616.35
431.011	597.37
431.387	628.78
431.763	631.04
432.138	627.88
432.514	649.12
432.89	645.51
433.265	656.35
433.641	659.06
434.016	674.21
434.392	665.39
434.767	678.05
435.143	666.97
435.518	686.86
435.894	689.8
436.269	692.28
436.644	686.41
437.02	715.11
437.395	699.52
437.77	694.77
438.145	706.29
438.52	709.01
438.895	720.53
439.271	747.42
439.646	737.25
440.021	750.14
440.395	786.74
440.77	756.24
441.145	762.11
441.52	769.34
441.895	774.77
442.27	800.3
442.645	769.8
443.019	791.04
443.394	777.93
443.769	779.06
444.143	785.16
444.518	791.49
444.892	790.59
445.267	793.3
445.641	814.09
446.016	799.85
446.39	822.45
446.764	836.69
447.139	826.29
447.513	822.22
447.887	826.97
448.262	842.79
448.636	851.15
449.01	839.4
449.384	853.64
449.758	875.78
450.132	872.84
450.506	892.96
450.88	872.84
451.254	866.97
451.628	892.96
452.002	916.91
452.376	912.62
452.75	923.46
453.123	921.43
453.497	935.22
453.871	924.37
454.244	954.42
454.618	972.05
454.992	970.92
455.365	985.61
455.739	1020.86
456.112	997.81
456.486	1024.93
456.859	1026.06
457.232	1033.52
457.606	1036.46
457.979	1051.14
458.352	1068.09
458.725	1092.95
459.099	1069.22
459.472	1111.48
459.845	1127.3
460.218	1128.43
460.591	1132.27
460.964	1131.14
461.337	1154.87
461.71	1181.54
462.083	1177.47
462.456	1222.67
462.829	1205.72
463.201	1219.5
463.574	1246.62
463.947	1243.46
464.32	1278.48
464.692	1303.12
465.065	1290.23
465.438	1328.88
465.81	1339.05
466.183	1357.13
466.555	1400.06
466.928	1401.64
467.3	1424.24
467.672	1436.45
468.045	1464.92
468.417	1471.7
468.789	1497.91
469.161	1510.34
469.534	1548.31
469.906	1605.48
470.278	1644.58
470.65	1657
471.022	1689.32
471.394	1687.29
471.766	1742.43
472.138	1742.2
472.51	1792.37
472.882	1791.24
473.253	1834.4
473.625	1893.16
473.997	1957.79
474.369	1971.57
474.74	2002.53
475.112	2056.32
475.484	2115.52
475.855	2167.05
476.227	2222.87
476.598	2269.42
476.97	2343.54
477.341	2379.47
477.713	2436.42
478.084	2493.14
478.455	2565.46
478.827	2626.24
479.198	2713.02
479.569	2731.1
479.94	2854.71
480.311	2864.2
480.682	3021.26
481.053	3075.72
481.424	3178.77
481.795	3205.44
482.166	3307.36
482.537	3385.55
482.908	3515.49
483.279	3571.53
483.65	3691.53
484.021	3835.48
484.391	3908.92
484.762	4006.1
485.133	4092.87
485.503	4136.71
485.874	4336.03
486.244	4381.9
486.615	4563.82
486.985	4626.87
487.356	4781.67
487.726	4892.4
488.097	5030.7
488.467	5132.85
488.837	5238.83
489.207	5394.76
489.578	5516.34
489.948	5646.28
490.318	5767.86
490.688	5851.92
491.058	6064.57
491.428	6181.86
491.798	6257.11
492.168	6476.31
492.538	6539.81
492.908	6693.26
493.278	6840.82
493.648	6891.22
494.017	7076.97
494.387	7163.53
494.757	7266.8
495.126	7445.1
495.496	7543.18
495.866	7640.12
496.235	7845.99
496.605	7862.94
496.974	8023.62
497.344	8146.55
497.713	8286.66
498.082	8356.26
498.452	8511.74
498.821	8542.47
499.19	8776.14
499.559	8852.3
499.928	8925.74
500.298	8988.79
500.667	9136.58
501.036	9145.62
501.405	9346.52
501.774	9413.41
502.143	9562.33
502.512	9558.72
502.88	9688.88
503.249	9731.59
503.618	9834.87
503.987	9938.82
504.356	10032.83
504.724	10057.01
505.093	10141.53
505.462	10261.98
505.83	10345.82
506.199	10384.46
506.567	10596.43
506.936	10565.24
507.304	10679.14
507.672	10772.02
508.041	10781.74
508.409	10833.49
508.777	10990.09
509.145	11098.34
509.514	11047.27
509.882	11080.26
510.25	11139.24
510.618	11236.19
510.986	11285
511.354	11250.2
511.722	11446.13
512.09	11562.73
512.458	11479.35
512.826	11613.58
513.193	11607.7
513.561	11715.05
513.929	11815.38
514.297	11840.01
514.664	11886.79
515.032	11953.46
515.4	12036.39
515.767	12023.51
516.135	12086.11
516.502	12057.86
516.869	12212.43
517.237	12241.81
517.604	12193.22
517.972	12286.56
518.339	12333.56
518.706	12313
519.073	12283.17
519.44	12414.46
519.808	12497.62
520.175	12427.12
520.542	12511.41
520.909	12602.48
521.276	12568.58
521.643	12695.13
522.009	12668.47
522.376	12721.57
522.743	12717.05
523.11	12787.79
523.477	12834.34
523.843	12903.04
524.21	13005.63
524.577	12989.36
524.943	13046.99
525.31	12998.4
525.676	13193.65
526.043	13163.59
526.409	13098.06
526.776	13225.51
527.142	13206.31
527.508	13230.49
527.874	13237.94
528.241	13289.92
528.607	13158.85
528.973	13276.59
529.339	13200.66
529.705	13316.13
530.071	13370.59
530.437	13404.72
530.803	13391.61
531.169	13351.61
531.535	13379.41
531.901	13280.43
532.267	13285.63
532.632	13380.99
532.998	13335.12
533.364	13332.63
533.73	13315
534.095	13403.59
534.461	13406.53
534.826	13383.93
535.192	13312.52
535.557	13410.82
535.923	13340.54
536.288	13356.58
536.653	13274.1
537.019	13256.93
537.384	13270.48
537.749	13260.32
538.114	13185.74
538.479	13131.73
538.845	13175.35
539.21	13090.38
539.575	13129.7
539.94	13076.37
540.305	13099.87
540.67	13152.52
541.034	13030.26
541.399	13070.49
541.764	13046.54
542.129	12978.06
542.494	12914.34
542.858	12897.61
543.223	12877.27
543.587	12888.12
543.952	12872.08
544.316	12802.7
544.681	12677.05
545.045	12749.59
545.41	12816.71
545.774	12682.03
546.138	12709.6
546.503	12772.19
546.867	12667.79
547.231	12658.3
547.595	12586.21
547.959	12625.76
548.324	12553.89
548.688	12529.26
549.052	12449.94
549.416	12458.08
549.779	12387.8
550.143	12366.1
550.507	12409.94
550.871	12362.94
551.235	12300.79
551.599	12318.42
551.962	12361.13
552.326	12254.24
552.689	12288.59
553.053	12192.77
553.417	12220.79
553.78	12298.98
554.143	12162.72
554.507	12195.71
554.87	12112.55
555.234	12230.06
555.597	12057.86
555.96	12062.15
556.323	12106.9
556.686	12044.08
557.05	12047.69
557.413	12022.38
557.776	11992.1
558.139	12141.93
558.502	12093.57
558.865	12019.67
559.228	11951.65
559.59	12096.73
559.953	12052.21
560.316	12079.78
560.679	12129.05
561.041	12059.67
561.404	12196.84
561.767	12083.4
562.129	12001.82
562.492	12105.77
562.854	12016.73
563.217	12030.97
563.579	12041.36
563.941	12118.42
564.304	12202.04
564.666	12167.24
565.028	12149.84
565.39	12118.65
565.753	12224.41
566.115	12267.12
566.477	12235.94
566.839	12227.57
567.201	12260.57
567.563	12216.27
567.925	12296.27
568.287	12348.93
568.648	12288.82
569.01	12258.53
569.372	12368.59
569.734	12255.6
570.095	12371.75
570.457	12330.85
570.819	12397.74
571.18	12414.91
571.542	12396.84
571.903	12291.3
572.265	12422.15
572.626	12470.51
572.987	12449.26
573.349	12457.4
573.71	12422.6
574.071	12476.83
574.432	12483.16
574.794	12429.6
575.155	12446.1
575.516	12388.25
575.877	12508.7
576.238	12490.84
576.599	12532.42
576.96	12501.69
577.32	12567.68
577.681	12544.18
578.042	12572.2
578.403	12552.31
578.763	12475.03
579.124	12560.9
579.485	12595.47
579.845	12604.29
580.206	12656.04
580.566	12505.53
580.927	12519.32
581.287	12601.8
581.648	12507.34
582.008	12583.72
582.368	12572.42
582.728	12475.93
583.089	12520.45
583.449	12553.89
583.809	12541.24
584.169	12517.28
584.529	12467.12
584.889	12577.62
585.249	12524.06
585.609	12472.54
585.969	12487.45
586.329	12474.35
586.688	12462.6
587.048	12532.2
587.408	12428.47
587.768	12413.78
588.127	12424.4
588.487	12404.74
588.846	12504.18
589.206	12398.42
589.565	12408.36
589.925	12421.24
590.284	12364.07
590.643	12291.08
591.003	12343.73
591.362	12356.38
591.721	12311.41
592.08	12344.18
592.44	12421.47
592.799	12362.94
593.158	12336.05
593.517	12367.68
593.876	12333.11
594.235	12301.7
594.593	12285.43
594.952	12315.26
595.311	12225.54
595.67	12308.02
596.029	12419.43
596.387	12297.4
596.746	12374.91
597.104	12271.64
597.463	12240.68
597.822	12272.54
598.18	12235.71
598.538	12310.96
598.897	12266.67
599.255	12242.04
599.613	12347.8
599.972	12271.87
600.33	12279.55
600.688	12195.48
601.046	12280
601.404	12287.23
601.762	12294.01
602.12	12382.15
602.478	12284.07
602.836	12352.99
603.194	12185.32
603.552	12312.09
603.91	12239.1
604.268	12404.29
604.625	12216.73
604.983	12339.21
605.341	12186.22
605.698	12259.89
606.056	12335.37
606.413	12294.24
606.771	12275.48
607.128	12283.62
607.485	12278.42
607.843	12239.55
608.2	12319.32
608.557	12304.86
608.914	12270.51
609.272	12416.95
609.629	12362.71
609.986	12353.22
610.343	12403.84
610.7	12382.82
611.057	12445.2
611.414	12400.22
611.771	12413.33
612.127	12490.84
612.484	12459.88
612.841	12432.99
613.198	12466.89
613.554	12419.43
613.911	12522.03
614.267	12482.03
614.624	12469.6
614.98	12458.75
615.337	12515.93
615.693	12524.29
616.05	12556.15
616.406	12556.83
616.762	12460.11
617.118	12585.08
617.475	12547.11
617.831	12539.88
618.187	12607.23
618.543	12568.58
618.899	12621.01
619.255	12592.31
619.611	12598.86
619.967	12647
620.323	12722.02
620.678	12618.75
621.034	12608.13
621.39	12612.87
621.746	12582.37
622.101	12774.68
622.457	12630.28
622.812	12644.29
623.168	12711.18
623.523	12744.62
623.879	12724.06
624.234	12565.42
624.589	12571.07
624.945	12619.88
625.3	12650.39
625.655	12645.42
626.01	12594.12
626.365	12684.29
626.72	12661.23
627.075	12604.51
627.43	12650.16
627.785	12562.71
628.14	12613.55
628.495	12625.3
628.85	12584.17
629.205	12543.27
629.559	12572.65
629.914	12607.9
630.269	12624.17
630.623	12576.94
630.978	12559.99
631.332	12531.75
631.687	12617.85
632.041	12511.18
632.396	12558.41
632.75	12493.56
633.104	12480.22
633.459	12442.03
633.813	12469.83
634.167	12437.29
634.521	12399.77
634.875	12425.99
635.229	12442.94
635.583	12294.46
635.937	12348.7
636.291	12299.89
636.645	12328.59
636.999	12280.68
637.352	12292.88
637.706	12273.45
638.06	12354.12
638.413	12291.98
638.767	12240.23
639.121	12285.65
639.474	12250.85
639.828	12280.91
640.181	12223.05
640.534	12275.03
640.888	12149.16
641.241	12135.6
641.594	12170.4
641.947	12138.99
642.301	12200.23
642.654	12170.17
643.007	12137.41
643.36	12136.73
643.713	12112.77
644.066	12131.08
644.419	12110.74
644.771	11976.06
645.124	11851.31
645.477	11875.94
645.83	11776.74
646.182	11762.5
646.535	11736.51
646.888	11745.55
647.24	11750.3
647.593	11797.75
647.945	11788.49
648.298	11659.23
648.65	11646.12
649.002	11589.17
649.355	11707.59
649.707	11628.04
650.059	11700.58
650.411	11859.9
650.763	11829.62
651.115	12079.1
651.467	11952.33
651.819	11967.24
652.171	11968.82
652.523	11969.73
652.875	11946
653.227	11929.05
653.578	11941.03
653.93	11989.16
654.282	11824.65
654.633	11940.58
654.985	11926.56
655.337	11859.45
655.688	11946
656.039	12021.7
656.391	11930.86
656.742	11931.08
657.094	11831.65
657.445	11982.16
657.796	11996.85
658.147	11991.2
658.498	12000.24
658.849	12001.37
659.2	11998.65
659.551	11987.81
659.902	12011.99
660.253	12028.48
660.604	12026.9
660.955	11953.23
661.306	12049.27
661.656	11940.35
662.007	12028.71
662.358	11980.35
662.708	11957.07
663.059	11962.72
663.409	11967.24
663.76	12020.8
664.11	11974.02
664.461	12034.58
664.811	12059.22
665.161	12033
665.511	11943.51
665.862	11940.12
666.212	12039.56
666.562	12019.67
666.912	12058.31
667.262	12042.04
667.612	11992.78
667.962	12001.14
668.312	12043.4
668.662	11973.57
669.011	12021.93
669.361	11956.17
669.711	11932.44
670.06	11915.94
670.41	11951.88
670.76	11903.97
671.109	11994.81
671.459	11912.1
671.808	11881.37
672.157	11974.93
672.507	11799.11
672.856	11849.96
673.205	11894.25
673.554	11970.18
673.904	11878.43
674.253	11899.22
674.602	11924.53
674.951	11742.39
675.3	11647.02
675.649	11862.16
675.998	11861.48
676.346	11918.2
676.695	11868.71
677.044	11728.6
677.393	11828.49
677.741	11755.04
678.09	11825.55
678.438	11783.74
678.787	11839.11
679.135	11776.06
679.484	11720.47
679.832	11712.33
680.181	11655.84
680.529	11681.37
680.877	11678.21
681.225	11655.16
681.573	11688.83
681.922	11582.17
682.27	11588.95
682.618	11548.27
682.966	11523.86
683.314	11508.95
683.661	11513.69
684.009	11483.19
684.357	11389.4
684.705	11459.23
685.053	11488.38
685.4	11404.77
685.748	11354.6
686.095	11340.37
686.443	11329.97
686.79	11327.94
687.138	11243.19
687.485	11320.71
687.832	11254.94
688.18	11197.32
688.527	11210.88
688.874	11142.18
689.221	11087.49
689.568	11067.6
689.915	10997.55
690.262	11081.39
690.609	10948.06
690.956	10980.15
691.303	10930.66
691.65	10882.07
691.997	10925.24
692.344	10829.87
692.69	10790.1
693.037	10782.64
693.383	10666.71
693.73	10599.37
694.077	10673.04
694.423	10639.82
694.769	10498.35
695.116	10593.94
695.462	10501.74
695.808	10511.23
696.155	10448.19
696.501	10413.16
696.847	10449.99
697.193	10357.79
697.539	10358.24
697.885	10247.74
698.231	10232.82
698.577	10183.11
698.923	10178.14
699.269	10103.34
699.614	10078.7
699.96	10055.43
700.306	10058.37
700.651	9930.46
700.997	9924.81
701.342	9913.96
701.688	9934.07
702.033	9841.42
702.379	9821.54
702.724	9756.23
703.069	9832.38
703.415	9705.38
703.76	9672.39
704.105	9697.02
704.45	9691.82
704.795	9613.86
705.14	9550.81
705.485	9581.54
705.83	9533.18
706.175	9569.34
706.52	9495.44
706.865	9450.92
707.209	9413.18
707.554	9402.11
707.899	9409.79
708.243	9377.48
708.588	9270.36
708.932	9263.81
709.277	9286.63
709.621	9264.71
709.966	9288.67
710.31	9210.93
710.654	9142.91
710.998	9113.08
711.342	9129.58
711.687	8982.69
712.031	8991.5
712.375	8992.18
712.719	9037.38
713.063	8978.39
713.407	8987.66
713.75	8972.52
714.094	8956.93
714.438	8885.29
714.782	8892.75
715.125	8830.83
715.469	8878.96
715.812	8892.52
716.156	8810.94
716.499	8839.64
716.843	8817.95
717.186	8811.84
717.53	8847.78
717.873	8821.34
718.216	8826.76
718.559	8787.89
718.902	8760.55
719.246	8790.6
719.589	8710.83
719.932	8715.35
720.275	8670.61
720.617	8730.26
720.96	8586.54
721.303	8684.39
721.646	8655.92
721.989	8610.27
722.331	8612.08
722.674	8650.27
723.016	8626.31
723.359	8617.05
723.701	8622.25
724.044	8573.88
724.386	8520.1
724.729	8596.93
725.071	8584.28
725.413	8583.15
725.755	8601.45
726.097	8495.47
726.439	8549.25
726.782	8471.74
727.124	8525.75
727.465	8487.11
727.807	8431.74
728.149	8450.5
728.491	8414.34
728.833	8480.55
729.175	8435.36
729.516	8444.4
729.858	8454.11
730.199	8426.77
730.541	8458.86
730.882	8401.23
731.224	8443.72
731.565	8473.55
731.906	8344.06
732.248	8412.53
732.589	8351.07
732.93	8424.06
733.271	8350.16
733.612	8394.68
733.953	8447.33
734.294	8445.98
734.635	8417.5
734.976	8373.44
735.317	8405.98
735.658	8379.31
735.999	8421.12
736.339	8440.55
736.68	8476.94
737.021	8407.34
737.361	8423.61
737.702	8466.32
738.042	8445.07
738.383	8394.91
738.723	8476.03
739.063	8414.57
739.404	8430.84
739.744	8483.94
740.084	8482.14
740.424	8467.22
740.764	8502.02
741.104	8544.28
741.444	8554.68
741.784	8500.67
742.124	8532.53
742.464	8626.99
742.804	8570.04
743.143	8601.23
743.483	8644.62
743.823	8650.94
744.162	8694.11
744.502	8711.51
744.841	8643.26
745.181	8741.79
745.52	8791.05
745.86	8804.61
746.199	8829.92
746.538	8845.29
746.877	8928.45
747.216	8930.71
747.556	9090.26
747.895	9072.63
748.234	9081.89
748.573	9163.47
748.911	9127.77
749.25	9177.71
749.589	9290.25
749.928	9389.23
750.267	9491.6
750.605	9488.21
750.944	9548.32
751.283	9671.71
751.621	9761.88
751.96	9828.99
752.298	9889.1
752.636	9984.7
752.975	9986.73
753.313	10078.48
753.651	10252.94
753.989	10250.22
754.327	10425.14
754.666	10508.3
755.004	10671
755.342	10767.27
755.679	10908.06
756.017	11017.66
756.355	11138.34
756.693	11206.13
757.031	11473.92
757.368	11497.42
757.706	11609.96
758.044	11826.68
758.381	11940.12
758.719	12070.06
759.056	12240.91
759.394	12423.73
759.731	12442.26
760.068	12614.91
760.405	12780.78
760.743	12895.13
761.08	13112.3
761.417	13213.31
761.754	13344.83
762.091	13468.22
762.428	13626.41
762.765	13735.78
763.102	14020.3
763.438	14081.99
763.775	14145.26
764.112	14471.36
764.449	14634.06
764.785	14653.5
765.122	14798.13
765.458	14971.68
765.795	15101.4
766.131	15267.04
766.467	15318.79
766.804	15518.33
767.14	15492.8
767.476	15685.34
767.812	15743.41
768.148	15956.74
768.485	15974.14
768.821	16097.3
769.157	16232.89
769.492	16343.4
769.828	16443.96
770.164	16451.19
770.5	16620
770.836	16740.45
771.171	16755.36
771.507	16854.34
771.842	16874.91
772.178	17010.95
772.513	17077.62
772.849	17148.57
773.184	17172.98
773.519	17308.34
773.855	17318.51
774.19	17342.69
774.525	17433.54
774.86	17481.67
775.195	17523.25
775.53	17523.03
775.865	17519.19
776.2	17508.79
776.535	17491.16
776.87	17518.73
777.205	17660.2
777.539	17712.63
777.874	17799.4
778.209	17586.08
778.543	17742.91
778.878	17720.54
779.212	17806.86
779.547	17767.54
779.881	17834.66
780.215	17701.55
780.55	17796.47
780.884	17738.62
781.218	17706.3
781.552	17800.53
781.886	17702.23
782.22	17784.04
782.554	17744.94
782.888	17713.98
783.222	17773.64
783.556	17693.19
783.889	17692.06
784.223	17548.11
784.557	17627.66
784.89	17721.67
785.224	17621.33
785.557	17593.76
785.891	17557.6
786.224	17505.85
786.558	17622.01
786.891	17462.01
787.224	17464.27
787.557	17365.97
787.891	17370.04
788.224	17410.04
788.557	17343.15
788.89	17337.04
789.223	17377.04
789.556	17238.06
789.888	17196.48
790.221	17220.44
790.554	17211.4
790.887	17087.33
791.219	17077.84
791.552	17089.82
791.884	16989.48
792.217	17015.47
792.549	16975.92
792.882	16901.35
793.214	16810.96
793.546	16935.02
793.879	16847.34
794.211	16835.14
794.543	16759.43
794.875	16734.35
795.207	16870.39
795.539	16731.86
795.871	16789.49
796.203	16595.37
796.535	16509.5
796.867	16610.06
797.198	16601.7
797.53	16422.04
797.862	16331.42
798.193	16429.27
798.525	16324.42
798.856	16305.66
799.188	16129.62
799.519	16188.15
799.85	16110.41
800.182	16101.37
800.513	16113.35
800.844	15972.79
801.175	16034.25
801.506	15980.02
801.837	15946.57
802.168	15814.82
802.499	15904.31
802.83	15813.92
803.161	15736.18
803.491	15722.4
803.822	15772.34
804.153	15729.4
804.483	15639.01
804.814	15534.38
805.145	15514.49
805.475	15536.19
805.805	15407.15
806.136	15487.15
806.466	15413.03
806.796	15397.89
807.126	15306.36
807.457	15287.61
807.787	15283.54
808.117	15261.84
808.447	15194.5
808.777	15158.57
809.107	15133.26
809.436	15086.93
809.766	15044.9
810.096	15035.86
810.426	15030.21
810.755	15015.07
811.085	15014.85
811.414	14932.59
811.744	14759.71
812.073	14789.54
812.403	14802.2
812.732	14693.27
813.061	14795.87
813.39	14768.75
813.719	14638.13
814.049	14725.81
814.378	14590
814.707	14621.86
815.036	14561.07
815.365	14614.18
815.693	14422.32
816.022	14449.66
816.351	14399.49
816.68	14280.85
817.008	14388.65
817.337	14262.55
817.665	14210.57
817.994	14292.6
818.322	14213.28
818.651	14266.39
818.979	14111.37
819.307	14197.47
819.636	14200.63
819.964	14077.92
820.292	14074.76
820.62	14116.79
820.948	14059.39
821.276	14122.67
821.604	14039.73
821.932	13977.58
822.259	14046.06
822.587	14026.62
822.915	14018.49
823.243	14035.21
823.57	13998.37
823.898	13950.01
824.225	13946.4
824.553	13962.22
824.88	14050.12
825.207	14029.79
825.535	13964.93
825.862	14029.33
826.189	13995.21
826.516	13984.82
826.843	14112.5
827.17	14077.47
827.497	14019.39
827.824	14028.88
828.151	14034.53
828.478	13974.42
828.805	14098.03
829.131	14060.75
829.458	13978.26
829.785	13975.78
830.111	13976.91
830.438	14057.13
830.764	14005.83
831.09	14039.28
831.417	13943.01
831.743	14043.57
832.069	13976.91
832.395	13944.82
832.722	14018.71
833.048	13943.24
833.374	13960.64
833.7	13852.84
834.026	13943.69
834.351	13926.06
834.677	13943.46
835.003	14053.06
835.329	13897.59
835.654	13900.07
835.98	13862.79
836.306	13847.87
836.631	13759.96
836.956	13904.14
837.282	13853.52
837.607	13783.47
837.932	13801.09
838.258	13784.14
838.583	13764.03
838.908	13674.54
839.233	13584.37
839.558	13690.59
839.883	13612.4
840.208	13549.35
840.533	13664.37
840.858	13587.09
841.182	13633.64
841.507	13570.59
841.832	13457.6
842.156	13513.42
842.481	13460.08
842.805	13423.93
843.13	13363.36
843.454	13334.89
843.778	13303.25
844.103	13248.79
844.427	13207.66
844.751	13235.46
845.075	13155.01
845.399	13128.12
845.723	13102.13
846.047	13124.27
846.371	12958.4
846.695	12935.13
847.019	12864.17
847.343	12876.82
847.666	12769.93
847.99	12692.19
848.313	12663.49
848.637	12545.08
848.96	12589.82
849.284	12602.71
849.607	12494.46
849.931	12527.45
850.254	12331.07
850.577	12336.05
850.9	12317.06
851.223	12272.54
851.546	12127.46
851.869	12120.01
852.192	12092.21
852.515	12046.34
852.838	11955.49
853.161	12085.2
853.483	11893.8
853.806	11814.25
854.129	11879.79
854.451	11822.84
854.774	11782.16
855.096	11725.21
855.419	11687.02
855.741	11689.06
856.063	11558.89
856.385	11644.76
856.708	11527.03
857.03	11447.03
857.352	11462.85
857.674	11430.08
857.996	11453.58
858.318	11317.99
858.64	11391.66
858.961	11304.21
859.283	11298.33
859.605	11267.83
859.926	11287.49
860.248	11180.6
860.57	11130.88
860.891	11129.07
861.212	11063.99
861.534	11060.15
861.855	11016.76
862.176	10970.66
862.498	10984.44
862.819	11025.8
863.14	11032.58
863.461	10959.58
863.782	10966.82
864.103	10954.61
864.424	10927.5
864.745	10950.09
865.065	10839.36
865.386	10847.95
865.707	10837.33
866.027	10803.66
866.348	10795.52
866.668	10766.37
866.989	10755.97
867.309	10644.56
867.63	10776.31
867.95	10678.01
868.27	10577.45
868.59	10633.72
868.91	10602.08
869.23	10650.44
869.55	10560.05
869.87	10462.65
870.19	10583.78
870.51	10547.17
870.83	10558.24
871.15	10452.93
871.469	10509.65
871.789	10429.2
872.109	10441.41
872.428	10462.65
872.748	10475.53
873.067	10408.41
873.386	10404.8
873.706	10394.4
874.025	10313.27
874.344	10353.27
874.663	10344.69
874.982	10277.57
875.301	10206.61
875.62	10265.82
875.939	10218.59
876.258	10241.41
876.577	10135.88
876.896	10214.75
877.214	10123.45
877.533	10129.32
877.852	10119.83
878.17	10161.41
878.489	10145.82
878.807	10136.1
879.125	10087.74
879.444	10085.26
879.762	9986.95
880.08	10064.02
880.398	10037.35
880.716	10007.75
881.034	9966.16
881.352	9982.66
881.67	9857.01
881.988	9948.76
882.306	9860.4
882.624	9852.27
882.941	9835.09
883.259	9767.98
883.577	9718.94
883.894	9689.56
884.212	9749.9
884.529	9765.94
884.846	9694.76
885.164	9713.74
885.481	9704.48
885.798	9586.29
886.115	9614.31
886.432	9643.24
886.75	9560.53
887.067	9520.98
887.383	9524.82
887.7	9600.75
888.017	9475.33
888.334	9509.45
888.651	9374.09
888.967	9408.44
889.284	9465.39
889.6	9382.23
889.917	9375.45
890.233	9323.02
890.55	9217.03
890.866	9244.6
891.182	9186.3
891.498	9222
891.815	9160.76
892.131	9153.76
892.447	9152.85
892.763	9144.27
893.079	9103.59
893.395	9069.92
893.71	8988.79
894.026	8956.93
894.342	8963.48
894.657	8903.37
894.973	8930.49
895.289	8879.41
895.604	8862.46
895.92	8732.07
896.235	8821.34
896.55	8710.38
896.865	8728.46
897.181	8695.92
897.496	8696.59
897.811	8619.31
898.126	8571.85
898.441	8542.7
898.756	8571.85
899.071	8544.51
899.386	8495.69
899.7	8405.98
900.015	8460.44
900.33	8373.89
900.644	8340.22
900.959	8325.08
901.273	8318.75
901.588	8234.46
901.902	8227
902.216	8214.57
902.531	8137.51
902.845	8113.33
903.159	8098.19
903.473	8065.65
903.787	8055.03
904.101	7988.36
904.415	8001.47
904.729	7959.89
905.042	7925.99
905.356	7921.47
905.67	7906.33
905.984	7800.35
906.297	7844.86
906.611	7793.34
906.924	7753.12
907.237	7706.79
907.551	7706.79
907.864	7624.98
908.177	7583.63
908.491	7592.22
908.804	7584.08
909.117	7508.38
909.43	7452.78
909.743	7466.8
910.056	7387.7
910.368	7393.8
910.681	7394.25
910.994	7299.79
911.307	7361.26
911.619	7278.78
911.932	7272.22
912.244	7228.38
912.557	7206.92
912.869	7189.51
913.181	7119.69
913.494	7109.52
913.806	7054.6
914.118	7055.96
914.43	7000.37
914.742	6993.14
915.054	7026.13
915.366	6883.76
915.678	6894.61
915.99	6851.22
916.302	6817.32
916.613	6834.95
916.925	6796.3
917.236	6784.33
917.548	6764.89
917.859	6727.83
918.171	6718.11
918.482	6652.35
918.794	6603.77
919.105	6641.28
919.416	6541.85
919.727	6572.13
920.038	6494.17
920.349	6521.74
920.66	6510.89
920.971	6488.06
921.282	6435.41
921.593	6427.5
921.903	6374.62
922.214	6355.64
922.525	6328.97
922.835	6339.37
923.146	6275.64
923.456	6262.08
923.767	6208.52
924.077	6214.17
924.387	6137.34
924.697	6186.83
925.008	6114.51
925.318	6126.94
925.628	6089.66
925.938	6088.53
926.248	6014.18
926.558	5998.13
926.867	5948.19
927.177	5943.67
927.487	5931.47
927.796	5888.98
928.106	5869.32
928.416	5828.87
928.725	5880.62
929.034	5794.97
929.344	5752.26
929.653	5717.91
929.962	5721.08
930.271	5693.06
930.581	5672.94
930.89	5661.42
931.199	5592.72
931.508	5584.13
931.817	5589.33
932.125	5609.89
932.434	5578.26
932.743	5512.5
933.051	5540.52
933.36	5476.79
933.669	5400.41
933.977	5433.63
934.286	5436.11
934.594	5376.23
934.902	5376.91
935.21	5350.01
935.519	5339.85
935.827	5309.56
936.135	5262.56
936.443	5211.71
936.751	5198.38
937.059	5210.36
937.367	5155.9
937.674	5184.14
937.982	5121.77
938.29	5110.25
938.597	5123.35
938.905	5000.19
939.213	5040.42
939.52	5018.72
939.827	5033.41
940.135	4980.08
940.442	4970.36
940.749	5000.87
941.056	4934.21
941.363	4851.72
941.67	4915.9
941.977	4858.05
942.284	4839.97
942.591	4805.4
942.898	4789.35
943.205	4813.31
943.511	4776.92
943.818	4768.11
944.125	4735.12
944.431	4724.27
944.738	4746.19
945.044	4676.13
945.35	4618.51
945.657	4578.06
945.963	4622.12
946.269	4534.44
946.575	4576.02
946.881	4525.4
947.187	4527.44
947.493	4518.85
947.799	4449.47
948.105	4490.6
948.41	4397.27
948.716	4430.94
949.022	4418.06
949.327	4368.57
949.633	4366.09
949.938	4400.89
950.244	4333.09
950.549	4330.83
950.854	4305.97
951.16	4284.05
951.465	4247.44
951.77	4217.16
952.075	4188.92
952.38	4228.24
952.685	4222.59
952.99	4132.42
953.294	4133.1
953.599	4101.69
953.904	4099.65
954.209	4091.52
954.513	4115.7
954.818	4041.8
955.122	4046.09
955.426	4028.02
955.731	4054.46
956.035	4043.16
956.339	3996.6
956.643	3923.61
956.948	3954.12
957.252	3907.34
957.556	3961.58
957.86	3898.53
958.163	3884.52
958.467	3888.13
958.771	3865.53
959.075	3808.13
959.378	3783.95
959.682	3810.17
959.985	3816.72
960.289	3773.78
960.592	3751.19
960.896	3745.99
961.199	3696.72
961.502	3713.45
961.805	3675.26
962.108	3673.67
962.411	3670.06
962.714	3607.01
963.017	3633.22
963.32	3615.6
963.623	3603.62
963.926	3631.42
964.228	3534.02
964.531	3557.97
964.833	3565.88
965.136	3525.2
965.438	3548.48
965.741	3499.67
966.043	3411.76
966.345	3490.85
966.648	3460.35
966.95	3426.22
967.252	3428.03
967.554	3398.65
967.856	3422.16
968.158	3320.46
968.46	3324.08
968.761	3366.34
969.063	3350.52
969.365	3318.43
969.666	3330.41
969.968	3254.48
970.269	3253.12
970.571	3240.24
970.872	3255.83
971.174	3207.7
971.475	3205.89
971.776	3220.58
972.077	3165.21
972.378	3183.07
972.679	3216.74
972.98	3158.21
973.281	3106.01
973.582	3146.23
973.883	3106.46
974.183	3077.76
974.484	3102.84
974.785	3071.66
975.085	3047.25
975.386	3084.99
975.686	3044.31
975.986	3043.86
976.287	3035.73
976.587	2949.4
976.887	2986.01
977.187	2981.04
977.487	2971.77
977.787	2922.73
978.087	2951.89
978.387	2877.31
978.687	2893.13
978.987	2868.5
979.286	2887.48
979.586	2834.6
979.885	2821.04
980.185	2817.65
980.484	2792.12
980.784	2765.45
981.083	2797.77
981.382	2771.55
981.682	2741.04
981.981	2757.77
982.28	2704.89
982.579	2689.52
982.878	2726.35
983.177	2727.26
983.475	2674.38
983.774	2683.87
984.073	2652.91
984.372	2645
984.67	2620.82
984.969	2645.91
985.267	2673.25
985.566	2605.45
985.864	2610.43
986.162	2581.5
986.461	2583.53
986.759	2600.48
987.057	2544.66
987.355	2547.83
987.653	2540.15
987.951	2524.1
988.249	2515.29
988.547	2491.56
988.844	2528.62
989.142	2461.05
989.44	2436.87
989.737	2433.71
990.035	2425.57
990.332	2430.32
990.63	2431
990.927	2404.1
991.224	2414.27
991.521	2389.87
991.819	2363.2
992.116	2367.04
992.413	2363.65
992.71	2357.55
993.006	2357.78
993.303	2296.99
993.6	2336.99
993.897	2252.24
994.193	2276.88
994.49	2296.76
994.787	2255.41
995.083	2279.59
995.379	2247.72
995.676	2240.49
995.972	2227.38
996.268	2191.23
996.565	2169.31
996.861	2171.12
997.157	2193.49
997.453	2185.58
997.749	2155.3
998.044	2109.42
998.34	2135.86
998.636	2132.7
998.932	2136.09
999.227	2121.4
999.523	2131.79
999.818	2094.73
1000.114	2100.61
1000.409	2055.41
1000.704	2046.37
1001	2064.23
1001.295	2052.93
1001.59	2010.89
1001.885	2016.99
1002.18	1991.91
1002.475	1988.52
1002.77	1985.58
1003.065	1957.79
1003.359	1965.47
1003.654	1949.43
1003.949	1952.14
1004.243	1915.53
1004.538	1911.91
1004.832	1886.6
1005.127	1880.28
1005.421	1892.03
1005.715	1889.77
1006.009	1850.9
1006.304	1871.46
1006.598	1824.68
1006.892	1827.4
1007.186	1821.52
1007.48	1790.11
1007.773	1786.94
1008.067	1787.4
1008.361	1769.77
1008.655	1796.21
1008.948	1785.59
1009.242	1737.23
1009.535	1754.4
1009.829	1732.48
1010.122	1681.86
1010.415	1713.27
1010.708	1685.25
1011.001	1670.11
1011.295	1657
1011.588	1697.23
1011.881	1624.01
1012.173	1645.71
1012.466	1631.69
1012.759	1640.96
1013.052	1619.49
1013.344	1608.64
1013.637	1635.54
1013.93	1589.89
1014.222	1586.27
1014.514	1583.11
1014.807	1594.63
1015.099	1530.23
1015.391	1563.9
1015.683	1558.93
1015.976	1506.73
1016.268	1512.15
1016.56	1490.91
1016.851	1482.09
1017.143	1501.75
1017.435	1452.72
1017.727	1455.65
1018.018	1454.75
1018.31	1464.47
1018.602	1463.11
1018.893	1447.29
1019.185	1455.2
1019.476	1406.62
1019.767	1394.86
1020.058	1430.57
1020.35	1406.39
1020.641	1400.06
1020.932	1390.8
1021.223	1377.01
1021.514	1358.71
1021.804	1335.88
1022.095	1352.38
1022.386	1336.11
1022.677	1348.99
1022.967	1329.56
1023.258	1329.56
1023.548	1310.35
1023.839	1292.04
1024.129	1296.56
1024.419	1299.05
1024.709	1257.47
1025	1264.02
1025.29	1254.08
1025.58	1242.33
1025.87	1217.24
1026.16	1214.53
1026.449	1214.76
1026.739	1219.73
1027.029	1223.8
1027.319	1213.17
1027.608	1158.94
1027.898	1155.1
1028.187	1185.38
1028.477	1183.12
1028.766	1158.03
1029.055	1151.71
1029.344	1160.52
1029.634	1165.94
1029.923	1143.35
1030.212	1113.29
1030.501	1089.34
1030.79	1106.96
1031.078	1107.64
1031.367	1110.13
1031.656	1095.44
1031.945	1110.35
1032.233	1069.68
1032.522	1068.32
1032.81	1046.4
1033.099	1042.56
1033.387	1059.73
1033.675	1061.09
1033.963	1015.89
1034.251	1008.43
1034.54	996.91
1034.828	1027.19
1035.116	1009.11
1035.403	999.62
1035.691	982.22
1035.979	981.99
1036.267	981.09
1036.554	975.21
1036.842	954.88
1037.129	989.68
1037.417	973.41
1037.704	960.07
1037.992	970.24
1038.279	934.31
1038.566	931.37
1038.853	931.37
1039.14	931.37
