Data from hue_280_FLMS001491_00003.txt Node
Date: Tue Feb 07 15:54:43 GMT 2017
User: dcchb
Spectrometer: FLMS00149
Trigger mode: 0
Integration Time (sec): 2.000000E-2
Scans to average: 10
Electric dark correction enabled: true
Nonlinearity correction enabled: false
Boxcar width: 0
XAxis mode: Wavelengths
Number of Pixels in Spectrum: 2048
>>>>>Begin Spectral Data<<<<<
341.393	-33.39
341.776	-33.39
342.16	-33.39
342.543	-59.15
342.927	-65.25
343.31	-58.25
343.693	-74.74
344.077	-69.09
344.46	-53.05
344.843	-44.46
345.226	-32.26
345.61	-34.74
345.993	-17.12
346.376	-7.17
346.759	24.69
347.142	12.71
347.525	48.19
347.908	47.96
348.291	74.4
348.674	77.57
349.057	105.36
349.44	122.31
349.823	128.19
350.206	157.57
350.588	179.03
350.971	200.28
351.354	226.94
351.737	226.94
352.119	239.37
352.502	243.89
352.884	250.67
353.267	264
353.65	293.61
354.032	287.73
354.414	289.99
354.797	318.92
355.179	320.73
355.562	331.35
355.944	333.38
356.326	326.15
356.709	335.19
357.091	343.1
357.473	335.41
357.855	324.57
358.238	320.5
358.62	325.7
359.002	341.97
359.384	330.67
359.766	320.73
360.148	325.92
360.53	329.31
360.912	308.07
361.294	322.53
361.676	309.43
362.057	308.75
362.439	339.93
362.821	316.66
363.203	320.5
363.584	331.8
363.966	330.67
364.348	337.67
364.729	300.61
365.111	320.27
365.493	310.78
365.874	303.55
366.256	308.52
366.637	329.54
367.019	312.14
367.4	313.95
367.781	300.84
368.163	311.91
368.544	289.99
368.925	306.94
369.306	321.86
369.688	327.96
370.069	314.17
370.45	308.07
370.831	306.72
371.212	298.35
371.593	314.17
371.974	313.72
372.355	314.62
372.736	302.42
373.117	313.27
373.498	319.14
373.879	318.01
374.26	317.11
374.641	310.56
375.021	322.99
375.402	333.16
375.783	309.2
376.163	327.51
376.544	330.22
376.925	340.84
377.305	313.95
377.686	331.35
378.066	327.28
378.447	324.12
378.827	316.21
379.208	323.21
379.588	326.83
379.968	333.83
380.349	326.15
380.729	319.6
381.109	352.59
381.489	340.39
381.87	325.92
382.25	316.66
382.63	346.49
383.01	350.33
383.39	345.81
383.77	325.25
384.15	342.19
384.53	355.75
384.91	348.3
385.29	366.15
385.67	371.57
386.049	341.97
386.429	361.18
386.809	340.16
387.189	355.53
387.568	363.44
387.948	358.92
388.328	371.57
388.707	355.98
389.087	366.6
389.466	360.95
389.846	363.21
390.225	369.76
390.605	341.06
390.984	379.03
391.363	372.48
391.743	390.78
392.122	393.27
392.501	411.35
392.881	386.04
393.26	379.26
393.639	381.97
394.018	405.47
394.397	397.33
394.776	395.98
395.155	392.59
395.534	398.69
395.913	377.45
396.292	385.36
396.671	397.11
397.05	396.2
397.429	377.9
397.808	394.4
398.186	400.95
398.565	422.64
398.944	400.05
399.323	409.99
399.701	426.26
400.08	419.03
400.458	426.94
400.837	439.82
401.215	433.27
401.594	427.16
401.972	412.25
402.351	407.28
402.729	408.63
403.107	418.12
403.486	428.75
403.864	447.5
404.242	446.6
404.62	458.35
404.999	459.48
405.377	439.59
405.755	454.51
406.133	485.02
406.511	462.19
406.889	460.16
407.267	464.45
407.645	471
408.023	509.42
408.401	495.86
408.779	503.32
409.156	493.6
409.534	514.17
409.912	505.13
410.29	542.42
410.667	537.22
411.045	536.99
411.422	546.48
411.8	534.05
412.178	544.22
412.555	570.89
412.933	578.35
413.31	574.73
413.687	585.13
414.065	584.22
414.442	601.4
414.819	603.43
415.197	624.45
415.574	615.86
415.951	605.01
416.328	636.42
416.705	638.46
417.082	638.46
417.46	662.64
417.837	662.41
418.214	680.72
418.591	683.43
418.967	684.78
419.344	682.75
419.721	706.48
420.098	692.92
420.475	710.09
420.852	703.31
421.228	741.73
421.605	736.53
421.982	743.77
422.358	746.7
422.735	767.95
423.111	783.09
423.488	787.83
423.864	794.61
424.241	770.88
424.617	808.4
424.994	810.43
425.37	854.27
425.746	836.64
426.123	832.58
426.499	854.5
426.875	878.68
427.251	880.71
427.627	912.8
428.003	899.47
428.379	903.08
428.756	911.44
429.132	961.39
429.507	956.87
429.883	969.75
430.259	986.47
430.635	981.27
431.011	993.25
431.387	979.47
431.763	1030.09
432.138	1032.35
432.514	1030.99
432.89	1060.59
433.265	1092.01
433.641	1091.33
434.016	1103.98
434.392	1147.14
434.767	1146.47
435.143	1160.25
435.518	1156.86
435.894	1185.56
436.269	1189.18
436.644	1215.17
437.02	1197.77
437.395	1233.02
437.77	1277.31
438.145	1274.6
438.52	1273.02
438.895	1275.96
439.271	1317.54
439.646	1324.09
440.021	1333.35
440.395	1359.34
440.77	1365.9
441.145	1341.26
441.52	1388.95
441.895	1388.27
442.27	1407.03
442.645	1420.58
443.019	1413.8
443.394	1431.21
443.769	1459.23
444.143	1441.15
444.518	1436.4
444.892	1477.08
445.267	1463.07
445.641	1490.64
446.016	1504.88
446.39	1503.75
446.764	1528.38
447.139	1499.23
447.513	1527.7
447.887	1544.42
448.262	1539.9
448.636	1531.54
449.01	1541.94
449.384	1566.79
449.758	1562.28
450.132	1587.59
450.506	1588.94
450.88	1567.92
451.254	1601.14
451.628	1615.16
452.002	1630.97
452.376	1638.66
452.75	1655.83
453.123	1668.94
453.497	1678.43
453.871	1683.18
454.244	1717.3
454.618	1689.96
454.992	1740.35
455.365	1756.17
455.739	1788.03
456.112	1813.57
456.486	1828.71
456.859	1820.8
457.232	1830.29
457.606	1837.52
457.979	1879.78
458.352	1882.04
458.725	1901.02
459.099	1908.93
459.472	1942.6
459.845	1954.81
460.218	1988.93
460.591	1974.69
460.964	1993.22
461.337	2033.45
461.71	2069.61
462.083	2075.26
462.456	2065.54
462.829	2074.8
463.201	2115.93
463.574	2138.76
463.947	2166.78
464.32	2166.33
464.692	2218.53
465.065	2210.39
465.438	2213.78
465.81	2266.89
466.183	2286.32
466.555	2317.96
466.928	2318.41
467.3	2324.74
467.672	2342.59
468.045	2341.24
468.417	2399.09
468.789	2385.08
469.161	2471.86
469.534	2481.57
469.906	2476.83
470.278	2547.11
470.65	2539.65
471.022	2593.21
471.394	2588.91
471.766	2623.26
472.138	2622.59
472.51	2689.03
472.882	2716.6
473.253	2717.05
473.625	2760.66
473.997	2812.64
474.369	2858.29
474.74	2844.5
475.112	2894.44
475.484	2890.38
475.855	2973.31
476.227	2966.98
476.598	3059.19
476.97	3106.42
477.341	3102.35
477.713	3184.83
478.084	3186.87
478.455	3220.08
478.827	3243.14
479.198	3325.39
479.569	3351.15
479.94	3418.72
480.311	3377.14
480.682	3480.42
481.053	3553.64
481.424	3574.2
481.795	3615.1
482.166	3637.25
482.537	3717.25
482.908	3729.45
483.279	3749.56
483.65	3813.74
484.021	3841.76
484.391	3925.6
484.762	3917.47
485.133	3947.75
485.503	3988.43
485.874	4077.24
486.244	4047.41
486.615	4137.57
486.985	4177.57
487.356	4268.64
487.726	4248.98
488.097	4350.9
488.467	4330.56
488.837	4398.13
489.207	4432.71
489.578	4505.25
489.948	4484.91
490.318	4530.56
490.688	4592.7
491.058	4609.2
491.428	4706.6
491.798	4741.85
492.168	4793.83
492.538	4799.7
492.908	4819.14
493.278	4854.39
493.648	4865.47
494.017	4964.67
494.387	5007.16
494.757	5001.96
495.126	5090.09
495.496	5055.97
495.866	5105.23
496.235	5156.31
496.605	5137.1
496.974	5142.97
497.344	5218
497.713	5229.52
498.082	5273.14
498.452	5305.91
498.821	5309.52
499.19	5330.99
499.559	5402.17
499.928	5388.39
500.298	5414.38
500.667	5459.8
501.036	5478.33
501.405	5515.84
501.774	5472.68
502.143	5552.9
502.512	5545.22
502.88	5582.28
503.249	5568.05
503.618	5611.66
503.987	5578.44
504.356	5688.72
504.724	5680.13
505.093	5678.78
505.462	5679.23
505.83	5713.13
506.199	5767.59
506.567	5814.82
506.936	5806.46
507.304	5885.55
507.672	5913.57
508.041	5854.59
508.409	5893.91
508.777	5944.08
509.145	5948.83
509.514	5945.44
509.882	6013.68
510.25	6010.29
510.618	6050.97
510.986	6006.9
511.354	6074.7
511.722	6060.91
512.09	6211.64
512.458	6124.64
512.826	6137.97
513.193	6129.61
513.561	6184.75
513.929	6177.97
514.297	6194.92
514.664	6252.1
515.032	6297.97
515.4	6303.17
515.767	6289.38
516.135	6273.11
516.502	6259.55
516.869	6361.25
517.237	6397.4
517.604	6360.57
517.972	6438.76
518.339	6446.44
518.706	6395.59
519.073	6468.59
519.44	6478.76
519.808	6479.89
520.175	6492.54
520.542	6617.96
520.909	6565.53
521.276	6527.12
521.643	6639.88
522.009	6647.79
522.376	6658.64
522.743	6655.25
523.11	6713.33
523.477	6740.9
523.843	6791.06
524.21	6812.08
524.577	6833.1
524.943	6814.79
525.31	6892.08
525.676	6960.1
526.043	6951.51
526.409	6997.61
526.776	7000.32
527.142	7036.71
527.508	7053.2
527.874	7066.76
528.241	7095.46
528.607	7095.46
528.973	7177.49
529.339	7135.01
529.705	7182.47
530.071	7211.62
530.437	7272.63
530.803	7311.5
531.169	7316.02
531.535	7319.64
531.901	7351.5
532.267	7410.26
532.632	7365.74
532.998	7421.56
533.364	7499.07
533.73	7498.16
534.095	7515.11
534.461	7468.11
534.826	7568.22
535.192	7570.25
535.557	7566.86
535.923	7634.66
536.288	7611.61
536.653	7611.38
537.019	7585.85
537.384	7591.5
537.749	7642.12
538.114	7687.31
538.479	7712.62
538.845	7755.11
539.21	7732.73
539.575	7809.12
539.94	7762.34
540.305	7809.79
540.67	7847.08
541.034	7845.73
541.399	7871.71
541.764	7857.48
542.129	7857.48
542.494	7876.23
542.858	7896.8
543.223	7922.56
543.587	7953.97
543.952	7922.56
544.316	7935.44
544.681	7972.5
545.045	7995.33
545.41	8041.2
545.774	8040.52
546.138	7947.19
546.503	8070.35
546.867	8049.11
547.231	8137.92
547.595	8160.07
547.959	8165.27
548.324	8109.45
548.688	8140.86
549.052	8225.6
549.416	8183.34
549.779	8144.48
550.143	8213.63
550.507	8281.42
550.871	8322.55
551.235	8243
551.599	8285.49
551.962	8286.39
552.326	8291.59
552.689	8377.69
553.053	8351.48
553.417	8344.7
553.78	8421.3
554.143	8365.26
554.507	8375.66
554.87	8435.09
555.234	8444.58
555.597	8429.44
555.96	8464.01
556.323	8505.6
556.686	8481.42
557.05	8522.09
557.413	8542.88
557.776	8531.81
558.139	8645.03
558.502	8624.46
558.865	8642.99
559.228	8680.05
559.59	8713.05
559.953	8723.89
560.316	8781.52
560.679	8743.33
561.041	8774.52
561.404	8823.55
561.767	8847.51
562.129	8793.27
562.492	8923.89
562.854	8876.89
563.217	8921.63
563.579	8966.15
563.941	8995.98
564.304	9107.61
564.666	9114.39
565.028	9132.7
565.39	9103.32
565.753	9183.32
566.115	9171.34
566.477	9278.23
566.839	9249.98
567.201	9262.41
567.563	9259.02
567.925	9380.6
568.287	9409.75
568.648	9396.87
569.01	9529.3
569.372	9516.19
569.734	9391.67
570.095	9573.36
570.457	9565.91
570.819	9589.86
571.18	9589.41
571.542	9704.89
571.903	9710.76
572.265	9699.01
572.626	9750.76
572.987	9781.27
573.349	9787.6
573.71	9848.61
574.071	9854.94
574.432	9893.13
574.794	10014.48
575.155	10007.25
575.516	9925.45
575.877	10056.29
576.238	10133.58
576.599	10180.13
576.96	10244.31
577.32	10268.04
577.681	10267.13
578.042	10331.31
578.403	10324.3
578.763	10350.74
579.124	10357.98
579.485	10484.98
579.845	10505.77
580.206	10506.67
580.566	10563.62
580.927	10631.19
581.287	10649.72
581.648	10682.49
582.008	10790.28
582.368	10776.5
582.728	10871.18
583.089	10882.48
583.449	10984.85
583.809	11007
584.169	11082.02
584.529	11117.28
584.889	11230.5
585.249	11208.12
585.609	11274.11
585.969	11324.73
586.329	11350.49
586.688	11351.62
587.048	11518.85
587.408	11578.28
587.768	11588.9
588.127	11659.86
588.487	11689.69
588.846	11924.94
589.206	11845.39
589.565	11945.51
589.925	12033.19
590.284	12060.08
590.643	12120.64
591.003	12220.3
591.362	12279.96
591.721	12334.42
592.08	12366.06
592.44	12563.79
592.799	12616.45
593.158	12623.45
593.517	12703.45
593.876	12768.76
594.235	12795.2
594.593	12902.09
594.952	12950.45
595.311	13014.4
595.67	13064.57
596.029	13131.91
596.387	13138.47
596.746	13287.62
597.104	13236.09
597.463	13309.54
597.822	13471.11
598.18	13416.65
598.538	13480.15
598.897	13593.37
599.255	13523.09
599.613	13794.5
599.972	13784.78
600.33	13802.63
600.688	13872.69
601.046	14000.37
601.404	13998.33
601.762	14082.85
602.12	14176.86
602.478	14175.73
602.836	14075.17
603.194	14141.15
603.552	14146.35
603.91	14229.96
604.268	14315.84
604.625	14318.55
604.983	14440.13
605.341	14432.9
605.698	14456.17
606.056	14637.64
606.413	14528.71
606.771	14653
607.128	14660.24
607.485	14572.55
607.843	14705.43
608.2	14738.88
608.557	14902.72
608.914	14831.3
609.272	14905.88
609.629	14914.92
609.986	15006.89
610.343	15013.22
610.7	15132.77
611.057	15013.9
611.414	15127.79
611.771	15103.61
612.127	15162.37
612.484	15161.69
612.841	15350.61
613.198	15219.54
613.554	15235.59
613.911	15314.91
614.267	15351.52
614.624	15402.82
614.98	15445.07
615.337	15535.47
615.693	15488.01
616.05	15510.16
616.406	15556.03
616.762	15609.82
617.118	15567.78
617.475	15542.25
617.831	15652.3
618.187	15676.71
618.543	15712.64
618.899	15801.45
619.255	15717.84
619.611	15728.23
619.967	15866.53
620.323	15848.23
620.678	15711.96
621.034	15707.89
621.39	15771.62
621.746	15723.48
622.101	15828.34
622.457	15819.75
622.812	15834.67
623.168	15850.49
623.523	15952.86
623.879	15954.89
624.234	15782.01
624.589	15904.05
624.945	15962.8
625.3	15918.06
625.655	16006.87
626.01	15957.15
626.365	15929.13
626.72	15869.92
627.075	15976.13
627.43	15966.42
627.785	15916.47
628.14	15961.44
628.495	15948.11
628.85	16024.04
629.205	15936.13
629.559	15971.39
629.914	15887.77
630.269	16004.83
630.623	15897.04
630.978	15823.82
631.332	15967.77
631.687	15982.01
632.041	15826.31
632.396	15875.8
632.75	15794.67
633.104	15912.86
633.459	15805.52
633.813	15780.21
634.167	15789.25
634.521	15722.13
634.875	15844.61
635.229	15741.79
635.583	15647.1
635.937	15719.19
636.291	15728.68
636.645	15737.95
636.999	15715.35
637.352	15744.5
637.706	15574.56
638.06	15643.94
638.413	15608.01
638.767	15596.26
639.121	15610.49
639.474	15530.95
639.828	15574.11
640.181	15516.71
640.534	15619.31
640.888	15525.3
641.241	15515.81
641.594	15500.67
641.947	15506.77
642.301	15469.71
642.654	15457.05
643.007	15442.36
643.36	15445.07
643.713	15450.72
644.066	15487.11
644.419	15431.06
644.771	15367.56
645.124	15186.55
645.477	15186.32
645.83	15019.77
646.182	14991.75
646.535	14928.48
646.888	14843.96
647.24	14869.5
647.593	14972.32
647.945	14998.76
648.298	14840.12
648.65	14861.13
649.002	14892.77
649.355	14892.09
649.707	15042.37
650.059	15027.91
650.411	15180
650.763	15197.62
651.115	15388.35
651.467	15228.58
651.819	15403.95
652.171	15339.77
652.523	15251.18
652.875	15317.17
653.227	15284.4
653.578	15346.32
653.93	15276.94
654.282	15325.53
654.633	15276.49
654.985	15267.68
655.337	15365.53
655.688	15274.91
656.039	15403.49
656.391	15172.09
656.742	15276.26
657.094	15283.27
657.445	15369.14
657.796	15299.99
658.147	15266.55
658.498	15315.59
658.849	15325.08
659.2	15262.71
659.551	15255.93
659.902	15405.98
660.253	15265.19
660.604	15408.01
660.955	15239.2
661.306	15448.92
661.656	15247.11
662.007	15417.05
662.358	15386.54
662.708	15453.89
663.059	15429.93
663.409	15318.75
663.76	15440.33
664.11	15381.8
664.461	15462.7
664.811	15472.64
665.161	15421.57
665.511	15393.32
665.862	15375.02
666.212	15546.54
666.562	15421.35
666.912	15517.16
667.262	15352.42
667.612	15431.97
667.962	15495.47
668.312	15344.51
668.662	15487.56
669.011	15414.57
669.361	15392.19
669.711	15392.87
670.06	15325.3
670.41	15320.56
670.76	15327.34
671.109	15361.91
671.459	15368.24
671.808	15304.29
672.157	15343.16
672.507	15233.33
672.856	15196.04
673.205	15211.63
673.554	15310.39
673.904	15242.37
674.253	15292.76
674.602	15245.98
674.951	15088.25
675.3	14990.62
675.649	15154.46
675.998	15129.83
676.346	15222.71
676.695	15204.18
677.044	15029.94
677.393	15146.1
677.741	15207.57
678.09	15039.44
678.438	15056.38
678.787	15110.17
679.135	15051.64
679.484	14972.32
679.832	15011.41
680.181	14888.93
680.529	14978.87
680.877	14902.72
681.225	14937.29
681.573	15006.89
681.922	14895.26
682.27	14769.61
682.618	14793.34
682.966	14802.61
683.314	14752.44
683.661	14628.82
684.009	14674.7
684.357	14661.37
684.705	14670.86
685.053	14646.68
685.4	14561.71
685.748	14602.61
686.095	14469.96
686.443	14460.92
686.79	14485.55
687.138	14430.41
687.485	14350.64
687.832	14344.99
688.18	14404.42
688.527	14226.8
688.874	14258.21
689.221	14208.95
689.568	14131.89
689.915	14128.5
690.262	14006.24
690.609	14025
690.956	13969.86
691.303	13930.99
691.65	13926.47
691.997	13905.91
692.344	13788.62
692.69	13751.56
693.037	13794.72
693.383	13661.17
693.73	13656.65
694.077	13582.52
694.423	13678.34
694.769	13547.5
695.116	13498.91
695.462	13458.23
695.808	13392.02
696.155	13415.75
696.501	13354.28
696.847	13352.7
697.193	13239.93
697.539	13193.38
697.885	13144.8
698.231	13049.43
698.577	13112.03
698.923	13021.86
699.269	12984.12
699.614	12918.36
699.96	12904.58
700.306	12882.43
700.651	12825.93
700.997	12789.78
701.342	12651.93
701.688	12686.05
702.033	12679.05
702.379	12590.23
702.724	12554.3
703.069	12553.85
703.415	12412.39
703.76	12510.01
704.105	12459.39
704.45	12434.53
704.795	12236.12
705.14	12289.45
705.485	12232.96
705.83	12221.88
706.175	12147.99
706.52	12116.8
706.865	12109.79
707.209	12099.4
707.554	12038.38
707.899	12017.82
708.243	11933.98
708.588	11942.34
708.932	11918.84
709.277	11912.74
709.621	11825.73
709.966	11720.65
710.31	11717.04
710.654	11739.41
710.998	11674.1
711.342	11660.77
711.687	11677.04
712.031	11565.85
712.375	11535.57
712.719	11479.08
713.063	11555.46
713.407	11529.47
713.75	11492.64
714.094	11456.48
714.438	11387.33
714.782	11430.04
715.125	11386.65
715.469	11386.2
715.812	11307.33
716.156	11284.05
716.499	11312.3
716.843	11267.1
717.186	11238.18
717.53	11221.68
717.873	11304.62
718.216	11248.12
718.559	11167.67
718.902	11155.24
719.246	11154.57
719.589	11047.68
719.932	11123.83
720.275	11046.09
720.617	10971.07
720.96	11037.28
721.303	11078.64
721.646	11086.77
721.989	11007
722.331	11009.71
722.674	11072.99
723.016	10945.98
723.359	10959.99
723.701	10998.64
724.044	10924.74
724.386	10875.25
724.729	10904.85
725.071	10902.59
725.413	10827.79
725.755	10876.15
726.097	10818.53
726.439	10836.16
726.782	10742.82
727.124	10849.71
727.465	10779.21
727.807	10872.09
728.149	10807.68
728.491	10835.25
728.833	10841.35
729.175	10723.39
729.516	10815.59
729.858	10768.36
730.199	10729.04
730.541	10777.63
730.882	10721.13
731.224	10770.62
731.565	10792.54
731.906	10778.3
732.248	10697.85
732.589	10687.69
732.93	10712.09
733.271	10695.14
733.612	10706.67
733.953	10667.12
734.294	10699.89
734.635	10651.53
734.976	10734.69
735.317	10628.93
735.658	10686.78
735.999	10720.23
736.339	10692.66
736.68	10741.24
737.021	10673
737.361	10703.73
737.702	10763.84
738.042	10737.85
738.383	10747.57
738.723	10774.46
739.063	10694.92
739.404	10755.71
739.744	10749.15
740.084	10729.72
740.424	10797.74
740.764	10782.15
741.104	10768.59
741.444	10777.85
741.784	10769.26
742.124	10816.5
742.464	10777.4
742.804	10808.81
743.143	10865.76
743.483	10914.57
743.823	10905.98
744.162	10978.52
744.502	10947.79
744.841	10988.92
745.181	11071.4
745.52	11025.98
745.86	11121.57
746.199	11077.96
746.538	11167.22
746.877	11246.31
747.216	11304.17
747.556	11333.54
747.895	11411.73
748.234	11367.89
748.573	11431.17
748.911	11489.02
749.25	11507.78
749.589	11611.95
749.928	11636.36
750.267	11790.25
750.605	11825.28
750.944	11919.52
751.283	12010.59
751.621	12006.75
751.96	12134.2
752.298	12264.37
752.636	12336.23
752.975	12367.64
753.313	12478.15
753.651	12665.71
753.989	12684.24
754.327	12792.04
754.666	12965.82
755.004	13027.51
755.342	13128.3
755.679	13231.35
756.017	13409.42
756.355	13555.41
756.693	13657.78
757.031	13831.56
757.368	13896.64
757.706	14038.11
758.044	14168.72
758.381	14401.26
758.719	14447.81
759.056	14647.58
759.394	14803.74
759.731	14864.98
760.068	14982.71
760.405	15103.61
760.743	15263.84
761.08	15516.94
761.417	15505.41
761.754	15776.14
762.091	15828.34
762.428	16063.59
762.765	16077.37
763.102	16248.89
763.438	16428.55
763.775	16468.32
764.112	16614.08
764.449	16890.46
764.785	17045.03
765.122	17076.9
765.458	17195.08
765.795	17285.25
766.131	17466.04
766.467	17529.31
766.804	17616.09
767.14	17798.91
767.476	17848.4
767.812	17955.06
768.148	18062.18
768.485	18150.54
768.821	18196.64
769.157	18317.09
769.492	18380.14
769.828	18466.92
770.164	18510.08
770.5	18623.97
770.836	18772.22
771.171	18647.7
771.507	18809.96
771.842	18831.65
772.178	18906.68
772.513	19016.05
772.849	19040.01
773.184	19118.42
773.519	19118.65
773.855	19038.43
774.19	19116.39
774.525	19133.34
774.86	19289.94
775.195	19231.64
775.53	19307.8
775.865	19321.81
776.2	19287.01
776.535	19224.41
776.87	19324.75
777.205	19350.96
777.539	19322.49
777.874	19428.47
778.209	19178.99
778.543	19272.09
778.878	19255.37
779.212	19456.49
779.547	19214.92
779.881	19508.24
780.215	19333.79
780.55	19375.59
780.884	19365.87
781.218	19372.43
781.552	19383.73
781.886	19324.97
782.22	19318.19
782.554	19355.93
782.888	19143.96
783.222	19189.38
783.556	19046.56
783.889	19137.41
784.223	19084.98
784.557	19055.15
784.89	19148.48
785.224	19071.87
785.557	18929.05
785.891	18982.38
786.224	19011.99
786.558	18956.85
786.891	18769.05
787.224	18862.16
787.557	18832.33
787.891	18785.78
788.224	18774.25
788.557	18733.8
788.89	18773.35
789.223	18697.19
789.556	18604.31
789.888	18567.03
790.221	18511.43
790.554	18439.8
790.887	18481.6
791.219	18367.26
791.552	18411.78
791.884	18378.78
792.217	18322.96
792.549	18301.5
792.882	18250.42
793.214	18092.01
793.546	18072.12
793.879	18001.62
794.211	17926.36
794.543	17933.82
794.875	17886.82
795.207	17936.76
795.539	17867.84
795.871	17878.46
796.203	17766.59
796.535	17640.95
796.867	17575.41
797.198	17581.74
797.53	17672.36
797.862	17477.11
798.193	17503.78
798.525	17357.79
798.856	17429.2
799.188	17276.66
799.519	17261.52
799.85	17271.47
800.182	17177.46
800.513	17089.78
800.844	17132.04
801.175	17071.02
801.506	17038.93
801.837	17016.11
802.168	16979.5
802.499	16988.54
802.83	16908.09
803.161	16863.12
803.491	16855.43
803.822	16812.27
804.153	16710.8
804.483	16550.13
804.814	16610.47
805.145	16538.6
805.475	16635.33
805.805	16457.48
806.136	16512.16
806.466	16446.86
806.796	16350.81
807.126	16302.9
807.457	16323.02
807.787	16248.67
808.117	16210.48
808.447	16138.62
808.777	16173.87
809.107	16144.04
809.436	16121.89
809.766	16051.84
810.096	16080.99
810.426	15971.39
810.755	15954.67
811.085	15925.06
811.414	15902.92
811.744	15725.07
812.073	15800.09
812.403	15799.87
812.732	15680.32
813.061	15723.71
813.39	15617.5
813.719	15667.89
814.049	15587.44
814.378	15528.24
814.707	15468.12
815.036	15480.33
815.365	15405.53
815.693	15232.2
816.022	15303.83
816.351	15267
816.68	15218.64
817.008	15332.53
817.337	15247.79
817.665	15177.06
817.994	15102.94
818.322	15152.65
818.651	15121.24
818.979	15060.9
819.307	15044.86
819.636	15076.72
819.964	14891.87
820.292	15049.6
820.62	15030.4
820.948	14932.32
821.276	14974.8
821.604	14921.47
821.932	14922.6
822.259	14916.73
822.587	14825.2
822.915	14834.02
823.243	14888.48
823.57	14855.03
823.898	14905.88
824.225	14808.93
824.553	14860.91
824.88	14857.07
825.207	14998.53
825.535	14846.45
825.862	14873.56
826.189	14867.91
826.516	14944.97
826.843	15022.26
827.17	14933.45
827.497	14944.07
827.824	14892.09
828.151	14993.33
828.478	14860.91
828.805	14914.47
829.131	14913.79
829.458	14845.99
829.785	14815.49
830.111	14857.97
830.438	15022.26
830.764	14912.21
831.09	14972.77
831.417	14773.45
831.743	14875.15
832.069	14885.54
832.395	14860.91
832.722	14881.47
833.048	14768.71
833.374	14819.55
833.7	14806.9
834.026	14769.39
834.351	14751.76
834.677	14798.76
835.003	14755.83
835.329	14762.83
835.654	14711.08
835.98	14686.9
836.306	14682.16
836.631	14589.96
836.956	14701.59
837.282	14629.5
837.607	14630.18
837.932	14591.76
838.258	14565.55
838.583	14548.6
838.908	14472.44
839.233	14423.18
839.558	14436.51
839.883	14366.68
840.208	14346.12
840.533	14425.67
840.858	14397.87
841.182	14404.88
841.507	14338.66
841.832	14261.38
842.156	14263.18
842.481	14230.87
842.805	14194.49
843.13	14253.02
843.454	14100.25
843.778	14030.42
844.103	14024.32
844.427	14021.16
844.751	14032.68
845.075	13973.93
845.399	13867.49
845.723	13853.93
846.047	13750.66
846.371	13731.22
846.695	13827.04
847.019	13646.25
847.343	13572.35
847.666	13463.66
847.99	13478.57
848.313	13439.7
848.637	13265.02
848.96	13316.32
849.284	13246.04
849.607	13221.63
849.931	13111.12
850.254	13073.84
850.577	13074.97
850.9	12940.28
851.223	12952.48
851.546	12905.93
851.869	12841.75
852.192	12917
852.515	12796.56
852.838	12737.12
853.161	12691.7
853.483	12716.33
853.806	12653.51
854.129	12543
854.451	12555.88
854.774	12468.43
855.096	12448.99
855.419	12375.55
855.741	12382.78
856.063	12407.87
856.385	12317.7
856.708	12248.77
857.03	12244.25
857.352	12271.37
857.674	12131.04
857.996	12072.96
858.318	12058.72
858.64	12008.78
858.961	11973.08
859.283	11857.15
859.605	11857.82
859.926	11880.2
860.248	11777.15
860.57	11835.45
860.891	11748.9
861.212	11721.33
861.534	11721.33
861.855	11715.23
862.176	11711.84
862.498	11665.74
862.819	11697.6
863.14	11630.03
863.461	11582.12
863.782	11591.84
864.103	11559.98
864.424	11552.52
864.745	11604.05
865.065	11427.55
865.386	11455.8
865.707	11472.98
866.027	11411.28
866.348	11393.2
866.668	11358.4
866.989	11352.3
867.309	11314.11
867.63	11380.32
867.95	11284.05
868.27	11178.75
868.59	11281.79
868.91	11261.91
869.23	11250.38
869.55	11191.63
869.87	11211.97
870.19	11201.57
870.51	11207.9
870.83	11201.57
871.15	11092.19
871.469	11091.97
871.789	11137.84
872.109	11061.01
872.428	10975.14
872.748	10968.36
873.067	11017.62
873.386	10961.8
873.706	10934.23
874.025	10886.78
874.344	10920.9
874.663	10837.96
874.982	10888.81
875.301	10908.47
875.62	10878.41
875.939	10797.06
876.258	10823.5
876.577	10854.23
876.896	10798.64
877.214	10750.51
877.533	10716.61
877.852	10660.12
878.17	10786.67
878.489	10711.41
878.807	10671.87
879.125	10640.68
879.444	10607.01
879.762	10581.47
880.08	10606.78
880.398	10620.12
880.716	10533.79
881.034	10538.31
881.352	10542.83
881.67	10535.37
881.988	10510.74
882.306	10419.44
882.624	10419.9
882.941	10439.56
883.259	10334.7
883.577	10418.99
883.894	10346.23
884.212	10300.58
884.529	10327.69
884.846	10274.36
885.164	10260.58
885.481	10212.44
885.798	10235.72
886.115	10167.47
886.432	10123.63
886.75	10105.1
887.067	10151.2
887.383	10040.47
887.7	10108.49
888.017	10063.29
888.334	10018.32
888.651	9998.21
888.967	9959.12
889.284	9898.55
889.6	9875.28
889.917	9826.01
890.233	9760.03
890.55	9796.41
890.866	9804.32
891.182	9720.25
891.498	9755.73
891.815	9677.09
892.131	9689.52
892.447	9667.6
892.763	9564.78
893.079	9573.14
893.395	9517.77
893.71	9544.21
894.026	9550.99
894.342	9462.86
894.657	9434.16
894.973	9444.55
895.289	9414.05
895.604	9400.49
895.92	9313.48
896.235	9225.58
896.55	9346.25
896.865	9253.82
897.181	9225.8
897.496	9263.77
897.811	9155.07
898.126	9078.69
898.441	9082.76
898.756	9075.75
899.071	8953.95
899.386	8952.59
899.7	8936.09
900.015	8876.89
900.33	8829.43
900.644	8853.38
900.959	8854.06
901.273	8774.29
901.588	8684.8
901.902	8670.79
902.216	8738.36
902.531	8636.44
902.845	8582.43
903.159	8559.83
903.473	8537.69
903.787	8454.07
904.101	8381.08
904.415	8400.51
904.729	8363
905.042	8350.8
905.356	8301.99
905.67	8277.58
905.984	8295.88
906.297	8196.45
906.611	8220.86
906.924	8178.6
907.237	8203.46
907.551	8194.19
907.864	8094.08
908.177	8038.72
908.491	8032.84
908.804	7981.99
909.117	7975.21
909.43	7944.71
909.743	7869
910.056	7866.52
910.368	7909.23
910.681	7792.85
910.994	7761.89
911.307	7768.21
911.619	7661.1
911.932	7693.87
912.244	7638.73
912.557	7641.44
912.869	7600.08
913.181	7579.29
913.494	7506.07
913.806	7412.06
914.118	7415.68
914.43	7354.44
914.742	7388.34
915.054	7374.1
915.366	7295.68
915.678	7316.02
915.99	7286.87
916.302	7196.25
916.613	7176.36
916.925	7138.17
917.236	7152.64
917.548	7127.78
917.859	7079.87
918.171	7066.09
918.482	7027.44
918.794	6990.83
919.105	6992.64
919.416	6956.48
919.727	6894.11
920.038	6886.88
920.349	6870.16
920.66	6814.79
920.971	6770.05
921.282	6789.26
921.593	6766.21
921.903	6674.68
922.214	6655.25
922.525	6696.83
922.835	6611.41
923.146	6618.64
923.456	6589.71
923.767	6509.72
924.077	6551.07
924.387	6523.95
924.697	6433.79
925.008	6432.2
925.318	6481.69
925.628	6379.55
925.938	6373
926.248	6324.86
926.558	6321.25
926.867	6290.96
927.177	6276.5
927.487	6218.88
927.796	6220.68
928.106	6227.24
928.416	6180.46
928.725	6115.6
929.034	6102.27
929.344	6099.11
929.653	6069.95
929.962	5989.5
930.271	5972.78
930.581	5952.89
930.89	5967.13
931.199	5954.48
931.508	5893.69
931.817	5852.56
932.125	5835.16
932.434	5863.41
932.743	5819.11
933.051	5747.7
933.36	5731.43
933.669	5723.07
933.977	5701.15
934.286	5719
934.594	5655.28
934.902	5658.66
935.21	5599.01
935.519	5583.41
935.827	5615.05
936.135	5543.87
936.443	5535.73
936.751	5503.41
937.059	5495.73
937.367	5468.84
937.674	5455.51
937.982	5400.82
938.29	5384.32
938.597	5368.73
938.905	5334.61
939.213	5316.53
939.52	5309.3
939.827	5269.3
940.135	5235.63
940.442	5240.37
940.749	5215.29
941.056	5220.94
941.363	5127.61
941.67	5144.78
941.977	5064.1
942.284	5064.78
942.591	5074.05
942.898	5045.35
943.205	5001.73
943.511	4936.88
943.818	4982.3
944.125	4932.81
944.431	4930.1
944.738	4876.76
945.044	4933.71
945.35	4831.57
945.657	4810.55
945.963	4820.72
946.269	4811
946.575	4769.87
946.881	4721.29
947.187	4725.13
947.493	4742.76
947.799	4699.82
948.105	4633.83
948.41	4672.02
948.716	4659.82
949.022	4632.25
949.327	4643.32
949.633	4597.68
949.938	4598.13
950.244	4565.13
950.549	4496.89
950.854	4526.72
951.16	4488.07
951.465	4462.99
951.77	4462.31
952.075	4435.19
952.38	4411.92
952.685	4408.08
952.99	4359.49
953.294	4340.73
953.599	4324.01
953.904	4328.53
954.209	4246.27
954.513	4258.25
954.818	4249.89
955.122	4263.22
955.426	4228.42
955.731	4181.42
956.035	4208.53
956.339	4128.54
956.643	4110.91
956.948	4110.68
957.252	4121.98
957.556	4127.86
957.86	4057.58
958.163	4078.59
958.467	4028.65
958.771	4044.7
959.075	4040.18
959.378	4013.51
959.682	3998.82
959.985	3979.84
960.289	3952.49
960.592	3893.97
960.896	3931.25
961.199	3872.72
961.502	3886.96
961.805	3847.41
962.108	3808.77
962.411	3874.98
962.714	3831.37
963.017	3810.58
963.32	3743.69
963.623	3794.98
963.926	3755.21
964.228	3721.77
964.531	3724.48
964.833	3697.59
965.136	3663.46
965.438	3622.79
965.741	3613.07
966.043	3605.16
966.345	3656.68
966.648	3583.01
966.95	3596.8
967.252	3569.23
967.554	3553.18
967.856	3526.52
968.158	3507.53
968.46	3505.28
968.761	3479.96
969.063	3451.04
969.365	3456.91
969.666	3434.54
969.968	3389.12
970.269	3400.87
970.571	3423.02
970.872	3358.39
971.174	3347.77
971.475	3332.62
971.776	3289.46
972.077	3309.8
972.378	3316.13
972.679	3262.8
972.98	3296.24
973.281	3239.97
973.582	3271.61
973.883	3219.63
974.183	3210.37
974.484	3210.14
974.785	3184.83
975.085	3203.14
975.386	3180.09
975.686	3133.08
975.986	3142.12
976.287	3091.73
976.587	3123.14
976.887	3079.3
977.187	3141.89
977.487	3032.29
977.787	3068.22
978.087	3035
978.387	3013.99
978.687	3059.86
978.987	2990.03
979.286	3000.2
979.586	3013.76
979.885	2966.08
980.185	2933.54
980.484	2975.57
980.784	2939.87
981.083	2902.58
981.382	2908.45
981.682	2837.5
981.981	2871.17
982.28	2854.9
982.579	2829.36
982.878	2820.1
983.177	2840.21
983.475	2811.73
983.774	2800.43
984.073	2786.88
984.372	2759.53
984.67	2777.16
984.969	2759.08
985.267	2739.65
985.566	2729.7
985.864	2706.65
986.162	2699.65
986.461	2700.1
986.759	2670.95
987.057	2637.95
987.355	2681.12
987.653	2618.97
987.951	2629.37
988.249	2599.99
988.547	2602.7
988.844	2576.03
989.142	2577.16
989.44	2564.06
989.737	2553.89
990.035	2561.35
990.332	2550.72
990.63	2533.78
990.927	2511.85
991.224	2482.93
991.521	2470.27
991.819	2481.35
992.116	2470.95
992.413	2508.47
992.71	2424.63
993.006	2406.55
993.303	2461.01
993.6	2394.8
993.897	2354.34
994.193	2396.38
994.49	2385.53
994.787	2349.6
995.083	2353.89
995.379	2347.11
995.676	2330.16
995.972	2312.09
996.268	2301.92
996.565	2300.11
996.861	2264.63
997.157	2259.66
997.453	2239.77
997.749	2225.99
998.044	2239.32
998.34	2247.91
998.636	2203.61
998.932	2183.73
999.227	2190.96
999.523	2147.12
999.818	2176.72
1000.114	2163.62
1000.409	2128.14
1000.704	2104.41
1001	2107.35
1001.295	2089.72
1001.59	2075.48
1001.885	2065.99
1002.18	2060.12
1002.475	2045.43
1002.77	2032.55
1003.065	2009.27
1003.359	2040.23
1003.654	1972.21
1003.949	1997.52
1004.243	2011.08
1004.538	1980.12
1004.832	1976.05
1005.127	1952.32
1005.421	1956.16
1005.715	1948.48
1006.009	1903.74
1006.304	1902.15
1006.598	1900.8
1006.892	1877.97
1007.186	1875.26
1007.48	1889.5
1007.773	1850.4
1008.067	1866.22
1008.361	1817.18
1008.655	1813.12
1008.948	1834.36
1009.242	1799.78
1009.535	1780.57
1009.829	1775.15
1010.122	1787.35
1010.415	1761.37
1010.708	1754.36
1011.001	1748.49
1011.295	1706.9
1011.588	1761.82
1011.881	1719.33
1012.173	1660.58
1012.466	1704.64
1012.759	1651.31
1013.052	1671.65
1013.344	1680.92
1013.637	1636.85
1013.93	1656.51
1014.222	1626.68
1014.514	1629.39
1014.807	1633.46
1015.099	1607.92
1015.391	1588.04
1015.683	1577.64
1015.976	1577.87
1016.268	1568.83
1016.56	1546.91
1016.851	1547.36
1017.143	1547.13
1017.435	1506.46
1017.727	1518.89
1018.018	1501.26
1018.31	1512.56
1018.602	1489.51
1018.893	1475.95
1019.185	1461.49
1019.476	1469.17
1019.767	1466.46
1020.058	1437.31
1020.35	1448.38
1020.641	1424.2
1020.932	1438.89
1021.223	1397.99
1021.514	1396.4
1021.804	1393.69
1022.095	1385.56
1022.386	1375.16
1022.677	1343.98
1022.967	1355.95
1023.258	1351.21
1023.548	1349.17
1023.839	1310.53
1024.129	1312.11
1024.419	1306.01
1024.709	1282.51
1025	1305.78
1025.29	1277.76
1025.58	1258.33
1025.87	1267.82
1026.16	1235.28
1026.449	1246.8
1026.739	1236.18
1027.029	1216.52
1027.319	1200.25
1027.608	1211.55
1027.898	1221.04
1028.187	1189.63
1028.477	1193.02
1028.766	1194.6
1029.055	1165.22
1029.344	1174.49
1029.634	1189.63
1029.923	1163.19
1030.212	1155.05
1030.501	1126.13
1030.79	1144.21
1031.078	1127.26
1031.367	1097.43
1031.656	1091.33
1031.945	1140.14
1032.233	1091.1
1032.522	1089.29
1032.81	1090.42
1033.099	1092.01
1033.387	1077.77
1033.675	1070.31
1033.963	1063.76
1034.251	1077.09
1034.54	1036.19
1034.828	1031.89
1035.116	1024.89
1035.403	1016.07
1035.691	1025.11
1035.979	1032.8
1036.267	1024.89
1036.554	1007.94
1036.842	986.47
1037.129	965
1037.417	988.28
1037.704	965.68
1037.992	946.47
1038.279	956.64
1038.566	965
1038.853	965
1039.14	965
