Data from hue_10_FLMS001491_39.txt Node
Date: Mon Feb 06 15:31:50 GMT 2017
User: dcchb
Spectrometer: FLMS00149
Trigger mode: 0
Integration Time (sec): 2.000000E-2
Scans to average: 10
Electric dark correction enabled: true
Nonlinearity correction enabled: false
Boxcar width: 0
XAxis mode: Wavelengths
Number of Pixels in Spectrum: 2048
>>>>>Begin Spectral Data<<<<<
341.393	-8.14
341.776	-8.14
342.16	-8.14
342.543	-69.38
342.927	-66.66
343.31	-83.61
343.693	-80.45
344.077	-65.31
344.46	-42.03
344.843	-47
345.226	-42.94
345.61	-42.26
345.993	-30.06
346.376	8.59
346.759	2.26
347.142	40
347.525	48.36
347.908	59.21
348.291	86.78
348.674	93.33
349.057	95.14
349.44	108.92
349.823	142.6
350.206	164.74
350.588	189.15
350.971	220.56
351.354	232.99
351.737	223.95
352.119	261.69
352.502	261.01
352.884	275.47
353.267	281.8
353.65	294.68
354.032	305.53
354.414	328.13
354.797	312.99
355.179	336.26
355.562	320.67
355.944	305.3
356.326	322.48
356.709	324.51
357.091	335.36
357.473	340.78
357.855	328.8
358.238	342.82
358.62	350.95
359.002	322.25
359.384	322.7
359.766	342.36
360.148	349.6
360.53	353.21
360.912	335.58
361.294	327.45
361.676	341.23
362.057	342.59
362.439	333.1
362.821	336.26
363.203	330.39
363.584	342.36
363.966	333.55
364.348	316.6
364.729	332.19
365.111	306.88
365.493	320.9
365.874	327.22
366.256	334
366.637	306.88
367.019	308.69
367.4	294.23
367.781	317.73
368.163	331.06
368.544	304.17
368.925	305.98
369.306	308.01
369.688	281.8
370.069	325.42
370.45	287.45
370.831	312.76
371.212	295.81
371.593	308.92
371.974	296.94
372.355	309.37
372.736	315.47
373.117	315.47
373.498	318.86
373.879	307.34
374.26	308.92
374.641	301.69
375.021	316.15
375.402	312.99
375.783	330.61
376.163	298.52
376.544	309.14
376.925	309.82
377.305	314.34
377.686	307.11
378.066	325.87
378.447	322.48
378.827	338.07
379.208	327.68
379.588	299.65
379.968	338.97
380.349	323.38
380.729	329.71
381.109	336.71
381.489	324.29
381.87	324.74
382.25	331.52
382.63	328.58
383.01	347.34
383.39	346.66
383.77	334.68
384.15	332.87
384.53	331.06
384.91	321.35
385.29	331.97
385.67	346.88
386.049	350.27
386.429	334.45
386.809	357.73
387.189	337.17
387.568	362.7
387.948	341.69
388.328	364.51
388.707	370.61
389.087	357.05
389.466	351.86
389.846	371.29
390.225	348.24
390.605	351.18
390.984	351.63
391.363	337.84
391.743	352.08
392.122	369.71
392.501	370.84
392.881	369.26
393.26	371.52
393.639	352.76
394.018	362.25
394.397	369.03
394.776	387.33
395.155	356.83
395.534	369.03
395.913	363.38
396.292	385.98
396.671	369.71
397.05	391.4
397.429	378.97
397.808	382.14
398.186	365.64
398.565	361.57
398.944	381.91
399.323	362.93
399.701	374.91
400.08	370.39
400.458	388.46
400.837	383.04
401.215	390.27
401.594	382.14
401.972	401.57
402.351	397.73
402.729	393.21
403.107	392.76
403.486	396.15
403.864	396.6
404.242	402.93
404.62	396.37
404.999	390.5
405.377	402.02
405.755	397.28
406.133	409.48
406.511	415.13
406.889	388.24
407.267	391.4
407.645	398.41
408.023	412.64
408.401	410.38
408.779	428.46
409.156	412.42
409.534	414.68
409.912	417.39
410.29	424.62
410.667	403.61
411.045	423.94
411.422	426.66
411.8	445.19
412.178	426.2
412.555	442.47
412.933	442.02
413.31	416.71
413.687	451.74
414.065	443.6
414.442	450.38
414.819	439.08
415.197	460.33
415.574	484.73
415.951	464.39
416.328	455.36
416.705	480.67
417.082	480.44
417.46	473.21
417.837	453.77
418.214	481.8
418.591	471.63
418.967	478.63
419.344	501.68
419.721	472.76
420.098	486.09
420.475	501.91
420.852	482.93
421.228	486.54
421.605	474.34
421.982	475.47
422.358	502.13
422.735	495.81
423.111	498.74
423.488	500.55
423.864	508.24
424.241	513.66
424.617	519.99
424.994	501.91
425.37	522.47
425.746	508.91
426.123	526.09
426.499	519.53
426.875	517.5
427.251	510.95
427.627	551.62
428.003	548.69
428.379	549.14
428.756	549.59
429.132	571.28
429.507	571.51
429.883	571.06
430.259	570.38
430.635	560.44
431.011	570.38
431.387	572.64
431.763	574.9
432.138	592.07
432.514	586.88
432.89	578.74
433.265	598.18
433.641	621.9
434.016	606.09
434.392	591.62
434.767	639.08
435.143	614.9
435.518	630.94
435.894	620.77
436.269	620.77
436.644	647.21
437.02	650.38
437.395	645.63
437.77	653.99
438.145	657.61
438.52	684.5
438.895	663.03
439.271	663.03
439.646	674.56
440.021	672.75
440.395	673.65
440.77	658.97
441.145	665.29
441.52	700.55
441.895	708.68
442.27	691.06
442.645	718.17
443.019	716.14
443.394	695.57
443.769	718.85
444.143	724.5
444.518	715.24
444.892	737.83
445.267	728.57
445.641	727.89
446.016	737.83
446.39	730.15
446.764	734.67
447.139	731.96
447.513	746.87
447.887	743.26
448.262	738.06
448.636	763.82
449.01	758.85
449.384	766.53
449.758	757.95
450.132	756.36
450.506	789.36
450.88	776.7
451.254	764.73
451.628	772.18
452.002	791.84
452.376	763.37
452.75	785.06
453.123	835.91
453.497	796.14
453.871	812.86
454.244	813.31
454.618	809.92
454.992	811.5
455.365	850.83
455.739	851.73
456.112	846.31
456.486	857.83
456.859	856.47
457.232	883.14
457.606	880.65
457.979	862.58
458.352	895.8
458.725	890.82
459.099	879.98
459.472	896.25
459.845	928.56
460.218	940.99
460.591	929.02
460.964	939.64
461.337	973.99
461.71	981.67
462.083	994.78
462.456	987.77
462.829	959.07
463.201	1002.23
463.574	1019.41
463.947	1037.26
464.32	1014.89
464.692	1033.19
465.065	1030.93
465.438	1054.89
465.81	1053.98
466.183	1092.85
466.555	1089.46
466.928	1100.54
467.3	1117.71
467.672	1122
468.045	1119.97
468.417	1141.44
468.789	1195
469.161	1166.52
469.534	1168.1
469.906	1195
470.278	1248.55
470.65	1227.54
471.022	1265.73
471.394	1260.98
471.766	1291.49
472.138	1282.45
472.51	1300.98
472.882	1318.38
473.253	1352.05
473.625	1366.74
473.997	1382.79
474.369	1397.7
474.74	1415.1
475.112	1462.79
475.484	1466.85
475.855	1525.16
476.227	1503.92
476.598	1556.12
476.97	1560.64
477.341	1598.83
477.713	1606.06
478.084	1610.13
478.455	1691.25
478.827	1707.98
479.198	1748.2
479.569	1766.28
479.94	1765.83
480.311	1784.59
480.682	1866.17
481.053	1902.32
481.424	1929.67
481.795	1971.47
482.166	2007.18
482.537	2013.28
482.908	2041.3
483.279	2079.72
483.65	2142.54
484.021	2139.15
484.391	2196.33
484.762	2216.44
485.133	2248.53
485.503	2315.19
485.874	2293.27
486.244	2353.38
486.615	2389.09
486.985	2427.51
487.356	2448.75
487.726	2515.41
488.097	2547.05
488.467	2560.38
488.837	2656.88
489.207	2665.92
489.578	2691.68
489.948	2728.29
490.318	2819.59
490.688	2812.36
491.058	2808.06
491.428	2874.05
491.798	2905.46
492.168	2974.84
492.538	2988.62
492.908	3023.65
493.278	3040.6
493.648	3078.11
494.017	3122.4
494.387	3123.31
494.757	3147.94
495.126	3218.67
495.496	3253.02
495.866	3293.92
496.235	3298.44
496.605	3288.73
496.974	3352.45
497.344	3388.16
497.713	3407.37
498.082	3450.98
498.452	3469.97
498.821	3482.62
499.19	3519.91
499.559	3525.78
499.928	3609.62
500.298	3584.76
500.667	3585.44
501.036	3653.24
501.405	3679
501.774	3662.5
502.143	3693.46
502.512	3717.19
502.88	3752.22
503.249	3758.77
503.618	3827.02
503.987	3794.48
504.356	3823.18
504.724	3822.5
505.093	3836.74
505.462	3881.93
505.83	3884.19
506.199	3933.68
506.567	3983.85
506.936	3995.38
507.304	4021.59
507.672	4019.78
508.041	4071.08
508.409	4033.79
508.777	4069.27
509.145	4094.36
509.514	4127.35
509.882	4156.27
510.25	4187.23
510.618	4161.25
510.986	4174.35
511.354	4246.67
511.722	4255.03
512.09	4307.23
512.458	4242.6
512.826	4322.37
513.193	4303.62
513.561	4309.27
513.929	4389.04
514.297	4367.34
514.664	4415.7
515.032	4380.68
515.4	4396.72
515.767	4424.74
516.135	4457.74
516.502	4417.74
516.869	4472.2
517.237	4497.51
517.604	4483.27
517.972	4515.14
518.339	4558.98
518.706	4603.95
519.073	4579.54
519.44	4624.96
519.808	4711.74
520.175	4636.94
520.542	4685.75
520.909	4707.45
521.276	4659.09
521.643	4742.93
522.009	4778.63
522.376	4771.17
522.743	4760.1
523.11	4843.26
523.477	4884.17
523.843	4923.03
524.21	4973.88
524.577	4947.21
524.943	4978.17
525.31	5005.29
525.676	5029.25
526.043	5064.95
526.409	5072.18
526.776	5123.71
527.142	5153.76
527.508	5171.16
527.874	5158.28
528.241	5238.51
528.607	5236.47
528.973	5278.96
529.339	5319.86
529.705	5273.53
530.071	5360.76
530.437	5364.15
530.803	5422.46
531.169	5457.26
531.535	5446.86
531.901	5469.69
532.267	5485.28
532.632	5463.81
532.998	5492.96
533.364	5574.09
533.73	5612.51
534.095	5633.52
534.461	5640.3
534.826	5655.22
535.192	5659.06
535.557	5674.65
535.923	5702
536.288	5697.03
536.653	5693.86
537.019	5757.81
537.384	5785.84
537.749	5812.95
538.114	5873.97
538.479	5817.93
538.845	5868.77
539.21	5851.6
539.575	5936.79
539.94	5943.35
540.305	5980.63
540.67	5963.68
541.034	6010.24
541.399	6030.58
541.764	6052.5
542.129	6083.23
542.494	6084.36
542.858	6110.12
543.223	6133.17
543.587	6177.69
543.952	6183.79
544.316	6275.32
544.681	6198.71
545.045	6288.2
545.41	6280.96
545.774	6326.16
546.138	6339.04
546.503	6383.33
546.867	6402.09
547.231	6419.27
547.595	6413.62
547.959	6454.75
548.324	6426.05
548.688	6483.45
549.052	6547.4
549.416	6534.52
549.779	6587.85
550.143	6571.58
550.507	6593.5
550.871	6631.24
551.235	6617.23
551.599	6750.56
551.962	6714.17
552.326	6743.33
552.689	6750.11
553.053	6695.19
553.417	6749.2
553.78	6814.96
554.143	6773.16
554.507	6835.53
554.87	6881.85
555.234	6953.94
555.597	6877.33
555.96	6945.81
556.323	6998.46
556.686	6936.77
557.05	7028.74
557.413	7040.49
557.776	7036.43
558.139	7061.06
558.502	7108.06
558.865	7143.09
559.228	7213.14
559.59	7207.49
559.953	7235.97
560.316	7216.31
560.679	7215.4
561.041	7284.55
561.404	7300.82
561.767	7367.04
562.129	7288.85
562.492	7398.9
562.854	7392.12
563.217	7450.88
563.579	7478.67
563.941	7477.32
564.304	7539.24
564.666	7558.67
565.028	7608.39
565.39	7539.91
565.753	7535.17
566.115	7633.7
566.477	7678.89
566.839	7697.65
567.201	7773.81
567.563	7743.3
567.925	7809.51
568.287	7793.47
568.648	7767.48
569.01	7839.34
569.372	7890.64
569.734	7847.03
570.095	7975.38
570.457	8029.39
570.819	8039.11
571.18	8059.9
571.542	8091.99
571.903	8157.53
572.265	8167.47
572.626	8182.16
572.987	8250.4
573.349	8306.67
573.71	8347.58
574.071	8433.45
574.432	8463.96
574.794	8505.54
575.155	8508.48
575.516	8559.77
575.877	8628.02
576.238	8821.46
576.599	8758.19
576.96	8796.38
577.32	8903.04
577.681	8937.39
578.042	9006.54
578.403	9102.81
578.763	9149.82
579.124	9223.94
579.485	9360.21
579.845	9399.3
580.206	9538.05
580.566	9616.92
580.927	9746.18
581.287	9776.24
581.648	9937.59
582.008	10037.02
582.368	10132.84
582.728	10295.77
583.089	10410.8
583.449	10501.64
583.809	10719.04
584.169	10839.94
584.529	10964.91
584.889	11233.15
585.249	11336.2
585.609	11431.56
585.969	11711.56
586.329	11800.14
586.688	12028.38
587.048	12253.92
587.408	12384.31
587.768	12590.18
588.127	12822.94
588.487	13026.32
588.846	13344.73
589.206	13423.6
589.565	13722.58
589.925	13963.02
590.284	14127.31
590.643	14474.65
591.003	14763.68
591.362	14945.82
591.721	15172.03
592.08	15502.87
592.44	15841.17
592.799	16000.48
593.158	16212.68
593.517	16505.33
593.876	16806.79
594.235	17053.56
594.593	17329.26
594.952	17634.56
595.311	17870.72
595.67	18150.71
596.029	18613.07
596.387	18795.89
596.746	19069.78
597.104	19262.09
597.463	19597.68
597.822	19933.71
598.18	20107.27
598.538	20425.9
598.897	20828.83
599.255	20907.7
599.613	21484.86
599.972	21564.18
600.33	22027.67
600.688	22214.78
601.046	22518.73
601.404	22690.02
601.762	23191.03
602.12	23400.06
602.478	23711.69
602.836	23956.43
603.194	24076.43
603.552	24443.65
603.91	24630.54
604.268	24983.98
604.625	25117.53
604.983	25408.37
605.341	25571.08
605.698	26055.81
606.056	26236.37
606.413	26481.11
606.771	26635.68
607.128	27087.42
607.485	27083.36
607.843	27367.64
608.2	27762.21
608.557	27975.08
608.914	28139.15
609.272	28501.4
609.629	28683.77
609.986	28955.85
610.343	29120.59
610.7	29361.49
611.057	29561.26
611.414	29849.61
611.771	29888.03
612.127	30310.84
612.484	30422.93
612.841	30649.36
613.198	30813.88
613.554	30869.92
613.911	31183.13
614.267	31307.65
614.624	31502.67
614.98	31643.69
615.337	31962.55
615.693	32008.65
616.05	32196.44
616.406	32466.26
616.762	32521.4
617.118	32595.3
617.475	32813.83
617.831	33069.19
618.187	33231.44
618.543	33432.34
618.899	33614.48
619.255	33699.23
619.611	33646.35
619.967	34023.51
620.323	34245.43
620.678	34099.44
621.034	34120.91
621.39	34349.61
621.746	34414.69
622.101	34749.82
622.457	34747.79
622.812	34746.43
623.168	34972.41
623.523	34954.11
623.879	35329.01
624.234	35098.29
624.589	35239.75
624.945	35323.82
625.3	35496.24
625.655	35433.87
626.01	35615.79
626.365	35690.81
626.72	35763.13
627.075	35749.34
627.43	35783.92
627.785	35924.25
628.14	36115.66
628.495	36145.04
628.85	36129.67
629.205	36017.13
629.559	36424.8
629.914	36157.24
630.269	36197.24
630.623	36312.49
630.978	36180.74
631.332	36400.4
631.687	36577.8
632.041	36457.8
632.396	36524.46
632.75	36489.89
633.104	36564.91
633.459	36390.91
633.813	36511.81
634.167	36438.82
634.521	36440.62
634.875	36547.29
635.229	36479.27
635.583	36352.04
635.937	36421.19
636.291	36392.04
636.645	36554.97
636.999	36453.05
637.352	36521.75
637.706	36306.62
638.06	36558.59
638.413	36405.37
638.767	36473.39
639.121	36608.3
639.474	36373.96
639.828	36427.74
640.181	36524.69
640.534	36532.37
640.888	36345.03
641.241	36360.17
641.594	36347.97
641.947	36518.14
642.301	36349.1
642.654	36477.23
643.007	36456.44
643.36	36319.27
643.713	36383.9
644.066	36492.83
644.419	36236.11
644.771	36061.88
645.124	35750.25
645.477	35686.29
645.83	35475.68
646.182	35383.02
646.535	35300.09
646.888	35510.25
647.24	35155.23
647.593	35415.34
647.945	35362.46
648.298	35139.87
648.65	35161.79
649.002	35090.38
649.355	35155.46
649.707	35090.83
650.059	35243.37
650.411	35796.35
650.763	35759.06
651.115	36260.06
651.467	36043.35
651.819	36003.57
652.171	35946.85
652.523	36044.7
652.875	36011.03
653.227	35857.14
653.578	36109.56
653.93	36035.66
654.282	35831.37
654.633	35791.15
654.985	35830.7
655.337	35819.4
655.688	35855.1
656.039	35984.82
656.391	35611.04
656.742	35694.2
657.094	35832.28
657.445	35846.52
657.796	35820.98
658.147	35640.87
658.498	35692.62
658.849	35684.03
659.2	35671.83
659.551	35641.77
659.902	35716.8
660.253	35682.45
660.604	35735.11
660.955	35531.72
661.306	35768.1
661.656	35600.87
662.007	35691.94
662.358	35579.63
662.708	35682.68
663.059	35571.04
663.409	35284.95
663.76	35622.79
664.11	35760.19
664.461	35548.22
664.811	35430.03
665.161	35508.9
665.511	35457.15
665.862	35598.61
666.212	35601.78
666.562	35638.16
666.912	35496.02
667.262	35511.38
667.612	35649.68
667.962	35542.57
668.312	35437.71
668.662	35698.5
669.011	35519.52
669.361	35418.5
669.711	35470.71
670.06	35436.58
670.41	35441.55
670.76	35329.69
671.109	35500.76
671.459	35359.52
671.808	35270.03
672.157	35435.45
672.507	35251.05
672.856	35067.33
673.205	35230.71
673.554	35321.78
673.904	35187.32
674.253	35413.31
674.602	35263.03
674.951	34652.42
675.3	34430.28
675.649	35094.9
675.998	35135.57
676.346	35161.34
676.695	35297.38
677.044	34969.02
677.393	35204.27
677.741	35105.52
678.09	34979.19
678.438	34969.7
678.787	35035.69
679.135	35021.45
679.484	34818.29
679.832	34991.17
680.181	34682.25
680.529	34795.02
680.877	34629.82
681.225	34792.31
681.573	34773.32
681.922	34545.76
682.27	34521.35
682.618	34492.65
682.966	34378.98
683.314	34529.94
683.661	34444.07
684.009	34155.03
684.357	34298.08
684.705	34104.87
685.053	34250.17
685.4	34145.09
685.748	34025.77
686.095	34101.48
686.443	33877.53
686.79	33881.14
687.138	33902.61
687.485	33784.87
687.832	33708.94
688.18	33721.15
688.527	33726.12
688.874	33748.72
689.221	33467.82
689.568	33376.98
689.915	33410.65
690.262	33329.52
690.609	33173.14
690.956	33028.51
691.303	33022.41
691.65	32922.07
691.997	32976.53
692.344	32672.14
692.69	32843.88
693.037	32722.3
693.383	32464.91
693.73	32591.01
694.077	32336.1
694.423	32502.87
694.769	32312.6
695.116	32250.23
695.462	32190.57
695.808	32017.69
696.155	32291.35
696.501	31982.66
696.847	31821.99
697.193	31772.27
697.539	31710.58
697.885	31559.62
698.231	31556.46
698.577	31407.99
698.923	31389.46
699.269	31422.45
699.614	31088.22
699.96	31119.41
700.306	31060.2
700.651	30998.06
700.997	30810.49
701.342	30801
701.688	30721.9
702.033	30709.93
702.379	30568.91
702.724	30491.18
703.069	30580.21
703.415	30132.54
703.76	30288.24
704.105	30340.22
704.45	30322.59
704.795	30067.46
705.14	30017.06
705.485	29935.48
705.83	29794.02
706.175	29883.96
706.52	29864.53
706.865	29663.85
707.209	29607.81
707.554	29465.44
707.899	29567.58
708.243	29415.72
708.588	29352.9
708.932	29267.93
709.277	29266.35
709.621	29316.29
709.966	28976.87
710.31	29005.34
710.654	28882.63
710.998	28928.05
711.342	28860.94
711.687	28824.33
712.031	28613.94
712.375	28596.76
712.719	28742.52
713.063	28678.57
713.407	28640.83
713.75	28403.32
714.094	28438.35
714.438	28308.63
714.782	28263.44
715.125	28283.78
715.469	28332.14
715.812	28101.18
716.156	27886.05
716.499	27914.97
716.843	27938.7
717.186	27870.23
717.53	27957.91
717.873	27846.05
718.216	27777.35
718.559	27745.03
718.902	27638.14
719.246	27632.04
719.589	27653.74
719.932	27405.83
720.275	27436.34
720.617	27442.22
720.96	27357.47
721.303	27376
721.646	27360.18
721.989	27146.18
722.331	27323.58
722.674	27196.8
723.016	27177.82
723.359	27114.09
723.701	27082.45
724.044	26870.03
724.386	26800.65
724.729	26882.23
725.071	26824.38
725.413	26777.83
725.755	26732.86
726.097	26592.97
726.439	26637.72
726.782	26566.08
727.124	26632.29
727.465	26467.78
727.807	26506.2
728.149	26481.79
728.491	26411.73
728.833	26401.11
729.175	26181.91
729.516	26279.99
729.858	26166.77
730.199	26262.81
730.541	26108.92
730.882	26073.44
731.224	26119.77
731.565	25963.39
731.906	26016.04
732.248	25993.67
732.589	25869.83
732.93	25794.58
733.271	25889.49
733.612	25801.13
733.953	25750.51
734.294	25732.43
734.635	25631.64
734.976	25766.33
735.317	25673
735.658	25659.21
735.999	25613.56
736.339	25523.85
736.68	25635.03
737.021	25502.15
737.361	25439.78
737.702	25587.8
738.042	25379.67
738.383	25347.13
738.723	25405.43
739.063	25261.93
739.404	25279.56
739.744	25168.83
740.084	25098.32
740.424	25215.38
740.764	25170.41
741.104	25219.45
741.444	24965.22
741.784	24917.31
742.124	24936.07
742.464	24950.98
742.804	24905.11
743.143	24875.96
743.483	24910.31
743.823	24728.62
744.162	24753.7
744.502	24806.58
744.841	24662.63
745.181	24777.2
745.52	24616.53
745.86	24669.86
746.199	24594.61
746.538	24640.26
746.877	24562.52
747.216	24444.1
747.556	24557.77
747.895	24588.51
748.234	24446.36
748.573	24384.67
748.911	24305.8
749.25	24305.12
749.589	24235.07
749.928	24192.36
750.267	24282.98
750.605	24194.84
750.944	24139.7
751.283	23956.43
751.621	24048.18
751.96	24002.53
752.298	23900.16
752.636	23997.79
752.975	23893.16
753.313	23808.41
753.651	23826.49
753.989	23671.24
754.327	23743.1
754.666	23610
755.004	23629.21
755.342	23712.37
755.679	23542.66
756.017	23453.62
756.355	23621.98
756.693	23399.61
757.031	23388.09
757.368	23292.27
757.706	23278.26
758.044	23067.19
758.381	23171.37
758.719	23134.31
759.056	23134.31
759.394	23013.18
759.731	22907.87
760.068	22987.42
760.405	22833.52
760.743	22780.64
761.08	22826.29
761.417	22700.65
761.754	22789.46
762.091	22628.78
762.428	22475.12
762.765	22305.18
763.102	22419.52
763.438	22359.64
763.775	22292.52
764.112	22216.37
764.449	22230.6
764.785	22131.4
765.122	21938.86
765.458	21890.72
765.795	21775.25
766.131	21853.89
766.467	21763.5
766.804	21647.11
767.14	21497.51
767.476	21547.68
767.812	21481.92
768.148	21484.63
768.485	21323.28
768.821	21248.93
769.157	21125.77
769.492	21135.94
769.828	21135.04
770.164	20902.5
770.5	20937.08
770.836	20893.46
771.171	20726.91
771.507	20759.23
771.842	20552.23
772.178	20639.01
772.513	20486.47
772.849	20443.53
773.184	20359.46
773.519	20360.82
773.855	20246.7
774.19	20143.2
774.525	20104.33
774.86	20113.82
775.195	19976.42
775.53	19930.78
775.865	19835.86
776.2	19773.94
776.535	19666.6
776.87	19503.22
777.205	19587.51
777.539	19460.96
777.874	19578.92
778.209	19268.19
778.543	19303.45
778.878	19175.54
779.212	19108.42
779.547	19104.13
779.881	19072.49
780.215	18896.68
780.55	18915.21
780.884	18825.04
781.218	18725.38
781.552	18799.51
781.886	18697.36
782.22	18549.34
782.554	18487.88
782.888	18249.69
783.222	18267.77
783.556	18269.58
783.889	18202.91
784.223	18057.15
784.557	18032.52
784.89	18079.75
785.224	17892.41
785.557	17819.64
785.891	17748.23
786.224	17667.78
786.558	17719.31
786.891	17540.1
787.224	17417.17
787.557	17445.87
787.891	17423.5
788.224	17343.72
788.557	17363.39
788.89	17232.32
789.223	17227.57
789.556	17191.41
789.888	17025.99
790.221	17020.12
790.554	16885.21
790.887	16977.41
791.219	16902.15
791.552	16838.65
791.884	16711.88
792.217	16595.27
792.549	16708.26
792.882	16468.95
793.214	16395.5
793.546	16506.91
793.879	16339.23
794.211	16295.16
794.543	16343.07
794.875	16111.44
795.207	16204.55
795.539	16108.05
795.871	16127.94
796.203	15898.57
796.535	15866.93
796.867	15873.03
797.198	15781.28
797.53	15814.5
797.862	15687.72
798.193	15689.08
798.525	15568.63
798.856	15685.69
799.188	15503.32
799.519	15437.11
799.85	15320.73
800.182	15323.44
800.513	15357.11
800.844	15158.92
801.175	15221.97
801.506	15280.28
801.837	15187.4
802.168	15169.09
802.499	15096.55
802.83	14967.52
803.161	14899.04
803.491	14932.26
803.822	14918.48
804.153	14817.92
804.483	14761.19
804.814	14678.71
805.145	14647.07
805.475	14691.37
805.805	14608.2
806.136	14622.89
806.466	14607.3
806.796	14506.96
807.126	14442.11
807.457	14452.28
807.787	14394.42
808.117	14321.21
808.447	14280.3
808.777	14304.48
809.107	14277.36
809.436	14133.19
809.766	14183.13
810.096	14082.79
810.426	13993.76
810.755	14039.86
811.085	14025.85
811.414	14095.45
811.744	13924.61
812.073	13911.5
812.403	13848
812.732	13753.31
813.061	13761.22
813.39	13736.14
813.719	13686.19
814.049	13705.63
814.378	13649.13
814.707	13556.03
815.036	13565.07
815.365	13515.12
815.693	13370.04
816.022	13408.69
816.351	13347.22
816.68	13334.79
817.008	13359.65
817.337	13295.92
817.665	13144.06
817.994	13280.33
818.322	13186.77
818.651	13109.49
818.979	13034.46
819.307	13136.15
819.636	13069.49
819.964	12954.91
820.292	13020.67
820.62	12983.61
820.948	12964.63
821.276	12998.75
821.604	12925.76
821.932	13038.08
822.259	12941.81
822.587	12977.74
822.915	12945.65
823.243	12986.55
823.57	12950.17
823.898	12917.4
824.225	12905.42
824.553	12858.87
824.88	12851.87
825.207	12940.68
825.535	12847.12
825.862	12853.45
826.189	12895.25
826.516	12908.81
826.843	12998.98
827.17	12923.28
827.497	12992.2
827.824	12963.5
828.151	12895.93
828.478	12875.14
828.805	12921.92
829.131	12816.39
829.458	12917.4
829.785	12817.97
830.111	12889.15
830.438	12871.75
830.764	12845.99
831.09	12862.03
831.417	12787.01
831.743	12831.53
832.069	12830.62
832.395	12791.75
832.722	12919.66
833.048	12752.66
833.374	12787.46
833.7	12683.06
834.026	12770.96
834.351	12667.01
834.677	12736.84
835.003	12677.18
835.329	12665.43
835.654	12640.8
835.98	12596.96
836.306	12657.97
836.631	12617.07
836.956	12627.69
837.282	12570.29
837.607	12594.25
837.932	12604.19
838.258	12545.43
838.583	12519.9
838.908	12461.82
839.233	12479.67
839.558	12458.43
839.883	12443.29
840.208	12364.42
840.533	12333.69
840.858	12432.22
841.182	12405.1
841.507	12303.86
841.832	12223.18
842.156	12279
842.481	12240.13
842.805	12275.38
843.13	12156.97
843.454	12153.35
843.778	12083.3
844.103	12087.14
844.427	12056.41
844.751	12052.11
845.075	11997.65
845.399	11916.3
845.723	11903.87
846.047	11957.88
846.371	11827.49
846.695	11804.66
847.019	11740.48
847.343	11594.95
847.666	11621.62
847.99	11549.98
848.313	11540.71
848.637	11490.09
848.96	11463.2
849.284	11423.65
849.607	11400.6
849.931	11264.34
850.254	11255.98
850.577	11176.88
850.9	11094.17
851.223	11108.86
851.546	11049.65
851.869	11098.69
852.192	11061.63
852.515	10978.47
852.838	10944.12
853.161	10853.73
853.483	10836.33
853.806	10744.58
854.129	10753.39
854.451	10779.83
854.774	10672.04
855.096	10703
855.419	10610.57
855.741	10626.39
856.063	10597.01
856.385	10500.74
856.708	10481.76
857.03	10451.93
857.352	10430.23
857.674	10430.23
857.996	10375.32
858.318	10292.16
858.64	10279.05
858.961	10288.77
859.283	10259.17
859.605	10190.92
859.926	10307.75
860.248	10179.39
860.57	10119.96
860.891	10107.76
861.212	10014.88
861.534	10020.75
861.855	10099.17
862.176	10074.76
862.498	10057.14
862.819	10076.35
863.14	9978.49
863.461	9956.12
863.782	9985.5
864.103	9943.02
864.424	9881.55
864.745	9926.74
865.065	9887.65
865.386	9802.68
865.707	9787.31
866.027	9816.69
866.348	9825.96
866.668	9807.88
866.989	9756.81
867.309	9615.11
867.63	9615.79
867.95	9692.85
868.27	9602.23
868.59	9696.02
868.91	9610.37
869.23	9655.34
869.55	9607.88
869.87	9616.02
870.19	9555.23
870.51	9593.42
870.83	9564.72
871.15	9574.44
871.469	9510.03
871.789	9590.03
872.109	9498.06
872.428	9454.67
872.748	9404.95
873.067	9463.48
873.386	9453.31
873.706	9462.8
874.025	9433.42
874.344	9323.6
874.663	9392.97
874.982	9332.18
875.301	9314.11
875.62	9283.37
875.939	9357.49
876.258	9280.21
876.577	9257.38
876.896	9282.02
877.214	9224.62
877.533	9222.13
877.852	9178.97
878.17	9219.19
878.489	9222.81
878.807	9177.39
879.125	9192.3
879.444	9159.99
879.762	9084.96
880.08	9150.49
880.398	9009.25
880.716	9066.65
881.034	9089.03
881.352	9063.49
881.67	9025.75
881.988	9018.75
882.306	8943.27
882.624	8985.98
882.941	8920.67
883.259	8876.83
883.577	8793.89
883.894	8838.41
884.212	8809.03
884.529	8836.6
884.846	8775.59
885.164	8784.63
885.481	8772.2
885.798	8787.11
886.115	8766.78
886.432	8705.99
886.75	8716.16
887.067	8730.62
887.383	8620.34
887.7	8661.47
888.017	8613.33
888.334	8582.6
888.651	8601.81
888.967	8590.96
889.284	8509.38
889.6	8480.45
889.917	8496.27
890.233	8408.59
890.55	8441.13
890.866	8398.65
891.182	8433
891.498	8286.34
891.815	8319.56
892.131	8247.69
892.447	8311.65
892.763	8239.78
893.079	8198.65
893.395	8180.12
893.71	8158.66
894.026	8145.55
894.342	8111.43
894.657	8101.26
894.973	8040.92
895.289	8076.62
895.604	8048.83
895.92	7949.17
896.235	7962.05
896.55	7955.95
896.865	7941.94
897.181	7907.81
897.496	7924.99
897.811	7800.25
898.126	7758.21
898.441	7796.41
898.756	7788.5
899.071	7733.81
899.386	7672.34
899.7	7662.17
900.015	7649.52
900.33	7620.82
900.644	7538.33
900.959	7510.76
901.273	7539.46
901.588	7500.59
901.902	7437.54
902.216	7431.89
902.531	7426.02
902.845	7408.39
903.159	7379.69
903.473	7362.97
903.787	7339.24
904.101	7296.76
904.415	7284.78
904.729	7225.57
905.042	7176.53
905.356	7181.73
905.67	7116.42
905.984	7195.52
906.297	7179.92
906.611	7128.4
906.924	7094.95
907.237	7067.16
907.551	7037.78
907.864	6961.85
908.177	6976.77
908.491	6973.83
908.804	6957.33
909.117	6853.83
909.43	6826.71
909.743	6763.66
910.056	6779.03
910.368	6821.06
910.681	6720.95
910.994	6677.79
911.307	6694.74
911.619	6608.64
911.932	6637.34
912.244	6599.37
912.557	6586.04
912.869	6501.75
913.181	6489.55
913.494	6555.76
913.806	6505.14
914.118	6467.17
914.43	6439.6
914.742	6361.87
915.054	6348.99
915.366	6402.09
915.678	6343.56
915.99	6268.08
916.302	6246.16
916.613	6210.91
916.925	6227.63
917.236	6204.58
917.548	6124.58
917.859	6125.26
918.171	6146.73
918.482	6080.74
918.794	6089.78
919.105	6038.94
919.416	6024.93
919.727	6033.51
920.038	5970.69
920.349	5913.29
920.66	5890.92
920.971	5847.98
921.282	5880.3
921.593	5842.78
921.903	5827.19
922.214	5760.53
922.525	5776.12
922.835	5765.5
923.146	5682.34
923.456	5702.9
923.767	5675.78
924.077	5700.42
924.387	5629
924.697	5566.86
925.008	5580.19
925.318	5562.11
925.628	5584.03
925.938	5476.01
926.248	5475.11
926.558	5428.11
926.867	5492.51
927.177	5455
927.487	5384.27
927.796	5376.58
928.106	5384.94
928.416	5337.71
928.725	5322.57
929.034	5238.05
929.344	5291.16
929.653	5286.64
929.962	5172.07
930.271	5162.12
930.581	5165.51
930.89	5161.67
931.199	5134.33
931.508	5131.39
931.817	5137.72
932.125	5103.37
932.434	5072.63
932.743	5043.03
933.051	4988.34
933.36	5009.36
933.669	4958.51
933.977	4968.46
934.286	4965.97
934.594	4890.72
934.902	4871.51
935.21	4863.37
935.519	4845.52
935.827	4830.38
936.135	4798.74
936.443	4761.91
936.751	4728.69
937.059	4724.4
937.367	4729.14
937.674	4655.02
937.982	4659.31
938.29	4651.63
938.597	4649.14
938.905	4588.35
939.213	4600.33
939.52	4541.8
939.827	4563.04
940.135	4508.58
940.442	4526.66
940.749	4516.27
941.056	4496.83
941.363	4431.75
941.67	4440.56
941.977	4414.57
942.284	4414.57
942.591	4366.66
942.898	4349.94
943.205	4320.11
943.511	4322.37
943.818	4294.12
944.125	4285.99
944.431	4280.79
944.738	4286.21
945.044	4201.92
945.35	4195.82
945.657	4206.22
945.963	4211.41
946.269	4191.98
946.575	4168.7
946.881	4094.13
947.187	4130.96
947.493	4083.06
947.799	4076.95
948.105	4045.77
948.41	4090.29
948.716	4019.56
949.022	4026.79
949.327	4016.17
949.633	3999.67
949.938	3957.64
950.244	3937.3
950.549	3899.56
950.854	3927.58
951.16	3906.11
951.465	3878.32
951.77	3845.1
952.075	3868.6
952.38	3851.88
952.685	3848.26
952.99	3778.43
953.294	3773.69
953.599	3786.57
953.904	3729.39
954.209	3761.71
954.513	3729.85
954.818	3704.76
955.122	3657.98
955.426	3716.29
955.731	3661.15
956.035	3623.63
956.339	3643.07
956.643	3622.73
956.948	3571.88
957.252	3523.98
957.556	3559.68
957.86	3519.68
958.163	3529.17
958.467	3542.05
958.771	3492.56
959.075	3470.64
959.378	3478.55
959.682	3443.53
959.985	3453.69
960.289	3442.17
960.592	3404.2
960.896	3384.77
961.199	3386.58
961.502	3374.37
961.805	3363.08
962.108	3385
962.411	3322.85
962.714	3307.26
963.017	3307.71
963.32	3279.24
963.623	3272.68
963.926	3251.89
964.228	3272.23
964.531	3222.06
964.833	3214.38
965.136	3165.34
965.438	3178.45
965.741	3212.12
966.043	3132.12
966.345	3124.44
966.648	3107.26
966.95	3118.11
967.252	3103.42
967.554	3087.83
967.856	3071.78
968.158	3052.8
968.46	3038.79
968.761	2982.97
969.063	3047.38
969.365	3015.51
969.666	3020.26
969.968	2962.18
970.269	2979.36
970.571	2973.48
970.872	2942.3
971.174	2919.92
971.475	2933.93
971.776	2933.26
972.077	2933.26
972.378	2900.04
972.679	2854.16
972.98	2884.9
973.281	2864.78
973.582	2839.93
973.883	2833.37
974.183	2832.24
974.484	2794.95
974.785	2777.1
975.085	2771
975.386	2781.4
975.686	2723.32
975.986	2710.89
976.287	2716.31
976.587	2675.64
976.887	2708.86
977.187	2694.17
977.487	2693.49
977.787	2658.01
978.087	2662.08
978.387	2630.67
978.687	2626.82
978.987	2612.59
979.286	2620.27
979.586	2599.48
979.885	2587.28
980.185	2548.63
980.484	2569.65
980.784	2541.63
981.083	2535.53
981.382	2526.94
981.682	2542.31
981.981	2476.55
982.28	2489.2
982.579	2464.34
982.878	2446.26
983.177	2469.99
983.475	2479.93
983.774	2419.6
984.073	2439.71
984.372	2406.26
984.67	2397
984.969	2403.33
985.267	2413.27
985.566	2376.89
985.864	2397
986.162	2337.11
986.461	2376.66
986.759	2342.09
987.057	2329.2
987.355	2337.34
987.653	2283.1
987.951	2281.07
988.249	2277
988.547	2279.26
988.844	2260.73
989.142	2275.65
989.44	2244.23
989.737	2234.52
990.035	2229.55
990.332	2222.99
990.63	2227.96
990.927	2170.11
991.224	2180.06
991.521	2164.46
991.819	2178.93
992.116	2170.34
992.413	2093.73
992.71	2141.41
993.006	2126.95
993.303	2113.84
993.6	2089.89
993.897	2110.45
994.193	2086.27
994.49	2091.24
994.787	2064.58
995.083	2057.8
995.379	2065.71
995.676	2031.36
995.972	2060.51
996.268	2039.04
996.565	2001.08
996.861	2006.05
997.157	1996.33
997.453	1974.19
997.749	1979.38
998.044	1961.08
998.34	1962.89
998.636	1970.12
998.932	1951.59
999.227	1905.26
999.523	1946.84
999.818	1896
1000.114	1888.09
1000.409	1890.12
1000.704	1878.14
1001	1877.69
1001.295	1834.08
1001.59	1840.63
1001.885	1847.64
1002.18	1818.26
1002.475	1811.25
1002.77	1794.53
1003.065	1789.56
1003.359	1799.73
1003.654	1778.94
1003.949	1754.53
1004.243	1733.97
1004.538	1760.63
1004.832	1756.56
1005.127	1734.64
1005.421	1747.07
1005.715	1709.79
1006.009	1711.14
1006.304	1693.74
1006.598	1672.05
1006.892	1684.02
1007.186	1694.42
1007.48	1698.26
1007.773	1653.06
1008.067	1651.71
1008.361	1641.99
1008.655	1609.22
1008.948	1613.74
1009.242	1636.57
1009.535	1596.79
1009.829	1607.19
1010.122	1593.18
1010.415	1573.29
1010.708	1574.65
1011.001	1545.72
1011.295	1542.11
1011.588	1551.15
1011.881	1538.26
1012.173	1528.55
1012.466	1518.83
1012.759	1519.73
1013.052	1538.04
1013.344	1494.88
1013.637	1490.58
1013.93	1474.99
1014.222	1446.74
1014.514	1479.74
1014.807	1454.88
1015.099	1460.98
1015.391	1457.36
1015.683	1410.36
1015.976	1425.95
1016.268	1430.47
1016.56	1395.44
1016.851	1383.69
1017.143	1379.17
1017.435	1396.8
1017.727	1380.98
1018.018	1351.15
1018.31	1367.65
1018.602	1338.5
1018.893	1311.15
1019.185	1324.48
1019.476	1327.65
1019.767	1326.29
1020.058	1308.44
1020.35	1301.66
1020.641	1275.45
1020.932	1291.94
1021.223	1289.46
1021.514	1246.07
1021.804	1264.15
1022.095	1255.11
1022.386	1240.19
1022.677	1244.71
1022.967	1214.21
1023.258	1219.4
1023.548	1222.57
1023.839	1182.57
1024.129	1192.51
1024.419	1173.53
1024.709	1165.62
1025	1173.98
1025.29	1149.8
1025.58	1176.01
1025.87	1136.47
1026.16	1110.93
1026.449	1147.99
1026.739	1114.55
1027.029	1109.58
1027.319	1131.72
1027.608	1107.99
1027.898	1107.54
1028.187	1093.3
1028.477	1117.94
1028.766	1082.23
1029.055	1065.06
1029.344	1069.8
1029.634	1060.54
1029.923	1078.16
1030.212	1036.13
1030.501	1050.82
1030.79	1050.37
1031.078	1028.22
1031.367	1019.41
1031.656	1025.51
1031.945	1026.64
1032.233	984.61
1032.522	987.32
1032.81	979.64
1033.099	961.78
1033.387	964.72
1033.675	965.17
1033.963	966.3
1034.251	978.96
1034.54	957.94
1034.828	939.86
1035.116	951.16
1035.403	915.68
1035.691	956.36
1035.979	924.04
1036.267	922.24
1036.554	886.76
1036.842	909.35
1037.129	912.07
1037.417	891.28
1037.704	877.27
1037.992	879.75
1038.279	898.51
1038.566	871.62
1038.853	871.62
1039.14	871.62
