Data from hue_60_FLMS001491_71.txt Node
Date: Mon Feb 06 15:17:53 GMT 2017
User: dcchb
Spectrometer: FLMS00149
Trigger mode: 0
Integration Time (sec): 2.000000E-2
Scans to average: 10
Electric dark correction enabled: true
Nonlinearity correction enabled: false
Boxcar width: 0
XAxis mode: Wavelengths
Number of Pixels in Spectrum: 2048
>>>>>Begin Spectral Data<<<<<
341.393	-12.4
341.776	-12.4
342.16	-12.4
342.543	-69.12
342.927	-67.99
343.31	-70.93
343.693	-56.24
344.077	-75.45
344.46	-60.08
344.843	-48.56
345.226	-22.57
345.61	-17.37
345.993	-22.57
346.376	-30.93
346.759	10.88
347.142	36.41
347.525	21.95
347.908	54.49
348.291	66.47
348.674	97.43
349.057	117.09
349.44	128.39
349.823	137.65
350.206	155.28
350.588	187.37
350.971	248.61
351.354	247.71
351.737	240.47
352.119	251.32
352.502	288.83
352.884	284.09
353.267	296.74
353.65	291.32
354.032	306.46
354.414	321.83
354.797	337.65
355.179	324.54
355.562	339
355.944	334.26
356.326	347.59
356.709	336.74
357.091	334.71
357.473	330.87
357.855	331.54
358.238	358.66
358.62	342.62
359.002	367.93
359.384	364.76
359.766	323.18
360.148	337.65
360.53	348.72
360.912	349.17
361.294	329.96
361.676	345.33
362.057	318.66
362.439	331.32
362.821	324.09
363.203	353.01
363.584	341.94
363.966	333.35
364.348	318.66
364.729	317.99
365.111	317.08
365.493	326.12
365.874	333.8
366.256	339.45
366.637	308.95
367.019	319.34
367.4	321.83
367.781	319.12
368.163	319.34
368.544	310.75
368.925	301.94
369.306	329.51
369.688	331.54
370.069	303.3
370.45	312.79
370.831	335.61
371.212	330.19
371.593	326.12
371.974	326.8
372.355	310.98
372.736	320.7
373.117	312.56
373.498	322.05
373.879	320.47
374.26	332
374.641	331.32
375.021	328.83
375.402	336.52
375.783	321.6
376.163	308.72
376.544	323.86
376.925	329.06
377.305	337.42
377.686	334.03
378.066	340.58
378.447	323.41
378.827	320.7
379.208	349.62
379.588	330.42
379.968	345.78
380.349	335.39
380.729	323.64
381.109	343.75
381.489	364.76
381.87	342.62
382.25	350.75
382.63	354.6
383.01	353.92
383.39	344.88
383.77	327.48
384.15	359.34
384.53	336.29
384.91	335.61
385.29	342.17
385.67	352.56
386.049	352.11
386.429	335.39
386.809	346.91
387.189	381.04
387.568	367.25
387.948	357.53
388.328	356.18
388.707	362.96
389.087	360.02
389.466	354.37
389.846	377.19
390.225	361.83
390.605	365.22
390.984	362.05
391.363	389.4
391.743	378.55
392.122	358.21
392.501	377.65
392.881	365.89
393.26	374.93
393.639	386.68
394.018	382.62
394.397	370.64
394.776	383.97
395.155	389.17
395.534	395.27
395.913	362.96
396.292	370.64
396.671	381.71
397.05	363.86
397.429	374.71
397.808	373.13
398.186	391.88
398.565	398.44
398.944	399.34
399.323	368.83
399.701	407.02
400.08	375.61
400.458	404.09
400.837	393.92
401.215	413.35
401.594	402.05
401.972	405.67
402.351	406.12
402.729	414.03
403.107	391.2
403.486	408.61
403.864	421.26
404.242	388.72
404.62	390.3
404.999	422.39
405.377	413.8
405.755	438.66
406.133	426.01
406.511	419.23
406.889	420.36
407.267	444.99
407.645	423.29
408.023	440.47
408.401	414.93
408.779	429.62
409.156	447.7
409.534	429.85
409.912	442.5
410.29	434.14
410.667	465.78
411.045	448.83
411.422	455.38
411.8	456.06
412.178	470.3
412.555	484.99
412.933	493.57
413.31	491.77
413.687	453.35
414.065	482.95
414.442	474.37
414.819	473.01
415.197	502.16
415.574	496.51
415.951	502.39
416.328	486.8
416.705	499.45
417.082	491.99
417.46	508.72
417.837	514.59
418.214	508.94
418.591	520.47
418.967	533.35
419.344	504.65
419.721	516.85
420.098	513.46
420.475	536.51
420.852	509.85
421.228	503.29
421.605	544.65
421.982	510.98
422.358	534.7
422.735	523.4
423.111	557.75
423.488	544.65
423.864	539.45
424.241	560.69
424.617	559.34
424.994	557.3
425.37	567.92
425.746	558.21
426.123	574.48
426.499	562.27
426.875	558.88
427.251	567.7
427.627	598.88
428.003	604.98
428.379	573.35
428.756	593.46
429.132	623.29
429.507	604.76
429.883	595.04
430.259	593.91
430.635	620.12
431.011	607.7
431.387	613.8
431.763	636.17
432.138	653.57
432.514	650.86
432.89	640.46
433.265	627.81
433.641	669.62
434.016	653.57
434.392	682.27
434.767	670.29
435.143	666.23
435.518	677.3
435.894	684.53
436.269	709.39
436.644	701.48
437.02	687.69
437.395	688.82
437.77	669.39
438.145	706.45
438.52	730.63
438.895	734.7
439.271	736.96
439.646	717.07
440.021	716.85
440.395	739.9
440.77	730.63
441.145	755.26
441.52	765.88
441.895	754.81
442.27	769.5
442.645	770.63
443.019	770.18
443.394	777.63
443.769	761.36
444.143	762.49
444.518	790.06
444.892	764.3
445.267	793.91
445.641	811.76
446.016	807.01
446.39	785.54
446.764	796.84
447.139	818.09
447.513	824.87
447.887	813.79
448.262	822.61
448.636	828.48
449.01	830.51
449.384	844.53
449.758	852.44
450.132	845.2
450.506	835.26
450.88	867.8
451.254	846.33
451.628	847.69
452.002	880.46
452.376	879.33
452.75	864.64
453.123	911.19
453.497	913.9
453.871	907.35
454.244	932.89
454.618	931.08
454.992	939.44
455.365	947.35
455.739	972.43
456.112	973.56
456.486	936.73
456.859	981.02
457.232	1015.37
457.606	997.52
457.979	990.51
458.352	1013.79
458.725	1048.59
459.099	1043.39
459.472	1026.89
459.845	1074.8
460.218	1061.02
460.591	1081.36
460.964	1106.89
461.337	1154.57
461.71	1149.83
462.083	1166.1
462.456	1150.51
462.829	1161.81
463.201	1183.5
463.574	1162.26
463.947	1198.19
464.32	1188.7
464.692	1233.44
465.065	1247.68
465.438	1244.74
465.81	1294.46
466.183	1292.88
466.555	1334.23
466.928	1332.65
467.3	1328.13
467.672	1384.17
468.045	1366.09
468.417	1412.19
468.789	1425.08
469.161	1446.09
469.534	1453.78
469.906	1490.16
470.278	1520.21
470.65	1545.98
471.022	1562.47
471.394	1629.36
471.766	1654.9
472.138	1678.18
472.51	1711.17
472.882	1741.9
473.253	1783.94
473.625	1807.66
473.997	1863.71
474.369	1841.11
474.74	1906.19
475.112	1958.85
475.484	2022.8
475.855	2086.75
476.227	2075.23
476.598	2182.8
476.97	2210.59
477.341	2274.09
477.713	2349.57
478.084	2400.64
478.455	2492.39
478.827	2517.25
479.198	2640.18
479.569	2694.65
479.94	2775.32
480.311	2813.74
480.682	2880.63
481.053	2985.26
481.424	3094.86
481.795	3168.76
482.166	3251.92
482.537	3312.03
482.908	3456.89
483.279	3554.74
483.65	3646.26
484.021	3759.93
484.391	3875.18
484.762	3986.14
485.133	4040.83
485.503	4180.94
485.874	4304.32
486.244	4363.76
486.615	4552.9
486.985	4693.92
487.356	4792.9
487.726	4906.11
488.097	5090.74
488.467	5145.88
488.837	5325.54
489.207	5472.88
489.578	5609.15
489.948	5777.05
490.318	5936.37
490.688	6025.18
491.058	6197.83
491.428	6380.65
491.798	6537.26
492.168	6704.48
492.538	6761.21
492.908	6954.2
493.278	7154.64
493.648	7331.81
494.017	7473.96
494.387	7597.12
494.757	7802.08
495.126	7984.23
495.496	8115.07
495.866	8236.2
496.235	8455.17
496.605	8592.57
496.974	8726.35
497.344	8867.59
497.713	9064.87
498.082	9100.13
498.452	9364.75
498.821	9513
499.19	9650.62
499.559	9882.48
499.928	9933.55
500.298	10165.86
500.667	10318.18
501.036	10409.7
501.405	10550.49
501.774	10709.8
502.143	10810.37
502.512	10967.65
502.88	11205.16
503.249	11198.15
503.618	11485.15
503.987	11563.57
504.356	11763.56
504.724	11844.69
505.093	12016.44
505.462	12154.28
505.83	12295.07
506.199	12409.42
506.567	12725.8
506.936	12715.17
507.304	12950.87
507.672	13069.06
508.041	13154.94
508.409	13329.17
508.777	13466.57
509.145	13653.91
509.514	13753.11
509.882	13865.43
510.25	14024.97
510.618	14191.97
510.986	14247.11
511.354	14446.88
511.722	14624.05
512.09	14819.3
512.458	14899.3
512.826	15024.27
513.193	15126.18
513.561	15217.71
513.929	15426.52
514.297	15609.56
514.664	15671.93
515.032	15843.23
515.4	16017.46
515.767	16153.73
516.135	16315.76
516.502	16223.56
516.869	16613.38
517.237	16685.01
517.604	16683.21
517.972	16890.88
518.339	17038.45
518.706	17152.35
519.073	17222.63
519.44	17448.61
519.808	17643.63
520.175	17729.96
520.542	17959.56
520.909	18164.07
521.276	18047.24
521.643	18327.68
522.009	18463.5
522.376	18630.95
522.743	18677.73
523.11	18943.48
523.477	19075.68
523.843	19239.97
524.21	19403.81
524.577	19549.57
524.943	19660.3
525.31	19880.41
525.676	20074.75
526.043	20187.75
526.409	20346.84
526.776	20602.65
527.142	20581.41
527.508	20773.72
527.874	20828.63
528.241	21011.91
528.607	21107.27
528.973	21367.6
529.339	21353.82
529.705	21557.88
530.071	21688.5
530.437	21822.73
530.803	22051.88
531.169	22141.59
531.535	22113.12
531.901	22202.16
532.267	22430.62
532.632	22525.09
532.998	22629.26
533.364	22761.92
533.73	22772.99
534.095	22974.11
534.461	23104.28
534.826	23210.49
535.192	23166.2
535.557	23480.99
535.923	23455
536.288	23527.55
536.653	23706.75
537.019	23768.89
537.384	23822.68
537.749	23869.01
538.114	24066.97
538.479	24051.37
538.845	24247.3
539.21	24111.48
539.575	24221.76
539.94	24438.71
540.305	24537.24
540.67	24422.44
541.034	24668.08
541.399	24761.64
541.764	24836.89
542.129	24984.91
542.494	25016.32
542.858	25080.27
543.223	25081.63
543.587	25281.17
543.952	25297.67
544.316	25478.68
544.681	25448.85
545.045	25544.67
545.41	25670.54
545.774	25760.03
546.138	25759.8
546.503	25867.6
546.867	25838.22
547.231	26179.23
547.595	26153.69
547.959	26246.12
548.324	26260.81
548.688	26326.34
549.052	26340.13
549.416	26596.84
549.779	26566.34
550.143	26710.96
550.507	26826.44
550.871	26999.54
551.235	26884.97
551.599	27064.4
551.962	27032.76
552.326	27253.55
552.689	27468.91
553.053	27368.8
553.417	27479.53
553.78	27816.7
554.143	27734.21
554.507	27985.96
554.87	27865.74
555.234	28148.67
555.597	28010.37
555.96	28227.08
556.323	28322.45
556.686	28370.13
557.05	28602.44
557.413	28554.76
557.776	28678.37
558.139	28886.95
558.502	28946.84
558.865	29069.55
559.228	29229.77
559.59	29305.47
559.953	29352.48
560.316	29698.23
560.679	29735.52
561.041	29905.68
561.404	29876.08
561.767	30176.86
562.129	30208.5
562.492	30448.95
562.854	30431.77
563.217	30391.77
563.579	30617.75
563.941	30778.43
564.304	30989.5
564.666	31225.2
565.028	31323.95
565.39	31312.43
565.753	31541.57
566.115	31530.95
566.477	31735.24
566.839	31843.71
567.201	32072.41
567.563	32041.67
567.925	32316.69
568.287	32329.12
568.648	32390.14
569.01	32643.01
569.372	32723.24
569.734	32608.89
570.095	32866.73
570.457	32988.99
570.819	33047.52
571.18	33167.52
571.542	33289.55
571.903	33416.78
572.265	33605.92
572.626	33626.49
572.987	33678.46
573.349	33867.16
573.71	33908.06
574.071	34037.33
574.432	34292.01
574.794	34373.36
575.155	34250.65
575.516	34229.41
575.877	34324.1
576.238	34572.45
576.599	34731.54
576.96	34750.98
577.32	34747.82
577.681	34700.36
578.042	34990.52
578.403	35031.2
578.763	35016.06
579.124	35124.53
579.485	35211.53
579.845	35363.39
580.206	35222.83
580.566	35237.97
580.927	35263.06
581.287	35394.58
581.648	35332.21
582.008	35436.16
582.368	35485.87
582.728	35591.41
583.089	35611.07
583.449	35522.71
583.809	35523.84
584.169	35705.53
584.529	35600.67
584.889	35844.06
585.249	35637.28
585.609	35656.72
585.969	35761.57
586.329	35631.86
586.688	35689.94
587.048	35712.99
587.408	35689.26
587.768	35820.1
588.127	35786.21
588.487	35744.63
588.846	36022.81
589.206	35685.19
589.565	35846.32
589.925	36002.92
590.284	35896.26
590.643	35905.98
591.003	36083.83
591.362	36144.16
591.721	36031.17
592.08	36006.54
592.44	36168.12
592.799	36143.26
593.158	36087.44
593.517	36202.24
593.876	36186.65
594.235	36165.18
594.593	36198.85
594.952	36319.07
595.311	36191.39
595.67	36214.9
596.029	36449.92
596.387	36457.37
596.746	36572.63
597.104	36469.58
597.463	36420.99
597.822	36693.07
598.18	36531.27
598.538	36486.98
598.897	36692.17
599.255	36481.33
599.613	36994.99
599.972	36673.64
600.33	36745.95
600.688	36741.89
601.046	36736.92
601.404	36942.79
601.762	36853.52
602.12	37045.61
602.478	37024.14
602.836	37069.56
603.194	36941.66
603.552	36995.67
603.91	36915.22
604.268	37133.97
604.625	36947.76
604.983	37287.64
605.341	37087.87
605.698	37251.48
606.056	37272.27
606.413	37406.73
606.771	37566.27
607.128	37638.36
607.485	37496.67
607.843	37592.94
608.2	37658.25
608.557	37853.27
608.914	37763.33
609.272	37901.86
609.629	38029.54
609.986	38064.79
610.343	37945.47
610.7	38244.67
611.057	38202.19
611.414	38144.79
611.771	38205.58
612.127	38382.3
612.484	38473.37
612.841	38469.3
613.198	38459.36
613.554	38481.95
613.911	38631.1
614.267	38603.31
614.624	38678.33
614.98	38719.24
615.337	38937.54
615.693	38832.23
616.05	38869.29
616.406	39140.92
616.762	38904.99
617.118	39084.42
617.475	39068.61
617.831	39216.4
618.187	39352.21
618.543	39285.55
618.899	39491.65
619.255	39401.25
619.611	39395.6
619.967	39524.86
620.323	39603.28
620.678	39511.76
621.034	39485.09
621.39	39379.11
621.746	39565.32
622.101	39910.84
622.457	39598.99
622.812	39677.4
623.168	39722.83
623.523	39774.35
623.879	39912.43
624.234	39685.09
624.589	39926.89
624.945	39822.94
625.3	39926.44
625.655	39830.17
626.01	39916.72
626.365	40076.49
626.72	40000.56
627.075	39992.2
627.43	40035.13
627.785	39880.56
628.14	39987.45
628.495	40052.99
628.85	40133.44
629.205	39889.83
629.559	40211.85
629.914	39984.74
630.269	40074.45
630.623	40090.5
630.978	40108.13
631.332	40133.89
631.687	40164.62
632.041	39935.7
632.396	40102.48
632.75	40031.74
633.104	39937.28
633.459	39776.38
633.813	39796.5
634.167	39730.73
634.521	39844.63
634.875	39843.27
635.229	39828.13
635.583	39708.36
635.937	39580.46
636.291	39714.69
636.645	39726.44
636.999	39569.84
637.352	39660
637.706	39408.94
638.06	39554.69
638.413	39436.28
638.767	39414.81
639.121	39557.41
639.474	39346.56
639.828	39372.1
640.181	39346.79
640.534	39323.97
640.888	39296.62
641.241	39216.17
641.594	39273.12
641.947	39461.36
642.301	39150.86
642.654	39261.82
643.007	39293.01
643.36	39237.87
643.713	39047.14
644.066	39160.35
644.419	39105.67
644.771	38903.86
645.124	38468.85
645.477	38380.94
645.83	38180.27
646.182	38124.9
646.535	37774.63
646.888	37987.5
647.24	37812.82
647.593	37972.36
647.945	37695.08
648.298	37716.32
648.65	37619.6
649.002	37574.86
649.355	37705.7
649.707	37783.44
650.059	37826.38
650.411	38278.12
650.763	38248.97
651.115	38767.82
651.467	38503.65
651.819	38539.58
652.171	38375.06
652.523	38347.27
652.875	38519.02
653.227	38368.74
653.578	38692.57
653.93	38539.35
654.282	38291
654.633	38121.51
654.985	38195.18
655.337	38198.8
655.688	38232.47
656.039	38329.42
656.391	37968.3
656.742	38070.67
657.094	38090.78
657.445	38299.13
657.796	38017.56
658.147	38184.33
658.498	38008.29
658.849	38187.72
659.2	37993.83
659.551	37945.47
659.902	38077.9
660.253	38026.82
660.604	38050.55
660.955	37825.25
661.306	38022.31
661.656	37910.22
662.007	37916.55
662.358	37944.34
662.708	37909.99
663.059	37979.37
663.409	37715.19
663.76	38047.16
664.11	37835.19
664.461	37912.93
664.811	37889.43
665.161	37965.81
665.511	37761.75
665.862	37867.28
666.212	38021.18
666.562	38000.39
666.912	37921.29
667.262	37835.64
667.612	37930.1
667.962	37838.81
668.312	37750
668.662	37896.66
669.011	37821.18
669.361	37728.3
669.711	37732.14
670.06	37665.48
670.41	37734.18
670.76	37537.8
671.109	37616.44
671.459	37601.3
671.808	37582.54
672.157	37803.33
672.507	37371.47
672.856	37583.9
673.205	37575.99
673.554	37647.63
673.904	37492.83
674.253	37762.88
674.602	37520.85
674.951	37007.42
675.3	36750.25
675.649	37364.92
675.998	37312.95
676.346	37446.05
676.695	37549.55
677.044	37193.4
677.393	37356.56
677.741	37320.63
678.09	37350.23
678.438	37153.18
678.787	37286.73
679.135	37345.26
679.484	36980.98
679.832	37174.64
680.181	36801.32
680.529	37047.87
680.877	36913.18
681.225	36947.98
681.573	36989.79
681.922	36872.28
682.27	36682.45
682.618	36707.54
682.966	36648.56
683.314	36734.2
683.661	36544.38
684.009	36382.8
684.357	36422.57
684.705	36215.57
685.053	36335.57
685.4	36216.48
685.748	36093.77
686.095	36073.43
686.443	35954.11
686.79	35882.7
687.138	35894.45
687.485	36065.29
687.832	35891.97
688.18	35730.39
688.527	35671.86
688.874	35649.26
689.221	35635.25
689.568	35506.44
689.915	35449.04
690.262	35437.29
690.609	35289.72
690.956	35222.15
691.303	35109.39
691.65	35019.45
691.997	35084.76
692.344	34845.21
692.69	34801.83
693.037	34881.14
693.383	34666.69
693.73	34642.06
694.077	34517.99
694.423	34435.96
694.769	34390.76
695.116	34252.01
695.462	34191.67
695.808	34247.04
696.155	34294.27
696.501	33892.7
696.847	33901.06
697.193	33704.68
697.539	33832.58
697.885	33653.15
698.231	33572.03
698.577	33541.97
698.923	33392.14
699.269	33296.1
699.614	33001.87
699.96	33223.11
700.306	33101.98
700.651	32939.73
700.997	32756
701.342	32670.36
701.688	32747.64
702.033	32624.71
702.379	32629.9
702.724	32464.71
703.069	32682.11
703.415	32223.14
703.76	32185.85
704.105	32127.55
704.45	32272.17
704.795	31911.51
705.14	31977.72
705.485	31804.84
705.83	31789.02
706.175	31766.65
706.52	31471.29
706.865	31586.99
707.209	31425.87
707.554	31365.31
707.899	31442.37
708.243	31314.01
708.588	31236.72
708.932	31080.57
709.277	30989.72
709.621	31187
709.966	30933.9
710.31	30947.69
710.654	30699.56
710.998	30737.53
711.342	30791.76
711.687	30599.68
712.031	30508.6
712.375	30280.14
712.719	30454.82
713.063	30428.83
713.407	30537.3
713.75	30462.28
714.094	30252.57
714.438	30136.41
714.782	30149.07
715.125	30032.23
715.469	30078.11
715.812	29920.15
716.156	29807.61
716.499	29799.92
716.843	29871.79
717.186	29573.26
717.53	29817.1
717.873	29845.8
718.216	29663.88
718.559	29425.24
718.902	29253.27
719.246	29297.11
719.589	29234.51
719.932	29024.12
720.275	29207.85
720.617	29153.16
720.96	29034.07
721.303	28998.14
721.646	28972.15
721.989	28800.4
722.331	28972.6
722.674	28863
723.016	28777.35
723.359	28814.64
723.701	28714.98
724.044	28575.55
724.386	28384.59
724.729	28645.6
725.071	28555.44
725.413	28494.65
725.755	28451.26
726.097	28221.89
726.439	28191.6
726.782	28239.74
727.124	28412.61
727.465	28185.28
727.807	28275.89
728.149	28218.27
728.491	28138.27
728.833	28125.62
729.175	27945.06
729.516	27853.99
729.858	27887.2
730.199	28001.1
730.541	27764.04
730.882	27700.09
731.224	27892.63
731.565	27591.62
731.906	27662.58
732.248	27653.09
732.589	27568.57
732.93	27413.54
733.271	27441.79
733.612	27474.33
733.953	27549.13
734.294	27411.06
734.635	27185.53
734.976	27311.17
735.317	27110.05
735.658	27128.13
735.999	27213.1
736.339	27178.97
736.68	27102.14
737.021	26982.6
737.361	26860.79
737.702	27100.11
738.042	26918.42
738.383	26830.74
738.723	26913.9
739.063	26708.48
739.404	26923.84
739.744	26823.05
740.084	26674.81
740.424	26626.45
740.764	26594.58
741.104	26774.01
741.444	26522.95
741.784	26424.87
742.124	26498.09
742.464	26472.55
742.804	26363.4
743.143	26300.58
743.483	26335.83
743.823	26190.07
744.162	26119.57
744.502	26349.39
744.841	26179.9
745.181	26216.29
745.52	25930.42
745.86	25959.57
746.199	25938.56
746.538	25877.31
746.877	25990.53
747.216	25978.78
747.556	25899.91
747.895	25944.88
748.234	25637.77
748.573	25728.62
748.911	25678.68
749.25	25663.53
749.589	25532.92
749.928	25667.6
750.267	25559.36
750.605	25445.01
750.944	25430.32
751.283	25350.77
751.621	25398.68
751.96	25228.07
752.298	25288.85
752.636	25166.6
752.975	25099.26
753.313	25022.2
753.651	24977.45
753.989	24966.6
754.327	24905.14
754.666	24731.81
755.004	24723.67
755.342	24816.78
755.679	24655.2
756.017	24556.9
756.355	24635.09
756.693	24483.68
757.031	24571.36
757.368	24387.18
757.706	24372.72
758.044	24323.91
758.381	24264.93
758.719	24278.26
759.056	24234.87
759.394	24133.18
759.731	23892.51
760.068	23940.19
760.405	23873.98
760.743	23710.37
761.08	23874.2
761.417	23603.02
761.754	23557.15
762.091	23541.56
762.428	23493.2
762.765	23284.84
763.102	23521.67
763.438	23303.6
763.775	23177.95
764.112	23177.27
764.449	23175.24
764.785	23045.75
765.122	22782.71
765.458	22845.98
765.795	22798.52
766.131	22851.63
766.467	22691.18
766.804	22633.11
767.14	22477.18
767.476	22397.86
767.812	22454.13
768.148	22389.72
768.485	22138.88
768.821	22155.38
769.157	22044.42
769.492	22016.4
769.828	21965.33
770.164	21745.9
770.5	21742.06
770.836	21673.58
771.171	21558.78
771.507	21609.63
771.842	21438.79
772.178	21453.48
772.513	21308.17
772.849	21328.28
773.184	21115.63
773.519	21225.23
773.855	21132.58
774.19	20999.02
774.525	20959.93
774.86	20951.12
775.195	20823.66
775.53	20793.15
775.865	20660.95
776.2	20421.41
776.535	20385.25
776.87	20376.67
777.205	20280.17
777.539	20199.72
777.874	20295.77
778.209	20036.56
778.543	20032.72
778.878	19943.68
779.212	19833.18
779.547	19733.52
779.881	19789.56
780.215	19671.38
780.55	19588.67
780.884	19563.81
781.218	19460.53
781.552	19469.12
781.886	19298.73
782.22	19201.78
782.554	19198.39
782.888	19019.87
783.222	18977.83
783.556	18790.27
783.889	18837.95
784.223	18765.86
784.557	18709.59
784.89	18776.03
785.224	18595.02
785.557	18546.21
785.891	18407.23
786.224	18450.39
786.558	18378.98
786.891	18322.48
787.224	18185.54
787.557	18135.82
787.891	18096.28
788.224	18015.37
788.557	17985.54
788.89	17968.37
789.223	17901.03
789.556	17708.04
789.888	17762.95
790.221	17656.74
790.554	17570.19
790.887	17526.12
791.219	17490.19
791.552	17389.18
791.884	17374.03
792.217	17316.41
792.549	17193.93
792.882	17178.79
793.214	17090.88
793.546	17120.71
793.879	16995.06
794.211	16917.55
794.543	16964.78
794.875	16873.03
795.207	16902.18
795.539	16745.35
795.871	16699.25
796.203	16583.32
796.535	16500.61
796.867	16458.58
797.198	16481.85
797.53	16434.85
797.862	16300.39
798.193	16361.86
798.525	16148.76
798.856	16213.39
799.188	16048.87
799.519	15971.59
799.85	16012.04
800.182	15899.5
800.513	15918.93
800.844	15767.52
801.175	15827.86
801.506	15850.46
801.837	15778.37
802.168	15735.43
802.499	15616.11
802.83	15571.6
803.161	15552.61
803.491	15587.42
803.822	15552.61
804.153	15465.38
804.483	15369.57
804.814	15274.2
805.145	15268.1
805.475	15219.06
805.805	15144.26
806.136	15128.22
806.466	15083.93
806.796	15088.67
807.126	14961.89
807.457	14950.14
807.787	14848
808.117	14817.49
808.447	14851.62
808.777	14882.8
809.107	14787.66
809.436	14730.04
809.766	14678.51
810.096	14634.67
810.426	14606.65
810.755	14596.25
811.085	14549.48
811.414	14411.63
811.744	14356.03
812.073	14362.81
812.403	14260.44
812.732	14194.23
813.061	14272.2
813.39	14223.38
813.719	14121.92
814.049	14213.67
814.378	14152.65
814.707	14108.81
815.036	14090.51
815.365	14024.97
815.693	13869.72
816.022	13844.41
816.351	13787.46
816.68	13774.36
817.008	13807.35
817.337	13737.52
817.665	13643.74
817.994	13696.62
818.322	13683.28
818.651	13591.99
818.979	13587.02
819.307	13580.46
819.636	13592.89
819.964	13487.81
820.292	13560.35
820.62	13510.41
820.948	13380.24
821.276	13503.4
821.604	13471.31
821.932	13467.92
822.259	13526.9
822.587	13403.07
822.915	13402.84
823.243	13406.23
823.57	13373.24
823.898	13448.49
824.225	13382.05
824.553	13384.99
824.88	13328.27
825.207	13417.3
825.535	13354.48
825.862	13355.61
826.189	13366.46
826.516	13385.44
826.843	13453.91
827.17	13420.69
827.497	13400.35
827.824	13384.54
828.151	13405.55
828.478	13373.46
828.805	13356.97
829.131	13285.33
829.458	13395.16
829.785	13255.5
830.111	13298.44
830.438	13365.33
830.764	13339.11
831.09	13375.27
831.417	13329.4
831.743	13321.94
832.069	13375.27
832.395	13232
832.722	13300.02
833.048	13196.52
833.374	13231.77
833.7	13184.31
834.026	13185.22
834.351	13274.03
834.677	13243.75
835.003	13170.76
835.329	13158.55
835.654	13153.13
835.98	13149.74
836.306	13079.23
836.631	13006.01
836.956	13109.29
837.282	13104.99
837.607	13039.91
837.932	12957.2
838.258	13020.02
838.583	12963.3
838.908	12901.61
839.233	12928.28
839.558	12845.79
839.883	12803.76
840.208	12846.24
840.533	12823.65
840.858	12847.83
841.182	12803.08
841.507	12795.62
841.832	12760.37
842.156	12691.45
842.481	12716.98
842.805	12638.79
843.13	12583.65
843.454	12499.13
843.778	12487.38
844.103	12458.01
844.427	12467.27
844.751	12457.33
845.075	12491.45
845.399	12375.07
845.723	12295.3
846.047	12309.08
846.371	12183.89
846.695	12251.23
847.019	12154.28
847.343	12049.43
847.666	12039.26
847.99	11985.25
848.313	11939.6
848.637	11881.07
848.96	11901.18
849.284	11870.68
849.607	11758.14
849.931	11741.41
850.254	11598.37
850.577	11660.96
850.9	11472.49
851.223	11542.55
851.546	11441.54
851.869	11341.2
852.192	11368.09
852.515	11348.66
852.838	11236.34
853.161	11289.22
853.483	11232.95
853.806	11185.27
854.129	11187.08
854.451	11089.91
854.774	11106.85
855.096	11025.5
855.419	10957.25
855.741	10960.42
856.063	10938.27
856.385	10924.03
856.708	10870.48
857.03	10836.35
857.352	10836.81
857.674	10791.38
857.996	10699.63
858.318	10695.34
858.64	10657.83
858.961	10683.14
859.283	10611.5
859.605	10585.51
859.926	10571.73
860.248	10545.29
860.57	10514.33
860.891	10529.69
861.212	10460.54
861.534	10432.75
861.855	10357.27
862.176	10405.18
862.498	10376.25
862.819	10391.85
863.14	10352.98
863.461	10294.45
863.782	10245.41
864.103	10278.18
864.424	10184.39
864.745	10228.69
865.065	10289.02
865.386	10250.83
865.707	10125.41
866.027	10141.23
866.348	10173.77
866.668	10134.68
866.989	10079.76
867.309	10060.33
867.63	10085.64
867.95	10049.26
868.27	9992.53
868.59	10002.93
868.91	10052.65
869.23	10005.64
869.55	9837.28
869.87	9947.79
870.19	9939.2
870.51	9941.69
870.83	9937.62
871.15	9841.58
871.469	9862.37
871.789	9825.98
872.109	9816.95
872.428	9815.14
872.748	9706.89
873.067	9733.33
873.386	9780.11
873.706	9725.87
874.025	9689.94
874.344	9691.75
874.663	9691.52
874.982	9641.81
875.301	9706.21
875.62	9601.81
875.939	9553.68
876.258	9579.66
876.577	9551.42
876.896	9553.9
877.214	9513.22
877.533	9497.86
877.852	9496.73
878.17	9482.49
878.489	9488.14
878.807	9485.2
879.125	9432.55
879.444	9457.86
879.762	9449.27
880.08	9407.46
880.398	9382.83
880.716	9402.94
881.034	9338.77
881.352	9322.27
881.67	9296.28
881.988	9385.54
882.306	9289.05
882.624	9155.04
882.941	9277.3
883.259	9207.24
883.577	9222.38
883.894	9163.63
884.212	9151.65
884.529	9130.18
884.846	9044.76
885.164	9071.65
885.481	9053.8
885.798	9054.71
886.115	8996.4
886.432	9042.73
886.75	8968.38
887.067	8992.79
887.383	8974.48
887.7	8948.95
888.017	8876.86
888.334	8874.15
888.651	8847.03
888.967	8844.54
889.284	8840.93
889.6	8787.14
889.917	8739.23
890.233	8749.4
890.55	8687.94
890.866	8652
891.182	8638.67
891.498	8663.53
891.815	8527.49
892.131	8602.51
892.447	8579.92
892.763	8500.82
893.079	8570.65
893.395	8466.7
893.71	8376.98
894.026	8467.38
894.342	8428.51
894.657	8355.74
894.973	8351
895.289	8287.95
895.604	8339.24
895.92	8296.76
896.235	8275.97
896.55	8227.61
896.865	8237.78
897.181	8175.63
897.496	8161.17
897.811	8122.98
898.126	8099.48
898.441	8018.12
898.756	8093.37
899.071	8010.44
899.386	7984.23
899.7	7978.8
900.015	7848.86
900.33	7792.37
900.644	7844.57
900.959	7866.04
901.273	7783.78
901.588	7816.55
901.902	7730.9
902.216	7703.1
902.531	7664.91
902.845	7633.05
903.159	7625.59
903.473	7592.37
903.787	7533.39
904.101	7526.84
904.415	7546.72
904.729	7488.87
905.042	7478.7
905.356	7499.94
905.67	7456.56
905.984	7359.61
906.297	7380.4
906.611	7301.53
906.924	7288.42
907.237	7268.99
907.551	7218.6
907.864	7230.35
908.177	7216.79
908.491	7165.72
908.804	7163
909.117	7115.77
909.43	7041.65
909.743	7029
910.056	7036.68
910.368	6957.59
910.681	6927.76
910.994	6944.48
911.307	6882.79
911.619	6855.89
911.932	6840.07
912.244	6842.79
912.557	6836.01
912.869	6791.26
913.181	6731.6
913.494	6708.78
913.806	6680.08
914.118	6624.49
914.43	6608.22
914.742	6611.83
915.054	6537.71
915.366	6509.01
915.678	6533.87
915.99	6486.64
916.302	6419.75
916.613	6389.46
916.925	6433.98
917.236	6414.1
917.548	6350.82
917.859	6310.6
918.171	6275.12
918.482	6217.94
918.794	6241.45
919.105	6216.81
919.416	6218.4
919.727	6196.25
920.038	6135.69
920.349	6118.74
920.66	6059.3
920.971	6084.61
921.282	6053.65
921.593	6038.06
921.903	5968.01
922.214	5941.11
922.525	5961
922.835	5906.54
923.146	5913.09
923.456	5884.62
923.767	5829.48
924.077	5847.11
924.387	5802.81
924.697	5793.55
925.008	5816.82
925.318	5678.75
925.628	5704.51
925.938	5724.4
926.248	5619.99
926.558	5617.28
926.867	5617.51
927.177	5593.55
927.487	5588.81
927.796	5489.83
928.106	5575.25
928.416	5457.29
928.725	5445.99
929.034	5452.31
929.344	5447.57
929.653	5408.47
929.962	5394.01
930.271	5365.08
930.581	5333.67
930.89	5289.15
931.199	5310.4
931.508	5236.05
931.817	5225.43
932.125	5269.04
932.434	5247.12
932.743	5204.86
933.051	5155.37
933.36	5164.41
933.669	5081.02
933.977	5054.81
934.286	5029.27
934.594	5047.13
934.902	5062.04
935.21	4981.37
935.519	4952.44
935.827	4999.9
936.135	4935.04
936.443	4898.66
936.751	4878.32
937.059	4872.22
937.367	4845.55
937.674	4820.01
937.982	4842.61
938.29	4779.79
938.597	4790.64
938.905	4775.95
939.213	4769.17
939.52	4687.81
939.827	4710.41
940.135	4679.91
940.442	4675.39
940.749	4625.44
941.056	4640.13
941.363	4551.55
941.67	4580.02
941.977	4511.32
942.284	4554.48
942.591	4541.38
942.898	4499.34
943.205	4481.94
943.511	4414.6
943.818	4474.71
944.125	4388.16
944.431	4406.92
944.738	4378.22
945.044	4394.04
945.35	4348.16
945.657	4335.28
945.963	4356.98
946.269	4305
946.575	4282.18
946.881	4263.42
947.187	4300.48
947.493	4245.57
947.799	4217.09
948.105	4178.68
948.41	4135.96
948.716	4159.69
949.022	4139.13
949.327	4110.2
949.633	4079.02
949.938	4086.7
950.244	4064.1
950.549	4056.87
950.854	4017.1
951.16	4053.93
951.465	3999.92
951.77	3982.07
952.075	3938.68
952.38	3971.68
952.685	3935.52
952.99	3888.74
953.294	3928.96
953.599	3887.61
953.904	3887.16
954.209	3865.46
954.513	3858.46
954.818	3780.27
955.122	3775.75
955.426	3761.06
955.731	3738.69
956.035	3736.65
956.339	3729.2
956.643	3698.24
956.948	3677.45
957.252	3706.82
957.556	3677.9
957.86	3658.69
958.163	3660.27
958.467	3626.15
958.771	3638.12
959.075	3617.56
959.378	3517.45
959.682	3543.44
959.985	3550.67
960.289	3511.57
960.592	3529.43
960.896	3482.87
961.199	3493.27
961.502	3495.53
961.805	3468.41
962.108	3425.93
962.411	3386.38
962.714	3416.44
963.017	3366.27
963.32	3401.52
963.623	3407.62
963.926	3359.49
964.228	3327.62
964.531	3329.21
964.833	3320.39
965.136	3250.11
965.438	3270.9
965.741	3262.77
966.043	3267.74
966.345	3230.23
966.648	3243.56
966.95	3204.24
967.252	3191.58
967.554	3195.2
967.856	3140.74
968.158	3135.09
968.46	3170.34
968.761	3080.85
969.063	3108.65
969.365	3113.39
969.666	3066.39
969.968	3072.49
970.269	3065.26
970.571	3044.24
970.872	3024.58
971.174	3019.61
971.475	3001.53
971.776	3013.73
972.077	2954.3
972.378	2906.62
972.679	2965.6
972.98	2952.94
973.281	2882.21
973.582	2949.1
973.883	2906.62
974.183	2914.53
974.484	2869.56
974.785	2844.93
975.085	2868.43
975.386	2869.11
975.686	2837.02
975.986	2867.98
976.287	2798.37
976.587	2799.73
976.887	2766.51
977.187	2752.72
977.487	2720.63
977.787	2732.39
978.087	2719.05
978.387	2712.05
978.687	2685.16
978.987	2674.99
979.286	2671.14
979.586	2676.34
979.885	2632.5
980.185	2656.68
980.484	2634.99
980.784	2636.34
981.083	2607.64
981.382	2628.21
981.682	2602.67
981.981	2576.91
982.28	2576.68
982.579	2560.64
982.878	2558.61
983.177	2529.23
983.475	2547.76
983.774	2494.65
984.073	2486.52
984.372	2500.3
984.67	2496.69
984.969	2485.61
985.267	2497.14
985.566	2475.44
985.864	2450.59
986.162	2443.81
986.461	2396.12
986.759	2409.23
987.057	2396.8
987.355	2409.46
987.653	2358.84
987.951	2358.61
988.249	2342.57
988.547	2355.9
988.844	2370.81
989.142	2332.4
989.44	2311.83
989.737	2298.05
990.035	2306.86
990.332	2292.4
990.63	2297.82
990.927	2256.01
991.224	2276.58
991.521	2244.71
991.819	2260.08
992.116	2232.96
992.413	2203.81
992.71	2235.22
993.006	2197.03
993.303	2187.09
993.6	2176.92
993.897	2217.37
994.193	2135.11
994.49	2122.91
994.787	2131.27
995.083	2083.59
995.379	2121.78
995.676	2125.62
995.972	2107.09
996.268	2097.83
996.565	2083.14
996.861	2072.97
997.157	2054.21
997.453	2066.41
997.749	2049.01
998.044	2020.77
998.34	2025.96
998.636	2037.04
998.932	2032.97
999.227	2010.14
999.523	1999.98
999.818	1936.02
1000.114	1927.89
1000.409	1955.46
1000.704	1934.67
1001	1895.12
1001.295	1916.81
1001.59	1886.31
1001.885	1895.57
1002.18	1905.97
1002.475	1863.71
1002.77	1854.22
1003.065	1876.36
1003.359	1831.39
1003.654	1817.38
1003.949	1844.27
1004.243	1804.5
1004.538	1798.63
1004.832	1790.26
1005.127	1759.98
1005.421	1766.54
1005.715	1739.42
1006.009	1755.24
1006.304	1733.77
1006.598	1758.4
1006.892	1762.24
1007.186	1713.66
1007.48	1706.2
1007.773	1696.71
1008.067	1686.09
1008.361	1683.83
1008.655	1686.99
1008.948	1682.47
1009.242	1655.58
1009.535	1642.47
1009.829	1625.3
1010.122	1638.86
1010.415	1649.93
1010.708	1594.11
1011.001	1562.02
1011.295	1617.16
1011.588	1578.29
1011.881	1574.45
1012.173	1566.54
1012.466	1573.77
1012.759	1566.09
1013.052	1543.26
1013.344	1522.7
1013.637	1527.22
1013.93	1496.94
1014.222	1529.25
1014.514	1493.55
1014.807	1505.98
1015.099	1478.41
1015.391	1479.99
1015.683	1457.62
1015.976	1462.14
1016.268	1452.19
1016.56	1411.29
1016.851	1424.62
1017.143	1422.14
1017.435	1374.68
1017.727	1397.05
1018.018	1390.95
1018.31	1368.58
1018.602	1347.11
1018.893	1346.21
1019.185	1350.05
1019.476	1345.08
1019.767	1363.38
1020.058	1319.99
1020.35	1345.53
1020.641	1310.28
1020.932	1330.16
1021.223	1305.53
1021.514	1302.59
1021.804	1277.51
1022.095	1276.6
1022.386	1258.98
1022.677	1258.75
1022.967	1251.97
1023.258	1231.86
1023.548	1220.34
1023.839	1245.42
1024.129	1227.34
1024.419	1226.44
1024.709	1179.66
1025	1203.16
1025.29	1194.8
1025.58	1159.55
1025.87	1143.5
1026.16	1157.74
1026.449	1172.88
1026.739	1166.33
1027.029	1155.7
1027.319	1137.63
1027.608	1151.64
1027.898	1126.55
1028.187	1110.06
1028.477	1116.16
1028.766	1121.35
1029.055	1110.06
1029.344	1077.51
1029.634	1089.49
1029.923	1073.22
1030.212	1058.53
1030.501	1050.62
1030.79	1037.74
1031.078	1054.01
1031.367	1035.03
1031.656	1041.13
1031.945	1012.43
1032.233	1025.76
1032.522	1032.09
1032.81	1007.01
1033.099	1010.17
1033.387	1011.08
1033.675	995.48
1033.963	993.45
1034.251	961.81
1034.54	999.55
1034.828	955.03
1035.116	974.47
1035.403	967.46
1035.691	963.62
1035.979	963.17
1036.267	940.12
1036.554	934.92
1036.842	916.39
1037.129	940.12
1037.417	918.2
1037.704	912.09
1037.992	918.42
1038.279	882.94
1038.566	907.12
1038.853	907.12
1039.14	907.12
