Data from hue_50_FLMS001491_87.txt Node
Date: Mon Feb 06 15:11:10 GMT 2017
User: dcchb
Spectrometer: FLMS00149
Trigger mode: 0
Integration Time (sec): 2.000000E-2
Scans to average: 10
Electric dark correction enabled: true
Nonlinearity correction enabled: false
Boxcar width: 0
XAxis mode: Wavelengths
Number of Pixels in Spectrum: 2048
>>>>>Begin Spectral Data<<<<<
341.393	-26.47
341.776	-26.47
342.16	-26.47
342.543	-53.59
342.927	-54.04
343.31	-69.63
343.693	-62.85
344.077	-59.01
344.46	-63.76
344.843	-50.2
345.226	-48.61
345.61	-12.01
345.993	-16.52
346.376	-0.48
346.759	5.17
347.142	23.25
347.525	37.03
347.908	46.98
348.291	77.03
348.674	91.95
349.057	101.66
349.44	130.36
349.823	143.02
350.206	168.1
350.588	199.74
350.971	215.79
351.354	233.86
351.737	243.58
352.119	262.56
352.502	260.53
352.884	285.39
353.267	276.35
353.65	290.81
354.032	291.04
354.414	297.37
354.797	317.25
355.179	333.75
355.562	334.65
355.944	336.46
356.326	342.11
356.709	339.62
357.091	326.29
357.473	315.67
357.855	364.03
358.238	340.53
358.62	326.97
359.002	346.18
359.384	344.14
359.766	341.66
360.148	359.96
360.53	336.23
360.912	325.16
361.294	321.32
361.676	324.03
362.057	352.28
362.439	332.62
362.821	324.48
363.203	330.36
363.584	313.18
363.966	328.55
364.348	323.58
364.729	340.75
365.111	321.09
365.493	335.78
365.874	326.74
366.256	331.04
366.637	306.86
367.019	298.95
367.4	300.53
367.781	312.51
368.163	312.73
368.544	326.29
368.925	323.58
369.306	323.58
369.688	314.99
370.069	328.32
370.45	297.59
370.831	305.73
371.212	325.61
371.593	309.12
371.974	312.96
372.355	321.09
372.736	315.22
373.117	310.7
373.498	319.96
373.879	328.32
374.26	315.22
374.641	313.86
375.021	301.21
375.402	324.48
375.783	328.1
376.163	327.19
376.544	352.5
376.925	323.35
377.305	343.47
377.686	350.47
378.066	320.64
378.447	337.59
378.827	336.23
379.208	327.65
379.588	334.2
379.968	329
380.349	329.23
380.729	353.18
381.109	335.78
381.489	346.86
381.87	329.91
382.25	344.6
382.63	326.97
383.01	349.34
383.39	351.83
383.77	337.14
384.15	344.37
384.53	343.92
384.91	351.37
385.29	343.01
385.67	338.27
386.049	340.75
386.429	351.83
386.809	349.12
387.189	343.47
387.568	356.12
387.948	348.89
388.328	383.46
388.707	357.48
389.087	361.77
389.466	333.75
389.846	369.45
390.225	354.31
390.605	357.48
390.984	380.3
391.363	351.83
391.743	364.93
392.122	339.4
392.501	367.19
392.881	367.42
393.26	380.07
393.639	377.14
394.018	383.24
394.397	394.54
394.776	362
395.155	391.6
395.534	378.94
395.913	379.62
396.292	380.98
396.671	384.59
397.05	392.05
397.429	395.89
397.808	394.76
398.186	383.69
398.565	382.79
398.944	383.24
399.323	395.67
399.701	385.05
400.08	399.96
400.458	413.07
400.837	417.81
401.215	401.77
401.594	416.01
401.972	404.71
402.351	399.28
402.729	416.91
403.107	409.45
403.486	397.7
403.864	409.9
404.242	410.58
404.62	413.97
404.999	417.59
405.377	436.57
405.755	427.31
406.133	428.89
406.511	436.57
406.889	417.36
407.267	421.66
407.645	423.01
408.023	434.08
408.401	449.9
408.779	448.77
409.156	439.28
409.534	447.19
409.912	432.95
410.29	445.84
410.667	428.89
411.045	424.59
411.422	449.23
411.8	456
412.178	461.43
412.555	463.24
412.933	462.56
413.31	479.73
413.687	473.63
414.065	451.94
414.442	476.57
414.819	491.48
415.197	470.69
415.574	482.44
415.951	491.03
416.328	478.83
416.705	496.68
417.082	501.43
417.46	481.77
417.837	488.32
418.214	510.01
418.591	525.16
418.967	497.59
419.344	490.81
419.721	493.52
420.098	537.13
420.475	547.75
420.852	524.03
421.228	539.62
421.605	540.52
421.982	504.59
422.358	516.12
422.735	520.86
423.111	567.19
423.488	534.19
423.864	541.65
424.241	550.24
424.617	564.7
424.994	557.7
425.37	551.14
425.746	544.14
426.123	551.82
426.499	544.82
426.875	569.67
427.251	578.04
427.627	577.58
428.003	584.14
428.379	589.33
428.756	597.24
429.132	604.25
429.507	588.43
429.883	575.1
430.259	604.02
430.635	606.28
431.011	603.8
431.387	630.46
431.763	619.39
432.138	633.4
432.514	619.62
432.89	611.93
433.265	639.05
433.641	654.64
434.016	648.09
434.392	664.59
434.767	682.67
435.143	664.81
435.518	675.89
435.894	672.5
436.269	668.65
436.644	700.74
437.02	696
437.395	696.9
437.77	697.58
438.145	710.24
438.52	714.53
438.895	702.78
439.271	731.7
439.646	728.09
440.021	718.37
440.395	741.65
440.77	726.96
441.145	731.7
441.52	772.83
441.895	727.18
442.27	754.53
442.645	758.82
443.019	781.19
443.394	762.21
443.769	752.27
444.143	770.57
444.518	793.17
444.892	773.06
445.267	782.55
445.641	791.82
446.016	794.75
446.39	794.53
446.764	796.11
447.139	795.43
447.513	804.02
447.887	823.68
448.262	818.03
448.636	828.65
449.01	827.97
449.384	831.14
449.758	834.07
450.132	850.57
450.506	861.87
450.88	818.26
451.254	877.24
451.628	870.68
452.002	838.82
452.376	885.37
452.75	884.47
453.123	880.17
453.497	903
453.871	909.55
454.244	938.03
454.618	926.5
454.992	945.03
455.365	948.65
455.739	924.47
456.112	935.31
456.486	987.29
456.859	985.26
457.232	992.94
457.606	994.52
457.979	980.51
458.352	1010.79
458.725	1044.69
459.099	1044.24
459.472	1047.4
459.845	1064.35
460.218	1067.97
460.591	1097.57
460.964	1072.94
461.337	1076.55
461.71	1091.24
462.083	1138.92
462.456	1140.05
462.829	1173.5
463.201	1163.33
463.574	1147.06
463.947	1205.82
464.32	1215.76
464.692	1226.61
465.065	1209.43
465.438	1243.33
465.81	1295.98
466.183	1285.36
466.555	1292.14
466.928	1313.16
467.3	1321.29
467.672	1349.77
468.045	1349.09
468.417	1417.79
468.789	1428.86
469.161	1414.85
469.534	1441.06
469.906	1490.78
470.278	1492.14
470.65	1507.28
471.022	1549.08
471.394	1559.93
471.766	1612.58
472.138	1638.35
472.51	1690.1
472.882	1719.93
473.253	1756.54
473.625	1776.42
473.997	1805.12
474.369	1837.89
474.74	1866.36
475.112	1971.22
475.484	1965.57
475.855	2015.74
476.227	2030.65
476.598	2111.1
476.97	2129.41
477.341	2207.37
477.713	2250.76
478.084	2288.05
478.455	2408.72
478.827	2437.87
479.198	2500.02
479.569	2549.74
479.94	2662.73
480.311	2697.75
480.682	2754.93
481.053	2895.26
481.424	2966.67
481.795	3003.06
482.166	3089.16
482.537	3212.32
482.908	3289.15
483.279	3371.18
483.65	3456.6
484.021	3588.13
484.391	3721.46
484.762	3765.07
485.133	3828.57
485.503	3938.63
485.874	4081.45
486.244	4206.19
486.615	4328.45
486.985	4411.38
487.356	4562.34
487.726	4634.65
488.097	4825.16
488.467	4931.82
488.837	5067.18
489.207	5155.09
489.578	5274.18
489.948	5414.74
490.318	5563.44
490.688	5610.67
491.058	5752.81
491.428	6001.85
491.798	6079.81
492.168	6262.41
492.538	6406.81
492.908	6527.26
493.278	6659.01
493.648	6793.92
494.017	6892.22
494.387	7085.89
494.757	7176.28
495.126	7375.37
495.496	7470.74
495.866	7601.58
496.235	7737.62
496.605	7924.28
496.974	8047.9
497.344	8156.37
497.713	8279.53
498.082	8373.31
498.452	8588.22
498.821	8720.65
499.19	8806.29
499.559	8865.05
499.928	8984.82
500.298	9143.23
500.667	9403.34
501.036	9427.75
501.405	9582.54
501.774	9628.19
502.143	9776.44
502.512	9883.1
502.88	10035.64
503.249	10131.46
503.618	10292.58
503.987	10385.91
504.356	10453.48
504.724	10650.99
505.093	10740.48
505.462	10760.37
505.83	10952.23
506.199	11055.27
506.567	11229.51
506.936	11284.42
507.304	11507.24
507.672	11548.59
508.041	11616.84
508.409	11762.37
508.777	11941.58
509.145	12115.13
509.514	12058.64
509.882	12253.21
510.25	12256.82
510.618	12446.88
510.986	12518.51
511.354	12691.62
511.722	12848.22
512.09	12946.75
512.458	12921.21
512.826	13101.77
513.193	13221.32
513.561	13218.83
513.929	13452.27
514.297	13496.11
514.664	13696.56
515.032	13764.36
515.4	13824.47
515.767	13931.58
516.135	14124.35
516.502	13981.98
516.869	14242.76
517.237	14370.22
517.604	14393.72
517.972	14516.2
518.339	14650.89
518.706	14657.44
519.073	14868.51
519.44	14903.76
519.808	15072.8
520.175	15117.31
520.542	15312.79
520.909	15440.7
521.276	15347.82
521.643	15646.11
522.009	15672.78
522.376	15896.73
522.743	15852.44
523.11	16173.56
523.477	16258.08
523.843	16362.25
524.21	16568.12
524.577	16703.26
524.943	16676.14
525.31	16787.1
525.676	17072.29
526.043	17099.86
526.409	17176.24
526.776	17341.89
527.142	17407.88
527.508	17476.12
527.874	17638.15
528.241	17805.15
528.607	17753.86
528.973	18035.88
529.339	17999.27
529.705	18238.59
530.071	18333.95
530.437	18319.04
530.803	18555.87
531.169	18684
531.535	18677.45
531.901	18678.58
532.267	18824.11
532.632	18978.68
532.998	18986.59
533.364	19198.11
533.73	19193.59
534.095	19333.7
534.461	19352.01
534.826	19669.06
535.192	19559.23
535.557	19780.24
535.923	19798.32
536.288	19844.2
536.653	19913.12
537.019	19952.22
537.384	20038.77
537.749	20122.38
538.114	20168.93
538.479	20243.06
538.845	20387.91
539.21	20331.19
539.575	20504.07
539.94	20560.34
540.305	20640.11
540.67	20712.2
541.034	20756.04
541.399	20898.86
541.764	20947.22
542.129	21060.89
542.494	21019.98
542.858	21112.86
543.223	21191.5
543.587	21422.69
543.952	21356.47
544.316	21484.6
544.681	21423.36
545.045	21587.2
545.41	21718.72
545.774	21775.9
546.138	21643.7
546.503	21840.53
546.867	21851.6
547.231	22178.15
547.595	22177.47
547.959	22170.24
548.324	22143.57
548.688	22325.71
549.052	22343.11
549.416	22416.56
549.779	22517.57
550.143	22686.83
550.507	22698.36
550.871	22735.19
551.235	22775.19
551.599	22881.4
551.962	22963.66
552.326	23034.39
552.689	23176.31
553.053	23099.93
553.417	23189.64
553.78	23474.38
554.143	23281.85
554.507	23488.62
554.87	23637.32
555.234	23786.92
555.597	23640.93
555.96	23779.01
556.323	23866.01
556.686	23924.99
557.05	24092.45
557.413	24104.87
557.776	24147.13
558.139	24341.03
558.502	24345.55
558.865	24528.59
559.228	24736.95
559.59	24806.33
559.953	24793.9
560.316	25169.93
560.679	25120.22
561.041	25217.39
561.404	25262.58
561.767	25402.24
562.129	25368.8
562.492	25677.04
562.854	25663.48
563.217	25689.24
563.579	25875.22
563.941	25985.28
564.304	26035.22
564.666	26173.75
565.028	26067.99
565.39	26276.34
565.753	26538.03
566.115	26678.37
566.477	26683.11
566.839	26718.59
567.201	26882.65
567.563	26862.54
567.925	27115.42
568.287	27127.17
568.648	27148.18
569.01	27351.34
569.372	27449.42
569.734	27497.78
570.095	27736.42
570.457	27701.62
570.819	27946.13
571.18	27895.06
571.542	28146.12
571.903	28117.42
572.265	28312
572.626	28357.64
572.987	28286.01
573.349	28515.38
573.71	28587.92
574.071	28726.45
574.432	28858.65
574.794	29104.29
575.155	29040.79
575.516	29038.08
575.877	29244.63
576.238	29254.12
576.599	29585.41
576.96	29546.54
577.32	29623.83
577.681	29772.3
578.042	29802.35
578.403	29819.98
578.763	30075.34
579.124	30127.77
579.485	30218.84
579.845	30378.61
580.206	30353.52
580.566	30674.65
580.927	30617.7
581.287	30857.24
581.648	30884.58
582.008	30967.75
582.368	31028.76
582.728	31272.37
583.089	31248.42
583.449	31344.91
583.809	31562.98
584.169	31755.75
584.529	31713.71
584.889	32218.11
585.249	31957.32
585.609	32064.21
585.969	32393.02
586.329	32334.26
586.688	32522.96
587.048	32553.92
587.408	32614.71
587.768	32818.32
588.127	32754.82
588.487	33011.99
588.846	33164.52
589.206	33250.62
589.565	33281.36
589.925	33552.08
590.284	33727.45
590.643	33712.76
591.003	33867.78
591.362	34087.66
591.721	33984.39
592.08	34149.58
592.44	34459.86
592.799	34458.73
593.158	34541.21
593.517	34646.74
593.876	35005.38
594.235	34874.31
594.593	35023.46
594.952	35183.45
595.311	35105.49
595.67	35348.65
596.029	35531.69
596.387	35692.82
596.746	35821.63
597.104	35719.48
597.463	35859.14
597.822	36132.36
598.18	36139.36
598.538	36135.52
598.897	36378.68
599.255	36275.85
599.613	36834.48
599.972	36687.37
600.33	36742.51
600.688	36801.72
601.046	36951.32
601.404	37114.02
601.762	37006.91
602.12	37315.37
602.478	37475.6
602.836	37375.03
603.194	37425.43
603.552	37483.28
603.91	37506.78
604.268	37756.27
604.625	37685.31
604.983	38055.47
605.341	37760.56
605.698	38102.92
606.056	38109.48
606.413	38127.33
606.771	38438.51
607.128	38494.1
607.485	38421.11
607.843	38542.91
608.2	38672.4
608.557	38787.2
608.914	38636.92
609.272	39029.68
609.629	39148.09
609.986	39262.22
610.343	39004.82
610.7	39423.57
611.057	39352.61
611.414	39529.1
611.771	39526.16
612.127	39633.05
612.484	39716.22
612.841	39795.76
613.198	39867.85
613.554	39931.8
613.911	40104.68
614.267	40271.46
614.624	40068.07
614.98	40235.52
615.337	40451.11
615.693	40323.21
616.05	40296.31
616.406	40659.02
616.762	40544.22
617.118	40590.99
617.475	40511.9
617.831	40807.94
618.187	40836.64
618.543	40938.56
618.899	41074.82
619.255	41221.71
619.611	41029.18
619.967	41237.31
620.323	41349.62
620.678	41170.41
621.034	41293.35
621.39	41233.46
621.746	41127.03
622.101	41704.41
622.457	41476.85
622.812	41413.12
623.168	41626
623.523	41590.29
623.879	41716.39
624.234	41601.82
624.589	41570.18
624.945	41668.71
625.3	41845.65
625.655	41751.64
626.01	41799.1
626.365	41994.57
626.72	41833.45
627.075	41895.14
627.43	41837.06
627.785	41714.58
628.14	41847.23
628.495	41908.47
628.85	41837.74
629.205	41701.7
629.559	42094.91
629.914	41840.68
630.269	41937.4
630.623	41848.14
630.978	41642.27
631.332	41966.55
631.687	42070.05
632.041	41818.53
632.396	42055.82
632.75	41821.7
633.104	41857.85
633.459	41565.88
633.813	41711.87
634.167	41889.49
634.521	41879.32
634.875	41869.15
635.229	41872.77
635.583	41496.96
635.937	41721.59
636.291	41443.18
636.645	41582.16
636.999	41393.01
637.352	41626
637.706	41395.04
638.06	41643.62
638.413	41591.87
638.767	41410.18
639.121	41414.48
639.474	41152.11
639.828	41346.46
640.181	41279.34
640.534	41377.87
640.888	41281.82
641.241	41073.02
641.594	41145.78
641.947	41355.04
642.301	41103.52
642.654	41044.54
643.007	41157.08
643.36	41029.63
643.713	41127.48
644.066	41137.87
644.419	40879.8
644.771	40664.89
645.124	40317.56
645.477	40265.81
645.83	40034.63
646.182	39902.65
646.535	39865.59
646.888	39828.76
647.24	39722.54
647.593	39904.69
647.945	39814.29
648.298	39720.06
648.65	39648.87
649.002	39488.65
649.355	39742.66
649.707	39558.03
650.059	39782.43
650.411	40205.24
650.763	40170.44
651.115	40645.68
651.467	40486.59
651.819	40506.93
652.171	40449.08
652.523	40318.46
652.875	40405.01
653.227	40223.55
653.578	40492.01
653.93	40302.41
654.282	40261.51
654.633	40132.25
654.985	40150.33
655.337	40158.46
655.688	40189.88
656.039	40282.75
656.391	39988.75
656.742	40085.25
657.094	40088.64
657.445	40138.8
657.796	40070.56
658.147	39979.49
658.498	39991.01
658.849	40186.26
659.2	40109.65
659.551	39812.26
659.902	40067.84
660.253	39874.4
660.604	39900.39
660.955	39770.9
661.306	39956.66
661.656	39775.42
662.007	39792.15
662.358	39763.22
662.708	39898.58
663.059	39783.11
663.409	39602.09
663.76	39985.14
664.11	39902.65
664.461	39856.55
664.811	39934.29
665.161	39760.51
665.511	39772.49
665.862	39805.93
666.212	39979.26
666.562	39971.12
666.912	39820.17
667.262	39804.12
667.612	39828.76
667.962	39811.81
668.312	39795.76
668.662	39963.89
669.011	39673.28
669.361	39840.73
669.711	39744.69
670.06	39715.31
670.41	39669.44
670.76	39445.04
671.109	39728.64
671.459	39446.62
671.808	39428.09
672.157	39455.43
672.507	39245.49
672.856	39274.87
673.205	39340.63
673.554	39482.1
673.904	39359.61
674.253	39556.9
674.602	39431.25
674.951	38965.27
675.3	38710.14
675.649	39360.29
675.998	39321.88
676.346	39289.11
676.695	39256.79
677.044	39079.17
677.393	39353.74
677.741	39348.77
678.09	39040.53
678.438	39090.24
678.787	39173.63
679.135	39111.94
679.484	38881.21
679.832	38886.63
680.181	38686.64
680.529	38950.59
680.877	38769.8
681.225	38710.82
681.573	38952.62
681.922	38684.15
682.27	38529.13
682.618	38652.97
682.966	38502.91
683.314	38556.47
683.661	38577.71
684.009	38207.55
684.357	38233.77
684.705	38283.94
685.053	38260.43
685.4	38149.48
685.748	37968.24
686.095	37968.46
686.443	37925.75
686.79	37907.45
687.138	37963.72
687.485	37880.78
687.832	37769.15
688.18	37687.12
688.527	37607.12
688.874	37589.04
689.221	37480.57
689.568	37293
689.915	37275.6
690.262	37213.68
690.609	37136.85
690.956	37078.77
691.303	36974.37
691.65	36893.46
691.997	36830.42
692.344	36621.61
692.69	36550.2
693.037	36681.49
693.383	36414.38
693.73	36419.13
694.077	36222.07
694.423	36239.47
694.769	36145.91
695.116	36108.85
695.462	36065.69
695.808	35940.04
696.155	35912.7
696.501	35666.83
696.847	35716.77
697.193	35540.96
697.539	35551.58
697.885	35276.78
698.231	35275.88
698.577	35203.57
698.923	35144.36
699.269	34914.31
699.614	34859.17
699.96	34721.32
700.306	34861.43
700.651	34648.55
700.997	34425.73
701.342	34467.09
701.688	34353.42
702.033	34159.3
702.379	34296.02
702.724	34097.15
703.069	34112.07
703.415	33836.37
703.76	33898.52
704.105	33889.7
704.45	33881.34
704.795	33683.61
705.14	33664.4
705.485	33459.43
705.83	33270.06
706.175	33467.79
706.52	33358.87
706.865	33175.82
707.209	33182.6
707.554	33094.47
707.899	33040.23
708.243	33009.95
708.588	32941.25
708.932	32734.03
709.277	32633.46
709.621	32658.1
709.966	32385.11
710.31	32558.89
710.654	32268.05
710.998	32468.04
711.342	32266.24
711.687	32294.94
712.031	32140.6
712.375	31873.03
712.719	32074.16
713.063	32065.57
713.407	32122.29
713.75	31786.03
714.094	31885.69
714.438	31732.02
714.782	31861.51
715.125	31554.17
715.469	31661.74
715.812	31448.41
716.156	31365.7
716.499	31296.78
716.843	31451.57
717.186	31072.15
717.53	31286.61
717.873	31165.03
718.216	31163.67
718.559	30997.12
718.902	30796
719.246	30846.62
719.589	30623.8
719.932	30623.57
720.275	30725.04
720.617	30685.04
720.96	30571.82
721.303	30575.89
721.646	30604.14
721.989	30490.47
722.331	30524.14
722.674	30332.73
723.016	30385.61
723.359	30194.66
723.701	30358.27
724.044	30208.89
724.386	30123.7
724.729	30248.22
725.071	30056.58
725.413	29989.92
725.755	30053.87
726.097	29785.4
726.439	29671.06
726.782	29750.6
727.124	29695.69
727.465	29728
727.807	29719.64
728.149	29624.96
728.491	29546.31
728.833	29547.44
729.175	29459.76
729.516	29394.68
729.858	29322.59
730.199	29334.34
730.541	29150.62
730.882	29182.71
731.224	29263.38
731.565	29053.9
731.906	29116.27
732.248	29201.01
732.589	29020.9
732.93	28859.55
733.271	28798.99
733.612	28856.84
733.953	28874.69
734.294	28726.67
734.635	28593.12
734.976	28778.65
735.317	28501.82
735.658	28633.34
735.999	28411.2
736.339	28534.59
736.68	28643.74
737.021	28399.23
737.361	28394.25
737.702	28524.87
738.042	28351.09
738.383	28385.21
738.723	28374.59
739.063	28238.55
739.404	28214.15
739.744	28038.78
740.084	27991.78
740.424	28200.13
740.764	28066.58
741.104	28107.03
741.444	27891.22
741.784	27928.95
742.124	27956.3
742.464	27787.72
742.804	27812.12
743.143	27694.38
743.483	27850.76
743.823	27619.13
744.162	27607.61
744.502	27653.03
744.841	27449.65
745.181	27580.49
745.52	27557.21
745.86	27538.91
746.199	27391.34
746.538	27400.16
746.877	27394.96
747.216	27408.29
747.556	27231.12
747.895	27374.39
748.234	27091.69
748.573	27138.92
748.911	27127.85
749.25	27037
749.589	26854.86
749.928	26834.75
750.267	27112.48
750.605	26840.4
750.944	26841.3
751.283	26657.12
751.621	26728.99
751.96	26583.68
752.298	26562.66
752.636	26607.86
752.975	26427.98
753.313	26379.39
753.651	26530.35
753.989	26300.3
754.327	26340.97
754.666	26229.34
755.004	26070.92
755.342	26197.7
755.679	26140.75
756.017	25929.01
756.355	26057.59
756.693	25855.34
757.031	26034.99
757.368	25771.5
757.706	25720.65
758.044	25767.66
758.381	25702.8
758.719	25610.6
759.056	25576.7
759.394	25449.02
759.731	25359.53
760.068	25389.36
760.405	25141.01
760.743	25120.22
761.08	25207.44
761.417	24934.01
761.754	24952.76
762.091	24876.38
762.428	24859.43
762.765	24678.42
763.102	24643.17
763.438	24459.67
763.775	24485.88
764.112	24445.43
764.449	24461.7
764.785	24348.94
765.122	24231.88
765.458	24087.02
765.795	24022.16
766.131	23995.72
766.467	23939.68
766.804	23811.32
767.14	23809.06
767.476	23847.48
767.812	23649.97
768.148	23616.98
768.485	23547.38
768.821	23467.6
769.157	23260.38
769.492	23370.2
769.828	23268.74
770.164	23102.87
770.5	22974.06
770.836	23034.39
771.171	22900.39
771.507	22809.77
771.842	22649.77
772.178	22649.55
772.513	22633.5
772.849	22513.96
773.184	22390.57
773.519	22453.17
773.855	22235.55
774.19	22245.71
774.525	22110.35
774.86	22139.28
775.195	22037.13
775.53	21949
775.865	21779.06
776.2	21678.5
776.535	21532.29
776.87	21522.8
777.205	21402.12
777.539	21276.7
777.874	21358.96
778.209	21146.08
778.543	21192.41
778.878	21077.38
779.212	21139.08
779.547	20916.71
779.881	20937.5
780.215	20762.36
780.55	20808.69
780.884	20732.31
781.218	20661.35
781.552	20684.63
781.886	20514.23
782.22	20330.06
782.554	20292.32
782.888	20086
783.222	20112.21
783.556	20046
783.889	20017.75
784.223	19816.63
784.557	19777.08
784.89	19803.29
785.224	19712.9
785.557	19609.4
785.891	19522.17
786.224	19455.05
786.558	19417.77
786.891	19321.27
787.224	19232.46
787.557	19180.03
787.891	19129.19
788.224	19065.46
788.557	19123.08
788.89	19018.68
789.223	19005.12
789.556	18840.38
789.888	18684
790.221	18645.81
790.554	18577.34
790.887	18502.76
791.219	18519.03
791.552	18459.83
791.884	18310.22
792.217	18319.49
792.549	18135.09
792.882	18090.12
793.214	18068.42
793.546	17948.43
793.879	18023.68
794.211	17936.22
794.543	17882.44
794.875	17809.9
795.207	17891.7
795.539	17686.29
795.871	17783.68
796.203	17572.39
796.535	17593.63
796.867	17440.42
797.198	17367.2
797.53	17437.03
797.862	17288.78
798.193	17359.74
798.525	17096.92
798.856	17203.36
799.188	16999.07
799.519	16954.55
799.85	16870.49
800.182	16937.61
800.513	16932.86
800.844	16602.25
801.175	16839.98
801.506	16740.32
801.837	16658.29
802.168	16629.82
802.499	16574.45
802.83	16468.47
803.161	16391.63
803.491	16466.88
803.822	16365.87
804.153	16333.55
804.483	16190.96
804.814	16136.5
805.145	16141.47
805.475	16089.04
805.805	16050.17
806.136	15984.86
806.466	16044.97
806.796	16010.17
807.126	15807.01
807.457	15795.49
807.787	15776.51
808.117	15708.03
808.447	15661.71
808.777	15637.75
809.107	15517.98
809.436	15569.51
809.766	15568.15
810.096	15493.12
810.426	15469.17
810.755	15413.58
811.085	15367.03
811.414	15385.78
811.744	15273.24
812.073	15166.58
812.403	15235.05
812.732	15062.17
813.061	15075.06
813.39	14972.23
813.719	14992.12
814.049	15028.28
814.378	15007.03
814.707	14959.8
815.036	14892.91
815.365	14829.19
815.693	14719.81
816.022	14657.44
816.351	14610.66
816.68	14606.37
817.008	14659.7
817.337	14427.84
817.665	14457.22
817.994	14457.22
818.322	14489.76
818.651	14367.5
818.979	14318.24
819.307	14347.17
819.636	14359.37
819.964	14265.59
820.292	14346.71
820.62	14193.5
820.948	14148.98
821.276	14261.29
821.604	14169.77
821.932	14214.74
822.259	14170.45
822.587	14170.45
822.915	14138.13
823.243	14268.3
823.57	14138.36
823.898	14234.85
824.225	14081.18
824.553	14060.17
824.88	14121.86
825.207	14103.78
825.535	14104.69
825.862	14145.59
826.189	14074.18
826.516	14221.97
826.843	14169.32
827.17	14111.69
827.497	14310.78
827.824	14114.63
828.151	14144.91
828.478	14112.82
828.805	14223.78
829.131	14064.23
829.458	14132.26
829.785	14132.93
830.111	14055.65
830.438	14147.4
830.764	14122.31
831.09	14178.36
831.417	14046.38
831.743	14085.25
832.069	14057.68
832.395	14053.61
832.722	14080.05
833.048	13957.57
833.374	14047.06
833.7	13858.59
834.026	14016.33
834.351	13968.19
834.677	13951.7
835.003	14021.07
835.329	13928.65
835.654	13942.43
835.98	13759.61
836.306	13873.05
836.631	13777.46
836.956	13719.16
837.282	13898.14
837.607	13775.88
837.932	13711.25
838.258	13747.86
838.583	13787.63
838.908	13632.83
839.233	13652.72
839.558	13724.13
839.883	13534.98
840.208	13568.43
840.533	13493.85
840.858	13555.1
841.182	13373.86
841.507	13485.27
841.832	13402.33
842.156	13397.13
842.481	13430.13
842.805	13317.14
843.13	13311.71
843.454	13405.49
843.778	13241.43
844.103	13288.21
844.427	13198.27
844.751	13164.37
845.075	13161.66
845.399	13064.49
845.723	13062.91
846.047	13079.4
846.371	12984.94
846.695	13055
847.019	12851.61
847.343	12768
847.666	12707.89
847.99	12672.63
848.313	12688.45
848.637	12594.22
848.96	12594.22
849.284	12522.13
849.607	12370.49
849.931	12397.84
850.254	12254.79
850.577	12216.15
850.9	12189.03
851.223	12198.75
851.546	12131.18
851.869	12012.31
852.192	12059.09
852.515	11968.7
852.838	11928.25
853.161	11985.42
853.483	11887.79
853.806	11853.22
854.129	11827.68
854.451	11778.87
854.774	11684.41
855.096	11600.8
855.419	11608.03
855.741	11631.76
856.063	11409.84
856.385	11520.35
856.708	11502.27
857.03	11418.43
857.352	11465.88
857.674	11428.82
857.996	11341.82
858.318	11342.27
858.64	11282.61
858.961	11231.09
859.283	11194.48
859.605	11145.44
859.926	11221.6
860.248	11147.48
860.57	11135.27
860.891	11069.74
861.212	11014.15
861.534	11055.27
861.855	10965.56
862.176	10969.85
862.498	11001.49
862.819	10946.12
863.14	10899.57
863.461	10878.1
863.782	10894.6
864.103	10849.18
864.424	10829.52
864.745	10843.98
865.065	10767.15
865.386	10719.24
865.707	10658.67
866.027	10785.45
866.348	10698.22
866.668	10673.59
866.989	10661.16
867.309	10593.37
867.63	10594.04
867.95	10610.99
868.27	10493.03
868.59	10580.71
868.91	10554.27
869.23	10457.78
869.55	10530.09
869.87	10521.5
870.19	10452.58
870.51	10508.4
870.83	10481.73
871.15	10395.18
871.469	10380.26
871.789	10384.11
872.109	10385.24
872.428	10320.38
872.748	10348.4
873.067	10373.48
873.386	10295.75
873.706	10314.95
874.025	10293.26
874.344	10201.06
874.663	10230.44
874.982	10199.25
875.301	10238.12
875.62	10117.22
875.939	10185.92
876.258	10127.84
876.577	10122.87
876.896	10060.72
877.214	10069.76
877.533	10093.04
877.852	10058.24
878.17	10080.84
878.489	10039.48
878.807	10037
879.125	10009.43
879.444	9973.04
879.762	9925.36
880.08	9919.48
880.398	9940.95
880.716	9890.56
881.034	9915.64
881.352	9879.03
881.67	9797.91
881.988	9843.55
882.306	9793.39
882.624	9822.09
882.941	9759.72
883.259	9688.98
883.577	9662.54
883.894	9678.14
884.212	9646.27
884.529	9657.34
884.846	9601.98
885.164	9539.61
885.481	9603.79
885.798	9632.49
886.115	9502.32
886.432	9464.36
886.75	9453.06
887.067	9480.63
887.383	9441.76
887.7	9407.86
888.017	9421.64
888.334	9384.81
888.651	9398.82
888.967	9300.97
889.284	9253.51
889.6	9248.99
889.917	9187.07
890.233	9163.8
890.55	9156.12
890.866	9131.48
891.182	9143.69
891.498	9089
891.815	9073.18
892.131	9022.79
892.447	9028.43
892.763	8990.47
893.079	9039.73
893.395	8957.48
893.71	8925.16
894.026	8897.59
894.342	8853.75
894.657	8793.64
894.973	8823.69
895.289	8764.26
895.604	8764.71
895.92	8738.95
896.235	8702.57
896.55	8689.46
896.865	8704.15
897.181	8599.52
897.496	8651.5
897.811	8548.67
898.126	8532.18
898.441	8527.66
898.756	8495.79
899.071	8450.82
899.386	8463.25
899.7	8411.28
900.015	8326.08
900.33	8301.45
900.644	8315.23
900.959	8293.54
901.273	8216.25
901.588	8214.22
901.902	8127.22
902.216	8126.99
902.531	8039.31
902.845	8076.14
903.159	7973.55
903.473	7980.33
903.787	7980.1
904.101	7963.83
904.415	7922.7
904.729	7907.79
905.042	7818.75
905.356	7832.76
905.67	7855.36
905.984	7842.25
906.297	7767.9
906.611	7711.18
906.924	7673.22
907.237	7698.07
907.551	7584.41
907.864	7680.9
908.177	7584.86
908.491	7599.77
908.804	7473
909.117	7503.05
909.43	7472.54
909.743	7439.55
910.056	7408.59
910.368	7324.52
910.681	7334.92
910.994	7268.93
911.307	7252.66
911.619	7159.78
911.932	7251.53
912.244	7181.03
912.557	7183.74
912.869	7049.96
913.181	7113.91
913.494	7087.92
913.806	7013.35
914.118	6980.13
914.43	6967.92
914.742	7002.95
915.054	6920.02
915.366	6947.36
915.678	6874.59
915.99	6872.33
916.302	6808.38
916.613	6762.51
916.925	6787.82
917.236	6743.75
917.548	6649.29
917.859	6687.03
918.171	6630.08
918.482	6648.84
918.794	6579.69
919.105	6586.47
919.416	6483.64
919.727	6583.08
920.038	6538.56
920.349	6473.25
920.66	6413.59
920.971	6426.24
921.282	6404.78
921.593	6352.12
921.903	6296.08
922.214	6325.68
922.525	6248.17
922.835	6226.7
923.146	6163.43
923.456	6198.45
923.767	6187.15
924.077	6203.42
924.387	6158
924.697	6117.55
925.008	6103.31
925.318	6067.38
925.628	6029.19
925.938	6018.34
926.248	6002.98
926.558	5891.34
926.867	5919.59
927.177	5925.01
927.487	5876.65
927.796	5773.38
928.106	5800.95
928.416	5789.88
928.725	5714.85
929.034	5737.45
929.344	5735.64
929.653	5711.46
929.962	5677.34
930.271	5641.18
930.581	5625.59
930.89	5585.36
931.199	5554.18
931.508	5544.46
931.817	5458.81
932.125	5474.18
932.434	5497.68
932.743	5438.25
933.051	5448.42
933.36	5395.76
933.669	5387.4
933.977	5315.99
934.286	5341.75
934.594	5259.04
934.902	5296.56
935.21	5275.99
935.519	5263.11
935.827	5241.87
936.135	5223.11
936.443	5163.68
936.751	5136.33
937.059	5164.36
937.367	5059.95
937.674	5057.01
937.982	5113.51
938.29	5052.49
938.597	5036.9
938.905	4984.02
939.213	4981.99
939.52	4960.29
939.827	5006.17
940.135	4927.3
940.442	4900.63
940.749	4884.14
941.056	4883.01
941.363	4773.86
941.67	4858.83
941.977	4786.29
942.284	4800.52
942.591	4742.67
942.898	4706.97
943.205	4702
943.511	4695.44
943.818	4666.74
944.125	4629.45
944.431	4629.91
944.738	4637.14
945.044	4632.17
945.35	4610.02
945.657	4527.31
945.963	4519.4
946.269	4502.9
946.575	4468.33
946.881	4464.26
947.187	4419.97
947.493	4429.01
947.799	4425.39
948.105	4399.4
948.41	4372.51
948.716	4361.21
949.022	4360.31
949.327	4336.35
949.633	4296.81
949.938	4282.12
950.244	4289.12
950.549	4217.04
950.854	4242.12
951.16	4222.91
951.465	4218.62
951.77	4207.54
952.075	4159.18
952.38	4153.31
952.685	4145.85
952.99	4085.06
953.294	4089.81
953.599	4062.92
953.904	4013.88
954.209	4003.26
954.513	4038.51
954.818	4024.72
955.122	3991.96
955.426	3961.22
955.731	3961.45
956.035	3928.68
956.339	3918.96
956.643	3928.68
956.948	3920.32
957.252	3853.88
957.556	3881.45
957.86	3809.14
958.163	3824.05
958.467	3771.17
958.771	3795.35
959.075	3786.54
959.378	3717.84
959.682	3741.12
959.985	3746.77
960.289	3698.86
960.592	3685.75
960.896	3640.1
961.199	3692.76
961.502	3624.96
961.805	3607.79
962.108	3624.06
962.411	3539.99
962.714	3560.33
963.017	3570.05
963.32	3567.79
963.623	3539.77
963.926	3513.33
964.228	3504.51
964.531	3487.56
964.833	3525.08
965.136	3413.44
965.438	3436.72
965.741	3422.93
966.043	3416.61
966.345	3356.04
966.648	3403.05
966.95	3373.22
967.252	3362.6
967.554	3329.38
967.856	3345.87
968.158	3301.13
968.46	3299.32
968.761	3268.81
969.063	3252.54
969.365	3251.19
969.666	3221.13
969.968	3202.15
970.269	3177.74
970.571	3178.65
970.872	3186.55
971.174	3175.03
971.475	3151.75
971.776	3119.89
972.077	3107.69
972.378	3117.4
972.679	3078.99
972.98	3059.33
973.281	3060.91
973.582	3041.47
973.883	3017.75
974.183	3015.26
974.484	3035.82
974.785	2998.99
975.085	2993.79
975.386	2998.31
975.686	2951.31
975.986	2967.58
976.287	2937.75
976.587	2899.78
976.887	2920.12
977.187	2866.11
977.487	2911.53
977.787	2866.11
978.087	2869.95
978.387	2864.98
978.687	2826.34
978.987	2815.49
979.286	2784.08
979.586	2799.67
979.885	2768.94
980.185	2800.12
980.484	2767.58
980.784	2714.25
981.083	2738.88
981.382	2700.92
981.682	2709.05
981.981	2691.65
982.28	2668.38
982.579	2696.62
982.878	2655.5
983.177	2630.64
983.475	2663.63
983.774	2616.85
984.073	2624.31
984.372	2619.11
984.67	2596.97
984.969	2603.07
985.267	2570.53
985.566	2565.33
985.864	2559.23
986.162	2509.96
986.461	2523.07
986.759	2520.58
987.057	2503.18
987.355	2493.24
987.653	2460.92
987.951	2505.67
988.249	2487.59
988.547	2475.39
988.844	2453.01
989.142	2429.74
989.44	2413.24
989.737	2402.17
990.035	2401.04
990.332	2390.42
990.63	2371.21
990.927	2364.66
991.224	2365.33
991.521	2337.76
991.819	2337.99
992.116	2329.63
992.413	2326.92
992.71	2350.87
993.006	2338.89
993.303	2264.32
993.6	2284.88
993.897	2234.26
994.193	2232.91
994.49	2222.74
994.787	2217.77
995.083	2217.09
995.379	2210.08
995.676	2192.23
995.972	2180.71
996.268	2159.91
996.565	2148.62
996.861	2182.51
997.157	2161.27
997.453	2099.35
997.749	2111.55
998.044	2077.88
998.34	2114.49
998.636	2074.27
998.932	2072.46
999.227	2074.04
999.523	2025.23
999.818	2021.61
1000.114	2019.13
1000.409	2021.61
1000.704	2021.61
1001	1966.02
1001.295	1978.68
1001.59	1984.33
1001.885	1962.63
1002.18	1933.48
1002.475	1935.74
1002.77	1957.66
1003.065	1917.21
1003.359	1911.56
1003.654	1942.75
1003.949	1879.47
1004.243	1885.8
1004.538	1856.19
1004.832	1861.62
1005.127	1861.17
1005.421	1831.56
1005.715	1881.96
1006.009	1827.72
1006.304	1796.99
1006.598	1789.76
1006.892	1805.35
1007.186	1786.37
1007.48	1786.14
1007.773	1782.75
1008.067	1767.16
1008.361	1708.85
1008.655	1743.43
1008.948	1745.46
1009.242	1727.16
1009.535	1714.05
1009.829	1719.7
1010.122	1691
1010.415	1665.92
1010.708	1640.83
1011.001	1649.19
1011.295	1690.32
1011.588	1643.32
1011.881	1632.92
1012.173	1656.65
1012.466	1617.78
1012.759	1622.53
1013.052	1606.48
1013.344	1609.87
1013.637	1560.61
1013.93	1571.23
1014.222	1545.92
1014.514	1563.32
1014.807	1544.11
1015.099	1526.94
1015.391	1516.09
1015.683	1514.06
1015.976	1506.15
1016.268	1490.33
1016.56	1483.1
1016.851	1459.37
1017.143	1460.72
1017.435	1490.1
1017.727	1470.89
1018.018	1451.23
1018.31	1435.19
1018.602	1444.91
1018.893	1410.56
1019.185	1430.67
1019.476	1393.61
1019.767	1397.45
1020.058	1393.16
1020.35	1400.84
1020.641	1381.18
1020.932	1363.78
1021.223	1356.09
1021.514	1325.36
1021.804	1333.72
1022.095	1322.42
1022.386	1309.09
1022.677	1295.08
1022.967	1319.26
1023.258	1293.95
1023.548	1275.42
1023.839	1275.42
1024.129	1275.42
1024.419	1261.18
1024.709	1250.56
1025	1250.11
1025.29	1237.68
1025.58	1220.5
1025.87	1224.8
1026.16	1217.79
1026.449	1209.21
1026.739	1187.96
1027.029	1168.98
1027.319	1146.38
1027.608	1170.79
1027.898	1180.05
1028.187	1139.38
1028.477	1149.32
1028.766	1147.29
1029.055	1144.8
1029.344	1110.68
1029.634	1108.64
1029.923	1087.85
1030.212	1108.87
1030.501	1117.46
1030.79	1107.74
1031.078	1086.72
1031.367	1097.12
1031.656	1070
1031.945	1065.71
1032.233	1068.19
1032.522	1051.02
1032.81	1055.54
1033.099	1027.74
1033.387	1052.37
1033.675	1009.44
1033.963	994.97
1034.251	1019.61
1034.54	1006.05
1034.828	997.46
1035.116	984.8
1035.403	1012.6
1035.691	999.72
1035.979	968.53
1036.267	1006.72
1036.554	973.73
1036.842	975.77
1037.129	962.88
1037.417	936.67
1037.704	933.51
1037.992	947.74
1038.279	929.66
1038.566	938.48
1038.853	938.48
1039.14	938.48
