Data from hue_38_FLMS001491_00014.txt Node
Date: Tue Feb 07 17:31:06 GMT 2017
User: dcchb
Spectrometer: FLMS00149
Trigger mode: 0
Integration Time (sec): 2.000000E-2
Scans to average: 10
Electric dark correction enabled: true
Nonlinearity correction enabled: false
Boxcar width: 0
XAxis mode: Wavelengths
Number of Pixels in Spectrum: 2048
>>>>>Begin Spectral Data<<<<<
341.393	-16.36
341.776	-16.36
342.16	-16.36
342.543	-68.33
342.927	-62.68
343.31	-75.56
343.693	-83.92
344.077	-64.49
344.46	-53.87
344.843	-45.96
345.226	-43.02
345.61	-26.75
345.993	-37.37
346.376	4.21
346.759	9.18
347.142	12.57
347.525	47.82
347.908	65.9
348.291	84.21
348.674	113.13
349.057	93.92
349.44	119.69
349.823	167.37
350.206	169.18
350.588	196.07
350.971	214.6
351.354	232.23
351.737	246.24
352.119	256.41
352.502	278.33
352.884	295.95
353.267	270.64
353.65	305.22
354.032	314.48
354.414	320.81
354.797	326.46
355.179	338.21
355.562	330.53
355.944	336.4
356.326	323.75
356.709	337.76
357.091	359.45
357.473	323.97
357.855	344.99
358.238	352.9
358.62	354.03
359.002	339.79
359.384	332.79
359.766	336.4
360.148	333.92
360.53	350.87
360.912	325.33
361.294	338.44
361.676	321.49
362.057	347.7
362.439	339.34
362.821	335.73
363.203	326.23
363.584	333.24
363.966	326.46
364.348	342.96
364.729	325.33
365.111	312.22
365.493	310.87
365.874	305.22
366.256	311.32
366.637	319.68
367.019	313.35
367.4	320.13
367.781	317.87
368.163	303.64
368.544	340.25
368.925	349.74
369.306	313.35
369.688	328.49
370.069	308.16
370.45	302.96
370.831	321.26
371.212	318.78
371.593	317.87
371.974	312.45
372.355	317.42
372.736	319.45
373.117	302.05
373.498	316.07
373.879	308.61
374.26	316.07
374.641	304.54
375.021	306.57
375.402	327.14
375.783	336.86
376.163	308.16
376.544	323.3
376.925	312.45
377.305	313.35
377.686	322.84
378.066	332.11
378.447	337.08
378.827	322.17
379.208	337.08
379.588	321.49
379.968	337.53
380.349	334.6
380.729	337.08
381.109	335.5
381.489	344.31
381.87	336.63
382.25	347.48
382.63	335.27
383.01	354.93
383.39	342.73
383.77	352.22
384.15	340.02
384.53	355.39
384.91	323.3
385.29	352.45
385.67	371.66
386.049	362.84
386.429	355.84
386.809	358.1
387.189	349.51
387.568	350.19
387.948	360.36
388.328	366.91
388.707	346.8
389.087	356.74
389.466	368.04
389.846	374.37
390.225	347.48
390.605	347.7
390.984	358.32
391.363	345.44
391.743	377.08
392.122	355.84
392.501	340.25
392.881	351.54
393.26	375.5
393.639	355.84
394.018	386.35
394.397	381.6
394.776	368.95
395.155	375.05
395.534	388.38
395.913	372.11
396.292	389.06
396.671	382.96
397.05	391.09
397.429	392.22
397.808	411.43
398.186	389.51
398.565	375.27
398.944	402.16
399.323	395.16
399.701	377.53
400.08	413.92
400.458	413.24
400.837	382.96
401.215	399.23
401.594	388.83
401.972	401.03
402.351	389.51
402.729	397.87
403.107	387.25
403.486	397.64
403.864	413.46
404.242	415.27
404.62	399
404.999	432.9
405.377	416.18
405.755	418.44
406.133	405.78
406.511	421.83
406.889	435.38
407.267	424.54
407.645	442.16
408.023	432.9
408.401	439.23
408.779	452.33
409.156	433.8
409.534	453.91
409.912	464.99
410.29	455.95
410.667	437.19
411.045	446.46
411.422	444.88
411.8	445.55
412.178	461.6
412.555	453.69
412.933	466.34
413.31	458.21
413.687	477.64
414.065	471.77
414.442	480.35
414.819	481.94
415.197	476.96
415.574	486.91
415.951	497.98
416.328	475.61
416.705	485.55
417.082	494.59
417.46	503.4
417.837	514.03
418.214	484.87
418.591	493.01
418.967	504.31
419.344	537.75
419.721	491.88
420.098	528.94
420.475	516.29
420.852	516.74
421.228	528.71
421.605	514.03
421.982	519.68
422.358	546.34
422.735	534.14
423.111	551.09
423.488	580.46
423.864	565.55
424.241	576.85
424.617	559
424.994	572.56
425.37	561.93
425.746	559.22
426.123	544.08
426.499	546.12
426.875	565.32
427.251	584.08
427.627	576.62
428.003	573.69
428.379	575.49
428.756	613.91
429.132	607.36
429.507	601.71
429.883	587.92
430.259	609.39
430.635	617.75
431.011	611.65
431.387	636.51
431.763	656.4
432.138	632.89
432.514	646.23
432.89	650.97
433.265	650.07
433.641	645.77
434.016	677.64
434.392	671.99
434.767	685.09
435.143	673.12
435.518	673.57
435.894	679.9
436.269	694.81
436.644	694.13
437.02	725.09
437.395	689.39
437.77	723.96
438.145	719.22
438.52	734.59
438.895	734.59
439.271	767.13
439.646	756.05
440.021	719.22
440.395	738.88
440.77	744.53
441.145	752.89
441.52	773.68
441.895	749.73
442.27	761.48
442.645	765.77
443.019	787.69
443.394	782.72
443.769	784.75
444.143	791.53
444.518	778.2
444.892	801.48
445.267	814.36
445.641	822.04
446.016	798.99
446.39	825.2
446.764	841.02
447.139	810.06
447.513	831.98
447.887	823.17
448.262	833.79
448.636	829.95
449.01	841.7
449.384	857.52
449.758	857.29
450.132	847.58
450.506	859.1
450.88	849.84
451.254	875.37
451.628	871.76
452.002	883.06
452.376	906.78
452.75	907.01
453.123	880.8
453.497	908.14
453.871	914.69
454.244	934.35
454.618	943.62
454.992	959.89
455.365	974.58
455.739	972.55
456.112	980
456.486	970.06
456.859	1009.83
457.232	1008.7
457.606	1020.23
457.979	1021.58
458.352	1041.24
458.725	1087.57
459.099	1061.81
459.472	1078.98
459.845	1091.86
460.218	1100.68
460.591	1104.74
460.964	1104.07
461.337	1109.94
461.71	1132.54
462.083	1156.5
462.456	1155.37
462.829	1172.09
463.201	1187.23
463.574	1183.61
463.947	1213.44
464.32	1224.52
464.692	1221.58
465.065	1224.06
465.438	1262.93
465.81	1241.01
466.183	1284.85
466.555	1341.8
466.928	1344.06
467.3	1344.06
467.672	1342.48
468.045	1394
468.417	1394.68
468.789	1422.7
469.161	1437.62
469.534	1468.13
469.906	1497.95
470.278	1522.59
470.65	1523.27
471.022	1580.21
471.394	1591.29
471.766	1617.27
472.138	1635.8
472.51	1674.22
472.882	1724.62
473.253	1734.33
473.625	1782.92
473.997	1858.4
474.369	1831.51
474.74	1844.16
475.112	1905.4
475.484	1955.12
475.855	1986.08
476.227	2041.67
476.598	2094.32
476.97	2151.5
477.341	2197.15
477.713	2239.18
478.084	2273.53
478.455	2370.02
478.827	2367.31
479.198	2430.59
479.569	2486.18
479.94	2577.47
480.311	2640.3
480.682	2685.72
481.053	2778.37
481.424	2826.96
481.795	2912.16
482.166	2992.38
482.537	3031.25
482.908	3181.98
483.279	3248.64
483.65	3329.32
484.021	3405.48
484.391	3473.95
484.762	3551.46
485.133	3548.3
485.503	3657.67
485.874	3772.25
486.244	3841.62
486.615	3962.52
486.985	4068.73
487.356	4220.14
487.726	4287.26
488.097	4346.92
488.467	4429.18
488.837	4525.22
489.207	4640.47
489.578	4789.85
489.948	4896.06
490.318	4987.58
490.688	4978.77
491.058	5158.65
491.428	5244.07
491.798	5329.72
492.168	5520.45
492.538	5565.19
492.908	5701.23
493.278	5781.91
493.648	5886.54
494.017	6009.47
494.387	6108.23
494.757	6217.83
495.126	6333.76
495.496	6356.13
495.866	6493.53
496.235	6615.11
496.605	6693.75
496.974	6823.92
497.344	6890.36
497.713	6939.85
498.082	7047.64
498.452	7217.8
498.821	7304.13
499.19	7306.39
499.559	7448.98
499.928	7495.09
500.298	7626.61
500.667	7728.3
501.036	7839.26
501.405	7848.97
501.774	7918.8
502.143	8031.34
502.512	8035.41
502.88	8242.86
503.249	8267.04
503.618	8375.51
503.987	8453.48
504.356	8573.93
504.724	8617.54
505.093	8652.34
505.462	8747.71
505.83	8817.54
506.199	8951.09
506.567	9082.39
506.936	9083.52
507.304	9219.79
507.672	9247.36
508.041	9307.47
508.409	9438.09
508.777	9483.51
509.145	9582.71
509.514	9561.25
509.882	9641.47
510.25	9823.39
510.618	9862.03
510.986	9808.92
511.354	9985.87
511.722	10050.5
512.09	10142.02
512.458	10205.75
512.826	10245.3
513.193	10386.53
513.561	10403.48
513.929	10512.41
514.297	10574.1
514.664	10655.68
515.032	10704.94
515.4	10793.53
515.767	10830.82
516.135	10920.08
516.502	10949.23
516.869	11043.01
517.237	11118.27
517.604	11061.55
517.972	11159.62
518.339	11256.79
518.706	11331.37
519.073	11397.36
519.44	11510.35
519.808	11615.43
520.175	11549.89
520.542	11798.25
520.909	11765.48
521.276	11788.98
521.643	11936.1
522.009	12000.96
522.376	12084.57
522.743	12167.73
523.11	12235.53
523.477	12407.95
523.843	12402.98
524.21	12552.81
524.577	12658.34
524.943	12699.02
525.31	12762.74
525.676	12861.27
526.043	12899.46
526.409	13017.65
526.776	13157.08
527.142	13162.96
527.508	13158.89
527.874	13310.53
528.241	13474.14
528.607	13447.7
528.973	13575.15
529.339	13576.96
529.705	13707.58
530.071	13855.37
530.437	13920
530.803	14016.04
531.169	14055.14
531.535	14051.3
531.901	14122.71
532.267	14141.46
532.632	14295.58
532.998	14258.98
533.364	14452.19
533.73	14408.58
534.095	14599.53
534.461	14624.62
534.826	14682.24
535.192	14709.58
535.557	14796.14
535.923	14824.16
536.288	14894.66
536.653	14988
537.019	15036.13
537.384	14994.1
537.749	15213.53
538.114	15074.77
538.479	15221.21
538.845	15255.79
539.21	15258.72
539.575	15330.36
539.94	15437.7
540.305	15556.12
540.67	15538.72
541.034	15606.06
541.399	15622.78
541.764	15698.94
542.129	15756.56
542.494	15830.69
542.858	15906.62
543.223	15887.63
543.587	16100.96
543.952	16018.93
544.316	16151.58
544.681	16129.89
545.045	16208.75
545.41	16297.34
545.774	16376.43
546.138	16372.59
546.503	16415.98
546.867	16500.5
547.231	16636.31
547.595	16604.45
547.959	16804.67
548.324	16736.2
548.688	16768.74
549.052	16884.22
549.416	16904.56
549.779	16950.66
550.143	16948.62
550.507	17150.2
550.871	17140.48
551.235	17180.48
551.599	17272.23
551.962	17323.53
552.326	17312.91
552.689	17379.35
553.053	17381.15
553.417	17449.17
553.78	17777.3
554.143	17575.27
554.507	17662.95
554.87	17785.89
555.234	17917.41
555.597	17825.89
555.96	18062.27
556.323	18035.15
556.686	18062.49
557.05	18219.1
557.413	18245.09
557.776	18272.2
558.139	18267.23
558.502	18346.78
558.865	18388.13
559.228	18552.2
559.59	18591.52
559.953	18630.84
560.316	18793.09
560.679	18752.87
561.041	18858.4
561.404	18950.15
561.767	19151.28
562.129	19073.99
562.492	19233.76
562.854	19313.76
563.217	19251.39
563.579	19316.7
563.941	19518.27
564.304	19588.33
564.666	19588.78
565.028	19730.47
565.39	19692.28
565.753	19818.6
566.115	19962.55
566.477	20028.32
566.839	20028.99
567.201	20185.83
567.563	20299.27
567.925	20407.51
568.287	20360.06
568.648	20431.02
569.01	20514.4
569.372	20587.62
569.734	20589.43
570.095	20838.24
570.457	20819.93
570.819	20928.4
571.18	21079.36
571.542	21017.44
571.903	21119.13
572.265	21269.64
572.626	21291.11
572.987	21395.74
573.349	21565.9
573.71	21524.1
574.071	21602.29
574.432	21757.76
574.794	21937.19
575.155	21878.21
575.516	21897.87
575.877	22122.05
576.238	22167.69
576.599	22375.15
576.96	22461.92
577.32	22454.69
577.681	22671.64
578.042	22870.95
578.403	22875.25
578.763	23054.68
579.124	23053.09
579.485	23315.91
579.845	23555.91
580.206	23582.57
580.566	23763.58
580.927	23838.84
581.287	24066.85
581.648	24087.19
582.008	24369.44
582.368	24430.69
582.728	24562.43
583.089	24815.31
583.449	24817.34
583.809	25030.67
584.169	25265.92
584.529	25289.19
584.889	25764.66
585.249	25744.32
585.609	25899.8
585.969	26223.41
586.329	26314.93
586.688	26606
587.048	26745.88
587.408	26854.8
587.768	27148.13
588.127	27173.21
588.487	27344.06
588.846	27816.58
589.206	27842.12
589.565	27940.88
589.925	28340.86
590.284	28386.51
590.643	28601.88
591.003	28882.55
591.362	29080.96
591.721	29148.53
592.08	29414.74
592.44	29855.85
592.799	29910.09
593.158	30071.21
593.517	30250.42
593.876	30577.64
594.235	30635.72
594.593	30833.23
594.952	31183.73
595.311	31197.06
595.67	31497.17
596.029	31897.61
596.387	32040.43
596.746	32168.11
597.104	32280.65
597.463	32416.01
597.822	32754.31
598.18	32777.13
598.538	32980.52
598.897	33244.46
599.255	33419.83
599.613	33845.13
599.972	33890.32
600.33	34044.44
600.688	34167.6
601.046	34265.91
601.404	34543.19
601.762	34700.92
602.12	35083.74
602.478	35196.96
602.836	35255.94
603.194	35379.78
603.552	35468.36
603.91	35497.06
604.268	35917.16
604.625	35894.34
604.983	36262.69
605.341	36212.3
605.698	36478.05
606.056	36650.03
606.413	36603.25
606.771	36894.54
607.128	36977.93
607.485	37008.66
607.843	37117.13
608.2	37493.62
608.557	37653.39
608.914	37448.87
609.272	37891.57
609.629	37986.71
609.986	38268.06
610.343	38242.75
610.7	38550.77
611.057	38518.68
611.414	38621.5
611.771	38716.86
612.127	38989.17
612.484	38972.68
612.841	39215.61
613.198	39267.58
613.554	39315.27
613.911	39613.79
614.267	39628.7
614.624	39769.49
614.98	39859.43
615.337	40028.69
615.693	40020.33
616.05	39988.92
616.406	40269.36
616.762	40474.78
617.118	40286.99
617.475	40315.92
617.831	40463.26
618.187	40653.31
618.543	40724.27
618.899	41131.26
619.255	40928.56
619.611	41021.44
619.967	41269.79
620.323	41302.78
620.678	41251.49
621.034	41227.76
621.39	41197.93
621.746	41385.49
622.101	41806.73
622.457	41602.89
622.812	41642.89
623.168	41833.84
623.523	41771.47
623.879	41979.6
624.234	41837.69
624.589	41971.02
624.945	42049.21
625.3	42105.93
625.655	42067.74
626.01	42231.8
626.365	42257.56
626.72	42151.12
627.075	42247.84
627.43	42228.18
627.785	42151.8
628.14	42331.46
628.495	42385.69
628.85	42472.47
629.205	42201.29
629.559	42432.02
629.914	42382.08
630.269	42371.23
630.623	42290.1
630.978	42196.32
631.332	42469.31
631.687	42564.67
632.041	42532.36
632.396	42428.86
632.75	42458.01
633.104	42550.43
633.459	42251.01
633.813	42351.8
634.167	42343.89
634.521	42326.26
634.875	42488.52
635.229	42420.95
635.583	42221.86
635.937	42426.37
636.291	42242.65
636.645	42351.12
636.999	42201.74
637.352	42319.48
637.706	42151.58
638.06	42389.31
638.413	42201.29
638.767	42037.68
639.121	42133.95
639.474	41979.15
639.828	42019.83
640.181	42092.14
640.534	42044.01
640.888	41926.95
641.241	41735.99
641.594	41877.68
641.947	42035.42
642.301	41847.63
642.654	41924.91
643.007	41989.55
643.36	41993.84
643.713	41868.42
644.066	42031.58
644.419	41823
644.771	41570.35
645.124	41135.56
645.477	41129.46
645.83	40871.61
646.182	40777.83
646.535	40714.78
646.888	40700.77
647.24	40710.48
647.593	40808.56
647.945	40718.62
648.298	40544.61
648.65	40488.57
649.002	40378.06
649.355	40681.78
649.707	40548.45
650.059	40780.31
650.411	41235.67
650.763	41227.98
651.115	41661.42
651.467	41576.22
651.819	41509.78
652.171	41286.51
652.523	41295.33
652.875	41266.4
653.227	41195.44
653.578	41385.49
653.93	41350.01
654.282	41141.66
654.633	41075.9
654.985	41072.28
655.337	41130.36
655.688	41122.68
656.039	41213.75
656.391	40947.54
656.742	41185.95
657.094	41100.98
657.445	41087.42
657.796	41068.21
658.147	41078.38
658.498	41008.33
658.849	41149.34
659.2	41107.76
659.551	40973.53
659.902	40976.24
660.253	40960.87
660.604	41009.23
660.955	40923.36
661.306	41015.56
661.656	40939.86
662.007	41067.76
662.358	40975.11
662.708	40860.99
663.059	41014.43
663.409	40720.43
663.76	41049.23
664.11	40956.8
664.461	41056.91
664.811	40968.56
665.161	41026.41
665.511	40818.5
665.862	40878.84
666.212	41072.28
666.562	40986.63
666.912	40929.91
667.262	40816.92
667.612	40850.82
667.962	40943.47
668.312	40887.43
668.662	40940.76
669.011	40927.65
669.361	40780.54
669.711	40816.7
670.06	40654.89
670.41	40702.8
670.76	40620.77
671.109	40747.54
671.459	40621.45
671.808	40538.28
672.157	40612.86
672.507	40489.02
672.856	40460.77
673.205	40524.27
673.554	40588.45
673.904	40579.41
674.253	40626.64
674.602	40560.66
674.951	40023.72
675.3	39760.45
675.649	40405.18
675.998	40327.89
676.346	40470.72
676.695	40636.13
677.044	40234.11
677.393	40494.44
677.741	40395.92
678.09	40426.42
678.438	40175.81
678.787	40310.72
679.135	40288.57
679.484	39961.12
679.832	40277.27
680.181	40011.52
680.529	40094.91
680.877	39958.19
681.225	39881.8
681.573	40145.07
681.922	39851.3
682.27	39785.31
682.618	39818.76
682.966	39653.34
683.314	39636.84
683.661	39679.78
684.009	39452.66
684.357	39342.16
684.705	39279.56
685.053	39358.2
685.4	39363.17
685.748	39089.73
686.095	39101.26
686.443	39048.61
686.79	38893.36
687.138	39082.28
687.485	38930.42
687.832	38859.46
688.18	38959.79
688.527	38686.36
688.874	38750.99
689.221	38541.27
689.568	38604.32
689.915	38434.84
690.262	38509.19
690.609	38431
690.956	38230.1
691.303	38249.98
691.65	38057.67
691.997	37985.81
692.344	37825.59
692.69	37821.29
693.037	37902.87
693.383	37630.11
693.73	37663.33
694.077	37391.93
694.423	37507.86
694.769	37350.35
695.116	37278.26
695.462	37228.77
695.808	37032.61
696.155	37150.12
696.501	36770.47
696.847	36962.56
697.193	36644.15
697.539	36745.39
697.885	36640.31
698.231	36405.96
698.577	36455.91
698.923	36453.42
699.269	36161.22
699.614	36008.23
699.96	36026.09
700.306	36035.13
700.651	35738.41
700.997	35668.36
701.342	35708.13
701.688	35613.22
702.033	35520.56
702.379	35559.88
702.724	35429.72
703.069	35551.3
703.415	35075.6
703.76	35084.42
704.105	34958.09
704.45	34937.3
704.795	34634.26
705.14	34723.75
705.485	34631.32
705.83	34466.81
706.175	34654.6
706.52	34456.64
706.865	34345.45
707.209	34389.75
707.554	34232.91
707.899	34226.81
708.243	34039.7
708.588	34133.48
708.932	33912.92
709.277	33797.9
709.621	33946.59
709.966	33559.71
710.31	33640.16
710.654	33438.58
710.998	33352.03
711.342	33472.48
711.687	33400.39
712.031	33110.46
712.375	33052.61
712.719	33210.12
713.063	33185.48
713.407	33251.24
713.75	32884.02
714.094	32951.14
714.438	32741.88
714.782	32832.95
715.125	32619.62
715.469	32740.98
715.812	32439.97
716.156	32233.19
716.499	32459.4
716.843	32479.51
717.186	32313.87
717.53	32319.74
717.873	32378.27
718.216	32310.93
718.559	32097.83
718.902	31978.28
719.246	32120.43
719.589	31959.98
719.932	31966.08
720.275	31809.7
720.617	31730.15
720.96	31717.27
721.303	31696.93
721.646	31766.99
721.989	31485.64
722.331	31618.07
722.674	31498.97
723.016	31429.15
723.359	31396.38
723.701	31430.95
724.044	31353.67
724.386	31056.05
724.729	31216.5
725.071	31214.91
725.413	31085.2
725.755	31051.98
726.097	30879.56
726.439	30809.5
726.782	30777.64
727.124	30945.09
727.465	30821.25
727.807	30642.5
728.149	30692.67
728.491	30507.81
728.833	30604.99
729.175	30514.14
729.516	30438.66
729.858	30369.51
730.199	30412.22
730.541	30382.39
730.882	30378.1
731.224	30406.57
731.565	30270.76
731.906	30265.33
732.248	30273.24
732.589	29976.98
732.93	30013.36
733.271	30019.92
733.612	29951.22
733.953	30023.53
734.294	29916.87
734.635	29775.4
734.976	29905.12
735.317	29797.1
735.658	29881.39
735.999	29798.68
736.339	29528.18
736.68	29725.24
737.021	29597.78
737.361	29456.32
737.702	29569.08
738.042	29514.85
738.383	29473.04
738.723	29451.12
739.063	29321.63
739.404	29382.42
739.744	29308.07
740.084	29199.6
740.424	29123.9
740.764	29137
741.104	29270.56
741.444	29135.65
741.784	29055.87
742.124	28885.94
742.464	29094.74
742.804	28910.34
743.143	28825.15
743.483	28856.33
743.823	28634.19
744.162	28700.4
744.502	28846.84
744.841	28660.86
745.181	28858.14
745.52	28592.84
745.86	28734.53
746.199	28602.1
746.538	28454.99
746.877	28537.24
747.216	28386.74
747.556	28375.21
747.895	28432.16
748.234	28281.43
748.573	28183.13
748.911	28297.02
749.25	28207.76
749.589	28060.19
749.928	28153.98
750.267	28136.12
750.605	27964.6
750.944	27891.39
751.283	27848.22
751.621	27934.55
751.96	27713.54
752.298	27630.38
752.636	27695.46
752.975	27567.55
753.313	27595.12
753.651	27651.39
753.989	27438.74
754.327	27421.79
754.666	27353.09
755.004	27315.13
755.342	27383.83
755.679	27276.49
756.017	27172.08
756.355	27101.58
756.693	26998.98
757.031	27014.35
757.368	26893.45
757.706	26852.77
758.044	26739.33
758.381	26733.68
758.719	26635.6
759.056	26672.43
759.394	26662.04
759.731	26573.23
760.068	26449.39
760.405	26365.78
760.743	26256.4
761.08	26300.47
761.417	26102.28
761.754	26160.36
762.091	26173.24
762.428	25932.11
762.765	25782.74
763.102	25857.09
763.438	25712.91
763.775	25691.22
764.112	25683.31
764.449	25608.73
764.785	25490.09
765.122	25227.95
765.458	25286.26
765.795	25286.71
766.131	25193.6
766.467	24984.57
766.804	24916.55
767.14	24761.75
767.476	24979.82
767.812	24728.98
768.148	24687.18
768.485	24669.78
768.821	24494.19
769.157	24520.63
769.492	24350.69
769.828	24383.23
770.164	24145.5
770.5	24112.95
770.836	24092.84
771.171	23898.72
771.507	23845.39
771.842	23796.13
772.178	23757.48
772.513	23703.92
772.849	23579.63
773.184	23489.92
773.519	23419.41
773.855	23275.46
774.19	23291.05
774.525	23085.18
774.86	23138.52
775.195	23004.06
775.53	22967.45
775.865	22791.63
776.2	22621.02
776.535	22522.94
776.87	22494.24
777.205	22423.96
777.539	22373.11
777.874	22320.68
778.209	22146.45
778.543	22138.09
778.878	22011.54
779.212	22066.45
779.547	21901.49
779.881	21908.04
780.215	21710.08
780.55	21781.49
780.884	21733.81
781.218	21518.45
781.552	21522.06
781.886	21449.52
782.22	21405.91
782.554	21300.6
782.888	21150.77
783.222	21008.4
783.556	20959.59
783.889	20936.99
784.223	20796.2
784.557	20745.58
784.89	20659.49
785.224	20450.45
785.557	20529.54
785.891	20503.78
786.224	20389.89
786.558	20478.02
786.891	20195.32
787.224	20143.11
787.557	20010.01
787.891	20006.85
788.224	20092.27
788.557	20056.79
788.89	20068.54
789.223	19941.99
789.556	19689.34
789.888	19714.2
790.221	19668.1
790.554	19547.2
790.887	19549.46
791.219	19449.8
791.552	19438.73
791.884	19168.9
792.217	19187.66
792.549	19214.78
792.882	19036.7
793.214	18943.37
793.546	18913.32
793.879	18937.27
794.211	18784.28
794.543	18779.53
794.875	18717.39
795.207	18746.99
795.539	18619.31
795.871	18587.68
796.203	18325.54
796.535	18289.38
796.867	18301.81
797.198	18282.37
797.53	18190.62
797.862	18023.62
798.193	18060.23
798.525	17914.47
798.856	17952.89
799.188	17765.32
799.519	17788.83
799.85	17677.87
800.182	17704.08
800.513	17639.9
800.844	17550.64
801.175	17666.34
801.506	17525.78
801.837	17486.46
802.168	17520.13
802.499	17309.52
802.83	17337.54
803.161	17260.93
803.491	17263.87
803.822	17155.62
804.153	17143.19
804.483	17077.66
804.814	16970.99
805.145	16910.88
805.475	16887.38
805.805	16793.15
806.136	16804.67
806.466	16823.2
806.796	16776.42
807.126	16651.91
807.457	16564.68
807.787	16532.14
808.117	16564.68
808.447	16448.07
808.777	16455.3
809.107	16385.02
809.436	16300.73
809.766	16251.47
810.096	16197.68
810.426	16179.6
810.755	16215.08
811.085	16198.13
811.414	16103.22
811.744	15940.74
812.073	15982.09
812.403	15980.06
812.732	15849.89
813.061	15878.14
813.39	15789.33
813.719	15683.12
814.049	15827.75
814.378	15717.02
814.707	15654.64
815.036	15644.93
815.365	15501.88
815.693	15392.5
816.022	15395.22
816.351	15330.81
816.68	15322
817.008	15339.62
817.337	15187.09
817.665	15185.05
817.994	15228.22
818.322	15222.57
818.651	15115.9
818.979	15037.71
819.307	15130.82
819.636	15055.56
819.964	15014.21
820.292	15029.58
820.62	15010.14
820.948	14975.34
821.276	15023.48
821.604	14924.72
821.932	14908
822.259	14997.26
822.587	14908.9
822.915	14852.41
823.243	14860.32
823.57	14863.48
823.898	14880.88
824.225	14877.26
824.553	14879.07
824.88	14840.2
825.207	14982.35
825.535	14732.41
825.862	14886.3
826.189	14783.93
826.516	14916.13
826.843	14972.4
827.17	14821.67
827.497	14879.98
827.824	14837.27
828.151	14886.3
828.478	14847.66
828.805	14931.05
829.131	14792.75
829.458	14724.95
829.785	14808.11
830.111	14783.26
830.438	14862.8
830.764	14828.23
831.09	14784.61
831.417	14760.88
831.743	14779.41
832.069	14737.15
832.395	14751.84
832.722	14690.83
833.048	14737.61
833.374	14707.78
833.7	14744.16
834.026	14675.01
834.351	14693.54
834.677	14707.78
835.003	14650.38
835.329	14704.16
835.654	14644.73
835.98	14519.08
836.306	14599.31
836.631	14578.74
836.956	14594.79
837.282	14404.51
837.607	14442.47
837.932	14439.99
838.258	14400.89
838.583	14389.82
838.908	14338.52
839.233	14390.05
839.558	14385.53
839.883	14248.13
840.208	14179.88
840.533	14190.05
840.858	14207
841.182	14159.32
841.507	14177.4
841.832	14181.01
842.156	14081.58
842.481	14154.8
842.805	14065.31
843.13	14025.99
843.454	14067.34
843.778	13905.54
844.103	13989.83
844.427	13816.95
844.751	13889.95
845.075	13804.52
845.399	13785.77
845.723	13715.03
846.047	13765.2
846.371	13637.07
846.695	13578.54
847.019	13614.92
847.343	13479.79
847.666	13409.51
847.99	13360.02
848.313	13400.92
848.637	13238.89
848.96	13249.96
849.284	13263.75
849.607	13143.98
849.931	13161.15
850.254	12982.17
850.577	12915.51
850.9	12770.88
851.223	12809.52
851.546	12734.95
851.869	12736.08
852.192	12736.76
852.515	12646.81
852.838	12551.9
853.161	12508.51
853.483	12498.12
853.806	12403.2
854.129	12388.52
854.451	12361.62
854.774	12291.12
855.096	12204.79
855.419	12237.11
855.741	12159.82
856.063	12106.49
856.385	12089.77
856.708	12004.57
857.03	12042.31
857.352	12078.24
857.674	12038.69
857.996	11936.55
858.318	11823.79
858.64	11829.89
858.961	11779.04
859.283	11739.27
859.605	11769.55
859.926	11810
860.248	11730.68
860.57	11695.43
860.891	11630.34
861.212	11624.69
861.534	11529.1
861.855	11550.8
862.176	11489.56
862.498	11505.83
862.819	11462.44
863.14	11468.77
863.461	11502.44
863.782	11430.35
864.103	11410.69
864.424	11393.74
864.745	11415.43
865.065	11326.17
865.386	11355.1
865.707	11357.81
866.027	11311.48
866.348	11194.65
866.668	11213.86
866.989	11229.22
867.309	11144.48
867.63	11158.94
867.95	11124.82
868.27	11009.12
868.59	11080.75
868.91	11059.06
869.23	11107.87
869.55	10987.87
869.87	11092.73
870.19	11003.02
870.51	11050.25
870.83	11052.73
871.15	10875.34
871.469	10891.61
871.789	10896.8
872.109	10943.36
872.428	10916.92
872.748	10929.57
873.067	10842.34
873.386	10904.94
873.706	10789.46
874.025	10744.94
874.344	10728.67
874.663	10753.76
874.982	10723.25
875.301	10706.75
875.62	10660.43
875.939	10670.14
876.258	10685.06
876.577	10621.33
876.896	10613.65
877.214	10613.42
877.533	10613.87
877.852	10582.01
878.17	10546.3
878.489	10609.35
878.807	10603.93
879.125	10492.07
879.444	10524.84
879.762	10451.84
880.08	10433.77
880.398	10428.79
880.716	10442.58
881.034	10340.21
881.352	10353.99
881.67	10355.8
881.988	10354.45
882.306	10297.72
882.624	10227.22
882.941	10235.8
883.259	10266.31
883.577	10192.42
883.894	10164.62
884.212	10134.56
884.529	10102.02
884.846	10116.71
885.164	10101.12
885.481	9981.12
885.798	10059.54
886.115	10063.83
886.432	10010.95
886.75	10041.46
887.067	9930.95
887.383	9895.93
887.7	9934.8
888.017	9912.87
888.334	9842.14
888.651	9825.19
888.967	9834.46
889.284	9794.23
889.6	9750.85
889.917	9694.8
890.233	9654.58
890.55	9637.63
890.866	9637.4
891.182	9659.55
891.498	9586.56
891.815	9588.36
892.131	9574.35
892.447	9567.35
892.763	9509.95
893.079	9426.79
893.395	9494.35
893.71	9417.07
894.026	9385.43
894.342	9383.4
894.657	9289.61
894.973	9207.36
895.289	9261.14
895.604	9192.67
895.92	9231.99
896.235	9093.46
896.55	9098.66
896.865	9108.83
897.181	9060.47
897.496	9101.37
897.811	9034.25
898.126	8976.85
898.441	8966.91
898.756	8873.13
899.071	8850.08
899.386	8888.5
899.7	8823.86
900.015	8756.07
900.33	8672.46
900.644	8683.75
900.959	8773.24
901.273	8639.46
901.588	8630.2
901.902	8685.34
902.216	8604.66
902.531	8579.35
902.845	8587.94
903.159	8495.96
903.473	8417.32
903.787	8433.37
904.101	8335.52
904.415	8355.85
904.729	8349.53
905.042	8330.54
905.356	8228.63
905.67	8274.27
905.984	8210.55
906.297	8196.08
906.611	8098.69
906.924	8151.57
907.237	8142.98
907.551	8036.77
907.864	8025.47
908.177	8052.58
908.491	7993.6
908.804	7891.46
909.117	7839.26
909.43	7869.31
909.743	7769.43
910.056	7845.81
910.368	7738.69
910.681	7694.18
910.994	7734.85
911.307	7624.12
911.619	7544.8
911.932	7629.55
912.244	7562.43
912.557	7514.52
912.869	7555.2
913.181	7508.87
913.494	7459.38
913.806	7396.56
914.118	7352.26
914.43	7370.12
914.742	7336.67
915.054	7253.96
915.366	7219.39
915.678	7211.25
915.99	7197.47
916.302	7180.74
916.613	7150.01
916.925	7160.63
917.236	7139.16
917.548	7063.91
917.859	7009.22
918.171	6996.12
918.482	7001.54
918.794	6927.19
919.105	6937.36
919.416	6900.07
919.727	6890.36
920.038	6785.05
920.349	6748.21
920.66	6731.94
920.971	6728.55
921.282	6734.88
921.593	6695.11
921.903	6630.48
922.214	6640.87
922.525	6584.37
922.835	6589.57
923.146	6532.85
923.456	6473.19
923.767	6490.37
924.077	6480.65
924.387	6461.44
924.697	6364.95
925.008	6423.02
925.318	6367.21
925.628	6340.31
925.938	6298.05
926.248	6233.2
926.558	6221.9
926.867	6185.97
927.177	6226.64
927.487	6145.52
927.796	6087.44
928.106	6088.57
928.416	6071.39
928.725	6062.13
929.034	6060.32
929.344	6050.83
929.653	5999.53
929.962	5951.4
930.271	5945.97
930.581	5880.66
930.89	5891.51
931.199	5828.46
931.508	5858.97
931.817	5813.32
932.125	5778.52
932.434	5745.98
932.743	5689.48
933.051	5739.2
933.36	5666.66
933.669	5662.14
933.977	5564.74
934.286	5588.92
934.594	5588.92
934.902	5500.11
935.21	5520.22
935.519	5523.84
935.827	5549.83
936.135	5438.64
936.443	5423.28
936.751	5395.93
937.059	5399.1
937.367	5390.51
937.674	5357.74
937.982	5337.18
938.29	5276.61
938.597	5290.62
938.905	5267.8
939.213	5221.92
939.52	5203.39
939.827	5224.18
940.135	5172.43
940.442	5133.11
940.749	5161.81
941.056	5148.71
941.363	5085.88
941.67	5103.96
941.977	5044.75
942.284	4965.66
942.591	4976.06
942.898	4964.08
943.205	4979.9
943.511	4957.3
943.818	4905.32
944.125	4887.7
944.431	4842.5
944.738	4871.65
945.044	4865.78
945.35	4787.81
945.657	4775.16
945.963	4732.9
946.269	4728.83
946.575	4765.21
946.881	4683.41
947.187	4698.32
947.493	4675.95
947.799	4630.98
948.105	4576.74
948.41	4598.21
948.716	4653.35
949.022	4530.42
949.327	4599.12
949.633	4480.02
949.938	4535.16
950.244	4469.18
950.549	4446.35
950.854	4435.05
951.16	4435.96
951.465	4439.35
951.77	4373.36
952.075	4365.45
952.38	4386.01
952.685	4391.21
952.99	4357.54
953.294	4282.74
953.599	4269.86
953.904	4272.57
954.209	4218.34
954.513	4172.91
954.818	4184.66
955.122	4157.55
955.426	4142.86
955.731	4159.58
956.035	4156.19
956.339	4099.92
956.643	4090.43
956.948	4051.11
957.252	4014.05
957.556	4010.43
957.86	3980.15
958.163	4047.04
958.467	4010.43
958.771	3999.81
959.075	3989.87
959.378	3964.33
959.682	3947.61
959.985	3929.98
960.289	3896.08
960.592	3861.51
960.896	3840.49
961.199	3823.77
961.502	3831.9
961.805	3819.7
962.108	3758.23
962.411	3797.56
962.714	3746.26
963.017	3739.48
963.32	3708.74
963.623	3696.77
963.926	3715.07
964.228	3684.79
964.531	3663.55
964.833	3621.51
965.136	3623.32
965.438	3595.98
965.741	3581.97
966.043	3602.53
966.345	3572.02
966.648	3519.6
966.95	3506.26
967.252	3525.02
967.554	3477.79
967.856	3460.62
968.158	3433.27
968.46	3404.12
968.761	3442.54
969.063	3434.4
969.365	3367.74
969.666	3385.36
969.968	3384.91
970.269	3347.4
970.571	3374.74
970.872	3315.08
971.174	3299.94
971.475	3305.59
971.776	3306.04
972.077	3283.22
972.378	3261.98
972.679	3273.5
972.98	3239.15
973.281	3223.79
973.582	3226.5
973.883	3206.16
974.183	3173.84
974.484	3173.62
974.785	3176.78
975.085	3177.68
975.386	3129.32
975.686	3130.45
975.986	3091.13
976.287	3097.46
976.587	3054.98
976.887	3060.63
977.187	3030.12
977.487	3047.29
977.787	3013.62
978.087	2990.57
978.387	2961.65
978.687	2962.1
978.987	2941.98
979.286	2934.08
979.586	2957.8
979.885	2900.4
980.185	2901.99
980.484	2876.22
980.784	2870.57
981.083	2837.35
981.382	2888.88
981.682	2851.14
981.981	2856.79
982.28	2821.31
982.579	2798.71
982.878	2824.47
983.177	2790.35
983.475	2760.75
983.774	2750.13
984.073	2744.25
984.372	2744.7
984.67	2723.23
984.969	2727.3
985.267	2690.01
985.566	2682.1
985.864	2704.93
986.162	2682.56
986.461	2616.34
986.759	2628.09
987.057	2601.2
987.355	2604.14
987.653	2618.6
987.951	2591.94
988.249	2563.01
988.547	2607.76
988.844	2559.62
989.142	2556.23
989.44	2503.13
989.737	2514.88
990.035	2512.39
990.332	2490.02
990.63	2481.21
990.927	2486.86
991.224	2463.35
991.521	2457.93
991.819	2446.4
992.116	2459.96
992.413	2415.9
992.71	2402.34
993.006	2392.85
993.303	2391.26
993.6	2356.46
993.897	2385.84
994.193	2342.9
994.49	2368.44
994.787	2308.1
995.083	2317.59
995.379	2313.3
995.676	2275.11
995.972	2278.5
996.268	2295
996.565	2296.35
996.861	2223.59
997.157	2274.43
997.453	2242.79
997.749	2213.64
998.044	2196.24
998.34	2184.94
998.636	2179.07
998.932	2170.25
999.227	2127.99
999.523	2121.22
999.818	2141.1
1000.114	2112.18
1000.409	2113.53
1000.704	2076.24
1001	2123.48
1001.295	2082.57
1001.59	2084.83
1001.885	2054.55
1002.18	2045.06
1002.475	2055.23
1002.77	2027.21
1003.065	1990.82
1003.359	2014.1
1003.654	2008.22
1003.949	2000.54
1004.243	1999.41
1004.538	1941.56
1004.832	1956.02
1005.127	1940.88
1005.421	1920.09
1005.715	1899.07
1006.009	1916.7
1006.304	1910.15
1006.598	1896.81
1006.892	1888.68
1007.186	1883.48
1007.48	1838.96
1007.773	1842.35
1008.067	1839.87
1008.361	1799.87
1008.655	1807.33
1008.948	1799.42
1009.242	1790.83
1009.535	1784.73
1009.829	1764.84
1010.122	1779.3
1010.415	1755.12
1010.708	1748.8
1011.001	1747.89
1011.295	1738.85
1011.588	1716.71
1011.881	1677.39
1012.173	1703.37
1012.466	1692.75
1012.759	1660.89
1013.052	1685.29
1013.344	1674
1013.637	1659.53
1013.93	1665.41
1014.222	1637.61
1014.514	1635.35
1014.807	1612.3
1015.099	1599.65
1015.391	1576.6
1015.683	1587.22
1015.976	1556.03
1016.268	1566.65
1016.56	1535.92
1016.851	1524.17
1017.143	1583.38
1017.435	1557.61
1017.727	1514
1018.018	1516.71
1018.31	1498.63
1018.602	1517.84
1018.893	1461.57
1019.185	1480.78
1019.476	1451.18
1019.767	1476.26
1020.058	1468.35
1020.35	1460.67
1020.641	1427.9
1020.932	1391.29
1021.223	1389.94
1021.514	1384.74
1021.804	1415.47
1022.095	1355.13
1022.386	1382.7
1022.677	1368.47
1022.967	1328.47
1023.258	1352.87
1023.548	1324.17
1023.839	1362.14
1024.129	1307.23
1024.419	1304.06
1024.709	1287.79
1025	1312.2
1025.29	1296.15
1025.58	1269.26
1025.87	1269.71
1026.16	1261.13
1026.449	1271.52
1026.739	1241.92
1027.029	1229.71
1027.319	1245.76
1027.608	1220.9
1027.898	1211.41
1028.187	1198.75
1028.477	1197.17
1028.766	1179.32
1029.055	1169.6
1029.344	1186.32
1029.634	1146.1
1029.923	1173.22
1030.212	1152.2
1030.501	1151.07
1030.79	1137.74
1031.078	1112.88
1031.367	1127.57
1031.656	1130.51
1031.945	1111.75
1032.233	1081.92
1032.522	1092.99
1032.81	1110.39
1033.099	1064.07
1033.387	1092.54
1033.675	1045.76
1033.963	1056.38
1034.251	1074.92
1034.54	1064.29
1034.828	1030.62
1035.116	1013.67
1035.403	1026.55
1035.691	1011.87
1035.979	1013
1036.267	998.31
1036.554	992.21
1036.842	992.43
1037.129	986.78
1037.417	972.55
1037.704	975.71
1037.992	963.05
1038.279	946.56
1038.566	949.04
1038.853	949.04
1039.14	949.04
