Data from hue_240_FLMS001491_00019.txt Node
Date: Tue Feb 07 16:35:07 GMT 2017
User: dcchb
Spectrometer: FLMS00149
Trigger mode: 0
Integration Time (sec): 2.000000E-2
Scans to average: 10
Electric dark correction enabled: true
Nonlinearity correction enabled: false
Boxcar width: 0
XAxis mode: Wavelengths
Number of Pixels in Spectrum: 2048
>>>>>Begin Spectral Data<<<<<
341.393	-28.11
341.776	-28.11
342.16	-28.11
342.543	-52.51
342.927	-54.55
343.31	-74.21
343.693	-81.21
344.077	-80.99
344.46	-48.9
344.843	-53.87
345.226	-45.73
345.61	-20.88
345.993	-18.39
346.376	0.82
346.759	24.1
347.142	29.52
347.525	36.98
347.908	47.37
348.291	63.64
348.674	104.09
349.057	117.65
349.44	125.79
349.823	159.23
350.206	154.04
350.588	220.47
350.971	199.23
351.354	225.9
351.737	223.86
352.119	231.1
352.502	250.08
352.884	262.51
353.267	279
353.65	279.68
354.032	295.5
354.414	291.21
354.797	309.51
355.179	315.61
355.562	316.74
355.944	318.55
356.326	306.12
356.709	321.49
357.091	315.16
357.473	326.46
357.855	324.65
358.238	323.52
358.62	349.51
359.002	329.62
359.384	320.58
359.766	349.28
360.148	313.81
360.53	337.31
360.912	341.38
361.294	319.68
361.676	319
362.057	323.75
362.439	334.82
362.821	293.69
363.203	307.7
363.584	300.7
363.966	317.87
364.348	300.47
364.729	299.12
365.111	322.84
365.493	317.87
365.874	312.22
366.256	312.68
366.637	306.12
367.019	323.07
367.4	302.73
367.781	311.55
368.163	291.21
368.544	304.09
368.925	313.58
369.306	321.94
369.688	317.2
370.069	298.44
370.45	296.86
370.831	311.09
371.212	328.49
371.593	322.39
371.974	326.46
372.355	326.91
372.736	297.31
373.117	303.41
373.498	310.42
373.879	314.71
374.26	311.32
374.641	302.96
375.021	310.87
375.402	302.28
375.783	336.18
376.163	322.62
376.544	309.29
376.925	324.88
377.305	304.31
377.686	332.56
378.066	311.32
378.447	303.86
378.827	327.82
379.208	323.3
379.588	315.61
379.968	322.39
380.349	305.44
380.729	327.82
381.109	319.68
381.489	316.74
381.87	334.14
382.25	318.78
382.63	352.22
383.01	331.88
383.39	319.23
383.77	325.33
384.15	329.17
384.53	329.85
384.91	354.03
385.29	352
385.67	341.38
386.049	337.31
386.429	327.14
386.809	359.23
387.189	335.5
387.568	343.18
387.948	336.18
388.328	343.86
388.707	347.25
389.087	341.15
389.466	361.04
389.846	358.32
390.225	359.68
390.605	349.28
390.984	361.71
391.363	362.39
391.743	365.1
392.122	356.29
392.501	363.75
392.881	362.62
393.26	379.34
393.639	375.72
394.018	387.48
394.397	360.58
394.776	357.42
395.155	378.44
395.534	370.98
395.913	385.22
396.292	372.33
396.671	408.72
397.05	391.32
397.429	377.31
397.808	372.79
398.186	405.1
398.565	390.41
398.944	410.75
399.323	381.6
399.701	383.63
400.08	408.49
400.458	386.8
400.837	395.84
401.215	411.88
401.594	385.89
401.972	416.4
402.351	414.37
402.729	429.51
403.107	420.92
403.486	427.02
403.864	427.93
404.242	424.99
404.62	424.08
404.999	414.14
405.377	432.22
405.755	439.23
406.133	430.41
406.511	461.15
406.889	440.13
407.267	443.75
407.645	461.37
408.023	484.42
408.401	476.74
408.779	467.93
409.156	478.55
409.534	476.51
409.912	497.08
410.29	508.6
410.667	519.9
411.045	507.25
411.422	483.97
411.8	502.95
412.178	517.19
412.555	534.14
412.933	500.92
413.31	543.86
413.687	551.31
414.065	556.51
414.442	555.38
414.819	552.22
415.197	583.85
415.574	578.66
415.951	592.67
416.328	566.68
416.705	595.15
417.082	588.6
417.46	613.23
417.837	588.6
418.214	627.92
418.591	620.24
418.967	586.57
419.344	622.5
419.721	620.24
420.098	642.84
420.475	634.93
420.852	654.36
421.228	683.06
421.605	667.02
421.982	660.69
422.358	682.84
422.735	687.13
423.111	704.08
423.488	710.18
423.864	716.96
424.241	728.26
424.617	723.96
424.994	754.02
425.37	765.54
425.746	754.25
426.123	770.29
426.499	770.52
426.875	806
427.251	815.49
427.627	793.57
428.003	821.59
428.379	836.73
428.756	843.51
429.132	845.77
429.507	850.06
429.883	851.87
430.259	870.85
430.635	900.91
431.011	923.51
431.387	894.81
431.763	905.88
432.138	916.95
432.514	924.41
432.89	928.93
433.265	987.01
433.641	976.39
434.016	973.9
434.392	996.95
434.767	1026.78
435.143	1019.78
435.518	1052.54
435.894	1048.93
436.269	1081.24
436.644	1093.67
437.02	1084.86
437.395	1104.74
437.77	1124.18
438.145	1154.01
438.52	1158.08
438.895	1169.38
439.271	1182.48
439.646	1206.66
440.021	1220.22
440.395	1195.59
440.77	1201.92
441.145	1223.84
441.52	1264.97
441.895	1269.03
442.27	1292.31
442.645	1289.82
443.019	1312.2
443.394	1315.81
443.769	1338.64
444.143	1292.08
444.518	1342.7
444.892	1372.08
445.267	1353.78
445.641	1362.14
446.016	1369.14
446.39	1364.4
446.764	1438.52
447.139	1392.42
447.513	1388.35
447.887	1396.26
448.262	1408.47
448.636	1448.01
449.01	1441.91
449.384	1484.17
449.758	1492.08
450.132	1487.11
450.506	1521.01
450.88	1491.85
451.254	1517.84
451.628	1526.2
452.002	1556.94
452.376	1542.25
452.75	1564.39
453.123	1584.51
453.497	1596.48
453.871	1592.19
454.244	1645.75
454.618	1677.84
454.992	1679.42
455.365	1649.82
455.739	1730.49
456.112	1735.24
456.486	1727.1
456.859	1759.42
457.232	1782.47
457.606	1780.43
457.979	1822.47
458.352	1845.74
458.725	1864.95
459.099	1826.53
459.472	1878.28
459.845	1936.36
460.218	1924.84
460.591	1926.19
460.964	1930.03
461.337	2016.13
461.71	1980.43
462.083	2029.01
462.456	2015.91
462.829	2038.28
463.201	2098.39
463.574	2060.88
463.947	2117.15
464.32	2170.03
464.692	2169.35
465.065	2191.5
465.438	2229.69
465.81	2245.28
466.183	2271.72
466.555	2299.52
466.928	2312.62
467.3	2313.07
467.672	2368.21
468.045	2385.84
468.417	2367.08
468.789	2407.08
469.161	2453.64
469.534	2483.92
469.906	2502.45
470.278	2535.44
470.65	2565.5
471.022	2606.4
471.394	2678.94
471.766	2636
472.138	2715.1
472.51	2719.17
472.882	2778.6
473.253	2821.31
473.625	2857.69
473.997	2910.12
474.369	2920.29
474.74	2952.83
475.112	3042.1
475.484	3046.39
475.855	3032.15
476.227	3094.98
476.598	3163.45
476.97	3182.2
477.341	3234.18
477.713	3272.37
478.084	3278.47
478.455	3400.5
478.827	3423.78
479.198	3480.95
479.569	3515.08
479.94	3540.16
480.311	3591.46
480.682	3662.19
481.053	3737.44
481.424	3782.41
481.795	3842.3
482.166	3872.36
482.537	3948.74
482.908	3985.12
483.279	3966.82
483.65	4069.41
484.021	4175.4
484.391	4159.81
484.762	4203.19
485.133	4243.42
485.503	4322.97
485.874	4350.54
486.244	4383.98
486.615	4454.49
486.985	4496.07
487.356	4584.65
487.726	4622.39
488.097	4694.71
488.467	4698.32
488.837	4793.69
489.207	4868.26
489.578	4939.67
489.948	4945.1
490.318	4982.16
490.688	5000.46
491.058	5103.06
491.428	5154.58
491.798	5184.41
492.168	5229.61
492.538	5323.17
492.908	5304.63
493.278	5378.53
493.648	5410.85
494.017	5437.06
494.387	5485.42
494.757	5541.01
495.126	5574.46
495.496	5557.74
495.866	5596.38
496.235	5641.57
496.605	5720.67
496.974	5725.41
497.344	5767.9
497.713	5820.78
498.082	5782.81
498.452	5906.65
498.821	5901.45
499.19	5933.54
499.559	5957.95
499.928	5991.62
500.298	6006.09
500.667	6122.69
501.036	6037.72
501.405	6115.69
501.774	6093.31
502.143	6139.87
502.512	6173.99
502.88	6207.21
503.249	6235.68
503.618	6201.33
503.987	6262.12
504.356	6327.66
504.724	6327.66
505.093	6352.52
505.462	6312.29
505.83	6365.62
506.199	6390.71
506.567	6472.51
506.936	6506.18
507.304	6553.19
507.672	6578.5
508.041	6561.78
508.409	6633.64
508.777	6625.5
509.145	6664.15
509.514	6648.1
509.882	6677.25
510.25	6700.3
510.618	6727.87
510.986	6757.7
511.354	6725.16
511.722	6819.85
512.09	6839.28
512.458	6777.82
512.826	6853.75
513.193	6870.24
513.561	6879.73
513.929	6953.4
514.297	7013.29
514.664	7044.93
515.032	7006.28
515.4	7076.11
515.767	7020.07
516.135	7106.17
516.502	6991.37
516.869	7105.27
517.237	7215.32
517.604	7059.62
517.972	7177.81
518.339	7123.8
518.706	7177.81
519.073	7147.75
519.44	7196.11
519.808	7306.16
520.175	7268.65
520.542	7298.48
520.909	7262.1
521.276	7345.48
521.643	7372.15
522.009	7381.64
522.376	7411.02
522.743	7411.02
523.11	7457.8
523.477	7510.23
523.843	7566.27
524.21	7556.78
524.577	7621.18
524.943	7564.24
525.31	7602.65
525.676	7611.47
526.043	7684.01
526.409	7699.83
526.776	7778.47
527.142	7750.45
527.508	7706.83
527.874	7753.38
528.241	7752.71
528.607	7774.85
528.973	7841.29
529.339	7838.35
529.705	7864.12
530.071	7909.54
530.437	7907.05
530.803	7882.65
531.169	7917.22
531.535	7885.13
531.901	7924.45
532.267	7972.14
532.632	7965.58
532.998	7977.78
533.364	8034.73
533.73	7988.18
534.095	8030.89
534.461	7931.46
534.826	7993.6
535.192	7992.02
535.557	8083.09
535.923	8040.61
536.288	7996.09
536.653	8018.91
537.019	7988.63
537.384	8025.24
537.749	8031.57
538.114	8004.68
538.479	8031.34
538.845	8078.35
539.21	7986.15
539.575	7992.7
539.94	8013.94
540.305	8060.49
540.67	7974.39
541.034	8048.97
541.399	7983.66
541.764	7989.31
542.129	8042.87
542.494	8055.07
542.858	8025.47
543.223	8003.32
543.587	8010.78
543.952	8008.74
544.316	8054.39
544.681	7981.17
545.045	8025.01
545.41	8012.59
545.774	8029.99
546.138	7973.26
546.503	8053.26
546.867	7991.8
547.231	8003.32
547.595	8022.08
547.959	8028.4
548.324	8014.85
548.688	8026.6
549.052	8060.04
549.416	7984.34
549.779	8005.13
550.143	8020.72
550.507	7947.73
550.871	7946.82
551.235	8016.2
551.599	8058.46
551.962	8030.89
552.326	7985.24
552.689	8033.38
553.053	7964.9
553.417	7973.26
553.78	8063.43
554.143	7975.98
554.507	8011
554.87	8022.53
555.234	8059.14
555.597	7975.3
555.96	8054.84
556.323	8082.64
556.686	8011.91
557.05	8093.26
557.413	8056.43
557.776	8114.28
558.139	8109.98
558.502	8096.88
558.865	8031.79
559.228	8155.63
559.59	8147.95
559.953	8139.81
560.316	8212.81
560.679	8144.56
561.041	8233.37
561.404	8205.58
561.767	8287.83
562.129	8203.32
562.492	8299.58
562.854	8309.53
563.217	8303.88
563.579	8347.27
563.941	8371.9
564.304	8342.29
564.666	8342.29
565.028	8429.07
565.39	8401.5
565.753	8402.18
566.115	8440.82
566.477	8432.01
566.839	8471.78
567.201	8533.02
567.563	8508.62
567.925	8626.58
568.287	8554.04
568.648	8545
569.01	8618.9
569.372	8639.24
569.734	8613.93
570.095	8690.53
570.457	8655.51
570.819	8682.62
571.18	8647.15
571.542	8686.92
571.903	8714.71
572.265	8775.73
572.626	8855.73
572.987	8784.54
573.349	8874.26
573.71	8911.09
574.071	8827.71
574.432	8929.62
574.794	8914.48
575.155	8931.66
575.516	8901.15
575.877	8972.56
576.238	8951.77
576.599	9058.43
576.96	9035.16
577.32	9093.69
577.681	9105.89
578.042	9036.29
578.403	9143.18
578.763	9077.19
579.124	9126
579.485	9156.51
579.845	9207.36
580.206	9148.83
580.566	9230.63
580.927	9198.54
581.287	9244.42
581.648	9259.56
582.008	9229.28
582.368	9226.57
582.728	9253.68
583.089	9278.77
583.449	9282.84
583.809	9343.17
584.169	9321.93
584.529	9323.96
584.889	9367.58
585.249	9320.8
585.609	9284.19
585.969	9379.78
586.329	9349.05
586.688	9387.01
587.048	9397.86
587.408	9331.42
587.768	9392.66
588.127	9479.67
588.487	9422.04
588.846	9509.04
589.206	9410.97
589.565	9398.54
589.925	9489.38
590.284	9431.76
590.643	9429.27
591.003	9486.45
591.362	9555.14
591.721	9526.9
592.08	9491.87
592.44	9548.59
592.799	9525.09
593.158	9504.07
593.517	9555.82
593.876	9614.13
594.235	9509.04
594.593	9521.25
594.952	9603.73
595.311	9605.09
595.67	9596.27
596.029	9651.19
596.387	9612.54
596.746	9650.06
597.104	9632.2
597.463	9535.03
597.822	9640.11
598.18	9638.98
598.538	9626.78
598.897	9578.65
599.255	9573.9
599.613	9747
599.972	9681.92
600.33	9720.11
600.688	9646.22
601.046	9647.12
601.404	9695.48
601.762	9707.68
602.12	9778.19
602.478	9735.48
602.836	9792.65
603.194	9731.86
603.552	9732.99
603.91	9709.94
604.268	9753.11
604.625	9658.87
604.983	9789.49
605.341	9625.2
605.698	9776.83
606.056	9784.52
606.413	9767.79
606.771	9736.16
607.128	9830.62
607.485	9767.79
607.843	9743.16
608.2	9828.58
608.557	9838.75
608.914	9804.86
609.272	9881.92
609.629	9860.45
609.986	9962.59
610.343	9853.44
610.7	9888.02
611.057	9906.77
611.414	9879.66
611.771	9895.25
612.127	10053.44
612.484	9978.86
612.841	9981.57
613.198	9975.7
613.554	9973.89
613.911	9999.65
614.267	9997.17
614.624	9954
614.98	9989.26
615.337	10066.54
615.693	9959.2
616.05	10030.16
616.406	10028.58
616.762	9978.18
617.118	10020.89
617.475	10010.95
617.831	10018.63
618.187	10052.53
618.543	10045.3
618.899	10122.36
619.255	10060.22
619.611	10086.88
619.967	10176.14
620.323	10114.23
620.678	10109.48
621.034	10001.01
621.39	10048.92
621.746	10066.54
622.101	10164.85
622.457	10074.68
622.812	10082.36
623.168	10120.1
623.523	10100.67
623.879	10169.82
624.234	10103.15
624.589	10023.15
624.945	10107.45
625.3	10080.1
625.655	10087.56
626.01	10035.81
626.365	10092.76
626.72	10103.38
627.075	10049.82
627.43	10075.13
627.785	10021.8
628.14	10074.45
628.495	10070.16
628.85	10121.91
629.205	10027
629.559	10095.47
629.914	10042.36
630.269	10054.79
630.623	9970.73
630.978	9929.6
631.332	10049.59
631.687	10052.31
632.041	9926.66
632.396	10017.96
632.75	9950.39
633.104	9920.11
633.459	9937.06
633.813	9945.19
634.167	9883.05
634.521	9874.46
634.875	9933.67
635.229	9826.1
635.583	9865.19
635.937	9809.6
636.291	9835.14
636.645	9862.48
636.999	9792.2
637.352	9839.2
637.706	9789.94
638.06	9770.28
638.413	9758.75
638.767	9734.12
639.121	9807.79
639.474	9715.59
639.828	9730.96
640.181	9714.01
640.534	9725.08
640.888	9734.57
641.241	9682.82
641.594	9713.78
641.947	9664.29
642.301	9648.7
642.654	9646.44
643.007	9645.31
643.36	9631.07
643.713	9541.59
644.066	9631.3
644.419	9587.91
644.771	9535.71
645.124	9451.42
645.477	9547.46
645.83	9380.69
646.182	9342.95
646.535	9279.9
646.888	9259.33
647.24	9251.42
647.593	9369.61
647.945	9283.96
648.298	9256.17
648.65	9194.7
649.002	9242.16
649.355	9243.06
649.707	9246
650.059	9283.96
650.411	9415.71
650.763	9460.01
651.115	9497.97
651.467	9515.6
651.819	9408.48
652.171	9504.98
652.523	9549.04
652.875	9492.1
653.227	9407.35
653.578	9441.93
653.93	9406.22
654.282	9384.98
654.633	9378.88
654.985	9412.78
655.337	9333.23
655.688	9393.34
656.039	9376.17
656.391	9346.11
656.742	9413.23
657.094	9365.54
657.445	9418.65
657.796	9418.65
658.147	9376.84
658.498	9366.67
658.849	9378.43
659.2	9469.5
659.551	9342.49
659.902	9384.75
660.253	9410.29
660.604	9357.86
660.955	9324.87
661.306	9389.5
661.656	9355.15
662.007	9403.28
662.358	9387.47
662.708	9380.23
663.059	9427.69
663.409	9333
663.76	9399.89
664.11	9410.06
664.461	9411.65
664.811	9401.48
665.161	9394.24
665.511	9382.72
665.862	9368.71
666.212	9414.36
666.562	9385.88
666.912	9364.64
667.262	9423.62
667.612	9352.89
667.962	9415.71
668.312	9353.79
668.662	9387.92
669.011	9334.81
669.361	9306.34
669.711	9381.59
670.06	9356.73
670.41	9295.72
670.76	9258.43
671.109	9283.51
671.459	9333.23
671.808	9300.46
672.157	9338.43
672.507	9251.88
672.856	9268.37
673.205	9295.04
673.554	9327.35
673.904	9255.94
674.253	9272.89
674.602	9290.52
674.951	9184.53
675.3	9091.2
675.649	9263.4
675.998	9199
676.346	9192.22
676.695	9247.13
677.044	9142.27
677.393	9150.41
677.741	9147.47
678.09	9205.77
678.438	9135.72
678.787	9154.48
679.135	9168.94
679.484	9117.87
679.832	9125.33
680.181	9064.99
680.529	9145.44
680.877	9093.01
681.225	8992.67
681.573	9141.14
681.922	8999.45
682.27	9019.57
682.618	9012.56
682.966	8960.13
683.314	8961.04
683.661	8873.35
684.009	8897.99
684.357	8928.49
684.705	8888.5
685.053	8871.77
685.4	8858.21
685.748	8812.56
686.095	8787.25
686.443	8754.26
686.79	8758.33
687.138	8816.18
687.485	8831.55
687.832	8736.41
688.18	8776.63
688.527	8666.13
688.874	8696.64
689.221	8686.92
689.568	8638.33
689.915	8627.71
690.262	8537.32
690.609	8523.08
690.956	8486.7
691.303	8556.53
691.65	8503.87
691.997	8483.76
692.344	8422.07
692.69	8398.34
693.037	8383.65
693.383	8349.07
693.73	8344.1
694.077	8315.18
694.423	8301.17
694.769	8280.83
695.116	8302.52
695.462	8234.5
695.808	8170.77
696.155	8212.13
696.501	8145.69
696.847	8128.29
697.193	8119.7
697.539	8063.21
697.885	8030.44
698.231	8034.05
698.577	7973.94
698.923	7961.06
699.269	7960.16
699.614	7931.68
699.96	7868.41
700.306	7893.27
700.651	7758.58
700.997	7787.96
701.342	7780.95
701.688	7768.52
702.033	7738.47
702.379	7799.03
702.724	7733.95
703.069	7720.62
703.415	7607.17
703.76	7604.24
704.105	7655.53
704.45	7557.23
704.795	7607.17
705.14	7578.25
705.485	7550.68
705.83	7479.72
706.175	7520.4
706.52	7406.5
706.865	7459.38
707.209	7358.59
707.554	7417.12
707.899	7418.93
708.243	7348.87
708.588	7351.13
708.932	7216.22
709.277	7273.4
709.621	7310.68
709.966	7233.62
710.31	7193.17
710.654	7143.46
710.998	7210.35
711.342	7166.28
711.687	7143.68
712.031	7159.28
712.375	7099.62
712.719	7113.85
713.063	7079.73
713.407	7155.89
713.75	7027.08
714.094	7113.4
714.438	7127.41
714.782	7028.88
715.125	7072.5
715.469	6976.23
715.812	6968.55
716.156	6920.41
716.499	6966.29
716.843	7004.02
717.186	6890.36
717.53	6954.08
717.873	6921.09
718.216	6919.06
718.559	6901.65
718.902	6865.05
719.246	6869.11
719.589	6854.42
719.932	6789.12
720.275	6881.09
720.617	6829.57
720.96	6868.21
721.303	6796.12
721.646	6801.32
721.989	6791.6
722.331	6748.21
722.674	6758.83
723.016	6801.77
723.359	6736.69
723.701	6759.29
724.044	6731.94
724.386	6725.84
724.729	6768.32
725.071	6747.31
725.413	6737.14
725.755	6714.54
726.097	6645.16
726.439	6646.07
726.782	6665.73
727.124	6695.11
727.465	6672.73
727.807	6668.44
728.149	6583.24
728.491	6626.18
728.833	6637.03
729.175	6650.81
729.516	6632.28
729.858	6595.45
730.199	6641.1
730.541	6611.04
730.882	6531.95
731.224	6617.59
731.565	6602.45
731.906	6588.22
732.248	6626.18
732.589	6590.48
732.93	6548.9
733.271	6551.61
733.612	6595.9
733.953	6615.56
734.294	6550.7
734.635	6537.37
734.976	6552.06
735.317	6594.54
735.658	6526.98
735.999	6535.79
736.339	6604.71
736.68	6584.37
737.021	6578.05
737.361	6562.45
737.702	6559.97
738.042	6596.8
738.383	6559.06
738.723	6627.99
739.063	6571.49
739.404	6613.3
739.744	6554.77
740.084	6539.18
740.424	6575.56
740.764	6577.82
741.104	6615.33
741.444	6572.62
741.784	6576.47
742.124	6601.55
742.464	6602
742.804	6638.38
743.143	6651.04
743.483	6665.5
743.823	6617.37
744.162	6677.71
744.502	6692.85
744.841	6703.69
745.181	6722
745.52	6697.37
745.86	6752.96
746.199	6784.6
746.538	6746.4
746.877	6805.61
747.216	6835.44
747.556	6842.9
747.895	6889.45
748.234	6839.96
748.573	6884.03
748.911	6929.22
749.25	7004.02
749.589	7001.54
749.928	7027.53
750.267	7114.3
750.605	7100.52
750.944	7150.69
751.283	7157.02
751.621	7229.1
751.96	7228.88
752.298	7300.97
752.636	7367.41
752.975	7411.25
753.313	7438.36
753.651	7522.66
753.989	7574.18
754.327	7686.72
754.666	7585.03
755.004	7778.92
755.342	7865.7
755.679	7953.15
756.017	7987.95
756.355	8087.39
756.693	8096.88
757.031	8234.28
757.368	8236.31
757.706	8295.74
758.044	8471.1
758.381	8462.74
758.719	8602.85
759.056	8737.99
759.394	8726.01
759.731	8765.11
760.068	8848.04
760.405	8978.89
760.743	9069.51
761.08	9147.47
761.417	9218.43
761.754	9396.5
762.091	9431.53
762.428	9528.7
762.765	9565.31
763.102	9693.45
763.438	9767.57
763.775	9872.42
764.112	9946.32
764.449	10007.34
764.785	10124.17
765.122	10106.32
765.458	10175.92
765.795	10316.48
766.131	10393.54
766.467	10407.55
766.804	10508.34
767.14	10558.73
767.476	10732.97
767.812	10664.72
768.148	10813.42
768.485	10886.63
768.821	10914.88
769.157	11027.2
769.492	11026.74
769.828	11094.09
770.164	11041.21
770.5	11114.43
770.836	11138.38
771.171	11106.74
771.507	11224.7
771.842	11213.41
772.178	11338.83
772.513	11389.45
772.849	11375.89
773.184	11357.58
773.519	11433.06
773.855	11453.85
774.19	11461.99
774.525	11523
774.86	11576.56
775.195	11577.46
775.53	11545.6
775.865	11569.78
776.2	11631.93
776.535	11547.18
776.87	11589.67
777.205	11560.97
777.539	11601.42
777.874	11638.48
778.209	11657.46
778.543	11574.3
778.878	11597.8
779.212	11614.07
779.547	11642.77
779.881	11711.92
780.215	11637.35
780.55	11668.99
780.884	11612.04
781.218	11623.79
781.552	11619.04
781.886	11662.89
782.22	11625.15
782.554	11579.05
782.888	11551.25
783.222	11473.06
783.556	11589.44
783.889	11497.69
784.223	11539.95
784.557	11472.16
784.89	11504.7
785.224	11440.07
785.557	11414.98
785.891	11475.77
786.224	11449.56
786.558	11452.27
786.891	11382.89
787.224	11297.92
787.557	11346.28
787.891	11323.91
788.224	11316.68
788.557	11368.2
788.89	11278.49
789.223	11262.22
789.556	11228.09
789.888	11212.95
790.221	11252.05
790.554	11063.35
790.887	11199.17
791.219	11214.31
791.552	11078.49
791.884	11035.33
792.217	10994.65
792.549	11020.19
792.882	10986.52
793.214	10964.15
793.546	10932.96
793.879	10942.23
794.211	10892.51
794.543	10870.82
794.875	10826.98
795.207	10936.35
795.539	10778.61
795.871	10850.48
796.203	10745.62
796.535	10644.83
796.867	10720.09
797.198	10697.49
797.53	10681.44
797.862	10617.72
798.193	10585.63
798.525	10540.88
798.856	10528.23
799.188	10401.22
799.519	10510.83
799.85	10393.31
800.182	10414.1
800.513	10272.41
800.844	10315.58
801.175	10327.78
801.506	10333.43
801.837	10328.01
802.168	10271.28
802.499	10221.12
802.83	10258.18
803.161	10184.51
803.491	10194.9
803.822	10204.39
804.153	10104.73
804.483	10083.94
804.814	10153.77
805.145	10033.32
805.475	10084.4
805.805	10027.22
806.136	10010.95
806.466	9965.75
806.796	9965.98
807.126	9874.68
807.457	9836.72
807.787	9915.36
808.117	9814.8
808.447	9753.78
808.777	9813.89
809.107	9838.07
809.436	9825.19
809.766	9786.1
810.096	9663.16
810.426	9695.93
810.755	9714.01
811.085	9678.3
811.414	9674.46
811.744	9559.66
812.073	9555.82
812.403	9579.78
812.732	9557.18
813.061	9570.74
813.39	9478.31
813.719	9468.82
814.049	9545.65
814.378	9433.57
814.707	9418.2
815.036	9440.12
815.365	9427.69
815.693	9302.95
816.022	9382.49
816.351	9308.82
816.68	9220.92
817.008	9316.51
817.337	9216.4
817.665	9160.8
817.994	9234.25
818.322	9190.86
818.651	9199
818.979	9090.52
819.307	9220.46
819.636	9133.46
819.964	9075.16
820.292	9187.92
820.62	9179.56
820.948	9124.42
821.276	9162.39
821.604	9176.17
821.932	9115.61
822.259	9111.77
822.587	9101.6
822.915	9107.02
823.243	9123.97
823.57	9056.4
823.898	9123.97
824.225	9035.16
824.553	9113.12
824.88	9037.87
825.207	9104.31
825.535	9050.75
825.862	9076.06
826.189	9009.4
826.516	9103.63
826.843	9090.3
827.17	9091.65
827.497	9126.91
827.824	9137.3
828.151	9087.13
828.478	9032.22
828.805	9068.83
829.131	9082.39
829.458	9038.32
829.785	9089.39
830.111	9091.65
830.438	9064.54
830.764	9079
831.09	9070.64
831.417	9067.02
831.743	9076.06
832.069	9061.6
832.395	9064.08
832.722	9028.83
833.048	9074.7
833.374	9099.79
833.7	9014.82
834.026	9063.41
834.351	9066.34
834.677	8990.64
835.003	9018.89
835.329	9073.57
835.654	9053.46
835.98	8985.22
836.306	9001.03
836.631	8989.74
836.956	9002.84
837.282	9022.28
837.607	8967.82
837.932	8921.26
838.258	8875.84
838.583	8874.03
838.908	8853.69
839.233	8855.28
839.558	8791.77
839.883	8872.68
840.208	8801.49
840.533	8815.5
840.858	8753.58
841.182	8781.15
841.507	8760.81
841.832	8725.79
842.156	8723.98
842.481	8649.63
842.805	8659.57
843.13	8667.48
843.454	8670.2
843.778	8654.15
844.103	8601.27
844.427	8641.5
844.751	8596.53
845.075	8594.27
845.399	8545.23
845.723	8494.83
846.047	8516.53
846.371	8440.15
846.695	8487.38
847.019	8404.21
847.343	8279.02
847.666	8317.21
847.99	8348.4
848.313	8277.21
848.637	8199.47
848.96	8173.49
849.284	8177.55
849.607	8109.98
849.931	8080.38
850.254	8068.86
850.577	8031.57
850.9	7990.21
851.223	8031.57
851.546	7973.26
851.869	7879.26
852.192	7842.65
852.515	7802.2
852.838	7906.15
853.161	7864.57
853.483	7812.82
853.806	7765.81
854.129	7758.13
854.451	7788.41
854.774	7684.91
855.096	7620.28
855.419	7614.63
855.741	7633.39
856.063	7561.75
856.385	7491.92
856.708	7537.8
857.03	7489.89
857.352	7502.32
857.674	7476.55
857.996	7462.09
858.318	7442.66
858.64	7361.08
858.961	7450.34
859.283	7392.26
859.605	7310.23
859.926	7383
860.248	7316.11
860.57	7311.14
860.891	7307.07
861.212	7263.68
861.534	7240.4
861.855	7212.83
862.176	7178.03
862.498	7153.4
862.819	7181.2
863.14	7179.61
863.461	7172.38
863.782	7109.11
864.103	7164.02
864.424	7099.39
864.745	7116.79
865.065	7102.33
865.386	7068.2
865.707	7058.94
866.027	7057.81
866.348	7030.46
866.668	7065.72
866.989	7013.06
867.309	6930.13
867.63	7015.32
867.95	6992.27
868.27	6949.34
868.59	6955.44
868.91	6973.07
869.23	6983.46
869.55	6885.84
869.87	6941.65
870.19	6954.99
870.51	6894.2
870.83	6881.32
871.15	6835.22
871.469	6853.75
871.789	6867.08
872.109	6818.49
872.428	6846.74
872.748	6828.66
873.067	6803.13
873.386	6812.62
873.706	6825.5
874.025	6768.55
874.344	6737.37
874.663	6795.89
874.982	6788.44
875.301	6813.97
875.62	6751.15
875.939	6739.4
876.258	6715.44
876.577	6682.68
876.896	6736.69
877.214	6684.94
877.533	6639.51
877.852	6627.31
878.17	6696.69
878.489	6664.82
878.807	6657.14
879.125	6642.9
879.444	6638.16
879.762	6643.81
880.08	6648.33
880.398	6583.02
880.716	6579.63
881.034	6566.3
881.352	6578.95
881.67	6520.65
881.988	6580.53
882.306	6484.49
882.624	6480.2
882.941	6433.87
883.259	6427.32
883.577	6437.03
883.894	6408.79
884.212	6443.81
884.529	6464.15
884.846	6358.62
885.164	6389.35
885.481	6361.33
885.798	6394.78
886.115	6293.54
886.432	6330.6
886.75	6273.42
887.067	6308.45
887.383	6282.24
887.7	6277.72
888.017	6249.02
888.334	6210.83
888.651	6244.95
888.967	6172.63
889.284	6159.3
889.6	6126.53
889.917	6103.48
890.233	6119.3
890.55	6111.17
890.866	6117.49
891.182	6060.09
891.498	6070.26
891.815	6040.89
892.131	5981
892.447	6023.03
892.763	5993.88
893.079	5992.07
893.395	5938.74
893.71	5969.25
894.026	5982.13
894.342	5929.7
894.657	5896.48
894.973	5885.64
895.289	5873.66
895.604	5866.65
895.92	5823.49
896.235	5836.15
896.55	5845.64
896.865	5743.95
897.181	5786.2
897.496	5754.79
897.811	5750.27
898.126	5661.69
898.441	5711.63
898.756	5642.03
899.071	5620.56
899.386	5614.46
899.7	5591.18
900.015	5569.71
900.33	5527.68
900.644	5597.28
900.959	5537.85
901.273	5482.26
901.588	5480.9
901.902	5487.45
902.216	5412.65
902.531	5418.08
902.845	5428.25
903.159	5400.45
903.473	5333.79
903.787	5351.19
904.101	5305.76
904.415	5339.89
904.729	5250.4
905.042	5300.79
905.356	5268.7
905.67	5263.73
905.984	5261.25
906.297	5208.37
906.611	5154.81
906.924	5130.4
907.237	5136.96
907.551	5117.75
907.864	5119.1
908.177	5057.18
908.491	5108.26
908.804	5088.82
909.117	4991.42
909.43	4971.54
909.743	4969.28
910.056	4960.24
910.368	4945.55
910.681	4914.81
910.994	4906.68
911.307	4887.24
911.619	4853.57
911.932	4863.06
912.244	4822.61
912.557	4804.08
912.869	4814.48
913.181	4814.48
913.494	4764.99
913.806	4713.69
914.118	4762.28
914.43	4699
914.742	4701.71
915.054	4662.62
915.366	4659.68
915.678	4622.17
915.99	4627.36
916.302	4566.8
916.613	4539.68
916.925	4579.23
917.236	4588.95
917.548	4538.78
917.859	4541.04
918.171	4506.46
918.482	4445.22
918.794	4430.31
919.105	4451.78
919.416	4436.63
919.727	4427.14
920.038	4388.05
920.349	4368.39
920.66	4314.83
920.971	4345.79
921.282	4390.31
921.593	4264.89
921.903	4291.55
922.214	4279.58
922.525	4215.85
922.835	4290.42
923.146	4228.73
923.456	4205.68
923.767	4207.49
924.077	4142.18
924.387	4145.79
924.697	4112.58
925.008	4116.64
925.318	4099.69
925.628	4092.91
925.938	4054.95
926.248	4059.92
926.558	4023.76
926.867	4039.13
927.177	3980.38
927.487	3960.72
927.796	3969.75
928.106	3932.69
928.416	3964.78
928.725	3917.1
929.034	3927.95
929.344	3909.64
929.653	3878.01
929.962	3886.14
930.271	3829.19
930.581	3834.62
930.89	3776.77
931.199	3819.7
931.508	3786.03
931.817	3778.57
932.125	3810.89
932.434	3764.56
932.743	3749.2
933.051	3724.56
933.36	3693.83
933.669	3664.45
933.977	3640.05
934.286	3661.51
934.594	3655.19
934.902	3646.6
935.21	3634.17
935.519	3642.08
935.827	3577.9
936.135	3573.61
936.443	3520.05
936.751	3540.39
937.059	3542.87
937.367	3490.9
937.674	3500.39
937.982	3460.62
938.29	3478.47
938.597	3475.08
938.905	3447.28
939.213	3454.06
939.52	3373.39
939.827	3392.82
940.135	3387.17
940.442	3355.53
940.749	3325.03
941.056	3407.06
941.363	3333.39
941.67	3285.93
941.977	3277.8
942.284	3255.87
942.591	3276.67
942.898	3264.91
943.205	3245.48
943.511	3245.93
943.818	3219.72
944.125	3195.54
944.431	3209.55
944.738	3202.09
945.044	3158.93
945.35	3146.95
945.657	3156.22
945.963	3148.76
946.269	3112.15
946.575	3113.73
946.881	3092.72
947.187	3100.17
947.493	3077.35
947.799	3074.18
948.105	3022.66
948.41	3028.76
948.716	3004.58
949.022	3006.62
949.327	3008.42
949.633	2942.44
949.938	2973.4
950.244	2952.61
950.549	2946.73
950.854	2911.7
951.16	2904.02
951.465	2896.56
951.77	2892.04
952.075	2876.45
952.38	2853.4
952.685	2889.56
952.99	2837.35
953.294	2823.8
953.599	2843.68
953.904	2828.54
954.209	2768.88
954.513	2798.49
954.818	2772.05
955.122	2761.65
955.426	2784.02
955.731	2735.44
956.035	2743.8
956.339	2736.34
956.643	2735.89
956.948	2712.84
957.252	2708.77
957.556	2703.8
957.86	2709.67
958.163	2699.05
958.467	2653.18
958.771	2638.49
959.075	2639.62
959.378	2593.52
959.682	2609.79
959.985	2598.49
960.289	2602.56
960.592	2587.19
960.896	2591.26
961.199	2568.44
961.502	2584.71
961.805	2535.44
962.108	2505.61
962.411	2498.38
962.714	2509.45
963.017	2464.26
963.32	2460.87
963.623	2455.22
963.926	2460.42
964.228	2462.68
964.531	2421.55
964.833	2428.1
965.136	2430.13
965.438	2403.69
965.741	2388.33
966.043	2396.24
966.345	2383.36
966.648	2374.99
966.95	2400.76
967.252	2342
967.554	2321.66
967.856	2340.42
968.158	2339.06
968.46	2295.67
968.761	2298.16
969.063	2320.76
969.365	2259.97
969.666	2275.34
969.968	2263.81
970.269	2276.01
970.571	2241.89
970.872	2300.42
971.174	2258.16
971.475	2190.82
971.776	2224.49
972.077	2206.18
972.378	2210.48
972.679	2187.88
972.98	2178.84
973.281	2133.42
973.582	2171.61
973.883	2151.5
974.183	2122.8
974.484	2141.55
974.785	2116.24
975.085	2148.33
975.386	2094.1
975.686	2101.33
975.986	2087.09
976.287	2059.75
976.587	2069.01
976.887	2098.62
977.187	2092.97
977.487	2068.11
977.787	2033.53
978.087	2050.93
978.387	2047.77
978.687	2039.64
978.987	2021.33
979.286	1979.98
979.586	2008.22
979.885	1984.27
980.185	1991.73
980.484	1947.66
980.784	1944.5
981.083	1925.51
981.382	1949.24
981.682	1933.65
981.981	1943.37
982.28	1920.32
982.579	1880.77
982.878	1908.11
983.177	1888
983.475	1900.2
983.774	1883.48
984.073	1864.72
984.372	1844.84
984.67	1862.47
984.969	1862.01
985.267	1842.8
985.566	1838.28
985.864	1836.7
986.162	1831.96
986.461	1808.23
986.759	1805.52
987.057	1781.56
987.355	1776.59
987.653	1803.94
987.951	1777.72
988.249	1758.97
988.547	1779.98
988.844	1744.5
989.142	1747.67
989.44	1715.12
989.737	1728.01
990.035	1715.12
990.332	1730.27
990.63	1739.3
990.927	1712.19
991.224	1728.01
991.521	1683.49
991.819	1658.85
992.116	1659.76
992.413	1658.63
992.71	1654.56
993.006	1657.5
993.303	1628.8
993.6	1624.05
993.897	1622.02
994.193	1638.06
994.49	1608.69
994.787	1615.24
995.083	1606.2
995.379	1597.39
995.676	1598.52
995.972	1573.89
996.268	1561.68
996.565	1554.68
996.861	1570.72
997.157	1564.62
997.453	1541.8
997.749	1512.19
998.044	1550.38
998.34	1530.27
998.636	1500.89
998.932	1522.14
999.227	1498.41
999.523	1516.26
999.818	1492.31
1000.114	1473.1
1000.409	1463.61
1000.704	1466.77
1001	1451.18
1001.295	1434.91
1001.59	1474
1001.885	1463.38
1002.18	1433.55
1002.475	1438.3
1002.77	1421.35
1003.065	1397.39
1003.359	1380.22
1003.654	1406.21
1003.949	1380.9
1004.243	1393.1
1004.538	1363.72
1004.832	1383.16
1005.127	1356.26
1005.421	1349.71
1005.715	1345.19
1006.009	1326.89
1006.304	1332.31
1006.598	1317.39
1006.892	1323.04
1007.186	1313.55
1007.48	1290.95
1007.773	1305.42
1008.067	1281.69
1008.361	1283.95
1008.655	1284.4
1008.948	1259.09
1009.242	1275.36
1009.535	1263.16
1009.829	1253.44
1010.122	1258.87
1010.415	1240.79
1010.708	1239.43
1011.001	1233.33
1011.295	1191.3
1011.588	1228.13
1011.881	1215.25
1012.173	1227.91
1012.466	1190.39
1012.759	1181.58
1013.052	1211.41
1013.344	1163.95
1013.637	1165.31
1013.93	1185.19
1014.222	1174.57
1014.514	1157.62
1014.807	1135.93
1015.099	1159.43
1015.391	1123.05
1015.683	1138.42
1015.976	1138.87
1016.268	1107
1016.56	1099.77
1016.851	1123.28
1017.143	1075.14
1017.435	1096.61
1017.727	1085.31
1018.018	1068.81
1018.31	1072.43
1018.602	1077.85
1018.893	1057.29
1019.185	1067.68
1019.476	1080.34
1019.767	1059.1
1020.058	1017.74
1020.35	1048.48
1020.641	1020.68
1020.932	1028.14
1021.223	996.95
1021.514	1036.95
1021.804	1021.13
1022.095	1010.74
1022.386	992.66
1022.677	982.71
1022.967	1018.87
1023.258	965.54
1023.548	964.64
1023.839	969.38
1024.129	952.21
1024.419	935.48
1024.709	941.59
1025	941.13
1025.29	955.6
1025.58	932.55
1025.87	925.77
1026.16	907.91
1026.449	915.37
1026.739	928.93
1027.029	911.98
1027.319	907.91
1027.608	911.53
1027.898	894.81
1028.187	885.99
1028.477	871.53
1028.766	888.03
1029.055	883.51
1029.344	871.76
1029.634	852.32
1029.923	858.65
1030.212	849.84
1030.501	864.3
1030.79	835.37
1031.078	843.96
1031.367	836.73
1031.656	832.66
1031.945	817.07
1032.233	831.53
1032.522	810.97
1032.81	823.4
1033.099	811.65
1033.387	821.59
1033.675	791.98
1033.963	780.69
1034.251	781.82
1034.54	777.52
1034.828	807.35
1035.116	778.65
1035.403	758.54
1035.691	794.24
1035.979	756.96
1036.267	761.03
1036.554	744.53
1036.842	757.64
1037.129	756.28
1037.417	751.08
1037.704	725.32
1037.992	755.15
1038.279	730.97
1038.566	706.11
1038.853	706.11
1039.14	706.11
