Data from hue_140_FLMS001491_00046.txt Node
Date: Tue Feb 07 16:55:59 GMT 2017
User: dcchb
Spectrometer: FLMS00149
Trigger mode: 0
Integration Time (sec): 2.000000E-2
Scans to average: 10
Electric dark correction enabled: true
Nonlinearity correction enabled: false
Boxcar width: 0
XAxis mode: Wavelengths
Number of Pixels in Spectrum: 2048
>>>>>Begin Spectral Data<<<<<
341.393	-8.36
341.776	-8.36
342.16	-8.36
342.543	-49.26
342.927	-65.53
343.31	-83.61
343.693	-55.37
344.077	-53.11
344.46	-54.01
344.843	-42.03
345.226	-30.06
345.61	-42.94
345.993	-20.34
346.376	-11.3
346.759	11.07
347.142	16.95
347.525	28.02
347.908	63.5
348.291	71.86
348.674	103.27
349.057	98.08
349.44	133.1
349.823	145.98
350.206	165.19
350.588	195.02
350.971	192.31
351.354	237.73
351.737	229.6
352.119	258.75
352.502	257.85
352.884	262.37
353.267	286.77
353.65	293.33
354.032	276.38
354.414	303.27
354.797	316.6
355.179	345.53
355.562	329.71
355.944	327.68
356.326	333.1
356.709	337.39
357.091	341.01
357.473	333.78
357.855	342.82
358.238	315.7
358.62	346.43
359.002	319.09
359.384	334.23
359.766	323.83
360.148	346.43
360.53	340.78
360.912	332.42
361.294	320.22
361.676	315.47
362.057	317.96
362.439	337.62
362.821	349.6
363.203	341.46
363.584	323.16
363.966	339.65
364.348	313.44
364.729	318.86
365.111	316.83
365.493	322.48
365.874	314.79
366.256	315.47
366.637	323.16
367.019	294.23
367.4	311.63
367.781	308.24
368.163	315.47
368.544	296.26
368.925	314.34
369.306	314.12
369.688	331.29
370.069	298.3
370.45	314.57
370.831	329.71
371.212	303.49
371.593	305.98
371.974	332.65
372.355	298.75
372.736	308.24
373.117	317.05
373.498	306.21
373.879	311.4
374.26	304.62
374.641	298.3
375.021	308.47
375.402	322.93
375.783	318.86
376.163	321.35
376.544	332.19
376.925	312.76
377.305	315.7
377.686	307.79
378.066	333.32
378.447	310.27
378.827	339.88
379.208	341.01
379.588	315.25
379.968	327.68
380.349	317.51
380.729	320.22
381.109	332.19
381.489	335.13
381.87	338.75
382.25	328.13
382.63	334.23
383.01	341.46
383.39	322.03
383.77	339.65
384.15	341.01
384.53	343.27
384.91	342.82
385.29	358.63
385.67	359.09
386.049	347.11
386.429	339.65
386.809	333.1
387.189	349.37
387.568	361.57
387.948	333.55
388.328	343.95
388.707	373.32
389.087	361.57
389.466	376.94
389.846	362.48
390.225	364.74
390.605	355.24
390.984	362.02
391.363	345.75
391.743	373.1
392.122	367
392.501	360.67
392.881	372.42
393.26	361.57
393.639	369.71
394.018	372.87
394.397	369.03
394.776	388.24
395.155	383.04
395.534	387.79
395.913	378.52
396.292	376.49
396.671	404.06
397.05	372.42
397.429	371.97
397.808	371.97
398.186	391.4
398.565	376.04
398.944	411.29
399.323	405.41
399.701	386.88
400.08	383.49
400.458	402.25
400.837	409.48
401.215	405.19
401.594	392.31
401.972	413.1
402.351	397.73
402.729	392.08
403.107	402.7
403.486	416.49
403.864	432.31
404.242	418.75
404.62	407.9
404.999	425.3
405.377	430.05
405.755	424.85
406.133	416.71
406.511	420.33
406.889	419.42
407.267	414
407.645	432.53
408.023	451.97
408.401	443.6
408.779	438.86
409.156	457.84
409.534	455.13
409.912	446.09
410.29	441.12
410.667	462.13
411.045	449.03
411.422	482.7
411.8	455.36
412.178	437.5
412.555	457.62
412.933	455.13
413.31	455.36
413.687	475.47
414.065	468.91
414.442	493.09
414.819	482.02
415.197	489.48
415.574	500.33
415.951	484.51
416.328	488.57
416.705	471.63
417.082	486.31
417.46	492.64
417.837	514.11
418.214	489.93
418.591	507.11
418.967	489.25
419.344	495.13
419.721	511.62
420.098	522.47
420.475	537.16
420.852	524.05
421.228	531.74
421.605	512.75
421.982	514.11
422.358	531.29
422.735	547.1
423.111	543.49
423.488	564.73
423.864	548.69
424.241	540.32
424.617	564.5
424.994	562.92
425.37	570.38
425.746	581.68
426.123	575.35
426.499	560.44
426.875	573.54
427.251	577.16
427.627	580.55
428.003	588.01
428.379	593.66
428.756	596.59
429.132	619.42
429.507	585.52
429.883	610.61
430.259	619.64
430.635	633.66
431.011	620.55
431.387	622.81
431.763	641.79
432.138	638.4
432.514	657.61
432.89	645.63
433.265	646.08
433.641	674.56
434.016	669.81
434.392	666.42
434.767	695.57
435.143	682.92
435.518	677.95
435.894	691.73
436.269	706.87
436.644	736.03
437.02	727.89
437.395	723.37
437.77	724.95
438.145	716.37
438.52	757.72
438.895	745.97
439.271	734.44
439.646	737.61
440.021	766.53
440.395	775.8
440.77	759.75
441.145	755.01
441.52	763.82
441.895	772.64
442.27	787.55
442.645	774.22
443.019	786.65
443.394	790.94
443.769	817.83
444.143	803.37
444.518	790.94
444.892	816.93
445.267	834.33
445.641	832.75
446.016	837.27
446.39	801.56
446.764	832.52
447.139	816.93
447.513	829.36
447.887	832.75
448.262	840.88
448.636	845.4
449.01	885.4
449.384	869.81
449.758	859.41
450.132	863.03
450.506	881.33
450.88	881.33
451.254	875.01
451.628	903.25
452.002	900.99
452.376	925.17
452.75	904.38
453.123	921.11
453.497	933.53
453.871	927.66
454.244	944.61
454.618	937.15
454.992	966.08
455.365	981.67
455.739	988.67
456.112	1016.7
456.486	1018.28
456.859	1035.23
457.232	1058.28
457.606	1048.56
457.979	1066.64
458.352	1078.62
458.725	1099.86
459.099	1093.98
459.472	1111.61
459.845	1131.04
460.218	1151.83
460.591	1124.49
460.964	1132.85
461.337	1159.52
461.71	1193.41
462.083	1202
462.456	1209.46
462.829	1211.27
463.201	1209.01
463.574	1242
463.947	1233.87
464.32	1305.28
464.692	1278.16
465.065	1306.18
465.438	1320.19
465.81	1322.9
466.183	1396.35
466.555	1401.55
466.928	1390.47
467.3	1432.05
467.672	1476.57
468.045	1462.11
468.417	1469.79
468.789	1465.5
469.161	1510.47
469.534	1569.68
469.906	1597.92
470.278	1571.03
470.65	1625.95
471.022	1663.91
471.394	1674.76
471.766	1709.79
472.138	1750.91
472.51	1787.98
472.882	1841.76
473.253	1858.48
473.625	1885.6
473.997	1928.99
474.369	1954.07
474.74	1994.98
475.112	2022.32
475.484	2098.48
475.855	2153.16
476.227	2178.25
476.598	2261.86
476.97	2286.27
477.341	2342.09
477.713	2439.71
478.084	2441.97
478.455	2563.1
478.827	2593.6
479.198	2678.35
479.569	2689.42
479.94	2839.93
480.311	2834.05
480.682	2961.96
481.053	3056.64
481.424	3122.18
481.795	3190.42
482.166	3276.3
482.537	3351.55
482.908	3451.66
483.279	3501.6
483.65	3662.5
484.021	3732.78
484.391	3913.12
484.762	3888.49
485.133	4020.46
485.503	4100.01
485.874	4236.95
486.244	4335.03
486.615	4491.18
486.985	4566.43
487.356	4689.14
487.726	4779.31
488.097	4962.13
488.467	5043.26
488.837	5207.55
489.207	5294.55
489.578	5422
489.948	5537.26
490.318	5683.01
490.688	5768.66
491.058	5927.08
491.428	6018.15
491.798	6186.05
492.168	6315.31
492.538	6416.78
492.908	6553.95
493.278	6673.04
493.648	6772.48
494.017	6908.74
494.387	7058.35
494.757	7143.99
495.126	7330.43
495.496	7421.5
495.866	7435.51
496.235	7668.27
496.605	7754.15
496.974	7873.47
497.344	7956.63
497.713	8073.46
498.082	8138.32
498.452	8308.71
498.821	8390.29
499.19	8465.99
499.559	8579.44
499.928	8686.55
500.298	8900.56
500.667	8932.65
501.036	8969.71
501.405	9128.57
501.774	9096.26
502.143	9225.97
502.512	9346.87
502.88	9436.59
503.249	9541.44
503.618	9567.43
503.987	9740.31
504.356	9738.28
504.724	9840.65
505.093	9942.34
505.462	10014.65
505.83	10065.05
506.199	10111.82
506.567	10307.98
506.936	10175.1
507.304	10424.13
507.672	10403.79
508.041	10508.88
508.409	10590.23
508.777	10692.83
509.145	10786.38
509.514	10774.63
509.882	10797
510.25	10908.19
510.618	10894.18
510.986	10924.91
511.354	11074.96
511.722	11149.99
512.09	11201.97
512.458	11193.6
512.826	11279.93
513.193	11330.78
513.561	11397.44
513.929	11433.6
514.297	11571.67
514.664	11573.03
515.032	11538
515.4	11602.41
515.767	11688.28
516.135	11727.38
516.502	11580.03
516.869	11830.88
517.237	11741.61
517.604	11709.07
517.972	11905.9
518.339	11928.5
518.706	11888.73
519.073	11924.21
519.44	11959.91
519.808	12055.73
520.175	11983.41
520.542	12118.78
520.909	12143.18
521.276	12086.01
521.643	12236.06
522.009	12244.2
522.376	12274.03
522.743	12285.55
523.11	12262.73
523.477	12381.14
523.843	12377.98
524.21	12525.32
524.577	12601.48
524.943	12561.7
525.31	12491.65
525.676	12550.86
526.043	12640.57
526.409	12588.82
526.776	12786.33
527.142	12731.19
527.508	12671.98
527.874	12740.68
528.241	12727.35
528.607	12770.51
528.973	12808.02
529.339	12755.82
529.705	12837.85
530.071	12803.05
530.437	12838.08
530.803	12873.11
531.169	12843.96
531.535	12776.16
531.901	12825.65
532.267	12779.32
532.632	12852.77
532.998	12840.11
533.364	12846.44
533.73	12794.69
534.095	12780
534.461	12801.92
534.826	12821.36
535.192	12797.18
535.557	12836.27
535.923	12862.94
536.288	12744.75
536.653	12742.72
537.019	12657.75
537.384	12604.41
537.749	12579.56
538.114	12657.75
538.479	12622.94
538.845	12547.01
539.21	12612.78
539.575	12532.55
539.94	12550.18
540.305	12501.82
540.67	12421.14
541.034	12434.48
541.399	12459.11
541.764	12360.58
542.129	12366.68
542.494	12359.68
542.858	12332.78
543.223	12282.16
543.587	12325.55
543.952	12178.66
544.316	12160.58
544.681	12206.23
545.045	12180.92
545.41	12215.05
545.774	12106.8
546.138	12110.87
546.503	12003.75
546.867	11944.09
547.231	11982.28
547.595	11929.18
547.959	11956.3
548.324	11937.99
548.688	11865.22
549.052	11859.12
549.416	11826.81
549.779	11815.28
550.143	11778.67
550.507	11778.67
550.871	11816.86
551.235	11717.21
551.599	11719.69
551.962	11681.5
552.326	11611.45
552.689	11691.9
553.053	11620.49
553.417	11552.46
553.78	11677.43
554.143	11551.33
554.507	11669.98
554.87	11568.06
555.234	11588.62
555.597	11483.54
555.96	11534.16
556.323	11447.83
556.686	11512.69
557.05	11535.52
557.413	11432.92
557.776	11519.92
558.139	11560.37
558.502	11484.67
558.865	11451.22
559.228	11453.26
559.59	11446.25
559.953	11472.01
560.316	11544.56
560.679	11448.96
561.041	11501.62
561.404	11455.74
561.767	11493.94
562.129	11436.99
562.492	11562.63
562.854	11567.61
563.217	11470.21
563.579	11479.25
563.941	11463.65
564.304	11489.19
564.666	11539.81
565.028	11512.92
565.39	11595.18
565.753	11656.64
566.115	11594.72
566.477	11637.89
566.839	11590.2
567.201	11692.35
567.563	11598.79
567.925	11735.28
568.287	11649.41
568.648	11742.97
569.01	11643.31
569.372	11791.55
569.734	11717.43
570.095	11733.93
570.457	11747.26
570.819	11669.3
571.18	11750.88
571.542	11812.8
571.903	11767.83
572.265	11823.87
572.626	11861.38
572.987	11839.69
573.349	11857.99
573.71	11817.77
574.071	11859.12
574.432	11850.76
574.794	11972.57
575.155	11817.09
575.516	11872.91
575.877	11866.81
576.238	11870.42
576.599	11902.96
576.96	11898.67
577.32	11929.4
577.681	11978.67
578.042	11985.45
578.403	11936.41
578.763	11982.28
579.124	12011.21
579.485	11986.58
579.845	11975.28
580.206	11909.52
580.566	11989.97
580.927	11983.41
581.287	12016.63
581.648	11955.17
582.008	11989.74
582.368	11969.4
582.728	11985.45
583.089	11926.47
583.449	11872.23
583.809	11990.65
584.169	11898.9
584.529	11919.01
584.889	11970.08
585.249	11938.44
585.609	11935.73
585.969	12000.14
586.329	11828.62
586.688	11909.74
587.048	11831.1
587.408	11864.09
587.768	11840.37
588.127	11815.73
588.487	11823.19
588.846	11921.04
589.206	11769.63
589.565	11767.37
589.925	11845.56
590.284	11782.52
590.643	11829.29
591.003	11825.68
591.362	11815.28
591.721	11810.99
592.08	11796.3
592.44	11828.62
592.799	11831.33
593.158	11774.38
593.517	11808.96
593.876	11799.69
594.235	11715.85
594.593	11772.12
594.952	11785
595.311	11716.53
595.67	11690.77
596.029	11839.69
596.387	11804.21
596.746	11861.16
597.104	11681.95
597.463	11710.65
597.822	11750.2
598.18	11708.84
598.538	11662.97
598.897	11770.09
599.255	11627.04
599.613	11835.4
599.972	11701.84
600.33	11757.2
600.688	11702.74
601.046	11755.85
601.404	11741.39
601.762	11710.88
602.12	11786.58
602.478	11743.65
602.836	11776.64
603.194	11654.61
603.552	11718.56
603.91	11662.07
604.268	11758.79
604.625	11682.86
604.983	11756.98
605.341	11707.26
605.698	11753.14
606.056	11743.65
606.413	11773.93
606.771	11799.01
607.128	11728.96
607.485	11730.09
607.843	11763.76
608.2	11836.52
608.557	11819.12
608.914	11809.18
609.272	11826.13
609.629	11861.83
609.986	11924.66
610.343	11811.67
610.7	11945.67
611.057	11880.82
611.414	11815.96
611.771	11857.54
612.127	11871.55
612.484	11916.97
612.841	11904.32
613.198	11867.26
613.554	11937.09
613.911	12019.8
614.267	11934.38
614.624	11987.26
614.98	11899.12
615.337	11996.97
615.693	11959.91
616.05	11946.35
616.406	12083.3
616.762	11999.46
617.118	12031.77
617.475	11940.7
617.831	12083.52
618.187	12053.02
618.543	12066.8
618.899	12210.3
619.255	12031.1
619.611	12042.62
619.967	12207.36
620.323	12204.2
620.678	12116.07
621.034	12140.47
621.39	12089.85
621.746	12112.45
622.101	12216.85
622.457	12027.71
622.812	12125.78
623.168	12086.24
623.523	12146.8
623.879	12133.69
624.234	12067.03
624.589	12099.34
624.945	12192.22
625.3	12147.7
625.655	12131.21
626.01	12166.46
626.365	12127.14
626.72	12132.34
627.075	12016.18
627.43	12058.21
627.785	12048.72
628.14	12054.82
628.495	12201.04
628.85	12090.98
629.205	12069.74
629.559	12075.61
629.914	12034.94
630.269	12046.46
630.623	12024.32
630.978	11988.39
631.332	12031.1
631.687	12025.67
632.041	11999.91
632.396	11951.32
632.75	11920.82
633.104	11993.58
633.459	11898.67
633.813	11916.07
634.167	11927.14
634.521	11862.96
634.875	11957.88
635.229	11861.61
635.583	11750.2
635.937	11824.1
636.291	11877.65
636.645	11822.74
636.999	11832.91
637.352	11885.11
637.706	11786.36
638.06	11789.75
638.413	11791.1
638.767	11695.51
639.121	11783.19
639.474	11731.67
639.828	11770.31
640.181	11762.18
640.534	11694.16
640.888	11617.32
641.241	11581.84
641.594	11613.93
641.947	11772.8
642.301	11637.21
642.654	11643.76
643.007	11637.21
643.36	11598.57
643.713	11605.57
644.066	11608.51
644.419	11585.46
644.771	11499.58
645.124	11343.2
645.477	11441.28
645.83	11314.73
646.182	11236.31
646.535	11229.54
646.888	11318.8
647.24	11243.32
647.593	11318.35
647.945	11223.43
648.298	11148.63
648.65	11231.12
649.002	11189.76
649.355	11232.02
649.707	11216.88
650.059	11260.49
650.411	11421.62
650.763	11371.9
651.115	11470.21
651.467	11410.1
651.819	11486.03
652.171	11525.12
652.523	11414.16
652.875	11524.22
653.227	11400.38
653.578	11451.9
653.93	11438.57
654.282	11391.11
654.633	11308.63
654.985	11418.23
655.337	11443.99
655.688	11436.99
656.039	11418.68
656.391	11432.02
656.742	11409.64
657.094	11425.01
657.445	11426.37
657.796	11423.65
658.147	11389.76
658.498	11343.43
658.849	11408.97
659.2	11425.91
659.551	11422.3
659.902	11494.61
660.253	11398.57
660.604	11441.73
660.955	11417.1
661.306	11467.04
661.656	11401.96
662.007	11431.79
662.358	11394.5
662.708	11509.75
663.059	11389.53
663.409	11393.6
663.76	11511.11
664.11	11411.9
664.461	11520.83
664.811	11474.95
665.161	11487.83
665.511	11465.91
665.862	11507.95
666.212	11446.7
666.562	11514.05
666.912	11512.92
667.262	11538.45
667.612	11525.8
667.962	11544.78
668.312	11455.52
668.662	11491.45
669.011	11498.68
669.361	11385.46
669.711	11469.75
670.06	11449.87
670.41	11363.54
670.76	11394.28
671.109	11418.46
671.459	11447.83
671.808	11331
672.157	11399.7
672.507	11352.92
672.856	11403.54
673.205	11314.73
673.554	11356.54
673.904	11298.69
674.253	11421.85
674.602	11357.89
674.951	11261.17
675.3	11137.33
675.649	11311.12
675.998	11300.27
676.346	11300.95
676.695	11347.05
677.044	11145.02
677.393	11323.09
677.741	11267.95
678.09	11232.47
678.438	11218.24
678.787	11253.26
679.135	11203.1
679.484	11178.01
679.832	11205.81
680.181	11092.14
680.529	11196.77
680.877	11108.86
681.225	11066.38
681.573	11105.7
681.922	11027.05
682.27	11055.08
682.618	11049.2
682.966	10997
683.314	10961.75
683.661	10958.13
684.009	10983.67
684.357	10931.46
684.705	10898.02
685.053	10874.74
685.4	10852.6
685.748	10818.92
686.095	10729.21
686.443	10783.67
686.79	10750
687.138	10779.38
687.485	10801.52
687.832	10676.1
688.18	10735.76
688.527	10688.31
688.874	10612.6
689.221	10589.33
689.568	10597.69
689.915	10510.91
690.262	10632.49
690.609	10525.6
690.956	10438.82
691.303	10468.2
691.65	10412.61
691.997	10423.68
692.344	10317.47
692.69	10311.59
693.037	10321.76
693.383	10246.51
693.73	10283.12
694.077	10171.71
694.423	10109.79
694.769	10125.38
695.116	10160.86
695.462	10106.63
695.808	10043.35
696.155	10032.96
696.501	9935.33
696.847	10020.98
697.193	9895.56
697.539	9882.23
697.885	9802
698.231	9794.77
698.577	9794.77
698.923	9730.14
699.269	9692.4
699.614	9592.29
699.96	9631.16
700.306	9615.34
700.651	9560.65
700.997	9452.41
701.342	9533.76
701.688	9453.76
702.033	9430.94
702.379	9446.08
702.724	9407.21
703.069	9442.92
703.415	9291.28
703.76	9331.28
704.105	9293.31
704.45	9312.52
704.795	9229.14
705.14	9169.7
705.485	9150.72
705.83	9168.12
706.175	9129.48
706.52	9098.07
706.865	9077.5
707.209	9061.46
707.554	9021.23
707.899	9077.95
708.243	8967.45
708.588	8906.21
708.932	8908.47
709.277	8912.99
709.621	8842.93
709.966	8840.9
710.31	8865.76
710.654	8826.66
710.998	8764.74
711.342	8708.02
711.687	8680.45
712.031	8626.67
712.375	8708.02
712.719	8621.92
713.063	8647
713.407	8661.47
713.75	8638.87
714.094	8679.32
714.438	8611.98
714.782	8534.69
715.125	8473
715.469	8571.07
715.812	8497.4
716.156	8529.72
716.499	8489.27
716.843	8465.99
717.186	8419.21
717.53	8444.75
717.873	8425.77
718.216	8435.94
718.559	8428.48
718.902	8312.1
719.246	8357.97
719.589	8381.93
719.932	8346.9
720.275	8301.02
720.617	8347.35
720.96	8314.36
721.303	8246.34
721.646	8264.87
721.989	8319.56
722.331	8342.15
722.674	8291.08
723.016	8293.79
723.359	8196.17
723.701	8365.2
724.044	8199.56
724.386	8133.35
724.729	8243.63
725.071	8223.74
725.413	8130.86
725.755	8218.99
726.097	8162.5
726.439	8149.16
726.782	8061.48
727.124	8190.97
727.465	8138.54
727.807	8157.07
728.149	8150.97
728.491	8137.64
728.833	8143.97
729.175	8056.06
729.516	8051.99
729.858	8116.4
730.199	8167.47
730.541	8034.14
730.882	8069.84
731.224	8114.59
731.565	8068.71
731.906	8109.17
732.248	8104.65
732.589	8069.62
732.93	8000.02
733.271	8086.79
733.612	8116.62
733.953	8116.62
734.294	8035.72
734.635	8029.62
734.976	8087.24
735.317	8090.41
735.658	8027.59
735.999	8048.15
736.339	8086.57
736.68	8064.42
737.021	8080.47
737.361	8035.49
737.702	8162.27
738.042	8031.2
738.383	8060.35
738.723	8054.93
739.063	8127.47
739.404	8119.56
739.744	8092.89
740.084	8059.9
740.424	8106.23
740.764	8152.33
741.104	8220.35
741.444	8151.2
741.784	8154.81
742.124	8228.71
742.464	8170.18
742.804	8202.72
743.143	8225.09
743.483	8215.15
743.823	8256.73
744.162	8254.02
744.502	8332.66
744.841	8304.41
745.181	8361.59
745.52	8342.83
745.86	8418.76
746.199	8480.45
746.538	8510.06
746.877	8500.12
747.216	8569.72
747.556	8601.58
747.895	8618.3
748.234	8626.89
748.573	8706.66
748.911	8707.34
749.25	8833.89
749.589	8890.39
749.928	8938.97
750.267	9003.15
750.605	9096.26
750.944	9090.61
751.283	9123.15
751.621	9273.88
751.96	9289.25
752.298	9365.4
752.636	9438.4
752.975	9517.26
753.313	9627.32
753.651	9672.97
753.989	9798.16
754.327	9917.03
754.666	10009.45
755.004	10046.52
755.342	10239.05
755.679	10308.66
756.017	10405.38
756.355	10591.81
756.693	10692.6
757.031	10777.34
757.368	10940.05
757.706	11127.62
758.044	11176.43
758.381	11317.89
758.719	11498.23
759.056	11662.97
759.394	11840.82
759.731	11949.52
760.068	11989.74
760.405	12202.39
760.743	12380.92
761.08	12591.76
761.417	12624.98
761.754	12832.66
762.091	12953.56
762.428	13075.59
762.765	13164.17
763.102	13447.78
763.438	13535.01
763.775	13637.83
764.112	13848.9
764.449	13950.37
764.785	14136.8
765.122	14240.3
765.458	14426.74
765.795	14571.82
766.131	14747.18
766.467	14785.83
766.804	14923.9
767.14	15049.32
767.476	15209.54
767.812	15348.75
768.148	15490.44
768.485	15614.5
768.821	15655.63
769.157	15769.3
769.492	15889.98
769.828	16057.43
770.164	16107.83
770.5	16198.67
770.836	16336.97
771.171	16373.35
771.507	16481.6
771.842	16390.53
772.178	16615.16
772.513	16778.77
772.849	16898.99
773.184	16859.9
773.519	16983.73
773.855	16981.93
774.19	17090.17
774.525	17134.24
774.86	17252.65
775.195	17286.78
775.53	17357.74
775.865	17371.75
776.2	17286.33
776.535	17311.64
776.87	17354.8
777.205	17516.38
777.539	17464.4
777.874	17582.36
778.209	17469.15
778.543	17595.7
778.878	17588.69
779.212	17582.14
779.547	17508.24
779.881	17720.89
780.215	17577.84
780.55	17709.14
780.884	17550.5
781.218	17640.44
781.552	17677.5
781.886	17600.89
782.22	17649.71
782.554	17691.74
782.888	17502.59
783.222	17545.08
783.556	17563.38
783.889	17607.67
784.223	17559.99
784.557	17455.81
784.89	17591.85
785.224	17528.8
785.557	17509.82
785.891	17513.89
786.224	17491.52
786.558	17474.79
786.891	17390.05
787.224	17351.63
787.557	17334.01
787.891	17326.78
788.224	17477.96
788.557	17437.51
788.89	17442.25
789.223	17409.49
789.556	17224.18
789.888	17228.7
790.221	17206.1
790.554	17125.2
790.887	17040.91
791.219	17086.78
791.552	17120
791.884	17061.25
792.217	17026.44
792.549	17063.05
792.882	16839.11
793.214	16917.3
793.546	16944.87
793.879	16863.06
794.211	16679.34
794.543	16812.89
794.875	16773.12
795.207	16840.24
795.539	16769.05
795.871	16711.88
796.203	16692.67
796.535	16576.97
796.867	16499
797.198	16417.42
797.53	16470.98
797.862	16434.37
798.193	16448.61
798.525	16365.67
798.856	16426.91
799.188	16178.11
799.519	16137.65
799.85	16051.56
800.182	16188.73
800.513	16176.98
800.844	16012.91
801.175	16130.65
801.506	16023.31
801.837	15972.46
802.168	16032.12
802.499	15896.08
802.83	15887.04
803.161	15775.63
803.491	15864.22
803.822	15738.8
804.153	15713.94
804.483	15663.77
804.814	15579.03
805.145	15573.83
805.475	15563.88
805.805	15512.81
806.136	15571.34
806.466	15458.35
806.796	15535.18
807.126	15366.6
807.457	15241.41
807.787	15358.69
808.117	15260.39
808.447	15280.73
808.777	15317.11
809.107	15166.38
809.436	15205.48
809.766	15106.27
810.096	15072.6
810.426	15019.04
810.755	15151.01
811.085	15007.97
811.414	14970.23
811.744	14890.68
812.073	14919.61
812.403	14861.53
812.732	14814.98
813.061	14852.26
813.39	14756.45
813.719	14824.69
814.049	14759.61
814.378	14706.05
814.707	14718.71
815.036	14646.62
815.365	14659.05
815.693	14512.16
816.022	14580.41
816.351	14446.17
816.68	14366.85
817.008	14482.11
817.337	14317.14
817.665	14325.27
817.994	14264.03
818.322	14335.44
818.651	14267.2
818.979	14174.09
819.307	14309.91
819.636	14258.83
819.964	14179.29
820.292	14276.69
820.62	14250.7
820.948	14129.12
821.276	14210.25
821.604	14174.77
821.932	14102.45
822.259	14153.75
822.587	14099.52
822.915	14154.2
823.243	14176.12
823.57	14154.66
823.898	14077.14
824.225	14046.86
824.553	14094.32
824.88	14130.7
825.207	14152.62
825.535	14099.29
825.862	14104.26
826.189	14132.51
826.516	14132.28
826.843	14182.45
827.17	14151.72
827.497	14156.24
827.824	14221.09
828.151	14194.43
828.478	14118.05
828.805	14211.15
829.131	14160.98
829.458	14146.52
829.785	14014.32
830.111	14186.07
830.438	14201.43
830.764	14165.96
831.09	14185.16
831.417	14141.55
831.743	14157.59
832.069	14108.33
832.395	14033.98
832.722	14148.33
833.048	14043.7
833.374	14108.78
833.7	13973.42
834.026	14035.79
834.351	14111.95
834.677	14034.89
835.003	14087.99
835.329	14055.45
835.654	14044.6
835.98	13998.73
836.306	13954.44
836.631	13970.71
836.956	14009.35
837.282	13984.49
837.607	13848.9
837.932	13805.06
838.258	13857.71
838.583	13815
838.908	13704.27
839.233	13845.06
839.558	13718.51
839.883	13714.67
840.208	13687.78
840.533	13672.63
840.858	13678.28
841.182	13710.15
841.507	13705.85
841.832	13572.07
842.156	13554.22
842.481	13549.47
842.805	13535.69
843.13	13430.83
843.454	13543.37
843.778	13409.14
844.103	13382.47
844.427	13409.59
844.751	13328.24
845.075	13275.58
845.399	13285.3
845.723	13149.03
846.047	13211.86
846.371	13087.57
846.695	13045.76
847.019	12974.57
847.343	12987.68
847.666	12865.88
847.99	12851.41
848.313	12864.97
848.637	12802.6
848.96	12761.7
849.284	12707.01
849.607	12607.58
849.931	12544.08
850.254	12549.73
850.577	12471.31
850.9	12340.92
851.223	12332.33
851.546	12366.68
851.869	12232.45
852.192	12209.17
852.515	12136.18
852.838	12101.15
853.161	12081.49
853.483	12014.83
853.806	12032.45
854.129	11911.55
854.451	11921.95
854.774	11891.21
855.096	11775.28
855.419	11806.47
855.741	11824.77
856.063	11743.65
856.385	11729.18
856.708	11682.63
857.03	11657.77
857.352	11610.09
857.674	11576.87
857.996	11527.61
858.318	11511.56
858.64	11446.25
858.961	11473.6
859.283	11411.45
859.605	11299.59
859.926	11367.61
860.248	11334.62
860.57	11295.3
860.891	11263.88
861.212	11234.05
861.534	11199.03
861.855	11159.71
862.176	11112.25
862.498	11100.95
862.819	11103.89
863.14	11048.3
863.461	11039.71
863.782	11088.3
864.103	11049.65
864.424	10993.38
864.745	11047.39
865.065	10950.22
865.386	10923.1
865.707	10844.01
866.027	10902.99
866.348	10918.81
866.668	10848.75
866.989	10803.56
867.309	10755.88
867.63	10797.23
867.95	10808.08
868.27	10662.54
868.59	10735.99
868.91	10689.21
869.23	10663.45
869.55	10642.88
869.87	10642.66
870.19	10673.84
870.51	10674.3
870.83	10705.48
871.15	10568.31
871.469	10572.6
871.789	10656.22
872.109	10529.89
872.428	10574.86
872.748	10510.01
873.067	10556.78
873.386	10542.32
873.706	10529.21
874.025	10425.04
874.344	10352.95
874.663	10397.01
874.982	10442.21
875.301	10349.33
875.62	10352.5
875.939	10304.81
876.258	10397.47
876.577	10300.29
876.896	10321.54
877.214	10237.47
877.533	10294.64
877.852	10307.07
878.17	10254.42
878.489	10295.32
878.807	10206.74
879.125	10169.22
879.444	10174.65
879.762	10161.31
880.08	10141.88
880.398	10080.19
880.716	10154.99
881.034	10131.94
881.352	10150.24
881.67	10009.91
881.988	10043.13
882.306	9974.43
882.624	9981.88
882.941	9879.51
883.259	9899.17
883.577	9900.53
883.894	9846.97
884.212	9859.63
884.529	9840.87
884.846	9749.8
885.164	9778.5
885.481	9777.6
885.798	9796.35
886.115	9724.26
886.432	9722.68
886.75	9678.62
887.067	9629.35
887.383	9581.67
887.7	9637.26
888.017	9605.17
888.334	9569.47
888.651	9522.46
888.967	9535.79
889.284	9444.27
889.6	9477.26
889.917	9357.04
890.233	9408.34
890.55	9409.47
890.866	9355.69
891.182	9308
891.498	9347.1
891.815	9240.44
892.131	9176.48
892.447	9189.81
892.763	9207.89
893.079	9167.67
893.395	9128.57
893.71	9129.48
894.026	9053.32
894.342	9070.95
894.657	9021.01
894.973	8957.73
895.289	8995.47
895.604	8978.3
895.92	8854.23
896.235	8905.98
896.55	8869.82
896.865	8795.02
897.181	8824.85
897.496	8744.63
897.811	8757.28
898.126	8739.66
898.441	8634.35
898.756	8639.77
899.071	8636.61
899.386	8659.21
899.7	8534.01
900.015	8433.45
900.33	8404.07
900.644	8442.49
900.959	8440.91
901.273	8339.89
901.588	8414.24
901.902	8366.11
902.216	8336.96
902.531	8273
902.845	8304.41
903.159	8255.15
903.473	8175.6
903.787	8065.78
904.101	8072.33
904.415	8078.43
904.729	8055.61
905.042	7929.06
905.356	7956.4
905.67	7904.88
905.984	7975.84
906.297	7901.71
906.611	7922.96
906.924	7815.16
907.237	7790.3
907.551	7819.23
907.864	7779
908.177	7702.4
908.491	7649.29
908.804	7598.22
909.117	7590.99
909.43	7570.65
909.743	7537.2
910.056	7462.4
910.368	7446.81
910.681	7439.8
910.994	7381.73
911.307	7429.86
911.619	7399.81
911.932	7341.28
912.244	7273.03
912.557	7319.81
912.869	7278.68
913.181	7200.26
913.494	7153.26
913.806	7186.03
914.118	7057.67
914.43	7117.78
914.742	7095.86
915.054	7027.39
915.366	6993.26
915.678	7004.56
915.99	6961.4
916.302	6893.83
916.613	6929.99
916.925	6904.45
917.236	6858.12
917.548	6817.67
917.859	6829.88
918.171	6742.2
918.482	6705.13
918.794	6662.2
919.105	6681.86
919.416	6595.08
919.727	6638.7
920.038	6590.56
920.349	6552.37
920.66	6541.75
920.971	6529.77
921.282	6528.87
921.593	6461.53
921.903	6421.53
922.214	6424.92
922.525	6379.04
922.835	6378.14
923.146	6266.95
923.456	6317.57
923.767	6296.78
924.077	6253.85
924.387	6250.91
924.697	6213.62
925.008	6196.22
925.318	6134.08
925.628	6096.11
925.938	6084.13
926.248	6044.36
926.558	6085.72
926.867	6049.56
927.177	5957.58
927.487	5974.31
927.796	5917.36
928.106	5943.35
928.416	5885.27
928.725	5898.83
929.034	5853.86
929.344	5853.18
929.653	5800.53
929.962	5720.75
930.271	5766.18
930.581	5743.13
930.89	5720.53
931.199	5672.85
931.508	5694.31
931.817	5645.73
932.125	5671.04
932.434	5628.33
932.743	5553.75
933.051	5549.46
933.36	5551.04
933.669	5540.42
933.977	5507.2
934.286	5504.26
934.594	5440.99
934.902	5384.94
935.21	5380.2
935.519	5358.05
935.827	5332.29
936.135	5306.98
936.443	5307.66
936.751	5310.37
937.059	5309.01
937.367	5234.66
937.674	5251.61
937.982	5197.83
938.29	5161.45
938.597	5158.96
938.905	5096.36
939.213	5048.91
939.52	5041
939.827	5067.89
940.135	5076.93
940.442	5050.94
940.749	5030.15
941.056	4966.88
941.363	4987.89
941.67	4941.56
941.977	4900.89
942.284	4874.67
942.591	4885.97
942.898	4850.49
943.205	4855.69
943.511	4831.74
943.818	4841.68
944.125	4799.2
944.431	4753.32
944.738	4764.17
945.044	4714.45
945.35	4688.69
945.657	4633.32
945.963	4590.61
946.269	4601.91
946.575	4628.13
946.881	4572.08
947.187	4581.57
947.493	4542.93
947.799	4539.32
948.105	4532.08
948.41	4477.17
948.716	4445.98
949.022	4463.84
949.327	4438.3
949.633	4385.2
949.938	4391.75
950.244	4371.86
950.549	4352.65
950.854	4335.25
951.16	4339.09
951.465	4296.16
951.77	4256.39
952.075	4263.39
952.38	4229.27
952.685	4277.4
952.99	4194.69
953.294	4202.15
953.599	4166.22
953.904	4146.78
954.209	4142.49
954.513	4173.68
954.818	4077.41
955.122	4081.93
955.426	4089.16
955.731	4050.51
956.035	4043.74
956.339	4020.01
956.643	3982.49
956.948	3998.09
957.252	3994.92
957.556	3962.38
957.86	3940.91
958.163	3946.11
958.467	3897.52
958.771	3896.17
959.075	3881.93
959.378	3833.35
959.682	3858.43
959.985	3824.08
960.289	3791.09
960.592	3811.43
960.896	3783.4
961.199	3747.02
961.502	3749.28
961.805	3674.93
962.108	3706.57
962.411	3698.66
962.714	3716.74
963.017	3651.88
963.32	3680.13
963.623	3617.08
963.926	3579.34
964.228	3592
964.531	3599.23
964.833	3560.58
965.136	3517.42
965.438	3524.43
965.741	3525.78
966.043	3456.18
966.345	3514.26
966.648	3471.1
966.95	3479
967.252	3424.99
967.554	3429.06
967.856	3431.1
968.158	3370.53
968.46	3402.85
968.761	3350.19
969.063	3396.52
969.365	3333.02
969.666	3320.59
969.968	3331.44
970.269	3326.24
970.571	3276.52
970.872	3304.77
971.174	3244.43
971.475	3198.79
971.776	3249.18
972.077	3156.75
972.378	3171.89
972.679	3149.97
972.98	3169.41
973.281	3194.04
973.582	3143.19
973.883	3104.78
974.183	3114.95
974.484	3113.59
974.785	3112.46
975.085	3087.38
975.386	3076.53
975.686	3074.5
975.986	3037.43
976.287	3037.43
976.587	3018.23
976.887	2985.68
977.187	3005.34
977.487	2963.99
977.787	2973.03
978.087	2949.53
978.387	2930.54
978.687	2897.55
978.987	2891.45
979.286	2910.43
979.586	2950.43
979.885	2847.38
980.185	2861.85
980.484	2837.44
980.784	2845.57
981.083	2844.44
981.382	2831.11
981.682	2824.78
981.981	2794.5
982.28	2747.5
982.579	2735.07
982.878	2753.6
983.177	2724.22
983.475	2719.7
983.774	2689.65
984.073	2698.23
984.372	2663.43
984.67	2660.5
984.969	2690.55
985.267	2647.16
985.566	2671.34
985.864	2638.8
986.162	2602.42
986.461	2584.11
986.759	2610.33
987.057	2604.23
987.355	2547.73
987.653	2536.2
987.951	2528.75
988.249	2531.91
988.547	2513.15
988.844	2498.47
989.142	2500.95
989.44	2483.78
989.737	2434.06
990.035	2475.87
990.332	2444.91
990.63	2418.24
990.927	2439.94
991.224	2425.02
991.521	2403.1
991.819	2380.95
992.116	2362.88
992.413	2367.17
992.71	2336.66
993.006	2335.31
993.303	2351.58
993.6	2300.5
993.897	2292.14
994.193	2305.48
994.49	2300.5
994.787	2307.74
995.083	2275.19
995.379	2241.75
995.676	2249.66
995.972	2197.91
996.268	2226.61
996.565	2213.05
996.861	2197.46
997.157	2221.86
997.453	2207.63
997.749	2145.93
998.044	2178.25
998.34	2138.47
998.636	2150.23
998.932	2118.59
999.227	2140.51
999.523	2112.94
999.818	2100.51
1000.114	2075.88
1000.409	2050.79
1000.704	2048.31
1001	2055.09
1001.295	2041.75
1001.59	2027.07
1001.885	2031.13
1002.18	1981.64
1002.475	1997.69
1002.77	1996.56
1003.065	1974.19
1003.359	1970.57
1003.654	1934.64
1003.949	1899.16
1004.243	1924.92
1004.538	1917.92
1004.832	1926.28
1005.127	1912.94
1005.421	1863
1005.715	1887.18
1006.009	1858.26
1006.304	1877.01
1006.598	1832.27
1006.892	1847.86
1007.186	1820.74
1007.48	1817.35
1007.773	1829.1
1008.067	1815.09
1008.361	1754.98
1008.655	1805.15
1008.948	1744.13
1009.242	1790.01
1009.535	1729.45
1009.829	1750.46
1010.122	1722.44
1010.415	1708.43
1010.708	1693.51
1011.001	1707.07
1011.295	1692.16
1011.588	1667.07
1011.881	1681.09
1012.173	1645.38
1012.466	1679.5
1012.759	1634.76
1013.052	1612.39
1013.344	1612.16
1013.637	1620.52
1013.93	1627.98
1014.222	1611.48
1014.514	1590.69
1014.807	1611.26
1015.099	1565.16
1015.391	1554.76
1015.683	1583.46
1015.976	1550.92
1016.268	1533.97
1016.56	1531.94
1016.851	1493.07
1017.143	1528.1
1017.435	1499.62
1017.727	1493.75
1018.018	1480.87
1018.31	1434.76
1018.602	1455.1
1018.893	1462.79
1019.185	1442.45
1019.476	1436.35
1019.767	1431.37
1020.058	1436.12
1020.35	1400.87
1020.641	1429.79
1020.932	1390.7
1021.223	1398.83
1021.514	1338.95
1021.804	1361.55
1022.095	1367.42
1022.386	1341.21
1022.677	1338.72
1022.967	1314.32
1023.258	1298.5
1023.548	1298.04
1023.839	1323.13
1024.129	1293.3
1024.419	1277.93
1024.709	1290.59
1025	1259.4
1025.29	1256.01
1025.58	1245.62
1025.87	1239.97
1026.16	1217.37
1026.449	1219.85
1026.739	1239.06
1027.029	1212.4
1027.319	1192.06
1027.608	1216.92
1027.898	1228.44
1028.187	1196.58
1028.477	1190.7
1028.766	1169.23
1029.055	1141.44
1029.344	1160.87
1029.634	1163.13
1029.923	1130.82
1030.212	1128.78
1030.501	1119.29
1030.79	1120.65
1031.078	1110.03
1031.367	1073.42
1031.656	1076.81
1031.945	1085.4
1032.233	1055.34
1032.522	1051.5
1032.81	1088.33
1033.099	1040.42
1033.387	1063.93
1033.675	1045.17
1033.963	1046.75
1034.251	1057.83
1034.54	1052.63
1034.828	1039.07
1035.116	1006.53
1035.403	1002.01
1035.691	987.09
1035.979	989.58
1036.267	997.26
1036.554	993.87
1036.842	956.81
1037.129	978.73
1037.417	967.88
1037.704	967.88
1037.992	961.78
1038.279	942.12
1038.566	945.51
1038.853	945.51
1039.14	945.51
