Data from hue_130_FLMS001491_00026.txt Node
Date: Tue Feb 07 16:57:23 GMT 2017
User: dcchb
Spectrometer: FLMS00149
Trigger mode: 0
Integration Time (sec): 2.000000E-2
Scans to average: 10
Electric dark correction enabled: true
Nonlinearity correction enabled: false
Boxcar width: 0
XAxis mode: Wavelengths
Number of Pixels in Spectrum: 2048
>>>>>Begin Spectral Data<<<<<
341.393	-1.45
341.776	-1.45
342.16	-1.45
342.543	-72.64
342.927	-60.21
343.31	-74.9
343.693	-53.2
344.077	-78.06
344.46	-54.56
344.843	-59.31
345.226	-52.53
345.61	-29.25
345.993	-2.36
346.376	-5.97
346.759	-8.91
347.142	34.02
347.525	32.22
347.908	58.43
348.291	83.74
348.674	94.36
349.057	116.28
349.44	112.21
349.823	163.51
350.206	155.6
350.588	195.83
350.971	206
351.354	203.74
351.737	224.08
352.119	234.7
352.502	256.62
352.884	272.21
353.267	312.66
353.65	298.65
354.032	288.48
354.414	311.98
354.797	318.76
355.179	337.29
355.562	331.19
355.944	341.59
356.326	339.55
356.709	326.9
357.091	324.41
357.473	343.17
357.855	333.23
358.238	331.87
358.62	306.11
359.002	328.71
359.384	339.55
359.766	319.89
360.148	325.77
360.53	343.39
360.912	331.42
361.294	342.49
361.676	333
362.057	354.47
362.439	332.77
362.821	329.84
363.203	338.88
363.584	325.54
363.966	326.22
364.348	333
364.729	352.21
365.111	312.21
365.493	318.76
365.874	317.41
366.256	321.93
366.637	308.14
367.019	316.95
367.4	304.75
367.781	319.67
368.163	330.74
368.544	312.66
368.925	322.6
369.306	313.57
369.688	310.63
370.069	317.86
370.45	304.3
370.831	301.81
371.212	307.01
371.593	296.39
371.974	307.01
372.355	312.44
372.736	321.93
373.117	337.29
373.498	311.08
373.879	327.12
374.26	305.66
374.641	295.03
375.021	333
375.402	338.2
375.783	307.46
376.163	339.78
376.544	332.55
376.925	333.45
377.305	333.9
377.686	322.83
378.066	334.36
378.447	319.89
378.827	323.96
379.208	329.84
379.588	334.13
379.968	313.11
380.349	322.15
380.729	329.61
381.109	327.58
381.489	324.64
381.87	322.38
382.25	343.39
382.63	322.83
383.01	347.46
383.39	333.23
383.77	347.69
384.15	347.91
384.53	358.08
384.91	353.34
385.29	349.27
385.67	341.36
386.049	347.01
386.429	370.29
386.809	359.89
387.189	364.64
387.568	358.08
387.948	358.76
388.328	357.63
388.707	347.24
389.087	370.74
389.466	372.09
389.846	333.9
390.225	374.81
390.605	373.9
390.984	368.93
391.363	376.84
391.743	386.33
392.122	363.51
392.501	377.52
392.881	397.4
393.26	388.59
393.639	364.41
394.018	385.2
394.397	375.26
394.776	386.78
395.155	392.89
395.534	402.38
395.913	372.09
396.292	369.61
396.671	374.58
397.05	403.73
397.429	413.45
397.808	401.47
398.186	401.25
398.565	388.37
398.944	393.34
399.323	411.64
399.701	402.6
400.08	397.63
400.458	410.51
400.837	431.08
401.215	413.9
401.594	413.9
401.972	426.33
402.351	420.91
402.729	434.69
403.107	405.31
403.486	421.81
403.864	438.99
404.242	426.1
404.62	419.78
404.999	431.98
405.377	429.04
405.755	434.47
406.133	421.58
406.511	426.1
406.889	431.08
407.267	439.44
407.645	471.98
408.023	452.32
408.401	445.54
408.779	456.39
409.156	448.93
409.534	456.61
409.912	470.85
410.29	497.52
410.667	462.26
411.045	491.41
411.422	470.85
411.8	461.58
412.178	474.01
412.555	491.41
412.933	487.12
413.31	491.19
413.687	506.1
414.065	504.29
414.442	514.46
414.819	507.01
415.197	527.8
415.574	508.36
415.951	522.83
416.328	515.82
416.705	519.21
417.082	541.81
417.46	534.58
417.837	525.54
418.214	539.77
418.591	533.67
418.967	565.76
419.344	563.5
419.721	566.89
420.098	562.6
420.475	562.15
420.852	560.79
421.228	579.32
421.605	551.98
421.982	555.37
422.358	585.87
422.735	567.12
423.111	603.05
423.488	580.45
423.864	574.8
424.241	586.78
424.617	609.15
424.994	591.3
425.37	625.2
425.746	619.55
426.123	619.32
426.499	602.82
426.875	642.82
427.251	636.04
427.627	620
428.003	639.88
428.379	639.66
428.756	632.88
429.132	642.6
429.507	652.31
429.883	665.65
430.259	670.84
430.635	672.43
431.011	673.78
431.387	669.26
431.763	711.97
432.138	715.59
432.514	705.19
432.89	729.37
433.265	725.31
433.641	704.74
434.016	719.66
434.392	748.13
434.767	752.88
435.143	742.03
435.518	768.92
435.894	752.2
436.269	770.05
436.644	781.12
437.02	780.9
437.395	798.75
437.77	790.61
438.145	818.41
438.52	799.88
438.895	820.67
439.271	841.23
439.646	843.72
440.021	838.3
440.395	837.85
440.77	851.4
441.145	862.25
441.52	849.6
441.895	873.78
442.27	880.78
442.645	878.52
443.019	869.48
443.394	863.61
443.769	880.56
444.143	906.54
444.518	883.72
444.892	881.46
445.267	899.31
445.641	927.33
446.016	915.36
446.39	912.65
446.764	935.47
447.139	916.04
447.513	933.66
447.887	951.97
448.262	981.34
448.636	960.33
449.01	973.21
449.384	984.51
449.758	975.92
450.132	978.41
450.506	987.22
450.88	1014.34
451.254	993.32
451.628	996.26
452.002	1010.04
452.376	1043.26
452.75	1043.04
453.123	1069.93
453.497	1098.4
453.871	1043.49
454.244	1111.51
454.618	1108.57
454.992	1130.94
455.365	1109.48
455.739	1136.14
456.112	1138.85
456.486	1156.93
456.859	1174.33
457.232	1192.86
457.606	1173.43
457.979	1192.64
458.352	1235.12
458.725	1247.1
459.099	1276.93
459.472	1285.07
459.845	1282.35
460.218	1312.86
460.591	1322.35
460.964	1330.04
461.337	1341.79
461.71	1373.65
462.083	1413.88
462.456	1431.95
462.829	1409.13
463.201	1428.11
463.574	1469.69
463.947	1492.97
464.32	1517.6
464.692	1536.36
465.065	1543.36
465.438	1532.52
465.81	1530.71
466.183	1582.23
466.555	1618.39
466.928	1629.46
467.3	1635.11
467.672	1653.19
468.045	1716.69
468.417	1749.91
468.789	1719.18
469.161	1797.37
469.534	1841.43
469.906	1848.44
470.278	1888.67
470.65	1930.7
471.022	1952.84
471.394	2024.71
471.766	2000.75
472.138	2073.52
472.51	2118.94
472.882	2127.75
473.253	2208.66
473.625	2227.87
473.997	2273.74
474.369	2347.18
474.74	2400.06
475.112	2424.24
475.484	2488.65
475.855	2529.78
476.227	2606.16
476.598	2682.09
476.97	2729.09
477.341	2789.43
477.713	2889.77
478.084	2917.11
478.455	3039.14
478.827	3053.38
479.198	3198.69
479.569	3216.77
479.94	3356.88
480.311	3374.95
480.682	3516.19
481.053	3573.37
481.424	3715.74
481.795	3795.73
482.166	3936.75
482.537	3954.6
482.908	4134.71
483.279	4200.69
483.65	4322.27
484.021	4468.71
484.391	4598.65
484.762	4667.58
485.133	4734.92
485.503	4878.87
485.874	5029.37
486.244	5103.72
486.615	5332.19
486.985	5411.51
487.356	5554.33
487.726	5659.64
488.097	5835.23
488.467	5931.27
488.837	6096.92
489.207	6266.63
489.578	6393.63
489.948	6538.49
490.318	6597.02
490.688	6732.83
491.058	6907.06
491.428	7131.24
491.798	7185.7
492.168	7389.76
492.538	7557.22
492.908	7681.28
493.278	7872.01
493.648	7961.95
494.017	8093.7
494.387	8129.63
494.757	8392.67
495.126	8475.61
495.496	8655.27
495.866	8747.24
496.235	8901.36
496.605	9054.35
496.974	9109.72
497.344	9308.58
497.713	9325.98
498.082	9543.38
498.452	9661.79
498.821	9791.73
499.19	9826.54
499.559	9990.82
499.928	10058.17
500.298	10192.85
500.667	10365.73
501.036	10403.24
501.405	10596.91
501.774	10675.33
502.143	10715.1
502.512	10826.96
502.88	10944.92
503.249	11007.75
503.618	11094.98
503.987	11265.14
504.356	11301.07
504.724	11357.57
505.093	11440.73
505.462	11559.6
505.83	11633.72
506.199	11845.92
506.567	11875.3
506.936	11954.84
507.304	12077.32
507.672	12149.86
508.041	12162.75
508.409	12370.2
508.777	12396.41
509.145	12460.14
509.514	12506.92
509.882	12577.88
510.25	12641.15
510.618	12664.65
510.986	12848.83
511.354	12917.98
511.722	13036.62
512.09	13124.53
512.458	13081.37
512.826	13174.92
513.193	13214.02
513.561	13202.04
513.929	13335.82
514.297	13454.01
514.664	13445.88
515.032	13567
515.4	13633.67
515.767	13629.37
516.135	13724.51
516.502	13555.93
516.869	13807.9
517.237	13776.94
517.604	13801.57
517.972	13897.84
518.339	13932.64
518.706	13981.68
519.073	14089.93
519.44	14103.03
519.808	14172.86
520.175	14122.69
520.542	14286.53
520.909	14330.15
521.276	14270.03
521.643	14385.74
522.009	14405.62
522.376	14489.24
522.743	14512.06
523.11	14609.23
523.477	14678.84
523.843	14725.16
524.21	14779.63
524.577	14794.31
524.943	14913.63
525.31	14945.72
525.676	14969.9
526.043	14998.15
526.409	15002.9
526.776	15145.72
527.142	15159.5
527.508	15148.2
527.874	15195.66
528.241	15269.1
528.607	15257.13
528.973	15301.42
529.339	15262.1
529.705	15325.6
530.071	15399.95
530.437	15348.42
530.803	15351.36
531.169	15400.17
531.535	15322.89
531.901	15359.5
532.267	15336.22
532.632	15414.64
532.998	15474.52
533.364	15397.01
533.73	15358.14
534.095	15479.95
534.461	15344.58
534.826	15454.18
535.192	15450.12
535.557	15527.18
535.923	15350.46
536.288	15492.83
536.653	15427.52
537.019	15386.84
537.384	15347.29
537.749	15321.08
538.114	15335.77
538.479	15269.78
538.845	15283.34
539.21	15266.84
539.575	15347.29
539.94	15230.91
540.305	15218.03
540.67	15226.85
541.034	15223.46
541.399	15207.64
541.764	15149.56
542.129	15168.09
542.494	15048.77
542.858	15070.69
543.223	14956.57
543.587	15027.98
543.952	14945.04
544.316	14944.59
544.681	14863.24
545.045	14912.5
545.41	14875.22
545.774	14797.25
546.138	14778.5
546.503	14879.06
546.867	14754.32
547.231	14840.19
547.595	14853.3
547.959	14760.42
548.324	14623.92
548.688	14724.94
549.052	14635.45
549.416	14633.87
549.779	14592.29
550.143	14553.64
550.507	14589.35
550.871	14504.38
551.235	14453.53
551.599	14601.78
551.962	14511.84
552.326	14362.01
552.689	14456.47
553.053	14331.95
553.417	14326.3
553.78	14415.57
554.143	14362.91
554.507	14396.81
554.87	14332.41
555.234	14380.09
555.597	14284.95
555.96	14309.58
556.323	14375.57
556.686	14226.19
557.05	14296.02
557.413	14314.33
557.776	14343.48
558.139	14250.15
558.502	14221.45
558.865	14257.61
559.228	14289.24
559.59	14337.6
559.953	14197.04
560.316	14312.29
560.679	14271.62
561.041	14311.16
561.404	14288.11
561.767	14389.58
562.129	14277.94
562.492	14431.84
562.854	14307.1
563.217	14305.74
563.579	14354.33
563.941	14424.83
564.304	14426.87
564.666	14419.18
565.028	14471.61
565.39	14448.79
565.753	14532.85
566.115	14524.26
566.477	14470.48
566.839	14478.84
567.201	14622.79
567.563	14552.51
567.925	14570.59
568.287	14575.56
568.648	14598.16
569.01	14663.47
569.372	14689.23
569.734	14582.79
570.095	14689.23
570.457	14695.33
570.819	14744.37
571.18	14714.54
571.542	14768.33
571.903	14798.61
572.265	14783.92
572.626	14732.62
572.987	14788.66
573.349	14860.53
573.71	14855.1
574.071	14812.62
574.432	14924.93
574.794	14931.94
575.155	14900.07
575.516	14862.79
575.877	14863.47
576.238	14898.04
576.599	14958.38
576.96	14907.53
577.32	14912.5
577.681	15005.38
578.042	14968.77
578.403	14948.21
578.763	14996.12
579.124	14929.9
579.485	14969
579.845	15041.09
580.206	14963.12
580.566	15002.67
580.927	14992.28
581.287	15136.68
581.648	14980.07
582.008	15047.87
582.368	14966.29
582.728	14945.72
583.089	14893.52
583.449	14986.17
583.809	14964.03
584.169	14978.49
584.529	14918.38
584.889	14987.53
585.249	14961.54
585.609	14816.01
585.969	14898.94
586.329	14966.97
586.688	14943.69
587.048	14976.46
587.408	14895.55
587.768	14860.53
588.127	14949.11
588.487	14753.86
588.846	14907.76
589.206	14770.81
589.565	14729.23
589.925	14790.25
590.284	14740.08
590.643	14771.72
591.003	14854.65
591.362	14853.52
591.721	14730.81
592.08	14805.16
592.44	14848.1
592.799	14803.35
593.158	14775.56
593.517	14818.04
593.876	14830.92
594.235	14639.74
594.593	14700.08
594.952	14779.17
595.311	14708.44
595.67	14673.64
596.029	14824.37
596.387	14746.18
596.746	14757.93
597.104	14725.84
597.463	14733.98
597.822	14795.22
598.18	14642.91
598.538	14733.75
598.897	14762.45
599.255	14629.35
599.613	14848.32
599.972	14731.72
600.33	14750.47
600.688	14761.09
601.046	14739.85
601.404	14820.75
601.762	14687.65
602.12	14819.85
602.478	14856.23
602.836	14686.97
603.194	14624.38
603.552	14729.01
603.91	14634.32
604.268	14778.27
604.625	14677.48
604.983	14852.62
605.341	14581.89
605.698	14729.91
606.056	14737.14
606.413	14685.62
606.771	14809.91
607.128	14802.9
607.485	14646.75
607.843	14703.47
608.2	14788.89
608.557	14836.8
608.914	14758.61
609.272	14817.14
609.629	14844.71
609.986	14839.06
610.343	14818.95
610.7	14912.05
611.057	14908.89
611.414	14826.18
611.771	14816.69
612.127	14925.16
612.484	14873.41
612.841	15018.04
613.198	14944.14
613.554	14933.52
613.911	14999.73
614.267	15057.13
614.624	14947.08
614.98	14963.58
615.337	15091.71
615.693	14971.71
616.05	15050.13
616.406	15018.26
616.762	15032.95
617.118	15020.98
617.475	14987.08
617.831	15063.23
618.187	15113.85
618.543	15003.57
618.899	15124.02
619.255	15131.93
619.611	15085.83
619.967	15124.25
620.323	15172.38
620.678	15170.12
621.034	15052.39
621.39	15181.65
621.746	15099.62
622.101	15212.83
622.457	15136
622.812	15199.28
623.168	15178.71
623.523	15158.82
623.879	15213.51
624.234	15200.86
624.589	15165.15
624.945	15199.95
625.3	15226.85
625.655	15138.71
626.01	15113.18
626.365	15179.61
626.72	15203.12
627.075	15122.89
627.43	15103.91
627.785	15086.06
628.14	15091.93
628.495	15193.17
628.85	15162.67
629.205	15054.42
629.559	15215.55
629.914	15079.96
630.269	15127.41
630.623	15133.97
630.978	14997.92
631.332	15126.74
631.687	15033.63
632.041	15074.08
632.396	15052.84
632.75	15018.49
633.104	15010.58
633.459	14939.17
633.813	14922.22
634.167	14941.88
634.521	14943.69
634.875	14938.27
635.229	14916.57
635.583	14799.74
635.937	14821.21
636.291	14766.97
636.645	14771.94
636.999	14762.22
637.352	14824.37
637.706	14787.53
638.06	14747.99
638.413	14680.19
638.767	14699.18
639.121	14681.1
639.474	14696.69
639.828	14667.09
640.181	14656.69
640.534	14665.73
640.888	14569.46
641.241	14556.35
641.594	14621.21
641.947	14582.79
642.301	14613.98
642.654	14619.63
643.007	14613.53
643.36	14595.22
643.713	14556.58
644.066	14681.32
644.419	14498.5
644.771	14419.41
645.124	14380.31
645.477	14277.94
645.83	14265.29
646.182	14141.22
646.535	14129.25
646.888	14195.01
647.24	14010.38
647.593	14096.48
647.945	14081.11
648.298	13991.4
648.65	14013.32
649.002	14015.58
649.355	14110.26
649.707	14080.43
650.059	14098.97
650.411	14292.41
650.763	14266.42
651.115	14372.86
651.467	14365.63
651.819	14422.8
652.171	14344.16
652.523	14303.71
652.875	14317.04
653.227	14196.82
653.578	14346.87
653.93	14267.32
654.282	14336.02
654.633	14186.19
654.985	14344.83
655.337	14319.98
655.688	14318.85
656.039	14396.58
656.391	14373.08
656.742	14267.77
657.094	14313.42
657.445	14344.83
657.796	14355.68
658.147	14246.98
658.498	14334.89
658.849	14322.01
659.2	14327.89
659.551	14326.53
659.902	14368.34
660.253	14428.22
660.604	14402.91
660.955	14324.72
661.306	14377.38
661.656	14414.21
662.007	14453.08
662.358	14330.37
662.708	14399.52
663.059	14428.45
663.409	14391.84
663.76	14418.05
664.11	14398.62
664.461	14373.99
664.811	14408.79
665.161	14405.4
665.511	14393.19
665.862	14394.32
666.212	14357.72
666.562	14413.08
666.912	14417.83
667.262	14354.78
667.612	14453.31
667.962	14366.3
668.312	14404.27
668.662	14375.57
669.011	14380.99
669.361	14356.36
669.711	14271.39
670.06	14382.12
670.41	14303.25
670.76	14317.72
671.109	14336.93
671.459	14316.59
671.808	14318.85
672.157	14351.61
672.507	14284.72
672.856	14279.53
673.205	14327.21
673.554	14335.57
673.904	14188
674.253	14355
674.602	14262.35
674.951	14084.05
675.3	14051.74
675.649	14196.36
675.998	14159.53
676.346	14194.1
676.695	14173.99
677.044	14114.11
677.393	14278.4
677.741	14174.44
678.09	14120.21
678.438	14048.8
678.787	14117.72
679.135	14051.06
679.484	13924.05
679.832	14030.72
680.181	13952.98
680.529	13979.87
680.877	13878.18
681.225	13917.73
681.573	13973.32
681.922	13813.32
682.27	13822.14
682.618	13858.29
682.966	13760.67
683.314	13836.6
683.661	13771.52
684.009	13774.23
684.357	13727.9
684.705	13643.38
685.053	13708.92
685.4	13641.35
685.748	13627.57
686.095	13648.58
686.443	13556.61
686.79	13489.94
687.138	13545.99
687.485	13576.04
687.832	13466.89
688.18	13401.13
688.527	13309.38
688.874	13383.28
689.221	13310.74
689.568	13243.85
689.915	13275.94
690.262	13205.88
690.609	13141.25
690.956	13144.64
691.303	13129.27
691.65	12990.52
691.997	13011.99
692.344	12810.41
692.69	12896.74
693.037	12919.34
693.383	12795.27
693.73	12861.48
694.077	12724.54
694.423	12667.14
694.769	12604.54
695.116	12663.3
695.462	12634.37
695.808	12530.65
696.155	12534.49
696.501	12418.33
696.847	12433.25
697.193	12322.97
697.539	12426.24
697.885	12248.39
698.231	12149.41
698.577	12173.59
698.923	12195.74
699.269	12150.09
699.614	12107.61
699.96	12081.39
700.306	12038.91
700.651	12007.5
700.997	11888.4
701.342	11856.54
701.688	11824.45
702.033	11764.56
702.379	11784.45
702.724	11756.43
703.069	11647.05
703.415	11574.74
703.76	11551.91
704.105	11631.01
704.45	11568.41
704.795	11482.76
705.14	11468.53
705.485	11417.68
705.83	11442.99
706.175	11426.72
706.52	11330.68
706.865	11266.5
707.209	11351.24
707.554	11257.68
707.899	11278.47
708.243	11247.06
708.588	11155.99
708.932	11113.28
709.277	11079.61
709.621	11062.44
709.966	11007.52
710.31	11039.61
710.654	10954.42
710.998	10975.66
711.342	10926.62
711.687	10907.18
712.031	10871.71
712.375	10778.6
712.719	10840.75
713.063	10789.22
713.407	10785.83
713.75	10716.46
714.094	10693.86
714.438	10708.32
714.782	10692.28
715.125	10608.89
715.469	10708.32
715.812	10550.58
716.156	10533.64
716.499	10595.33
716.843	10607.98
717.186	10472.62
717.53	10561.21
717.873	10568.21
718.216	10510.59
718.559	10502.22
718.902	10379.06
719.246	10379.29
719.589	10403.92
719.932	10346.3
720.275	10361.89
720.617	10344.04
720.96	10322.12
721.303	10332.51
721.646	10356.92
721.989	10293.42
722.331	10249.58
722.674	10269.69
723.016	10299.97
723.359	10287.09
723.701	10233.76
724.044	10159.86
724.386	10172.97
724.729	10191.5
725.071	10183.14
725.413	10160.76
725.755	10163.93
726.097	10119.86
726.439	10066.53
726.782	10110.82
727.124	10141.1
727.465	10166.87
727.807	10142.01
728.149	10053.42
728.491	10085.51
728.833	10099.3
729.175	10057.49
729.516	10040.32
729.858	10046.64
730.199	9964.16
730.541	10073.31
730.882	10038.73
731.224	10080.99
731.565	9967.77
731.906	10071.5
732.248	10000.54
732.589	9964.38
732.93	9958.74
733.271	9979.98
733.612	9989.47
733.953	10017.26
734.294	9932.75
734.635	9995.8
734.976	9982.69
735.317	9935.23
735.658	10011.16
735.999	10035.12
736.339	9958.51
736.68	10044.61
737.021	10043.7
737.361	10007.77
737.702	10030.82
738.042	10028.34
738.383	10013.65
738.723	10033.54
739.063	10008.23
739.404	10115.34
739.744	10066.3
740.084	10008.68
740.424	10067.43
740.764	10069.24
741.104	10114.89
741.444	10071.5
741.784	10112.18
742.124	10139.52
742.464	10154.21
742.804	10152.85
743.143	10148.11
743.483	10180.2
743.823	10130.26
744.162	10276.02
744.502	10271.5
744.841	10189.69
745.181	10302.46
745.52	10370.02
745.86	10388.1
746.199	10375.9
746.538	10415.9
746.877	10470.36
747.216	10528.89
747.556	10561.21
747.895	10570.24
748.234	10621.99
748.573	10631.71
748.911	10760.97
749.25	10831.93
749.589	10887.75
749.928	10978.37
750.267	11006.39
750.605	11064.24
750.944	11114.64
751.283	11105.37
751.621	11246.84
751.96	11333.16
752.298	11453.61
752.636	11575.19
752.975	11608.41
753.313	11666.26
753.651	11826.48
753.989	11847.73
754.327	12119.58
754.666	12066.93
755.004	12290.65
755.342	12327.03
755.679	12493.36
756.017	12633.02
756.355	12823.74
756.693	12925.66
757.031	13078.43
757.368	13161.81
757.706	13334.47
758.044	13451.3
758.381	13573.78
758.719	13729.48
759.056	13953.21
759.394	14134.22
759.731	14177.61
760.068	14384.16
760.405	14483.36
760.743	14616.92
761.08	14833.64
761.417	14907.53
761.754	15077.24
762.091	15213.29
762.428	15433.39
762.765	15631.35
763.102	15708.87
763.438	15867.05
763.775	16028.63
764.112	16181.17
764.449	16366.93
764.785	16474.72
765.122	16615.51
765.458	16739.57
765.795	16831.55
766.131	17021.15
766.467	17126.23
766.804	17300.46
767.14	17344.08
767.476	17474.24
767.812	17629.27
768.148	17774.58
768.485	17801.01
768.821	17933.44
769.157	18081.23
769.492	18220.66
769.828	18278.74
770.164	18320.1
770.5	18365.07
770.836	18559.87
771.171	18570.94
771.507	18688
771.842	18638.73
772.178	18825.39
772.513	18866.07
772.849	18969.35
773.184	18967.99
773.519	19075.11
773.855	19116.69
774.19	19168.21
774.525	19250.92
774.86	19367.75
775.195	19397.36
775.53	19423.12
775.865	19448.66
776.2	19423.35
776.535	19369.34
776.87	19429.9
777.205	19505.6
777.539	19471.03
777.874	19595.32
778.209	19578.37
778.543	19474.42
778.878	19565.04
779.212	19571.82
779.547	19499.73
779.881	19639.38
780.215	19598.48
780.55	19718.7
780.884	19584.92
781.218	19581.08
781.552	19657.46
781.886	19611.36
782.22	19607.07
782.554	19619.5
782.888	19493.85
783.222	19461.31
783.556	19420.41
783.889	19564.36
784.223	19388.32
784.557	19465.38
784.89	19490.69
785.224	19383.12
785.557	19326.17
785.891	19242.33
786.224	19307.19
786.558	19391.03
786.891	19231.26
787.224	19163.69
787.557	19168.44
787.891	19145.16
788.224	19128.89
788.557	19206.18
788.89	19169.57
789.223	19171.37
789.556	19095.44
789.888	18992.17
790.221	19028.78
790.554	18808.45
790.887	18850.93
791.219	18751.27
791.552	18787.66
791.884	18663.37
792.217	18690.71
792.549	18608.23
792.882	18547.89
793.214	18521.9
793.546	18604.38
793.879	18471.28
794.211	18447.78
794.543	18419.76
794.875	18388.12
795.207	18415.69
795.539	18295.69
795.871	18250.72
796.203	18136.6
796.535	18208.91
796.867	18104.96
797.198	18006.21
797.53	18120.1
797.862	17969.37
798.193	17999.43
798.525	17816.16
798.856	17957.17
799.188	17705.42
799.519	17756.04
799.85	17593.79
800.182	17584.98
800.513	17628.82
800.844	17496.39
801.175	17584.98
801.506	17561.25
801.837	17491.87
802.168	17445.54
802.499	17359.67
802.83	17357.18
803.161	17243.06
803.491	17236.06
803.822	17253.01
804.153	17194.93
804.483	17050.75
804.814	16998.78
805.145	17062.28
805.475	17130.98
805.805	16901.15
806.136	17026.12
806.466	17020.02
806.796	16882.85
807.126	16885.56
807.457	16759.23
807.787	16842.85
808.117	16734.83
808.447	16669.07
808.777	16685.56
809.107	16618.45
809.436	16547.71
809.766	16585
810.096	16480.15
810.426	16527.15
810.755	16488.51
811.085	16448.73
811.414	16306.37
811.744	16407.83
812.073	16264.33
812.403	16300.04
812.732	16173.49
813.061	16261.39
813.39	16067.05
813.719	16118.8
814.049	16214.16
814.378	16074.28
814.707	16039.93
815.036	16022.98
815.365	15896.88
815.693	15824.57
816.022	15812.14
816.351	15781.18
816.68	15729.21
817.008	15853.5
817.337	15592.94
817.665	15592.71
817.994	15639.26
818.322	15580.96
818.651	15487.4
818.979	15471.13
819.307	15658.47
819.636	15507.06
819.964	15522.66
820.292	15517.23
820.62	15533.5
820.948	15425.26
821.276	15442.66
821.604	15421.64
821.932	15448.53
822.259	15394.98
822.587	15415.54
822.915	15408.76
823.243	15448.53
823.57	15415.77
823.898	15412.6
824.225	15403.79
824.553	15390.68
824.88	15434.75
825.207	15492.15
825.535	15452.6
825.862	15423.9
826.189	15321.31
826.516	15439.5
826.843	15551.13
827.17	15521.07
827.497	15402.89
827.824	15426.84
828.151	15440.85
828.478	15438.37
828.805	15473.84
829.131	15404.69
829.458	15515.43
829.785	15282.21
830.111	15441.53
830.438	15500.51
830.764	15417.8
831.09	15451.7
831.417	15380.51
831.743	15430.46
832.069	15417.12
832.395	15328.76
832.722	15386.39
833.048	15226.85
833.374	15342.55
833.7	15272.04
834.026	15310.23
834.351	15333.06
834.677	15281.99
835.003	15255.32
835.329	15239.27
835.654	15262.78
835.98	15230.46
836.306	15159.95
836.631	15136.23
836.956	15151.82
837.282	15234.3
837.607	15151.37
837.932	15139.16
838.258	15097.36
838.583	14994.76
838.908	14968.77
839.233	15077.92
839.558	14920.64
839.883	14975.78
840.208	14895.1
840.533	14871.37
840.858	14886.97
841.182	14837.48
841.507	14888.32
841.832	14698.95
842.156	14804.03
842.481	14707.31
842.805	14814.88
843.13	14686.75
843.454	14573.53
843.778	14483.81
844.103	14585.51
844.427	14530.59
844.751	14507.09
845.075	14529.46
845.399	14426.87
845.723	14427.09
846.047	14438.17
846.371	14308.9
846.695	14195.46
847.019	14183.03
847.343	14114.33
847.666	14038.63
847.99	13989.14
848.313	14027.1
848.637	13847.67
848.96	13874.56
849.284	13808.58
849.607	13726.55
849.931	13680.9
850.254	13600.45
850.577	13559.54
850.9	13492.43
851.223	13475.03
851.546	13320
851.869	13284.52
852.192	13369.72
852.515	13268.25
852.838	13193.45
853.161	13137.41
853.483	13112.55
853.806	13004.76
854.129	13024.19
854.451	12991.2
854.774	12976.06
855.096	12874.82
855.419	12788.04
855.741	12730.41
856.063	12807.25
856.385	12627.37
856.708	12677.31
857.03	12645.9
857.352	12669.85
857.674	12593.02
857.996	12489.74
858.318	12513.92
858.64	12436.86
858.961	12400.25
859.283	12385.79
859.605	12291.1
859.926	12285.68
860.248	12303.08
860.57	12207.94
860.891	12215.63
861.212	12093.14
861.534	12103.09
861.855	12054.73
862.176	12185.8
862.498	12119.36
862.819	12095.85
863.14	12012.69
863.461	11944.45
863.782	11983.31
864.103	12002.07
864.424	11974.95
864.745	11920.49
865.065	11829.19
865.386	11881.4
865.707	11774.51
866.027	11755.3
866.348	11865.8
866.668	11800.27
866.989	11759.14
867.309	11688.86
867.63	11664.91
867.95	11763.89
868.27	11639.37
868.59	11615.19
868.91	11551.46
869.23	11602.08
869.55	11588.52
869.87	11658.13
870.19	11674.4
870.51	11673.49
870.83	11570.9
871.15	11532.25
871.469	11588.3
871.789	11519.82
872.109	11491.58
872.428	11364.35
872.748	11402.31
873.067	11401.64
873.386	11392.6
873.706	11340.85
874.025	11330.68
874.344	11262.43
874.663	11297.23
874.982	11303.56
875.301	11244.8
875.62	11222.43
875.939	11243.22
876.258	11290.45
876.577	11174.07
876.896	11183.56
877.214	11165.48
877.533	11197.12
877.852	11097.69
878.17	11148.53
878.489	11092.04
878.807	11093.17
879.125	11014.98
879.444	11051.36
879.762	11019.05
880.08	11039.38
880.398	10960.52
880.716	10963.45
881.034	10906.06
881.352	10927.3
881.67	10937.47
881.988	10855.43
882.306	10863.57
882.624	10813.18
882.941	10706.06
883.259	10760.97
883.577	10730.24
883.894	10759.62
884.212	10695.21
884.529	10714.87
884.846	10656.57
885.164	10626.97
885.481	10548.78
885.798	10624.93
886.115	10515.78
886.432	10567.98
886.75	10446.41
887.067	10487.53
887.383	10396.69
887.7	10453.64
888.017	10367.76
888.334	10452.51
888.651	10410.93
888.967	10347.88
889.284	10288.67
889.6	10240.31
889.917	10148.33
890.233	10208.67
890.55	10150.59
890.866	10150.14
891.182	10126.64
891.498	10072.63
891.815	10063.59
892.131	10074.44
892.447	9994.21
892.763	9972.29
893.079	9904.5
893.395	9946.31
893.71	9888.23
894.026	9839.19
894.342	9770.72
894.657	9715.13
894.973	9693.43
895.289	9767.78
895.604	9747.44
895.92	9603.49
896.235	9558.52
896.55	9553.55
896.865	9464.06
897.181	9472.87
897.496	9525.98
897.811	9439.43
898.126	9428.81
898.441	9393.1
898.756	9346.55
899.071	9306.32
899.386	9329.83
899.7	9207.12
900.015	9177.29
900.33	9125.31
900.644	9161.92
900.959	9119.66
901.273	9108.36
901.588	9066.1
901.902	9031.08
902.216	9002.15
902.531	8928.93
902.845	8920.12
903.159	8822.95
903.473	8839.22
903.787	8838.99
904.101	8741.82
904.415	8787.69
904.729	8721.48
905.042	8639.67
905.356	8704.98
905.67	8641.93
905.984	8608.71
906.297	8574.82
906.611	8500.47
906.924	8437.19
907.237	8532.11
907.551	8485.33
907.864	8369.4
908.177	8421.37
908.491	8381.38
908.804	8337.54
909.117	8264.77
909.43	8236.97
909.743	8112.68
910.056	8174.15
910.368	8126.69
910.681	8083.76
910.994	8073.36
911.307	8102.96
911.619	8000.82
911.932	7999.01
912.244	7925.34
912.557	7868.39
912.869	7831.11
913.181	7815.06
913.494	7846.25
913.806	7764.22
914.118	7760.6
914.43	7736.65
914.742	7702.07
915.054	7660.04
915.366	7632.47
915.678	7561.28
915.99	7533.26
916.302	7496.65
916.613	7472.25
916.925	7473.6
917.236	7463.89
917.548	7363.55
917.859	7345.47
918.171	7309.09
918.482	7313.16
918.794	7249.43
919.105	7235.64
919.416	7214.4
919.727	7187.96
920.038	7211.69
920.349	7127.62
920.66	7120.84
920.971	7106.61
921.282	7047.4
921.593	7018.02
921.903	6954.29
922.214	6892.38
922.525	6924.92
922.835	6961.53
923.146	6834.07
923.456	6833.85
923.767	6784.58
924.077	6802.43
924.387	6759.95
924.697	6700.29
925.008	6696.22
925.318	6629.78
925.628	6712.94
925.938	6606.28
926.248	6564.25
926.558	6550.01
926.867	6509.33
927.177	6493.52
927.487	6491.93
927.796	6433.18
928.106	6428.21
928.416	6375.33
928.725	6399.05
929.034	6266.18
929.344	6311.37
929.653	6302.79
929.962	6296.01
930.271	6246.52
930.581	6149.34
930.89	6187.08
931.199	6125.39
931.508	6161.55
931.817	6117.48
932.125	6093.98
932.434	6130.59
932.743	5999.52
933.051	6010.82
933.36	5986.18
933.669	5921.55
933.977	5954.55
934.286	5884.94
934.594	5910.25
934.902	5867.77
935.21	5837.71
935.519	5782.35
935.827	5857.83
936.135	5758.85
936.443	5710.26
936.751	5700.32
937.059	5726.3
937.367	5667.1
937.674	5647.44
937.982	5685.4
938.29	5599.53
938.597	5661.45
938.905	5524.73
939.213	5469.14
939.52	5477.05
939.827	5514.56
940.135	5417.61
940.442	5424.84
940.749	5422.58
941.056	5409.7
941.363	5332.87
941.67	5319.76
941.977	5303.26
942.284	5273.21
942.591	5256.03
942.898	5220.55
943.205	5204.28
943.511	5186.21
943.818	5174.23
944.125	5135.13
944.431	5157.05
944.738	5103.95
945.044	5091.29
945.35	5076.6
945.657	5040.22
945.963	5012.2
946.269	5013.78
946.575	4979.66
946.881	4948.7
947.187	4950.73
947.493	4905.08
947.799	4889.26
948.105	4875.25
948.41	4812.88
948.716	4875.25
949.022	4795.93
949.327	4801.81
949.633	4738.99
949.938	4748.25
950.244	4744.18
950.549	4692.66
950.854	4676.61
951.16	4638.42
951.465	4657.86
951.77	4629.61
952.075	4609.27
952.38	4572.66
952.685	4599.78
952.99	4541.02
953.294	4524.75
953.599	4510.07
953.904	4482.95
954.209	4494.47
954.513	4449.5
954.818	4419.9
955.122	4411.31
955.426	4432.1
955.731	4428.71
956.035	4325.21
956.339	4358.2
956.643	4352.78
956.948	4274.59
957.252	4303.97
957.556	4265.1
957.86	4251.77
958.163	4196.63
958.467	4241.82
958.771	4190.07
959.075	4167.02
959.378	4156.85
959.682	4151.43
959.985	4128.38
960.289	4100.13
960.592	4118.66
960.896	4068.72
961.199	4067.82
961.502	4050.87
961.805	4032.11
962.108	3980.36
962.411	3955.5
962.714	3950.98
963.017	3966.8
963.32	3881.61
963.623	3934.94
963.926	3937.65
964.228	3905.11
964.531	3857.43
964.833	3890.87
965.136	3795.06
965.438	3849.74
965.741	3809.07
966.043	3822.4
966.345	3739.92
966.648	3725
966.95	3741.72
967.252	3687.94
967.554	3721.16
967.856	3680.26
968.158	3672.8
968.46	3656.98
968.761	3610.65
969.063	3637.55
969.365	3604.78
969.666	3587.38
969.968	3569.07
970.269	3495.85
970.571	3555.06
970.872	3517.32
971.174	3489.53
971.475	3496.31
971.776	3490.43
972.077	3464.89
972.378	3458.57
972.679	3428.06
972.98	3400.72
973.281	3440.94
973.582	3371.56
973.883	3400.72
974.183	3372.92
974.484	3367.27
974.785	3339.93
975.085	3360.94
975.386	3329.76
975.686	3301.28
975.986	3265.8
976.287	3274.39
976.587	3284.79
976.887	3241.62
977.187	3247.73
977.487	3226.48
977.787	3198.69
978.087	3202.75
978.387	3198.91
978.687	3145.58
978.987	3129.76
979.286	3142.19
979.586	3091.57
979.885	3087.96
980.185	3078.92
980.484	3079.82
980.784	3050.22
981.083	3038.01
981.382	3049.31
981.682	3027.17
981.981	2985.81
982.28	3015.42
982.579	2933.16
982.878	2964.34
983.177	2940.84
983.475	2909.66
983.774	2899.49
984.073	2875.53
984.372	2892.71
984.67	2892.48
984.969	2866.94
985.267	2857.23
985.566	2850
985.864	2812.48
986.162	2820.62
986.461	2816.55
986.759	2813.16
987.057	2729.09
987.355	2770.45
987.653	2772.26
987.951	2744.24
988.249	2714.63
988.547	2661.53
988.844	2739.04
989.142	2701.53
989.44	2676.44
989.737	2661.3
990.035	2642.32
990.332	2643.9
990.63	2649.32
990.927	2627.63
991.224	2618.59
991.521	2578.14
991.819	2595.09
992.116	2570.91
992.413	2545.37
992.71	2515.32
993.006	2485.49
993.303	2515.99
993.6	2508.31
993.897	2538.82
994.193	2489.78
994.49	2489.78
994.787	2480.74
995.083	2470.57
995.379	2426.5
995.676	2447.07
995.972	2396
996.268	2378.82
996.565	2376.56
996.861	2379.27
997.157	2366.39
997.453	2336.11
997.749	2312.38
998.044	2298.6
998.34	2312.83
998.636	2295.43
998.932	2300.41
999.227	2285.94
999.523	2224.25
999.818	2253.63
1000.114	2228.54
1000.409	2213.4
1000.704	2240.97
1001	2221.54
1001.295	2178.37
1001.59	2199.62
1001.885	2195.78
1002.18	2131.37
1002.475	2134.76
1002.77	2146.29
1003.065	2123.46
1003.359	2116.23
1003.654	2121.43
1003.949	2101.54
1004.243	2061.09
1004.538	2063.8
1004.832	2052.28
1005.127	2030.13
1005.421	2012.73
1005.715	2014.76
1006.009	2018.38
1006.304	1999.4
1006.598	1961.21
1006.892	1939.96
1007.186	1967.08
1007.48	1942
1007.773	1958.27
1008.067	1924.37
1008.361	1921.88
1008.655	1914.65
1008.948	1904.94
1009.242	1879.17
1009.535	1883.69
1009.829	1835.11
1010.122	1844.15
1010.415	1825.39
1010.708	1850.93
1011.001	1800.53
1011.295	1819.29
1011.588	1806.86
1011.881	1793.07
1012.173	1785.84
1012.466	1731.16
1012.759	1750.82
1013.052	1745.84
1013.344	1747.2
1013.637	1682.57
1013.93	1679.4
1014.222	1698.84
1014.514	1717.37
1014.807	1685.28
1015.099	1699.29
1015.391	1667.43
1015.683	1639.63
1015.976	1656.35
1016.268	1650.93
1016.56	1646.41
1016.851	1596.02
1017.143	1621.33
1017.435	1572.74
1017.727	1567.77
1018.018	1575
1018.31	1571.84
1018.602	1593.31
1018.893	1537.04
1019.185	1521.67
1019.476	1519.41
1019.767	1515.34
1020.058	1524.61
1020.35	1501.1
1020.641	1484.38
1020.932	1468.56
1021.223	1480.77
1021.514	1469.92
1021.804	1428.56
1022.095	1432.86
1022.386	1448.68
1022.677	1433.99
1022.967	1407.1
1023.258	1395.12
1023.548	1396.02
1023.839	1393.99
1024.129	1373.88
1024.419	1343.59
1024.709	1350.6
1025	1355.8
1025.29	1348.34
1025.58	1327.1
1025.87	1301.11
1026.16	1297.72
1026.449	1308.34
1026.739	1302.92
1027.029	1273.54
1027.319	1274.67
1027.608	1275.12
1027.898	1270.6
1028.187	1256.37
1028.477	1246.2
1028.766	1255.24
1029.055	1237.61
1029.344	1239.42
1029.634	1210.26
1029.923	1217.72
1030.212	1196.03
1030.501	1182.47
1030.79	1186.99
1031.078	1199.64
1031.367	1171.62
1031.656	1151.96
1031.945	1159.87
1032.233	1125.52
1032.522	1136.82
1032.81	1122.58
1033.099	1115.13
1033.387	1110.83
1033.675	1074.68
1033.963	1107.67
1034.251	1119.87
1034.54	1064.73
1034.828	1081.23
1035.116	1053.21
1035.403	1081.45
1035.691	1074.45
1035.979	1059.76
1036.267	1041.46
1036.554	1052.3
1036.842	1055.69
1037.129	1039.65
1037.417	1007.11
1037.704	1008.01
1037.992	1007.78
1038.279	994
1038.566	999.42
1038.853	999.42
1039.14	999.42
