Data from hue_220_FLMS001491_00091.txt Node
Date: Tue Feb 07 16:40:11 GMT 2017
User: dcchb
Spectrometer: FLMS00149
Trigger mode: 0
Integration Time (sec): 2.000000E-2
Scans to average: 10
Electric dark correction enabled: true
Nonlinearity correction enabled: false
Boxcar width: 0
XAxis mode: Wavelengths
Number of Pixels in Spectrum: 2048
>>>>>Begin Spectral Data<<<<<
341.393	-12.81
341.776	-12.81
342.16	-12.81
342.543	-54.62
342.927	-52.81
343.31	-55.3
343.693	-62.3
344.077	-67.95
344.46	-63.88
344.843	-37.67
345.226	-44.22
345.61	-9.42
345.993	-14.62
346.376	-0.38
346.759	8.43
347.142	4.36
347.525	30.13
347.908	36.91
348.291	81.88
348.674	81.42
349.057	112.61
349.44	126.39
349.823	145.15
350.206	140.41
350.588	187.64
350.971	189.22
351.354	207.75
351.737	233.74
352.119	247.3
352.502	235.77
352.884	253.62
353.267	280.97
353.65	283.23
354.032	298.59
354.414	301.53
354.797	298.82
355.179	319.38
355.562	323.23
355.944	313.51
356.326	340.4
356.709	351.02
357.091	322.1
357.473	344.24
357.855	344.24
358.238	345.37
358.62	345.6
359.002	325.71
359.384	330.23
359.766	331.81
360.148	344.92
360.53	335.2
360.912	341.3
361.294	329.55
361.676	348.31
362.057	332.72
362.439	332.49
362.821	329.78
363.203	316.22
363.584	331.81
363.966	321.87
364.348	310.8
364.729	327.07
365.111	296.33
365.493	323.23
365.874	311.7
366.256	324.58
366.637	315.77
367.019	282.55
367.4	316.45
367.781	299.95
368.163	313.51
368.544	317.12
368.925	294.3
369.306	313.73
369.688	294.3
370.069	317.35
370.45	305.6
370.831	326.62
371.212	318.25
371.593	306.73
371.974	294.98
372.355	308.54
372.736	327.29
373.117	313.06
373.498	300.85
373.879	308.99
374.26	319.61
374.641	324.36
375.021	300.85
375.402	310.8
375.783	310.12
376.163	315.54
376.544	304.92
376.925	322.55
377.305	304.47
377.686	307.63
378.066	321.19
378.447	325.49
378.827	307.86
379.208	318.93
379.588	317.8
379.968	319.38
380.349	346.73
380.729	323.45
381.109	337.46
381.489	334.07
381.87	329.1
382.25	347.86
382.63	353.28
383.01	345.82
383.39	331.81
383.77	329.33
384.15	334.3
384.53	348.76
384.91	324.13
385.29	335.66
385.67	326.62
386.049	344.47
386.429	344.47
386.809	351.47
387.189	346.05
387.568	354.86
387.948	358.03
388.328	357.35
388.707	359.16
389.087	363.68
389.466	345.37
389.846	331.36
390.225	358.25
390.605	353.51
390.984	374.52
391.363	369.33
391.743	363.22
392.122	358.93
392.501	362.77
392.881	370.46
393.26	379.04
393.639	384.24
394.018	395.09
394.397	367.97
394.776	395.31
395.155	393.28
395.534	384.92
395.913	386.05
396.292	375.43
396.671	377.46
397.05	372.26
397.429	386.28
397.808	403.45
398.186	377.69
398.565	388.76
398.944	402.32
399.323	397.12
399.701	399.38
400.08	399.38
400.458	423.79
400.837	421.08
401.215	405.48
401.594	421.08
401.972	418.36
402.351	424.69
402.729	437.8
403.107	432.83
403.486	423.56
403.864	458.59
404.242	431.47
404.62	431.92
404.999	437.8
405.377	445.03
405.755	444.35
406.133	452.71
406.511	458.36
406.889	445.03
407.267	464.01
407.645	464.69
408.023	482.09
408.401	475.76
408.779	500.85
409.156	513.96
409.534	503.79
409.912	497.23
410.29	508.53
410.667	531.81
411.045	500.4
411.422	536.1
411.8	549.43
412.178	537.91
412.555	581.75
412.933	558.47
413.31	566.84
413.687	596.67
414.065	582.43
414.442	592.6
414.819	583.78
415.197	604.12
415.574	615.65
415.951	629.21
416.328	623.33
416.705	627.85
417.082	633.27
417.46	654.74
417.837	675.31
418.214	650.9
418.591	692.03
418.967	669.88
419.344	683.44
419.721	711.46
420.098	705.14
420.475	728.64
420.852	749.88
421.228	739.03
421.605	763.44
421.982	762.08
422.358	761.63
422.735	769.32
423.111	800.28
423.488	844.79
423.864	824
424.241	829.65
424.617	837.34
424.994	853.38
425.37	877.34
425.746	906.94
426.123	914.85
426.499	899.03
426.875	933.61
427.251	961.85
427.627	940.16
428.003	942.87
428.379	961.85
428.756	970.44
429.132	972.7
429.507	969.54
429.883	996.65
430.259	1040.95
430.635	1056.31
431.011	1066.71
431.387	1060.61
431.763	1095.64
432.138	1084.79
432.514	1106.03
432.89	1130.21
433.265	1135.41
433.641	1187.61
434.016	1191.9
434.392	1229.42
434.767	1231.22
435.143	1248.4
435.518	1268.74
435.894	1275.07
436.269	1311.45
436.644	1359.58
437.02	1359.58
437.395	1349.64
437.77	1405.23
438.145	1419.24
438.52	1425.12
438.895	1444.1
439.271	1445
439.646	1481.84
440.021	1475.29
440.395	1504.66
440.77	1496.3
441.145	1543.76
441.52	1605.9
441.895	1585.79
442.27	1597.09
442.645	1589.18
443.019	1630.99
443.394	1647.48
443.769	1675.96
444.143	1672.79
444.518	1699.69
444.892	1680.48
445.267	1720.7
445.641	1744.43
446.016	1730.65
446.39	1759.57
446.764	1766.35
447.139	1758.67
447.513	1821.04
447.887	1807.71
448.262	1833.24
448.636	1833.69
449.01	1892.9
449.384	1856.07
449.758	1868.95
450.132	1884.77
450.506	1921.83
450.88	1910.98
451.254	1935.84
451.628	1985.78
452.002	1927.25
452.376	1984.43
452.75	1977.19
453.123	2048.38
453.497	2051.09
453.871	2069.62
454.244	2090.41
454.618	2151.43
454.992	2171.09
455.365	2165.89
455.739	2201.14
456.112	2218.54
456.486	2198.43
456.859	2237.75
457.232	2273.68
457.606	2291.76
457.979	2330.86
458.352	2343.96
458.725	2367.24
459.099	2373.79
459.472	2398.65
459.845	2438.2
460.218	2465.54
460.591	2476.62
460.964	2488.59
461.337	2531.53
461.71	2581.02
462.083	2606.33
462.456	2603.84
462.829	2596.61
463.201	2661.47
463.574	2671.64
463.947	2713.67
464.32	2762.03
464.692	2773.78
465.065	2801.35
465.438	2839.77
465.81	2860.33
466.183	2917.06
466.555	2934
466.928	3003.83
467.3	2995.7
467.672	3025.98
468.045	3061.69
468.417	3073.89
468.789	3119.31
469.161	3148.69
469.534	3168.35
469.906	3230.27
470.278	3237.27
470.65	3265.52
471.022	3334.45
471.394	3403.37
471.766	3448.12
472.138	3468.91
472.51	3531.05
472.882	3562.01
473.253	3602.24
473.625	3672.29
473.997	3729.01
474.369	3723.36
474.74	3793.64
475.112	3803.59
475.484	3861.66
475.855	3919.29
476.227	3933.98
476.598	4071.38
476.97	4036.8
477.341	4115.89
477.713	4191.15
478.084	4236.12
478.455	4302.78
478.827	4356.57
479.198	4437.24
479.569	4427.75
479.94	4567.63
480.311	4585.03
480.682	4675.43
481.053	4761.98
481.424	4846.95
481.795	4838.14
482.166	4877
482.537	4999.26
482.908	5076.77
483.279	5079.71
483.65	5180.95
484.021	5230.22
484.391	5303.66
484.762	5298.91
485.133	5348.63
485.503	5406.26
485.874	5523.54
486.244	5559.7
486.615	5634.95
486.985	5703.42
487.356	5810.54
487.726	5808.96
488.097	5938.45
488.467	5940.71
488.837	6042.4
489.207	6096.18
489.578	6173.24
489.948	6253.92
490.318	6284.88
490.688	6307.25
491.058	6400.35
491.428	6428.15
491.798	6526.9
492.168	6615.72
492.538	6641.48
492.908	6661.59
493.278	6723.06
493.648	6752.89
494.017	6792.66
494.387	6881.7
494.757	6895.26
495.126	6935.48
495.496	6957.63
495.866	6999.21
496.235	7093.22
496.605	7092.31
496.974	7184.74
497.344	7195.36
497.713	7221.8
498.082	7257.73
498.452	7258.86
498.821	7385.87
499.19	7319.2
499.559	7401.46
499.928	7454.79
500.298	7420.21
500.667	7573.2
501.036	7498.63
501.405	7538.18
501.774	7588.35
502.143	7614.33
502.512	7654.11
502.88	7630.15
503.249	7691.17
503.618	7699.76
503.987	7739.53
504.356	7706.08
504.724	7710.6
505.093	7839.19
505.462	7761.22
505.83	7793.99
506.199	7840.54
506.567	7928.68
506.936	7923.93
507.304	7979.52
507.672	7984.72
508.041	8064.72
508.409	8029.92
508.777	8075.34
509.145	8077.6
509.514	8118.73
509.882	8018.62
510.25	8144.49
510.618	8167.77
510.986	8129.35
511.354	8205.5
511.722	8228.1
512.09	8269.23
512.458	8207.76
512.826	8285.5
513.193	8278.95
513.561	8271.04
513.929	8394.2
514.297	8391.26
514.664	8349.91
515.032	8372.05
515.4	8400.53
515.767	8374.99
516.135	8454.31
516.502	8323.24
516.869	8391.49
517.237	8478.27
517.604	8389.68
517.972	8431.71
518.339	8483.92
518.706	8444.82
519.073	8422.9
519.44	8476.23
519.808	8589.45
520.175	8449.79
520.542	8512.39
520.909	8553.97
521.276	8460.64
521.643	8549.45
522.009	8598.94
522.376	8607.08
522.743	8642.33
523.11	8607.3
523.477	8676.23
523.843	8676.23
524.21	8730.24
524.577	8746.06
524.943	8744.47
525.31	8736.56
525.676	8749.67
526.043	8783.12
526.409	8734.98
526.776	8809.33
527.142	8771.14
527.508	8771.37
527.874	8795.32
528.241	8786.51
528.607	8834.19
528.973	8854.3
529.339	8764.59
529.705	8835.09
530.071	8804.13
530.437	8887.07
530.803	8850.69
531.169	8860.18
531.535	8868.99
531.901	8874.87
532.267	8783.57
532.632	8862.89
532.998	8809.33
533.364	8817.92
533.73	8800.29
534.095	8758.94
534.461	8788.31
534.826	8814.3
535.192	8832.15
535.557	8865.15
535.923	8716.23
536.288	8760.52
536.653	8771.37
537.019	8710.12
537.384	8722.78
537.749	8766.39
538.114	8705.83
538.479	8598.26
538.845	8678.03
539.21	8636.23
539.575	8629.9
539.94	8608.43
540.305	8599.84
540.67	8554.65
541.034	8563.46
541.399	8573.86
541.764	8577.25
542.129	8559.62
542.494	8555.55
542.858	8556.68
543.223	8488.43
543.587	8470.36
543.952	8483.01
544.316	8388.78
544.681	8361.21
545.045	8433.07
545.41	8455.22
545.774	8393.52
546.138	8403.24
546.503	8366.63
546.867	8320.08
547.231	8359.62
547.595	8403.01
547.959	8282.34
548.324	8300.19
548.688	8232.85
549.052	8296.58
549.416	8265.39
549.779	8192.4
550.143	8254.09
550.507	8227.88
550.871	8201.66
551.235	8162.34
551.599	8160.99
551.962	8117.37
552.326	8208.89
552.689	8140.2
553.053	8071.5
553.417	8064.94
553.78	8110.37
554.143	8037.83
554.507	8087.99
554.87	8034.89
555.234	8088.22
555.597	8033.53
555.96	8052.06
556.323	8086.86
556.686	8023.14
557.05	8106.3
557.413	8045.06
557.776	8036.7
558.139	8048.22
558.502	8017.94
558.865	7972.52
559.228	8033.31
559.59	8040.99
559.953	8020.88
560.316	8050.93
560.679	8028.79
561.041	8039.86
561.404	8019.52
561.767	8087.99
562.129	8010.93
562.492	8051.84
562.854	8040.09
563.217	8005.51
563.579	8034.44
563.941	8124.15
564.304	8087.54
564.666	8134.09
565.028	8091.16
565.39	8121.66
565.753	8172.96
566.115	8206.18
566.477	8165.28
566.839	8173.87
567.201	8219.52
567.563	8212.74
567.925	8245.28
568.287	8247.99
568.648	8221.32
569.01	8256.58
569.372	8245.5
569.734	8287.76
570.095	8300.42
570.457	8311.04
570.819	8351.94
571.18	8297.25
571.542	8351.72
571.903	8347.87
572.265	8353.07
572.626	8455.67
572.987	8422
573.349	8382
573.71	8446.4
574.071	8452.96
574.432	8495.89
574.794	8499.73
575.155	8508.1
575.516	8525.95
575.877	8534.99
576.238	8503.35
576.599	8554.42
576.96	8519.62
577.32	8559.17
577.681	8593.29
578.042	8615.44
578.403	8627.19
578.763	8633.97
579.124	8618.15
579.485	8681.42
579.845	8661.09
580.206	8710.58
580.566	8738.37
580.927	8755.55
581.287	8798.48
581.648	8670.35
582.008	8804.58
582.368	8784.47
582.728	8836.45
583.089	8818.37
583.449	8790.12
583.809	8845.49
584.169	8898.14
584.529	8815.21
584.889	8915.99
585.249	8863.79
585.609	8850.46
585.969	8897.01
586.329	8863.79
586.688	8935.43
587.048	8942.66
587.408	8894.3
587.768	8987.4
588.127	8940.17
588.487	8966.16
588.846	9054.75
589.206	8947.86
589.565	9019.27
589.925	9036.44
590.284	9016.78
590.643	9070.34
591.003	9041.41
591.362	9071.7
591.721	9066.5
592.08	9053.17
592.44	9104.24
592.799	9120.28
593.158	9089.1
593.517	9098.59
593.876	9116.67
594.235	9098.59
594.593	9194.41
594.952	9132.49
595.311	9120.06
595.67	9196.21
596.029	9180.17
596.387	9209.32
596.746	9228.75
597.104	9179.49
597.463	9204.12
597.822	9221.3
598.18	9171.58
598.538	9198.92
598.897	9202.99
599.255	9174.29
599.613	9325.25
599.972	9233.27
600.33	9270.79
600.688	9270.79
601.046	9243.44
601.404	9316.21
601.762	9390.11
602.12	9292.03
602.478	9365.25
602.836	9344.46
603.194	9266.95
603.552	9319.15
603.91	9254.29
604.268	9293.16
604.625	9316.89
604.983	9333.84
605.341	9331.12
605.698	9347.4
606.056	9324.8
606.413	9306.27
606.771	9384
607.128	9390.11
607.485	9358.69
607.843	9381.52
608.2	9333.84
608.557	9411.57
608.914	9404.8
609.272	9459.48
609.629	9468.3
609.986	9496.54
610.343	9407.51
610.7	9557.33
611.057	9558.92
611.414	9445.7
611.771	9503.32
612.127	9546.94
612.484	9488.18
612.841	9543.32
613.198	9467.39
613.554	9494.28
613.911	9586.26
614.267	9593.94
614.624	9555.53
614.98	9555.3
615.337	9585.81
615.693	9575.64
616.05	9585.13
616.406	9616.99
616.762	9604.11
617.118	9541.97
617.475	9628.97
617.831	9654.51
618.187	9626.03
618.543	9649.08
618.899	9675.75
619.255	9672.36
619.611	9637.11
619.967	9724.33
620.323	9733.15
620.678	9676.88
621.034	9631.46
621.39	9694.05
621.746	9664.45
622.101	9771.57
622.457	9746.93
622.812	9713.94
623.168	9719.14
623.523	9700.38
623.879	9733.6
624.234	9734.05
624.589	9631.46
624.945	9701.28
625.3	9626.71
625.655	9718.91
626.01	9682.53
626.365	9674.62
626.72	9667.61
627.075	9678.69
627.43	9645.24
627.785	9664.68
628.14	9707.61
628.495	9701.96
628.85	9626.71
629.205	9591.91
629.559	9658.35
629.914	9618.35
630.269	9672.58
630.623	9593.26
630.978	9604.34
631.332	9607.05
631.687	9618.12
632.041	9624.68
632.396	9602.76
632.75	9513.72
633.104	9563.43
633.459	9544.9
633.813	9526.83
634.167	9549.65
634.521	9522.31
634.875	9490.22
635.229	9518.01
635.583	9532.7
635.937	9450.22
636.291	9429.65
636.645	9472.82
636.999	9369.77
637.352	9486.15
637.706	9407.96
638.06	9399.37
638.413	9447.05
638.767	9375.64
639.121	9386.49
639.474	9302.42
639.828	9319.6
640.181	9378.13
640.534	9406.38
640.888	9310.79
641.241	9264.91
641.594	9298.36
641.947	9265.14
642.301	9225.14
642.654	9341.29
643.007	9274.85
643.36	9302.42
643.713	9337.9
644.066	9280.5
644.419	9173.84
644.771	9206.61
645.124	9075.54
645.477	9107.4
645.83	9040.51
646.182	8950.57
646.535	8981.76
646.888	9019.27
647.24	8919.16
647.593	8939.5
647.945	8989.44
648.298	8843.23
648.65	8922.55
649.002	8856.11
649.355	8924.58
649.707	8929.1
650.059	8999.61
650.411	9122.54
650.763	9107.85
651.115	9174.97
651.467	9114.63
651.819	9142.66
652.171	9165.71
652.523	9088.87
652.875	9198.25
653.227	9052.04
653.578	9162.99
653.93	9101.07
654.282	9124.8
654.633	9045.26
654.985	9107.4
655.337	9149.43
655.688	9133.39
656.039	9180.85
656.391	9075.76
656.742	9076.89
657.094	9084.58
657.445	9137.68
657.796	9041.41
658.147	9128.87
658.498	9038.25
658.849	9166.84
659.2	9122.32
659.551	9136.1
659.902	9088.42
660.253	9138.36
660.604	9103.11
660.955	9099.27
661.306	9163.67
661.656	9130.68
662.007	9075.99
662.358	9040.51
662.708	9159.15
663.059	9122.77
663.409	9118.93
663.76	9179.26
664.11	9174.07
664.461	9183.11
664.811	9134.29
665.161	9169.55
665.511	9092.94
665.862	9196.66
666.212	9201.64
666.562	9221.3
666.912	9178.36
667.262	9184.24
667.612	9208.19
667.962	9253.39
668.312	9075.54
668.662	9224.23
669.011	9223.78
669.361	9092.26
669.711	9184.69
670.06	9102.88
670.41	9093.62
670.76	9068.08
671.109	9093.84
671.459	9106.95
671.808	9114.63
672.157	9115.31
672.507	9073.05
672.856	9081.41
673.205	9088.42
673.554	9112.15
673.904	9127.97
674.253	9127.51
674.602	9069.44
674.951	8893.62
675.3	8884.81
675.649	8987.86
675.998	8964.58
676.346	9023.79
676.695	9061.75
677.044	8995.09
677.393	9034.18
677.741	9016.1
678.09	9019.04
678.438	9010.46
678.787	9051.58
679.135	8960.96
679.484	8929.55
679.832	8983.11
680.181	8903.34
680.529	8966.84
680.877	8851.14
681.225	8844.81
681.573	8943.56
681.922	8824.92
682.27	8834.87
682.618	8766.17
682.966	8802.55
683.314	8787.41
683.661	8792.16
684.009	8703.34
684.357	8667.19
684.705	8701.99
685.053	8704.47
685.4	8725.26
685.748	8667.41
686.095	8626.96
686.443	8600.75
686.79	8560.07
687.138	8566.17
687.485	8601.65
687.832	8474.2
688.18	8542.44
688.527	8503.8
688.874	8444.37
689.221	8494.54
689.568	8350.59
689.915	8391.26
690.262	8320.53
690.609	8374.77
690.956	8315.78
691.303	8231.94
691.65	8275.79
691.997	8226.29
692.344	8179.52
692.69	8142
693.037	8198.5
693.383	8086.41
693.73	8104.94
694.077	8052.06
694.423	8047.54
694.769	8031.72
695.116	8044.15
695.462	8000.31
695.808	7952.63
696.155	7959.41
696.501	7914.89
696.847	7833.54
697.193	7875.57
697.539	7819.75
697.885	7826.31
698.231	7761
698.577	7833.08
698.923	7776.59
699.269	7708.34
699.614	7599.87
699.96	7605.29
700.306	7570.94
700.651	7590.61
700.997	7502.25
701.342	7533.88
701.688	7474.68
702.033	7401.91
702.379	7448.01
702.724	7426.09
703.069	7430.61
703.415	7337.73
703.76	7306.77
704.105	7354.45
704.45	7365.53
704.795	7258.86
705.14	7239.88
705.485	7211.63
705.83	7153.55
706.175	7135.02
706.52	7165.98
706.865	7172.99
707.209	7128.47
707.554	7134.35
707.899	7127.11
708.243	7029.26
708.588	7082.82
708.932	7030.85
709.277	6980.45
709.621	6996.5
709.966	6963.05
710.31	6941.58
710.654	6902.71
710.998	6920.11
711.342	6933.22
711.687	6896.84
712.031	6837.63
712.375	6768.25
712.719	6857.97
713.063	6782.49
713.407	6871.3
713.75	6829.72
714.094	6798.08
714.438	6795.37
714.782	6787.46
715.125	6762.38
715.469	6749.05
715.812	6752.21
716.156	6692.78
716.499	6648.03
716.843	6655.26
717.186	6659.78
717.53	6677.86
717.873	6682.38
718.216	6681.7
718.559	6569.39
718.902	6556.96
719.246	6581.59
719.589	6612.1
719.932	6546.79
720.275	6491.65
720.617	6578.43
720.96	6517.41
721.303	6541.59
721.646	6528.03
721.989	6536.4
722.331	6514.48
722.674	6554.02
723.016	6540.24
723.359	6531.42
723.701	6507.92
724.044	6513.57
724.386	6414.59
724.729	6463.63
725.071	6447.36
725.413	6469.96
725.755	6453.91
726.097	6424.31
726.439	6407.81
726.782	6462.05
727.124	6411.43
727.465	6416.4
727.807	6393.57
728.149	6403.74
728.491	6391.31
728.833	6413.69
729.175	6387.02
729.516	6380.92
729.858	6384.54
730.199	6387.02
730.541	6363.07
730.882	6380.69
731.224	6369.17
731.565	6377.76
731.906	6371.65
732.248	6406.23
732.589	6346.34
732.93	6334.59
733.271	6350.41
733.612	6370.98
733.953	6330.07
734.294	6374.14
734.635	6371.2
734.976	6391.77
735.317	6327.81
735.658	6417.98
735.999	6357.64
736.339	6365.78
736.68	6439.22
737.021	6407.59
737.361	6365.78
737.702	6407.59
738.042	6408.26
738.383	6448.94
738.723	6444.42
739.063	6392.9
739.404	6397.19
739.744	6417.98
740.084	6410.07
740.424	6462.27
740.764	6466.57
741.104	6449.84
741.444	6459.11
741.784	6415.5
742.124	6486
742.464	6549.28
742.804	6532.1
743.143	6536.62
743.483	6516.74
743.823	6596.06
744.162	6601.48
744.502	6658.2
744.841	6637.18
745.181	6638.09
745.52	6674.47
745.86	6777.75
746.199	6788.82
746.538	6812.55
746.877	6829.04
747.216	6882.38
747.556	6923.28
747.895	6983.39
748.234	7017.51
748.573	6978.87
748.911	7048.47
749.25	7157.85
749.589	7184.51
749.928	7260.67
750.267	7313.32
750.605	7407.33
750.944	7403.27
751.283	7365.98
751.621	7571.62
751.96	7672.19
752.298	7711.05
752.636	7833.99
752.975	7878.28
753.313	7897.26
753.651	8056.58
753.989	8097.71
754.327	8253.19
754.666	8375.9
755.004	8447.76
755.342	8641.88
755.679	8674.64
756.017	8805.26
756.355	8978.37
756.693	9054.97
757.031	9254.97
757.368	9314.85
757.706	9442.99
758.044	9574.06
758.381	9742.41
758.719	9835.52
759.056	10055.63
759.394	10222.17
759.731	10296.07
760.068	10496.74
760.405	10541.26
760.743	10762.27
761.08	10943.29
761.417	11059.89
761.754	11237.97
762.091	11454.91
762.428	11538.98
762.765	11704.62
763.102	12002.92
763.438	12035.01
763.775	12256.25
764.112	12380.99
764.449	12670.92
764.785	12686.52
765.122	12825.27
765.458	12996.79
765.795	13184.81
766.131	13378.93
766.467	13488.3
766.804	13522.2
767.14	13700.5
767.476	13818.01
767.812	14030.44
768.148	14168.06
768.485	14304.33
768.821	14413.02
769.157	14531.44
769.492	14770.76
769.828	14822.73
770.164	14789.51
770.5	15037.64
770.836	15161.48
771.171	15272.66
771.507	15425.88
771.842	15337.07
772.178	15570.73
772.513	15709.49
772.849	15705.87
773.184	15771.63
773.519	15891.63
773.855	15937.05
774.19	16057.73
774.525	16123.26
774.86	16167.1
775.195	16293.65
775.53	16354.22
775.865	16401.9
776.2	16470.82
776.535	16402.8
776.87	16467.43
777.205	16520.99
777.539	16606.64
777.874	16700.42
778.209	16671.95
778.543	16745.84
778.878	16752.62
779.212	16815.22
779.547	16816.58
779.881	16934.99
780.215	16867.88
780.55	17034.88
780.884	16999.4
781.218	16967.08
781.552	17025.61
781.886	17118.04
782.22	16994.43
782.554	17108.77
782.888	16895.45
783.222	16925.95
783.556	16853.86
783.889	17038.94
784.223	16833.98
784.557	16850.25
784.89	16925.28
785.224	16925.5
785.557	16871.04
785.891	16869.68
786.224	16926.86
786.558	16937.48
786.891	16788.56
787.224	16826.07
787.557	16784.49
787.891	16814.54
788.224	16935.44
788.557	16877.14
788.89	16845.05
789.223	16875.33
789.556	16807.54
789.888	16738.16
790.221	16690.48
790.554	16643.47
790.887	16712.85
791.219	16601.89
791.552	16655.68
791.884	16543.36
792.217	16544.04
792.549	16630.37
792.882	16501.78
793.214	16457.49
793.546	16468.34
793.879	16362.58
794.211	16441.45
794.543	16444.84
794.875	16299.53
795.207	16398.96
795.539	16334.56
795.871	16275.35
796.203	16149.48
796.535	16181.34
796.867	16201.23
797.198	16023.38
797.53	16079.2
797.862	15985.64
798.193	16092.75
798.525	15935.47
798.856	16063.83
799.188	15823.84
799.519	15800.79
799.85	15767.79
800.182	15732.09
800.513	15840.33
800.844	15668.13
801.175	15771.41
801.506	15747.68
801.837	15656.61
802.168	15686.21
802.499	15573.9
802.83	15497.52
803.161	15537.06
803.491	15533.22
803.822	15485.77
804.153	15334.36
804.483	15364.64
804.814	15311.31
805.145	15219.56
805.475	15321.48
805.805	15254.36
806.136	15183.4
806.466	15172.55
806.796	15206.45
807.126	15062.73
807.457	15075.38
807.787	15114.48
808.117	14959.9
808.447	14989.06
808.777	14973.69
809.107	14805.33
809.436	14834.26
809.766	14895.72
810.096	14888.27
810.426	14744.09
810.755	14823.64
811.085	14838.55
811.414	14806.69
811.744	14734.15
812.073	14611.66
812.403	14652.34
812.732	14620.48
813.061	14582.74
813.39	14537.09
813.719	14521.04
814.049	14585
814.378	14485.57
814.707	14407.38
815.036	14383.2
815.365	14384.55
815.693	14209.87
816.022	14309.07
816.351	14263.2
816.68	14139.13
817.008	14229.08
817.337	14048.74
817.665	14075.86
817.994	14097.1
818.322	14122.19
818.651	14015.75
818.979	14034.05
819.307	14134.39
819.636	14055.97
819.964	13930.78
820.292	14023.2
820.62	13940.04
820.948	13883.1
821.276	13985.24
821.604	13992.02
821.932	13957.44
822.259	13994.05
822.587	13936.65
822.915	13946.37
823.243	13976.65
823.57	13938.01
823.898	13958.35
824.225	13944.56
824.553	13890.55
824.88	13907.5
825.207	13976.2
825.535	13997.67
825.862	13933.72
826.189	13871.12
826.516	13978.01
826.843	14037.22
827.17	13972.36
827.497	13977.56
827.824	14005.8
828.151	14070.89
828.478	13923.77
828.805	14051.23
829.131	14013.04
829.458	13947.5
829.785	13932.13
830.111	13888.74
830.438	14021.17
830.764	14011.91
831.09	13991.34
831.417	13869.54
831.743	13926.03
832.069	13864.79
832.395	13918.35
832.722	13936.88
833.048	13883.55
833.374	13963.77
833.7	13823.66
834.026	13858.69
834.351	13962.64
834.677	13837.45
835.003	13858.92
835.329	13886.71
835.654	13834.74
835.98	13850.33
836.306	13808.97
836.631	13728.75
836.956	13833.61
837.282	13761.06
837.607	13780.5
837.932	13759.93
838.258	13606.04
838.583	13690.33
838.908	13613.27
839.233	13679.26
839.558	13649.43
839.883	13613.72
840.208	13567.4
840.533	13555.19
840.858	13529.43
841.182	13547.29
841.507	13504.12
841.832	13417.34
842.156	13494.18
842.481	13442.43
842.805	13323.56
843.13	13344.35
843.454	13338.93
843.778	13297.57
844.103	13255.32
844.427	13183
844.751	13199.05
845.075	13253.51
845.399	13108.43
845.723	13045.83
846.047	13043.57
846.371	12986.85
846.695	12901.2
847.019	12853.07
847.343	12818.04
847.666	12768.32
847.99	12712.28
848.313	12719.51
848.637	12655.56
848.96	12640.64
849.284	12598.38
849.607	12512.51
849.931	12449.23
850.254	12379.63
850.577	12356.36
850.9	12249.92
851.223	12275.45
851.546	12214.44
851.869	12149.81
852.192	12131.73
852.515	11960.89
852.838	12022.81
853.161	12018.96
853.483	11961.34
853.806	11839.31
854.129	11868.91
854.451	11787.11
854.774	11745.3
855.096	11747.33
855.419	11679.31
855.741	11691.74
856.063	11661.46
856.385	11530.16
856.708	11547.56
857.03	11456.72
857.352	11579.88
857.674	11451.75
857.996	11478.19
858.318	11296.72
858.64	11306.44
858.961	11279.1
859.283	11230.96
859.605	11176.73
859.926	11283.84
860.248	11188.25
860.57	11184.41
860.891	11261.7
861.212	11065.09
861.534	11025.09
861.855	11023.51
862.176	11053.79
862.498	11014.24
862.819	11094.24
863.14	11024.87
863.461	10954.81
863.782	10929.05
864.103	10927.24
864.424	10937.64
864.745	10878.88
865.065	10809.5
865.386	10795.04
865.707	10798.2
866.027	10837.53
866.348	10819
866.668	10787.58
866.989	10782.39
867.309	10687.93
867.63	10652.9
867.95	10721.6
868.27	10624.65
868.59	10648.6
868.91	10631.66
869.23	10602.73
869.55	10555.27
869.87	10701.03
870.19	10616.74
870.51	10566.8
870.83	10536.06
871.15	10510.98
871.469	10487.03
871.789	10496.52
872.109	10495.39
872.428	10345.79
872.748	10443.86
873.067	10450.87
873.386	10402.51
873.706	10415.39
874.025	10336.97
874.344	10362.28
874.663	10335.17
874.982	10341.72
875.301	10304.88
875.62	10252.68
875.939	10202.74
876.258	10298.78
876.577	10179.46
876.896	10155.96
877.214	10217.2
877.533	10182.63
877.852	10206.36
878.17	10120.03
878.489	10194.83
878.807	10082.29
879.125	10059.69
879.444	10158.67
879.762	10051.56
880.08	10051.56
880.398	10058.34
880.716	10019.69
881.034	10015.63
881.352	10001.62
881.67	9929.08
881.988	9928.17
882.306	9876.42
882.624	9860.83
882.941	9793.03
883.259	9844.11
883.577	9826.7
883.894	9803.88
884.212	9847.72
884.529	9778.34
884.846	9704
885.164	9782.86
885.481	9631
885.798	9702.19
886.115	9598.69
886.432	9609.31
886.75	9616.99
887.067	9626.48
887.383	9556.43
887.7	9567.95
888.017	9599.59
888.334	9545.81
888.651	9530.44
888.967	9426.49
889.284	9444.79
889.6	9420.84
889.917	9337.68
890.233	9293.61
890.55	9251.13
890.866	9250
891.182	9315.08
891.498	9241.86
891.815	9186.27
892.131	9171.58
892.447	9117.57
892.763	9168.19
893.079	9072.6
893.395	9081.87
893.71	9072.6
894.026	9030.12
894.342	8987.86
894.657	8979.95
894.973	8962.32
895.289	8879.16
895.604	8855.88
895.92	8797.13
896.235	8798.71
896.55	8803.23
896.865	8744.93
897.181	8738.15
897.496	8702.89
897.811	8639.39
898.126	8621.09
898.441	8606.17
898.756	8587.42
899.071	8522.56
899.386	8495.21
899.7	8413.86
900.015	8391.71
900.33	8301.77
900.644	8371.6
900.959	8386.74
901.273	8370.47
901.588	8278.27
901.902	8233.07
902.216	8222.91
902.531	8198.95
902.845	8148.33
903.159	8122.79
903.473	8069.69
903.787	8090.48
904.101	7954.66
904.415	7980.43
904.729	7943.59
905.042	7906.3
905.356	7896.36
905.67	7938.39
905.984	7882.8
906.297	7854.1
906.611	7782.46
906.924	7695.01
907.237	7749.47
907.551	7706.76
907.864	7754.44
908.177	7594.45
908.491	7561.68
908.804	7496.37
909.117	7525.97
909.43	7465.86
909.743	7431.97
910.056	7437.39
910.368	7430.84
910.681	7415.47
910.994	7339.54
911.307	7337.96
911.619	7248.24
911.932	7310.16
912.244	7183.16
912.557	7216.83
912.869	7194.01
913.181	7113.33
913.494	7115.82
913.806	7064.07
914.118	7020.68
914.43	7008.47
914.742	7002.15
915.054	7001.02
915.366	6940.45
915.678	6931.41
915.99	6883.73
916.302	6827.46
916.613	6809.16
916.925	6779.1
917.236	6853
917.548	6752.66
917.859	6748.59
918.171	6683.51
918.482	6739.78
918.794	6638.09
919.105	6659.56
919.416	6597.19
919.727	6575.72
920.038	6527.58
920.349	6488.26
920.66	6478.77
920.971	6487.13
921.282	6494.59
921.593	6398.55
921.903	6354.48
922.214	6371.65
922.525	6307.02
922.835	6303.41
923.146	6294.59
923.456	6254.14
923.767	6189.96
924.077	6205.33
924.387	6132.34
924.697	6168.27
925.008	6126.46
925.318	6124.88
925.628	6115.39
925.938	6030.19
926.248	6020.48
926.558	5975.96
926.867	5946.58
927.177	5956.07
927.487	5958.11
927.796	5820.26
928.106	5900.03
928.416	5836.98
928.725	5850.99
929.034	5788.39
929.344	5789.07
929.653	5730.99
929.962	5724.89
930.271	5678.57
930.581	5702.52
930.89	5684.67
931.199	5594.73
931.508	5599.02
931.817	5619.58
932.125	5553.6
932.434	5561.51
932.743	5538.46
933.051	5476.54
933.36	5462.3
933.669	5442.64
933.977	5427.5
934.286	5443.77
934.594	5393.6
934.902	5365.35
935.21	5330.55
935.519	5366.26
935.827	5349.53
936.135	5260.95
936.443	5244.45
936.751	5211.46
937.059	5215.98
937.367	5145.25
937.674	5191.35
937.982	5149.54
938.29	5150.67
938.597	5125.36
938.905	5048.53
939.213	5051.24
939.52	5022.99
939.827	5065.93
940.135	5034.29
940.442	4959.94
940.749	4967.85
941.056	4966.72
941.363	4880.62
941.67	4920.85
941.977	4891.02
942.284	4847.17
942.591	4826.61
942.898	4773.28
943.205	4797.91
943.511	4790.23
943.818	4753.62
944.125	4701.64
944.431	4748.65
944.738	4690.57
945.044	4681.08
945.35	4615.99
945.657	4576.45
945.963	4582.55
946.269	4555.66
946.575	4612.15
946.881	4528.99
947.187	4537.13
947.493	4492.61
947.799	4455.32
948.105	4494.64
948.41	4463.68
948.716	4434.53
949.022	4426.62
949.327	4421.42
949.633	4369.9
949.938	4342.56
950.244	4367.19
950.549	4343.69
950.854	4336.68
951.16	4324.02
951.465	4278.15
951.77	4246.96
952.075	4198.6
952.38	4197.7
952.685	4224.14
952.99	4180.53
953.294	4148.66
953.599	4172.39
953.904	4098.04
954.209	4109.12
954.513	4074.54
954.818	4088.1
955.122	4095.33
955.426	4057.82
955.731	4020.53
956.035	3997.03
956.339	3976.92
956.643	3986.86
956.948	3967.42
957.252	3975.11
957.556	3922.68
957.86	3861.44
958.163	3896.92
958.467	3915.67
958.771	3879.52
959.075	3824.6
959.378	3807.2
959.682	3839.97
959.985	3794.1
960.289	3752.51
960.592	3733.08
960.896	3751.16
961.199	3761.55
961.502	3712.06
961.805	3696.02
962.108	3681.78
962.411	3680.65
962.714	3630.94
963.017	3635.23
963.32	3658.96
963.623	3635
963.926	3616.25
964.228	3550.71
964.531	3520.2
964.833	3579.64
965.136	3533.76
965.438	3497.38
965.741	3539.41
966.043	3464.39
966.345	3464.16
966.648	3458.28
966.95	3436.82
967.252	3426.2
967.554	3434.1
967.856	3406.99
968.158	3345.75
968.46	3351.39
968.761	3366.08
969.063	3344.84
969.365	3308.01
969.666	3328.8
969.968	3277.72
970.269	3270.04
970.571	3253.77
970.872	3258.06
971.174	3205.86
971.475	3220.32
971.776	3180.33
972.077	3144.62
972.378	3181
972.679	3146.88
972.98	3183.04
973.281	3140.55
973.582	3122.25
973.883	3132.64
974.183	3075.02
974.484	3067.56
974.785	3074.34
975.085	3102.36
975.386	3108.92
975.686	3007.9
975.986	3036.83
976.287	3004.06
976.587	2949.37
976.887	2988.92
977.187	2950.5
977.487	2934.46
977.787	2935.13
978.087	2922.48
978.387	2922.93
978.687	2921.8
978.987	2875.48
979.286	2855.59
979.586	2882.71
979.885	2891.97
980.185	2806.55
980.484	2805.19
980.784	2813.56
981.083	2805.87
981.382	2783.73
981.682	2751.86
981.981	2742.82
982.28	2743.05
982.579	2723.16
982.878	2701.02
983.177	2728.36
983.475	2748.47
983.774	2660.11
984.073	2654.92
984.372	2654.01
984.67	2658.53
984.969	2656.95
985.267	2634.8
985.566	2607.46
985.864	2603.39
986.162	2611.75
986.461	2595.48
986.759	2590.51
987.057	2532.21
987.355	2535.82
987.653	2538.99
987.951	2529.95
988.249	2526.33
988.547	2520.91
988.844	2522.94
989.142	2488.82
989.44	2456.73
989.737	2439.55
990.035	2419.89
990.332	2415.15
990.63	2398.43
990.927	2388.71
991.224	2414.24
991.521	2384.41
991.819	2348.26
992.116	2380.12
992.413	2351.87
992.71	2366.11
993.006	2344.19
993.303	2283.63
993.6	2291.54
993.897	2304.19
994.193	2285.66
994.49	2269.39
994.787	2256.73
995.083	2272.1
995.379	2224.87
995.676	2245.89
995.972	2232.33
996.268	2243.85
996.565	2190.07
996.861	2207.92
997.157	2164.53
997.453	2169.05
997.749	2163.63
998.044	2155.95
998.34	2150.75
998.636	2124.08
998.932	2123.4
999.227	2095.61
999.523	2068.49
999.818	2072.78
1000.114	2078.66
1000.409	2034.59
1000.704	2023.29
1001	2013.58
1001.295	2014.48
1001.59	2026.23
1001.885	2035.05
1002.18	2004.99
1002.475	1978.32
1002.77	1978.32
1003.065	1958.21
1003.359	1968.83
1003.654	1936.52
1003.949	1950.08
1004.243	1936.74
1004.538	1904.2
1004.832	1925.67
1005.127	1898.55
1005.421	1876.18
1005.715	1868.95
1006.009	1880.7
1006.304	1852.23
1006.598	1829.4
1006.892	1852.23
1007.186	1814.03
1007.48	1838.67
1007.773	1778.33
1008.067	1791.44
1008.361	1749.4
1008.655	1756.41
1008.948	1780.36
1009.242	1723.64
1009.535	1743.08
1009.829	1741.49
1010.122	1712.34
1010.415	1709.86
1010.708	1679.12
1011.001	1689.29
1011.295	1642.06
1011.588	1680.25
1011.881	1625.34
1012.173	1677.09
1012.466	1646.36
1012.759	1654.72
1013.052	1601.61
1013.344	1603.64
1013.637	1588.05
1013.93	1583.98
1014.222	1566.81
1014.514	1594.15
1014.807	1564.55
1015.099	1548.73
1015.391	1551.44
1015.683	1510.54
1015.976	1546.92
1016.268	1544.44
1016.56	1510.54
1016.851	1526.13
1017.143	1494.27
1017.435	1483.42
1017.727	1500.14
1018.018	1496.3
1018.31	1435.29
1018.602	1450.65
1018.893	1426.02
1019.185	1420.15
1019.476	1448.62
1019.767	1415.85
1020.058	1409.53
1020.35	1372.69
1020.641	1385.12
1020.932	1355.74
1021.223	1368.62
1021.514	1371.79
1021.804	1343.99
1022.095	1351.67
1022.386	1346.93
1022.677	1344.89
1022.967	1303.99
1023.258	1300.38
1023.548	1330.21
1023.839	1282.3
1024.129	1273.94
1024.419	1286.14
1024.709	1255.4
1025	1251.34
1025.29	1257.66
1025.58	1225.58
1025.87	1236.42
1026.16	1250.89
1026.449	1220.6
1026.739	1203.2
1027.029	1211.79
1027.319	1200.49
1027.608	1176.54
1027.898	1191.68
1028.187	1181.06
1028.477	1174.95
1028.766	1151.68
1029.055	1129.53
1029.344	1163.2
1029.634	1153.94
1029.923	1121.17
1030.212	1110.55
1030.501	1137.44
1030.79	1100.83
1031.078	1117.1
1031.367	1110.55
1031.656	1088.86
1031.945	1084.79
1032.233	1083.43
1032.522	1058.57
1032.81	1055.86
1033.099	1053.38
1033.387	1056.54
1033.675	1029.87
1033.963	1024.68
1034.251	1043.88
1034.54	1025.13
1034.828	1009.08
1035.116	1020.83
1035.403	1016.09
1035.691	980.84
1035.979	1005.69
1036.267	984.68
1036.554	983.32
1036.842	968.86
1037.129	955.53
1037.417	957.56
1037.704	963.89
1037.992	966.6
1038.279	941.74
1038.566	903.55
1038.853	903.55
1039.14	903.55
