Data from hue_320_FLMS001491_68.txt Node
Date: Mon Feb 06 15:47:32 GMT 2017
User: dcchb
Spectrometer: FLMS00149
Trigger mode: 0
Integration Time (sec): 2.000000E-2
Scans to average: 10
Electric dark correction enabled: true
Nonlinearity correction enabled: false
Boxcar width: 0
XAxis mode: Wavelengths
Number of Pixels in Spectrum: 2048
>>>>>Begin Spectral Data<<<<<
341.393	-5.73
341.776	-5.73
342.16	-5.73
342.543	-59.74
342.927	-57.03
343.31	-69.69
343.693	-75.11
344.077	-71.04
344.46	-68.78
344.843	-32.85
345.226	-35.79
345.61	-35.56
345.993	-15.23
346.376	-5.96
346.759	10.54
347.142	23.42
347.525	43.08
347.908	58.22
348.291	64.32
348.674	107.26
349.057	103.19
349.44	135.28
349.823	120.14
350.206	159.01
350.588	191.1
350.971	189.51
351.354	222.28
351.737	241.26
352.119	240.36
352.502	267.03
352.884	267.48
353.267	299.79
353.65	283.75
354.032	290.76
354.414	293.69
354.797	310.42
355.179	312.22
355.562	330.08
355.944	325.1
356.326	331.88
356.709	329.62
357.091	343.86
357.473	332.79
357.855	364.65
358.238	371.2
358.62	329.62
359.002	323.75
359.384	343.18
359.766	351.54
360.148	352.9
360.53	353.58
360.912	333.92
361.294	351.54
361.676	336.86
362.057	328.04
362.439	328.72
362.821	323.75
363.203	309.06
363.584	318.32
363.966	313.35
364.348	315.61
364.729	326.46
365.111	298.21
365.493	328.27
365.874	312.68
366.256	318.32
366.637	319.23
367.019	317.2
367.4	321.49
367.781	316.74
368.163	321.04
368.544	325.1
368.925	307.7
369.306	308.61
369.688	309.06
370.069	304.54
370.45	283.75
370.831	327.82
371.212	324.43
371.593	290.53
371.974	305.44
372.355	317.65
372.736	314.71
373.117	314.03
373.498	323.75
373.879	328.49
374.26	322.84
374.641	302.05
375.021	315.39
375.402	300.02
375.783	303.64
376.163	306.57
376.544	334.14
376.925	343.86
377.305	321.26
377.686	318.32
378.066	320.13
378.447	320.81
378.827	330.75
379.208	329.62
379.588	330.75
379.968	340.25
380.349	312.45
380.729	337.53
381.109	341.83
381.489	329.4
381.87	322.39
382.25	315.61
382.63	340.02
383.01	347.93
383.39	315.39
383.77	322.39
384.15	317.87
384.53	332.79
384.91	327.82
385.29	334.82
385.67	332.34
386.049	334.37
386.429	336.86
386.809	355.61
387.189	342.28
387.568	364.65
387.948	347.02
388.328	336.63
388.707	345.67
389.087	357.87
389.466	359.45
389.846	348.61
390.225	351.77
390.605	356.06
390.984	359.91
391.363	376.63
391.743	377.08
392.122	368.72
392.501	362.17
392.881	366.23
393.26	393.58
393.639	367.14
394.018	343.41
394.397	395.61
394.776	369.85
395.155	367.59
395.534	360.36
395.913	359
396.292	391.32
396.671	355.39
397.05	377.31
397.429	378.21
397.808	385.67
398.186	364.43
398.565	380.7
398.944	361.26
399.323	387.7
399.701	380.92
400.08	392.45
400.458	375.27
400.837	408.04
401.215	413.01
401.594	386.8
401.972	387.7
402.351	384.76
402.729	421.83
403.107	407.59
403.486	409.62
403.864	410.75
404.242	408.49
404.62	396.97
404.999	399.45
405.377	409.62
405.755	404.88
406.133	398.1
406.511	431.77
406.889	423.18
407.267	453.69
407.645	440.36
408.023	420.92
408.401	413.46
408.779	434.03
409.156	443.29
409.534	442.62
409.912	457.98
410.29	476.29
410.667	480.58
411.045	493.24
411.422	452.33
411.8	483.97
412.178	482.84
412.555	483.52
412.933	474.93
413.31	512.9
413.687	486.46
414.065	523.07
414.442	499.34
414.819	542.27
415.197	545.21
415.574	531.43
415.951	542.27
416.328	516.51
416.705	545.89
417.082	566.68
417.46	547.02
417.837	552.44
418.214	562.61
418.591	557.19
418.967	565.78
419.344	598.32
419.721	609.62
420.098	575.04
420.475	585.66
420.852	604.19
421.228	634.93
421.605	645.1
421.982	625.21
422.358	629.73
422.735	631.31
423.111	646
423.488	677.41
423.864	648.03
424.241	671.08
424.617	686.68
424.994	677.86
425.37	652.1
425.746	703.4
426.123	693.46
426.499	693.23
426.875	715.6
427.251	717.41
427.627	724.87
428.003	732.55
428.379	736.39
428.756	730.29
429.132	757.41
429.507	750.4
429.883	780.23
430.259	810.52
430.635	780.23
431.011	792.44
431.387	816.16
431.763	826.79
432.138	805.77
432.514	816.84
432.89	840.8
433.265	839.22
433.641	838.76
434.016	880.34
434.392	877.41
434.767	888.48
435.143	862.72
435.518	889.38
435.894	880.8
436.269	929.83
436.644	910.17
437.02	946.33
437.395	931.87
437.77	931.87
438.145	933.45
438.52	973.67
438.895	954.47
439.271	962.15
439.646	980
440.021	982.49
440.395	1008.48
440.77	992.21
441.145	987.46
441.52	996.95
441.895	1029.72
442.27	1004.86
442.645	994.01
443.019	1061.13
443.394	1015.03
443.769	1056.38
444.143	1030.4
444.518	1049.15
444.892	1057.06
445.267	1041.24
445.641	1050.51
446.016	1067.91
446.39	1059.55
446.764	1065.42
447.139	1076.05
447.513	1083.05
447.887	1051.64
448.262	1074.69
448.636	1076.27
449.01	1090.51
449.384	1093.67
449.758	1065.88
450.132	1119.43
450.506	1080.34
450.88	1128.25
451.254	1113.78
451.628	1121.47
452.002	1126.21
452.376	1118.08
452.75	1167.12
453.123	1142.71
453.497	1123.5
453.871	1151.52
454.244	1161.47
454.618	1191.07
454.992	1193.56
455.365	1184.06
455.739	1227
456.112	1201.92
456.486	1221.13
456.859	1231.97
457.232	1236.94
457.606	1245.08
457.979	1259.54
458.352	1282.59
458.725	1271.97
459.099	1271.75
459.472	1296.83
459.845	1289.82
460.218	1304.97
460.591	1321.24
460.964	1327.34
461.337	1343.38
461.71	1340.44
462.083	1354.68
462.456	1347.9
462.829	1372.76
463.201	1382.03
463.574	1378.41
463.947	1393.55
464.32	1439.65
464.692	1429.03
465.065	1402.36
465.438	1440.1
465.81	1477.84
466.183	1476.03
466.555	1505.86
466.928	1465.87
467.3	1491.85
467.672	1520.1
468.045	1511.51
468.417	1534.11
468.789	1563.26
469.161	1549.25
469.534	1560.1
469.906	1611.85
470.278	1614.56
470.65	1617.05
471.022	1639.42
471.394	1631.28
471.766	1680.1
472.138	1684.84
472.51	1713.09
472.882	1722.81
473.253	1757.38
473.625	1752.19
473.997	1774.78
474.369	1788.79
474.74	1812.07
475.112	1848.68
475.484	1855.23
475.855	1870.83
476.227	1892.75
476.598	1899.3
476.97	1902.92
477.341	1956.25
477.713	1985.63
478.084	1963.03
478.455	1982.46
478.827	2023.82
479.198	2069.92
479.569	2063.14
479.94	2147.88
480.311	2122.12
480.682	2137.26
481.053	2212.51
481.424	2216.13
481.795	2222
482.166	2254.32
482.537	2308.33
482.908	2300.19
483.279	2332.28
483.65	2342.9
484.021	2407.54
484.391	2389.23
484.762	2430.81
485.133	2414.77
485.503	2452.51
485.874	2496.12
486.244	2543.58
486.615	2553.07
486.985	2593.52
487.356	2592.62
487.726	2607.98
488.097	2683.01
488.467	2651.37
488.837	2714.87
489.207	2703.57
489.578	2744.7
489.948	2783.34
490.318	2811.82
490.688	2824.7
491.058	2867.64
491.428	2881.42
491.798	2896.79
492.168	2931.59
492.538	2949.44
492.908	2989.44
493.278	3008.65
493.648	3008.2
494.017	3052.26
494.387	3074.64
494.757	3087.52
495.126	3105.14
495.496	3128.19
495.866	3137.69
496.235	3161.41
496.605	3146.95
496.974	3191.02
497.344	3226.72
497.713	3224.01
498.082	3263.78
498.452	3253.84
498.821	3293.39
499.19	3291.81
499.559	3299.72
499.928	3294.52
500.298	3279.6
500.667	3322.54
501.036	3348.53
501.405	3412.03
501.774	3356.66
502.143	3434.85
502.512	3404.57
502.88	3462.2
503.249	3421.29
503.618	3452.71
503.987	3477.34
504.356	3473.04
504.724	3471.69
505.093	3508.98
505.462	3515.08
505.83	3529.09
506.199	3551.01
506.567	3542.42
506.936	3528.64
507.304	3600.27
507.672	3584.68
508.041	3644.34
508.409	3624.23
508.777	3637.56
509.145	3672.81
509.514	3634.17
509.882	3688.63
510.25	3625.58
510.618	3658.35
510.986	3659.25
511.354	3754.39
511.722	3788.52
512.09	3802.08
512.458	3754.17
512.826	3731.34
513.193	3753.94
513.561	3772.47
513.929	3810.89
514.297	3800.95
514.664	3848.18
515.032	3796.43
515.4	3843.88
515.767	3821.06
516.135	3863.77
516.502	3829.87
516.869	3880.49
517.237	3913.48
517.604	3851.11
517.972	3894.05
518.339	3916.42
518.706	3911.9
519.073	3921.62
519.44	3940.6
519.808	3948.74
520.175	3975.86
520.542	4014.05
520.909	3927.27
521.276	3992.8
521.643	4012.24
522.009	4037.32
522.376	4056.76
522.743	4082.29
523.11	4072.12
523.477	4068.96
523.843	4146.25
524.21	4181.5
524.577	4142.63
524.943	4172.69
525.31	4173.36
525.676	4180.14
526.043	4231.67
526.409	4241.84
526.776	4259.46
527.142	4232.57
527.508	4249.52
527.874	4356.18
528.241	4298.11
528.607	4334.49
528.973	4378.33
529.339	4349.41
529.705	4397.99
530.071	4419.46
530.437	4417.65
530.803	4487.48
531.169	4524.99
531.535	4477.54
531.901	4466.46
532.267	4536.75
532.632	4571.09
532.998	4557.31
533.364	4591.43
533.73	4616.74
534.095	4659.45
534.461	4645.44
534.826	4663.52
535.192	4688.61
535.557	4746.46
535.923	4739.68
536.288	4742.39
536.653	4774.93
537.019	4764.54
537.384	4765.21
537.749	4803.63
538.114	4816.06
538.479	4786.23
538.845	4809.28
539.21	4861.03
539.575	4875.04
539.94	4933.34
540.305	4931.76
540.67	4940.8
541.034	4889.28
541.399	4989.16
541.764	5001.82
542.129	5014.92
542.494	5028.26
542.858	5065.77
543.223	5101.48
543.587	5105.09
543.952	5084.75
544.316	5135.15
544.681	5142.83
545.045	5151.87
545.41	5195.48
545.774	5222.6
546.138	5225.99
546.503	5201.81
546.867	5238.87
547.231	5295.37
547.595	5275.03
547.959	5331.53
548.324	5387.57
548.688	5370.85
549.052	5309.83
549.416	5406.78
549.779	5402.71
550.143	5371.53
550.507	5468.92
550.871	5429.15
551.235	5473.9
551.599	5527.91
551.962	5469.6
552.326	5530.39
552.689	5541.69
553.053	5547.11
553.417	5599.99
553.78	5665.98
554.143	5593.89
554.507	5642.25
554.87	5682.03
555.234	5676.83
555.597	5673.44
555.96	5661.69
556.323	5686.55
556.686	5738.97
557.05	5734.45
557.413	5712.53
557.776	5753.21
558.139	5808.35
558.502	5800.67
558.865	5801.57
559.228	5806.99
559.59	5863.94
559.953	5871.63
560.316	5941
560.679	5911.85
561.041	5934.45
561.404	5978.97
561.767	6007.44
562.129	5983.71
562.492	6042.02
562.854	6018.06
563.217	6014.9
563.579	6042.69
563.941	6096.93
564.304	6077.72
564.666	6109.13
565.028	6185.06
565.39	6158.62
565.753	6182.13
566.115	6184.84
566.477	6246.98
566.839	6247.89
567.201	6302.12
567.563	6290.37
567.925	6285.4
568.287	6298.28
568.648	6348.67
569.01	6378.05
569.372	6397.49
569.734	6386.87
570.095	6435.9
570.457	6492.17
570.819	6503.93
571.18	6517.26
571.542	6547.31
571.903	6569.01
572.265	6629.8
572.626	6618.95
572.987	6698.5
573.349	6681.32
573.71	6730.81
574.071	6777.36
574.432	6836.57
574.794	6962.67
575.155	6989.79
575.516	6976
575.877	7059.16
576.238	7111.82
576.599	7145.49
576.96	7258.03
577.32	7269.1
577.681	7325.6
578.042	7463.67
578.403	7506.38
578.763	7608.3
579.124	7696.89
579.485	7722.65
579.845	7882.19
580.206	7994.28
580.566	8075.86
580.927	8184.33
581.287	8293.03
581.648	8377.32
582.008	8573.02
582.368	8584.77
582.728	8827.25
583.089	8883.3
583.449	9117.64
583.809	9244.19
584.169	9425.66
584.529	9543.17
584.889	9816.61
585.249	9865.42
585.609	10052.31
585.969	10318.74
586.329	10491.39
586.688	10704.49
587.048	10865.62
587.408	11088.66
587.768	11232.61
588.127	11518.26
588.487	11617.01
588.846	12028.75
589.206	12250.44
589.565	12376.99
589.925	12709.19
590.284	12933.59
590.643	13172.68
591.003	13411.31
591.362	13695.37
591.721	13964.52
592.08	14239.54
592.44	14530.38
592.799	14808.34
593.158	15067.09
593.517	15354.31
593.876	15556.57
594.235	15897.8
594.593	16115.65
594.952	16507.96
595.311	16738.23
595.67	17015.29
596.029	17331.89
596.387	17594.48
596.746	18020.01
597.104	18116.05
597.463	18523.04
597.822	18699.31
598.18	19014.33
598.538	19278.73
598.897	19736.57
599.255	19759.17
599.613	20386.72
599.972	20392.83
600.33	20805.47
600.688	21035.75
601.046	21338.56
601.404	21724.54
601.762	21938.1
602.12	22273.23
602.478	22440.68
602.836	22764.51
603.194	22974.9
603.552	23256.03
603.91	23392.75
604.268	23661.89
604.625	23867.31
604.983	24225.72
605.341	24281.54
605.698	24690.79
606.056	24991.57
606.413	25225.92
606.771	25479.47
607.128	25765.11
607.485	25876.97
607.843	26072.9
608.2	26477.41
608.557	26759.44
608.914	26850.51
609.272	27137.96
609.629	27371.17
609.986	27682.35
610.343	27765.29
610.7	28186.52
611.057	28239.85
611.414	28351.26
611.771	28508.09
612.127	28797.8
612.484	28955.31
612.841	29237.56
613.198	29216.32
613.554	29413.38
613.911	29705.57
614.267	29813.14
614.624	29963.87
614.98	30168.84
615.337	30510.07
615.693	30457.42
616.05	30629.62
616.406	30971.98
616.762	31011.76
617.118	31182.15
617.475	31387.79
617.831	31511.18
618.187	31654.68
618.543	31743.71
618.899	32179.18
619.255	32119.52
619.611	32285.85
619.967	32269.12
620.323	32685.38
620.678	32510.7
621.034	32688.32
621.39	32758.15
621.746	32834.53
622.101	33234.97
622.457	33024.58
622.812	33111.36
623.168	33340.51
623.523	33500.5
623.879	33693.72
624.234	33493.27
624.589	33603.78
624.945	33813.94
625.3	33858.46
625.655	33890.55
626.01	34081.96
626.365	34077.89
626.72	34132.35
627.075	34228.39
627.43	34453.47
627.785	34287.83
628.14	34442.4
628.495	34354.04
628.85	34534.37
629.205	34437.88
629.559	34675.84
629.914	34464.32
630.269	34725.56
630.623	34577.31
630.978	34618.44
631.332	34774.14
631.687	34843.07
632.041	34773.24
632.396	34896.85
632.75	34850.07
633.104	34998.32
633.459	34812.33
633.813	34916.06
634.167	34970.07
634.521	34935.49
634.875	34987.02
635.229	34965.32
635.583	34816.63
635.937	34857.98
636.291	34916.06
636.645	34914.93
636.999	34916.51
637.352	34949.96
637.706	34877.19
638.06	35085.32
638.413	34855.04
638.767	34764.65
639.121	35086.68
639.474	34774.59
639.828	34866.12
640.181	34958.77
640.534	34966
640.888	34822.05
641.241	34827.93
641.594	34788.15
641.947	34862.5
642.301	34790.64
642.654	34849.17
643.007	34916.29
643.36	34893.91
643.713	34780.7
644.066	35061.14
644.419	34720.58
644.771	34640.59
645.124	34271.1
645.477	34181.84
645.83	34129.87
646.182	34022.98
646.535	33840.83
646.888	33926.25
647.24	33676.32
647.593	33946.82
647.945	33801.06
648.298	33807.61
648.65	33717.67
649.002	33624.57
649.355	33770.1
649.707	33836.54
650.059	33804
650.411	34342.52
650.763	34290.99
651.115	34652.34
651.467	34605.33
651.819	34580.02
652.171	34514.94
652.523	34427.03
652.875	34465.9
653.227	34286.02
653.578	34641.72
653.93	34465.9
654.282	34292.57
654.633	34218.9
654.985	34344.32
655.337	34339.13
655.688	34324.89
656.039	34565.56
656.391	34178
656.742	34213.48
657.094	34142.75
657.445	34370.54
657.796	34280.6
658.147	34289.41
658.498	34359.01
658.849	34329.41
659.2	34335.96
659.551	34088.74
659.902	34299.13
660.253	34280.37
660.604	34318.79
660.955	34065.23
661.306	34297.77
661.656	34059.13
662.007	34064.33
662.358	34110.88
662.708	34030.21
663.059	33997.67
663.409	33804
663.76	34222.52
664.11	34166.02
664.461	34147.04
664.811	34107.27
665.161	34143.65
665.511	34010.55
665.862	34069.3
666.212	34213.03
666.562	34260.26
666.912	34163.54
667.262	34067.72
667.612	34086.7
667.962	34227.72
668.312	34006.7
668.662	34198.56
669.011	34076.53
669.361	33979.36
669.711	33989.53
670.06	33923.77
670.41	33804.22
670.76	33885.35
671.109	33969.19
671.459	34085.12
671.808	33845.58
672.157	34006.7
672.507	33745.02
672.856	33897.1
673.205	33947.05
673.554	33906.82
673.904	33753.83
674.253	33877.67
674.602	33772.36
674.951	33417.57
675.3	33314.29
675.649	33805.58
675.998	33820.49
676.346	33757.45
676.695	33793.6
677.044	33608.3
677.393	33691.46
677.741	33775.75
678.09	33543.21
678.438	33504.8
678.787	33552.71
679.135	33641.29
679.484	33435.87
679.832	33540.28
680.181	33291.02
680.529	33459.83
680.877	33208.08
681.225	33280.85
681.573	33467.51
681.922	33216.89
682.27	33093.96
682.618	33040.85
682.966	33084.47
683.314	33140.51
683.661	33054.19
684.009	32806.51
684.357	32846.28
684.705	32925.83
685.053	32823.46
685.4	32740.98
685.748	32633.63
686.095	32688.77
686.443	32536.69
686.79	32485.84
687.138	32454.88
687.485	32535.33
687.832	32426.63
688.18	32459.17
688.527	32326.75
688.874	32150.71
689.221	32179.86
689.568	32048.56
689.915	31920.21
690.262	32114.78
690.609	31854.9
690.956	31871.62
691.303	31827.55
691.65	31640.67
691.997	31675.01
692.344	31440.44
692.69	31481.35
693.037	31453.1
693.383	31175.37
693.73	31433.67
694.077	31180.11
694.423	31185.08
694.769	31089.04
695.116	30957.75
695.462	30927.46
695.808	30767.69
696.155	30877.07
696.501	30736.06
696.847	30679.79
697.193	30481.6
697.539	30757.07
697.885	30353.02
698.231	30261.49
698.577	30276.86
698.923	30307.59
699.269	30070.99
699.614	29951.22
699.96	29900.37
700.306	29953.7
700.651	29744.67
700.997	29720.49
701.342	29674.84
701.688	29609.53
702.033	29524.79
702.379	29485.92
702.724	29383.55
703.069	29483.89
703.415	29193.72
703.76	29140.62
704.105	29179.04
704.45	28974.29
704.795	28909.89
705.14	28779.05
705.485	28874.18
705.83	28661.31
706.175	28649.33
706.52	28561.2
706.865	28603.68
707.209	28661.53
707.554	28466.06
707.899	28454.08
708.243	28358.04
708.588	28236.01
708.932	28067.43
709.277	27986.07
709.621	28084.15
709.966	27946.3
710.31	28062
710.654	27751.73
710.998	27824.95
711.342	27767.55
711.687	27651.84
712.031	27665.85
712.375	27537.04
712.719	27609.58
713.063	27440.78
713.407	27702.24
713.75	27395.35
714.094	27495.92
714.438	27334.11
714.782	27229.03
715.125	27230.61
715.469	27184.74
715.812	27049.37
716.156	26973.22
716.499	26893.9
716.843	27033.78
717.186	26842.15
717.53	26946.55
717.873	26764.41
718.216	26844.63
718.559	26681.93
718.902	26639.44
719.246	26601.7
719.589	26492.78
719.932	26434.02
720.275	26476.28
720.617	26429.05
720.96	26328.04
721.303	26221.15
721.646	26391.54
721.989	26231.77
722.331	26240.13
722.674	26124.88
723.016	26140.92
723.359	26127.82
723.701	26175.72
724.044	25889.18
724.386	25880.59
724.729	25760.14
725.071	25839.46
725.413	25932.79
725.755	25791.1
726.097	25792.46
726.439	25651.9
726.782	25640.15
727.124	25710.65
727.465	25607.15
727.807	25476.53
728.149	25483.54
728.491	25453.03
728.833	25484.22
729.175	25297.33
729.516	25319.48
729.858	25251.68
730.199	25337.55
730.541	25138.24
730.882	25124
731.224	25226.14
731.565	25047.84
731.906	25069.09
732.248	25128.52
732.589	24912.71
732.93	24803.1
733.271	24854.63
733.612	24895.08
733.953	24866.83
734.294	24787.51
734.635	24658.7
734.976	24679.04
735.317	24677.23
735.658	24703.67
735.999	24573.73
736.339	24612.15
736.68	24591.81
737.021	24545.48
737.361	24407.64
737.702	24599.95
738.042	24518.59
738.383	24404.92
738.723	24445.15
739.063	24364.92
739.404	24339.39
739.744	24250.13
740.084	24134.87
740.424	24114.76
740.764	24199.96
741.104	24339.61
741.444	24059.4
741.784	24038.83
742.124	24059.85
742.464	23923.58
742.804	23987.99
743.143	23933.07
743.483	23951.38
743.823	23733.98
744.162	23759.52
744.502	23798.84
744.841	23722
745.181	23748.44
745.52	23658.28
745.86	23642.68
746.199	23611.72
746.538	23539.18
746.877	23568.11
747.216	23524.49
747.556	23382.8
747.895	23568.56
748.234	23335.8
748.573	23506.19
748.911	23301.22
749.25	23311.17
749.589	23166.76
749.928	23276.82
750.267	23287.66
750.605	23158.85
750.944	23129.02
751.283	23107.1
751.621	23140.1
751.96	22930.61
752.298	22815.81
752.636	22992.53
752.975	22790.28
753.313	22739.88
753.651	22851.97
753.989	22719.54
754.327	22678.19
754.666	22617.17
755.004	22664.63
755.342	22605.42
755.679	22504.86
756.017	22338.76
756.355	22406.33
756.693	22385.54
757.031	22394.35
757.368	22277.3
757.706	22186.45
758.044	22026.23
758.381	22037.75
758.719	22034.82
759.056	22063.29
759.394	21914.37
759.731	21805.67
760.068	21783.07
760.405	21736.97
760.743	21668.5
761.08	21687.48
761.417	21482.06
761.754	21511.89
762.091	21438.67
762.428	21407.04
762.765	21249.53
763.102	21322.52
763.438	21200.26
763.775	21163.43
764.112	21147.38
764.449	21028.06
764.785	20997.1
765.122	20936.99
765.458	20856.54
765.795	20800.27
766.131	20781.06
766.467	20710.78
766.804	20566.61
767.14	20414.75
767.476	20487.06
767.812	20392.37
768.148	20451.58
768.485	20323.22
768.821	20158.93
769.157	20054.3
769.492	20001.88
769.828	20041.42
770.164	19893.86
770.5	19875.1
770.836	19807.08
771.171	19691.83
771.507	19713.52
771.842	19536.58
772.178	19513.53
772.513	19410.7
772.849	19406.64
773.184	19285.96
773.519	19237.38
773.855	19237.15
774.19	19180.88
774.525	19015.23
774.86	19076.93
775.195	19068.11
775.53	18954.22
775.865	18732.3
776.2	18641.46
776.535	18535.47
776.87	18686.43
777.205	18443.72
777.539	18497.06
777.874	18569.14
778.209	18312.43
778.543	18333.9
778.878	18171.87
779.212	18129.83
779.547	18131.64
779.881	18051.87
780.215	17905.21
780.55	17987.01
780.884	17860.46
781.218	17799.22
781.552	17737.53
781.886	17722.61
782.22	17598.77
782.554	17464.09
782.888	17335.96
783.222	17215.51
783.556	17202.17
783.889	17173.02
784.223	17028.85
784.557	17015.74
784.89	17031.78
785.224	17035.63
785.557	16886.02
785.891	16784.11
786.224	16762.86
786.558	16754.28
786.891	16632.92
787.224	16499.14
787.557	16477.67
787.891	16484.45
788.224	16444
788.557	16448.52
788.89	16332.14
789.223	16356.55
789.556	16160.17
789.888	16215.99
790.221	16059.38
790.554	15973.73
790.887	15961.76
791.219	15933.73
791.552	15905.03
791.884	15839.72
792.217	15723.57
792.549	15703.91
792.882	15674.08
793.214	15560.64
793.546	15574.42
793.879	15438.83
794.211	15414.43
794.543	15442
794.875	15336.91
795.207	15493.52
795.539	15269.12
795.871	15258.05
796.203	15138.95
796.535	15052.85
796.867	15068.45
797.198	15124.49
797.53	15009.01
797.862	14894.66
798.193	14874.33
798.525	14863.25
798.856	14904.38
799.188	14699.19
799.519	14533.77
799.85	14630.94
800.182	14636.14
800.513	14582.36
800.844	14461.23
801.175	14469.37
801.506	14398.86
801.837	14342.59
802.168	14349.59
802.499	14221.91
802.83	14190.95
803.161	14186.89
803.491	14196.38
803.822	14144.85
804.153	14118.19
804.483	13952.99
804.814	13922.71
805.145	13932.43
805.475	13812.66
805.805	13857.86
806.136	13793.68
806.466	13803.17
806.796	13710.29
807.126	13596.39
807.457	13595.26
807.787	13598.88
808.117	13527.47
808.447	13529.95
808.777	13501.48
809.107	13523.85
809.436	13505.1
809.766	13395.95
810.096	13323.18
810.426	13278.21
810.755	13334.48
811.085	13290.41
811.414	13267.36
811.744	13115.73
812.073	13093.13
812.403	13085.22
812.732	13031.21
813.061	13043.87
813.39	12951.89
813.719	12942.85
814.049	12957.09
814.378	12968.84
814.707	12905.79
815.036	12889.29
815.365	12859.46
815.693	12703.99
816.022	12748.73
816.351	12639.13
816.68	12606.59
817.008	12646.14
817.337	12566.82
817.665	12470.55
817.994	12518.46
818.322	12480.27
818.651	12379.7
818.979	12334.05
819.307	12419.7
819.636	12428.06
819.964	12273.49
820.292	12387.39
820.62	12402.75
820.948	12330.21
821.276	12385.13
821.604	12257.9
821.932	12213.83
822.259	12311.91
822.587	12291.12
822.915	12274.17
823.243	12240.05
823.57	12284.11
823.898	12249.31
824.225	12142.42
824.553	12182.19
824.88	12214.74
825.207	12265.13
825.535	12224
825.862	12299.25
826.189	12255.41
826.516	12307.39
826.843	12269.42
827.17	12254.96
827.497	12288.63
827.824	12315.52
828.151	12290.44
828.478	12224.23
828.805	12209.09
829.131	12190.1
829.458	12155.53
829.785	12092.03
830.111	12148.97
830.438	12217.9
830.764	12178.35
831.09	12150.56
831.417	12135.19
831.743	12190.56
832.069	12220.84
832.395	12156.66
832.722	12122.31
833.048	12127.05
833.374	12123.21
833.7	12036.43
834.026	12140.61
834.351	12152.36
834.677	12089.31
835.003	12106.26
835.329	12041.41
835.654	12020.16
835.98	11969.54
836.306	11922.31
836.631	11897
836.956	12009.09
837.282	11864.91
837.607	11932.71
837.932	11837.34
838.258	11899.04
838.583	11849.55
838.908	11820.17
839.233	11865.59
839.558	11750.79
839.883	11760.51
840.208	11683.9
840.533	11765.93
840.858	11709.44
841.182	11621.3
841.507	11697.01
841.832	11541.76
842.156	11561.19
842.481	11594.86
842.805	11632.15
843.13	11541.08
843.454	11551.93
843.778	11474.64
844.103	11412.27
844.427	11407.52
844.751	11410.69
845.075	11389.45
845.399	11349
845.723	11165.27
846.047	11264.25
846.371	11226.74
846.695	11161.43
847.019	11045.5
847.343	11062.22
847.666	10985.16
847.99	10962.79
848.313	10897.48
848.637	10896.58
848.96	10852.06
849.284	10879.18
849.607	10734.55
849.931	10766.64
850.254	10685.51
850.577	10640.09
850.9	10549.47
851.223	10543.82
851.546	10405.29
851.869	10382.24
852.192	10489.81
852.515	10306.76
852.838	10244.17
853.161	10298.4
853.483	10279.64
853.806	10289.59
854.129	10224.28
854.451	10173.21
854.774	10062.93
855.096	10067
855.419	9996.26
855.741	10005.08
856.063	9976.6
856.385	9965.98
856.708	9907.23
857.03	9862.25
857.352	9902.71
857.674	9882.59
857.996	9848.47
858.318	9745.42
858.64	9861.58
858.961	9756.04
859.283	9638.31
859.605	9679.21
859.926	9687.12
860.248	9649.15
860.57	9639.44
860.891	9645.09
861.212	9522.83
861.534	9460.23
861.855	9478.76
862.176	9439.22
862.498	9526.67
862.819	9497.52
863.14	9416.16
863.461	9427.46
863.782	9345.43
864.103	9385.43
864.424	9395.83
864.745	9338.2
865.065	9292.1
865.386	9310.4
865.707	9336.39
866.027	9327.81
866.348	9215.04
866.668	9255.49
866.989	9254.14
867.309	9154.48
867.63	9140.01
867.95	9172.56
868.27	9187.7
868.59	9121.71
868.91	9125.1
869.23	9126.45
869.55	9060.92
869.87	9163.29
870.19	9020.24
870.51	9015.95
870.83	9078.32
871.15	9042.84
871.469	9030.19
871.789	9030.64
872.109	9059.79
872.428	8911.77
872.748	8945.22
873.067	8998.55
873.386	8964.65
873.706	8913.58
874.025	8882.85
874.344	8861.6
874.663	8878.55
874.982	8862.28
875.301	8871.32
875.62	8810.31
875.939	8786.58
876.258	8847.82
876.577	8800.81
876.896	8823.41
877.214	8761.27
877.533	8670.65
877.852	8726.92
878.17	8727.37
878.489	8706.8
878.807	8719.91
879.125	8713.13
879.444	8616.64
879.762	8669.52
880.08	8600.59
880.398	8627.94
880.716	8641.04
881.034	8538.9
881.352	8565.11
881.67	8545.91
881.988	8568.96
882.306	8545.45
882.624	8485.57
882.941	8402.63
883.259	8424.1
883.577	8403.31
883.894	8390.43
884.212	8446.47
884.529	8319.7
884.846	8363.31
885.164	8355.85
885.481	8288.96
885.798	8360.6
886.115	8226.37
886.432	8275.63
886.75	8215.52
887.067	8261.39
887.383	8208.51
887.7	8150.66
888.017	8123.77
888.334	8114.5
888.651	8108.85
888.967	8112.02
889.284	8147.72
889.6	8015.75
889.917	7970.78
890.233	7962.42
890.55	7956.77
890.866	7955.86
891.182	7909.54
891.498	7929.2
891.815	7934.62
892.131	7867.05
892.447	7827.05
892.763	7816.66
893.079	7833.16
893.395	7771.24
893.71	7697.79
894.026	7703.44
894.342	7700.73
894.657	7712.48
894.973	7620.73
895.289	7648.98
895.604	7547.06
895.92	7532.82
896.235	7524.92
896.55	7524.69
896.865	7500.06
897.181	7441.98
897.496	7557.46
897.811	7386.84
898.126	7361.98
898.441	7394.52
898.756	7365.15
899.071	7326.73
899.386	7287.86
899.7	7206.96
900.015	7187.07
900.33	7173.74
900.644	7163.57
900.959	7153.63
901.273	7121.99
901.588	7070.69
901.902	7091.25
902.216	7047.19
902.531	7100.29
902.845	7064.36
903.159	6960.86
903.473	6998.38
903.787	6912.95
904.101	6906.63
904.415	6890.81
904.729	6879.06
905.042	6778.95
905.356	6798.61
905.67	6787.08
905.984	6773.07
906.297	6726.07
906.611	6747.31
906.924	6703.47
907.237	6688.33
907.551	6675.45
907.864	6650.59
908.177	6585.28
908.491	6634.54
908.804	6562.45
909.117	6532.85
909.43	6487.2
909.743	6460.54
910.056	6396.13
910.368	6423.02
910.681	6359.52
910.994	6301.67
911.307	6339.64
911.619	6279.52
911.932	6321.33
912.244	6255.12
912.557	6244.04
912.869	6144.39
913.181	6187.55
913.494	6183.71
913.806	6118.17
914.118	6092.64
914.43	6075.24
914.742	6059.42
915.054	6034.11
915.366	6018.51
915.678	5950.49
915.99	5982.13
916.302	5932.41
916.613	5892.42
916.925	5898.29
917.236	5902.58
917.548	5849.93
917.859	5840.21
918.171	5789.82
918.482	5794.57
918.794	5720.22
919.105	5715.47
919.416	5718.86
919.727	5716.15
920.038	5668.69
920.349	5661.91
920.66	5627.34
920.971	5620.11
921.282	5509.37
921.593	5515.7
921.903	5471.18
922.214	5485.65
922.525	5457.85
922.835	5455.59
923.146	5415.59
923.456	5395.71
923.767	5390.28
924.077	5368.36
924.387	5353.45
924.697	5308.93
925.008	5303.96
925.318	5310.28
925.628	5255.14
925.938	5259.21
926.248	5218.54
926.558	5164.98
926.867	5141.7
927.177	5135.6
927.487	5149.84
927.796	5120.46
928.106	5059.44
928.416	5081.36
928.725	5029.61
929.034	5049.05
929.344	5025.32
929.653	4944.64
929.962	4949.39
930.271	4922.05
930.581	4885.89
930.89	4908.94
931.199	4815.38
931.508	4843.63
931.817	4840.69
932.125	4813.12
932.434	4796.17
932.743	4745.55
933.051	4750.52
933.36	4734.03
933.669	4715.72
933.977	4696.51
934.286	4681.15
934.594	4631.66
934.902	4637.76
935.21	4553.69
935.519	4600.92
935.827	4594.6
936.135	4568.38
936.443	4493.81
936.751	4496.75
937.059	4532.9
937.367	4483.41
937.674	4486.35
937.982	4398.44
938.29	4364.77
938.597	4407.93
938.905	4350.99
939.213	4347.37
939.52	4288.39
939.827	4360.7
940.135	4264.89
940.442	4307.15
940.749	4282.51
941.056	4287.26
941.363	4238.45
941.67	4238.45
941.977	4201.39
942.284	4166.13
942.591	4177.21
942.898	4159.58
943.205	4124.55
943.511	4096.76
943.818	4113.48
944.125	4040.04
944.431	4026.48
944.738	4006.36
945.044	3996.87
945.35	3982.86
945.657	4009.75
945.963	3951.68
946.269	3929.98
946.575	3912.35
946.881	3913.71
947.187	3902.41
947.493	3897.67
947.799	3892.47
948.105	3881.4
948.41	3819.25
948.716	3877.33
949.022	3820.83
949.327	3786.26
949.633	3791.68
949.938	3728.18
950.244	3797.78
950.549	3695.64
950.854	3695.64
951.16	3712.13
951.465	3626.49
951.77	3652.02
952.075	3639.82
952.38	3618.13
952.685	3625.13
952.99	3617
953.294	3552.59
953.599	3578.58
953.904	3516.21
954.209	3520.95
954.513	3548.75
954.818	3526.38
955.122	3499.26
955.426	3479.37
955.731	3519.37
956.035	3442.99
956.339	3429.66
956.643	3428.07
956.948	3419.71
957.252	3447.28
957.556	3363.44
957.86	3393.95
958.163	3408.19
958.467	3305.82
958.771	3336.78
959.075	3351.01
959.378	3279.6
959.682	3318.47
959.985	3250.9
960.289	3262.2
960.592	3278.47
960.896	3237.34
961.199	3212.49
961.502	3155.31
961.805	3143.79
962.108	3138.14
962.411	3156.22
962.714	3117.8
963.017	3138.82
963.32	3128.42
963.623	3097.91
963.926	3119.83
964.228	3050.68
964.531	3065.6
964.833	3060.4
965.136	3013.4
965.438	3023.79
965.741	2966.39
966.043	2981.53
966.345	2960.97
966.648	2985.83
966.95	2946.5
967.252	2938.37
967.554	2906.96
967.856	2885.26
968.158	2909.44
968.46	2909.67
968.761	2852.5
969.063	2876.68
969.365	2889.56
969.666	2823.12
969.968	2843.91
970.269	2816.11
970.571	2828.32
970.872	2773.63
971.174	2796.45
971.475	2750.8
971.776	2761.65
972.077	2707.41
972.378	2727.98
972.679	2758.94
972.98	2711.26
973.281	2711.26
973.582	2683.01
973.883	2679.62
974.183	2673.52
974.484	2685.27
974.785	2680.52
975.085	2631.26
975.386	2627.87
975.686	2595.33
975.986	2627.87
976.287	2591.94
976.587	2553.75
976.887	2559.17
977.187	2547.87
977.487	2570.02
977.787	2529.34
978.087	2540.19
978.387	2509.45
978.687	2520.53
978.987	2485.95
979.286	2517.82
979.586	2510.81
979.885	2462.22
980.185	2444.14
980.484	2459.96
980.784	2425.39
981.083	2442.79
981.382	2401.21
981.682	2414.99
981.981	2381.32
982.28	2413.19
982.579	2345.39
982.878	2350.81
983.177	2344.26
983.475	2335.67
983.774	2296.58
984.073	2318.95
984.372	2276.01
984.67	2283.25
984.969	2297.71
985.267	2292.51
985.566	2282.79
985.864	2209.8
986.162	2237.82
986.461	2226.07
986.759	2233.08
987.057	2226.98
987.355	2217.03
987.653	2200.08
987.951	2182.46
988.249	2193.3
988.547	2163.02
988.844	2165.51
989.142	2146.3
989.44	2122.57
989.737	2138.84
990.035	2128.45
990.332	2127.32
990.63	2112.4
990.927	2101.55
991.224	2087.32
991.521	2063.59
991.819	2064.72
992.116	2073.99
992.413	2019.98
992.71	2050.03
993.006	2036.25
993.303	2003.7
993.6	2002.12
993.897	1977.26
994.193	1987.21
994.49	1979.3
994.787	1964.38
995.083	1951.5
995.379	1943.14
995.676	1956.93
995.972	1946.76
996.268	1910.37
996.565	1957.6
996.861	1935.46
997.157	1914.67
997.453	1876.25
997.749	1914.22
998.044	1878.28
998.34	1895.68
998.636	1852.75
998.932	1866.76
999.227	1798.96
999.523	1828.79
999.818	1779.76
1000.114	1799.19
1000.409	1796.7
1000.704	1789.92
1001	1798.51
1001.295	1793.99
1001.59	1755.35
1001.885	1782.02
1002.18	1765.97
1002.475	1742.02
1002.77	1747.89
1003.065	1693.66
1003.359	1731.4
1003.654	1710.83
1003.949	1700.21
1004.243	1676.71
1004.538	1684.62
1004.832	1688.01
1005.127	1657.27
1005.421	1662.47
1005.715	1644.17
1006.009	1629.7
1006.304	1643.49
1006.598	1617.73
1006.892	1617.05
1007.186	1619.99
1007.48	1582.92
1007.773	1564.62
1008.067	1583.83
1008.361	1564.85
1008.655	1563.26
1008.948	1551.29
1009.242	1539.54
1009.535	1548.8
1009.829	1543.6
1010.122	1519.42
1010.415	1495.7
1010.708	1469.26
1011.001	1501.34
1011.295	1458.41
1011.588	1458.41
1011.881	1436.71
1012.173	1444.85
1012.466	1438.97
1012.759	1440.33
1013.052	1442.82
1013.344	1444.4
1013.637	1457.05
1013.93	1424.06
1014.222	1395.13
1014.514	1390.16
1014.807	1372.53
1015.099	1396.04
1015.391	1383.38
1015.683	1345.42
1015.976	1381.12
1016.268	1355.36
1016.56	1363.72
1016.851	1333.89
1017.143	1321.24
1017.435	1342.7
1017.727	1327.11
1018.018	1304.29
1018.31	1301.12
1018.602	1282.14
1018.893	1278.98
1019.185	1287.11
1019.476	1268.36
1019.767	1264.06
1020.058	1263.16
1020.35	1237.62
1020.641	1243.72
1020.932	1234.69
1021.223	1217.96
1021.514	1229.71
1021.804	1206.66
1022.095	1167.34
1022.386	1203.5
1022.677	1191.3
1022.967	1199.66
1023.258	1158.08
1023.548	1181.13
1023.839	1144.97
1024.129	1142.03
1024.419	1154.01
1024.709	1146.55
1025	1136.83
1025.29	1126.67
1025.58	1114.01
1025.87	1094.8
1026.16	1076.95
1026.449	1109.49
1026.739	1092.32
1027.029	1093.22
1027.319	1067.01
1027.608	1060.45
1027.898	1062.49
1028.187	1062.49
1028.477	1053.45
1028.766	1054.8
1029.055	1031.75
1029.344	1030.62
1029.634	1008.02
1029.923	1019.78
1030.212	1017.74
1030.501	1014.8
1030.79	1001.02
1031.078	1001.24
1031.367	954.69
1031.656	974.13
1031.945	978.42
1032.233	980.68
1032.522	950.4
1032.81	955.82
1033.099	924.41
1033.387	936.84
1033.675	958.08
1033.963	926.22
1034.251	928.25
1034.54	908.82
1034.828	929.83
1035.116	910.63
1035.403	913.34
1035.691	918.54
1035.979	903.17
1036.267	893.23
1036.554	914.47
1036.842	870.4
1037.129	868.82
1037.417	859.78
1037.704	867.69
1037.992	870.63
1038.279	871.08
1038.566	837.63
1038.853	837.63
1039.14	837.63
