Data from hue_10_FLMS001491_88.txt Node
Date: Mon Feb 06 15:32:42 GMT 2017
User: dcchb
Spectrometer: FLMS00149
Trigger mode: 0
Integration Time (sec): 2.000000E-2
Scans to average: 10
Electric dark correction enabled: true
Nonlinearity correction enabled: false
Boxcar width: 0
XAxis mode: Wavelengths
Number of Pixels in Spectrum: 2048
>>>>>Begin Spectral Data<<<<<
341.393	-12.5
341.776	-12.5
342.16	-12.5
342.543	-54.08
342.927	-65.61
343.31	-72.39
343.693	-73.97
344.077	-68.09
344.46	-55.89
344.843	-57.24
345.226	-33.06
345.61	-54.53
345.993	-22.89
346.376	-10.69
346.759	9.65
347.142	21.4
347.525	57.33
347.908	71.11
348.291	89.19
348.674	88.74
349.057	111.34
349.44	129.42
349.823	136.87
350.206	151.34
350.588	204.67
350.971	186.82
351.354	214.16
351.737	244.89
352.119	251
352.502	261.17
352.884	262.52
353.267	275.4
353.65	308.17
354.032	283.99
354.414	272.69
354.797	307.72
355.179	307.94
355.562	302.52
355.944	329.41
356.326	330.54
356.709	319.24
357.091	323.54
357.473	332.8
357.855	350.43
358.238	336.64
358.62	340.26
359.002	328.96
359.384	333.03
359.766	378.9
360.148	348.62
360.53	348.62
360.912	335.51
361.294	318.34
361.676	325.57
362.057	338.23
362.439	334.38
362.821	300.71
363.203	316.08
363.584	338.23
363.966	335.97
364.348	347.72
364.729	305.68
365.111	313.37
365.493	314.27
365.874	304.78
366.256	313.37
366.637	316.53
367.019	303.2
367.4	333.03
367.781	295.74
368.163	307.27
368.544	319.47
368.925	305.46
369.306	312.46
369.688	325.12
370.069	312.46
370.45	293.93
370.831	321.73
371.212	312.46
371.593	294.84
371.974	307.27
372.355	320.15
372.736	323.76
373.117	326.47
373.498	313.82
373.879	334.16
374.26	317.44
374.641	306.59
375.021	304.78
375.402	337.55
375.783	317.21
376.163	321.5
376.544	322.41
376.925	311.11
377.305	320.37
377.686	340.71
378.066	317.66
378.447	333.48
378.827	342.29
379.208	334.84
379.588	301.16
379.968	331.9
380.349	324.67
380.729	316.08
381.109	316.08
381.489	316.76
381.87	331.9
382.25	332.35
382.63	353.14
383.01	331.9
383.39	338.68
383.77	339.81
384.15	328.06
384.53	349.98
384.91	350.65
385.29	361.5
385.67	337.1
386.049	349.3
386.429	327.15
386.809	352.69
387.189	361.05
387.568	343.65
387.948	350.65
388.328	365.34
388.707	355.17
389.087	354.5
389.466	353.59
389.846	349.3
390.225	366.7
390.605	337.32
390.984	348.85
391.363	356.3
391.743	360.37
392.122	375.06
392.501	346.59
392.881	377.09
393.26	359.02
393.639	363.08
394.018	368.73
394.397	370.32
394.776	371.22
395.155	395.4
395.534	370.32
395.913	373.25
396.292	353.37
396.671	366.02
397.05	390.88
397.429	375.06
397.808	367.15
398.186	372.57
398.565	368.06
398.944	363.54
399.323	375.74
399.701	374.83
400.08	385.23
400.458	387.49
400.837	397.21
401.215	385.23
401.594	371.9
401.972	413.93
402.351	408.05
402.729	400.14
403.107	384.78
403.486	378.45
403.864	398.79
404.242	410.77
404.62	389.75
404.999	417.55
405.377	395.17
405.755	431.78
406.133	400.37
406.511	405.79
406.889	402.18
407.267	402.86
407.645	407.83
408.023	429.07
408.401	437.66
408.779	424.55
409.156	440.14
409.534	453.02
409.912	439.24
410.29	430.43
410.667	428.39
411.045	438.79
411.422	419.81
411.8	431.56
412.178	439.01
412.555	450.09
412.933	431.78
413.31	450.09
413.687	435.62
414.065	453.48
414.442	445.79
414.819	466.81
415.197	480.82
415.574	474.49
415.951	470.88
416.328	461.39
416.705	472.01
417.082	488.73
417.46	475.4
417.837	481.05
418.214	469.97
418.591	481.72
418.967	489.41
419.344	489.63
419.721	495.28
420.098	495.06
420.475	496.19
420.852	474.72
421.228	513.36
421.605	510.2
421.982	509.07
422.358	509.52
422.735	502.97
423.111	518.56
423.488	524.66
423.864	516.53
424.241	522.18
424.617	514.49
424.994	545.9
425.37	508.84
425.746	529.41
426.123	547.49
426.499	553.14
426.875	553.36
427.251	549.97
427.627	548.62
428.003	557.43
428.379	579.35
428.756	568.95
429.132	570.31
429.507	578.9
429.883	579.58
430.259	599.91
430.635	591.55
431.011	603.98
431.387	572.8
431.763	606.92
432.138	611.66
432.514	617.54
432.89	613.25
433.265	624.77
433.641	625.45
434.016	608.95
434.392	651.66
434.767	646.01
435.143	636.07
435.518	648.5
435.894	656.86
436.269	640.59
436.644	654.6
437.02	647.82
437.395	663.41
437.77	657.31
438.145	685.56
438.52	676.52
438.895	682.62
439.271	702.06
439.646	700.25
440.021	700.25
440.395	697.54
440.77	708.84
441.145	706.13
441.52	711.55
441.895	728.05
442.27	723.53
442.645	724.43
443.019	710.42
443.394	711.55
443.769	717.88
444.143	717.88
444.518	740.02
444.892	759.23
445.267	773.92
445.641	767.82
446.016	751.32
446.39	758.78
446.764	731.44
447.139	749.51
447.513	735.28
447.887	777.31
448.262	769.85
448.636	764.88
449.01	793.35
449.384	785.22
449.758	796.52
450.132	779.12
450.506	802.62
450.88	773.69
451.254	792.9
451.628	827.93
452.002	830.64
452.376	811.66
452.75	838.1
453.123	832.9
453.497	831.32
453.871	840.59
454.244	856.86
454.618	861.38
454.992	859.12
455.365	899.57
455.739	918.55
456.112	901.15
456.486	886.01
456.859	894.82
457.232	909.28
457.606	899.57
457.979	931.2
458.352	941.37
458.725	916.97
459.099	957.64
459.472	962.16
459.845	967.81
460.218	996.29
460.591	977.98
460.964	982.05
461.337	1017.98
461.71	1011.88
462.083	1021.82
462.456	1047.36
462.829	1048.49
463.201	1054.14
463.574	1060.69
463.947	1076.96
464.32	1074.48
464.692	1087.58
465.065	1091.43
465.438	1128.26
465.81	1115.61
466.183	1139.33
466.555	1165.32
466.928	1172.33
467.3	1156.96
467.672	1184.31
468.045	1213
468.417	1235.15
468.789	1216.39
469.161	1245.55
469.534	1285.55
469.906	1264.75
470.278	1286
470.65	1314.47
471.022	1291.87
471.394	1331.87
471.766	1368.03
472.138	1386.79
472.51	1395.82
472.882	1427.24
473.253	1438.76
473.625	1450.06
473.997	1483.96
474.369	1495.71
474.74	1504.75
475.112	1527.57
475.484	1570.28
475.855	1600.57
476.227	1584.29
476.598	1634.01
476.97	1665.65
477.341	1700.45
477.713	1714.69
478.084	1712.2
478.455	1786.1
478.827	1796.72
479.198	1863.61
479.569	1858.41
479.94	1915.36
480.311	1942.25
480.682	1964.62
481.053	1988.35
481.424	2088.69
481.795	2103.6
482.166	2098.86
482.537	2134.34
482.908	2198.97
483.279	2219.98
483.65	2255.01
484.021	2294.33
484.391	2328.46
484.762	2399.19
485.133	2372.97
485.503	2415.46
485.874	2489.36
486.244	2546.53
486.615	2575.23
486.985	2610.93
487.356	2654.1
487.726	2673.08
488.097	2725.28
488.467	2721.44
488.837	2833.08
489.207	2789.46
489.578	2873.75
489.948	2915.56
490.318	2978.38
490.688	2982.68
491.058	3047.31
491.428	3082.11
491.798	3139.51
492.168	3168.89
492.538	3178.83
492.908	3231.71
493.278	3305.83
493.648	3279.39
494.017	3350.35
494.387	3403.91
494.757	3410.46
495.126	3451.82
495.496	3480.74
495.866	3515.77
496.235	3543.57
496.605	3604.58
496.974	3615.88
497.344	3636.22
497.713	3669.66
498.082	3676.22
498.452	3723.9
498.821	3726.61
499.19	3763.45
499.559	3799.15
499.928	3830.11
500.298	3854.52
500.667	3895.19
501.036	3856.33
501.405	3901.07
501.774	3926.15
502.143	3962.76
502.512	3986.49
502.88	4018.13
503.249	4013.84
503.618	4064.23
503.987	4065.59
504.356	4121.63
504.724	4107.62
505.093	4155.3
505.462	4202.53
505.83	4176.32
506.199	4194.17
506.567	4260.38
506.936	4273.49
507.304	4284.34
507.672	4328.4
508.041	4352.58
508.409	4361.85
508.777	4367.72
509.145	4442.52
509.514	4444.33
509.882	4405.24
510.25	4482.07
510.618	4468.29
510.986	4497.44
511.354	4526.14
511.722	4562.75
512.09	4610.66
512.458	4567.94
512.826	4607.94
513.193	4587.83
513.561	4623.31
513.929	4689.3
514.297	4685.23
514.664	4713.25
515.032	4723.2
515.4	4734.27
515.767	4787.15
516.135	4776.07
516.502	4765.91
516.869	4860.59
517.237	4851.55
517.604	4844.1
517.972	4886.35
518.339	4897.43
518.706	4865.11
519.073	4890.42
519.44	4902.85
519.808	5000.25
520.175	4960.7
520.542	4974.71
520.909	5041.38
521.276	4990.98
521.643	5060.14
522.009	5079.34
522.376	5104.88
522.743	5123.18
523.11	5166.12
523.477	5207.93
523.843	5232.79
524.21	5283.18
524.577	5298.55
524.943	5298.32
525.31	5269.17
525.676	5332.9
526.043	5350.98
526.409	5397.75
526.776	5443.4
527.142	5487.92
527.508	5507.36
527.874	5508.71
528.241	5531.54
528.607	5593.23
528.973	5584.64
529.339	5547.58
529.705	5656.5
530.071	5689.95
530.437	5694.02
530.803	5710.06
531.169	5786.22
531.535	5789.38
531.901	5764.3
532.267	5851.3
532.632	5868.7
532.998	5843.17
533.364	5929.49
533.73	5891.98
534.095	5930.17
534.461	6009.26
534.826	5972.65
535.192	6004.52
535.557	6083.39
535.923	6058.08
536.288	6111.41
536.653	6111.63
537.019	6076.38
537.384	6165.19
537.749	6249.03
538.114	6272.53
538.479	6195.25
538.845	6352.3
539.21	6252.19
539.575	6311.85
539.94	6351.63
540.305	6400.89
540.67	6357.28
541.034	6366.77
541.399	6432.98
541.764	6465.75
542.129	6435.47
542.494	6533.99
542.858	6490.61
543.223	6565.63
543.587	6572.19
543.952	6606.54
544.316	6624.84
544.681	6634.78
545.045	6678.17
545.41	6713.2
545.774	6723.59
546.138	6746.19
546.503	6798.85
546.867	6791.62
547.231	6812.18
547.595	6885.4
547.959	6856.7
548.324	6891.73
548.688	6935.79
549.052	6976.47
549.416	7003.36
549.779	6978.05
550.143	7038.16
550.507	7058.27
550.871	7015.11
551.235	7085.62
551.599	7181.66
551.962	7133.75
552.326	7170.14
552.689	7184.37
553.053	7172.62
553.417	7213.3
553.78	7302.34
554.143	7251.72
554.507	7285.61
554.87	7291.04
555.234	7376.68
555.597	7312.73
555.96	7430.47
556.323	7430.92
556.686	7424.37
557.05	7490.58
557.413	7510.47
557.776	7495.78
558.139	7570.8
558.502	7565.38
558.865	7573.74
559.228	7621.2
559.59	7646.06
559.953	7604.25
560.316	7713.4
560.679	7703.91
561.041	7754.08
561.404	7815.32
561.767	7909.1
562.129	7826.39
562.492	7938.93
562.854	7892.38
563.217	7896.22
563.579	7932.15
563.941	7992.04
564.304	8007.18
564.666	8038.81
565.028	8149.55
565.39	8085.82
565.753	8108.87
566.115	8176.44
566.477	8178.25
566.839	8282.2
567.201	8260.05
567.563	8197.68
567.925	8283.55
568.287	8302.76
568.648	8374.17
569.01	8403.78
569.372	8429.54
569.734	8405.36
570.095	8515.19
570.457	8532.13
570.819	8527.84
571.18	8613.04
571.542	8599.7
571.903	8574.17
572.265	8729.19
572.626	8756.99
572.987	8795.63
573.349	8851.9
573.71	8912.01
574.071	8952.46
574.432	8947.04
574.794	9085.34
575.155	9089.63
575.516	9182.29
575.877	9242.85
576.238	9257.54
576.599	9378.21
576.96	9382.06
577.32	9456.4
577.681	9474.71
578.042	9641.71
578.403	9754.93
578.763	9869.27
579.124	9940.01
579.485	10015.49
579.845	10107.69
580.206	10197.4
580.566	10350.17
580.927	10479.88
581.287	10584.96
581.648	10637.16
582.008	10819.76
582.368	10937.49
582.728	11046.42
583.089	11242.12
583.449	11329.35
583.809	11507.88
584.169	11702.67
584.529	11795.33
584.889	12101.53
585.249	12195.09
585.609	12404.57
585.969	12524.35
586.329	12714.62
586.688	13024.45
587.048	13182.18
587.408	13314.83
587.768	13567.93
588.127	13870.75
588.487	14011.31
588.846	14324.98
589.206	14519.32
589.565	14783.04
589.925	15049.25
590.284	15347.1
590.643	15616.24
591.003	15982.33
591.362	16195.89
591.721	16395.66
592.08	16803.33
592.44	16983.21
592.799	17332.36
593.158	17538.45
593.517	17893.02
593.876	18107.48
594.235	18455.49
594.593	18763.73
594.952	19028.58
595.311	19269.71
595.67	19628.79
596.029	19977.26
596.387	20304.71
596.746	20619.73
597.104	20839.38
597.463	21152.37
597.822	21468.74
598.18	21752.58
598.538	22038.67
598.897	22468.49
599.255	22688.37
599.613	23206.1
599.972	23222.37
600.33	23651.06
600.688	23896.25
601.046	24289.46
601.404	24722.67
601.762	24913.85
602.12	25179.15
602.478	25427.51
602.836	25824.11
603.194	26011.9
603.552	26328.05
603.91	26503.87
604.268	26824.31
604.625	27040.57
604.983	27321.24
605.341	27534.12
605.698	28054.78
606.056	28285.29
606.413	28334.33
606.771	28698.61
607.128	29088.88
607.485	29204.36
607.843	29424.47
608.2	29812.25
608.557	30157.1
608.914	30277.78
609.272	30557.09
609.629	30760.7
609.986	31036.85
610.343	31093.8
610.7	31521.59
611.057	31698.08
611.414	31942.14
611.771	32122.7
612.127	32385.07
612.484	32597.49
612.841	32874.09
613.198	32894.43
613.554	33058.27
613.911	33424.81
614.267	33566.05
614.624	33745.93
614.98	33914.29
615.337	34284
615.693	34316.54
616.05	34400.38
616.406	34782.52
616.762	34810.54
617.118	35020.7
617.475	35066.58
617.831	35325.1
618.187	35398.32
618.543	35672.21
618.899	35895.71
619.255	36051.64
619.611	36089.6
619.967	36315.58
620.323	36514
620.678	36396.26
621.034	36525.75
621.39	36565.3
621.746	36782.69
622.101	37181.55
622.457	37065.17
622.812	37153.08
623.168	37382
623.523	37422.67
623.879	37586.29
624.234	37512.39
624.589	37670.13
624.945	37760.74
625.3	37912.15
625.655	37907.63
626.01	38149.89
626.365	38183.11
626.72	38193.28
627.075	38165.25
627.43	38360.05
627.785	38244.12
628.14	38353.95
628.495	38468.52
628.85	38439.37
629.205	38433.27
629.559	38630.1
629.914	38684.34
630.269	38628.74
630.623	38666.94
630.978	38710.78
631.332	38853.82
631.687	39028.06
632.041	38897.89
632.396	38872.13
632.75	38801.4
633.104	38909.64
633.459	38653.83
633.813	38846.14
634.167	38876.2
634.521	38976.76
634.875	38999.81
635.229	38948.51
635.583	38849.53
635.937	38745.13
636.291	38947.38
636.645	38875.97
636.999	38781.73
637.352	38996.87
637.706	38758.91
638.06	39014.5
638.413	38750.55
638.767	38825.12
639.121	38896.76
639.474	38710.55
639.828	38847.5
640.181	38849.08
640.534	38874.84
640.888	38810.89
641.241	38751.23
641.594	38688.86
641.947	38850.21
642.301	38614.06
642.654	38842.07
643.007	38845.24
643.36	38739.7
643.713	38836.87
644.066	38812.92
644.419	38589.2
644.771	38373.38
645.124	37978.14
645.477	38072.37
645.83	37734.76
646.182	37623.57
646.535	37748.09
646.888	37658.15
647.24	37620.64
647.593	37696.57
647.945	37631.93
648.298	37483.24
648.65	37395.33
649.002	37405.5
649.355	37526.63
649.707	37516.46
650.059	37611.14
650.411	38020.85
650.763	38028.99
651.115	38492.25
651.467	38274.18
651.819	38365.93
652.171	38350.33
652.523	38280.96
652.875	38250.9
653.227	38089.78
653.578	38418.13
653.93	38169.77
654.282	38138.14
654.633	37916.22
654.985	38090.68
655.337	38215.65
655.688	38075.09
656.039	38287.06
656.391	37963.22
656.742	38119.38
657.094	37996.44
657.445	38139.27
657.796	38058.36
658.147	37892.27
658.498	37865.83
658.849	38059.49
659.2	38016.1
659.551	37885.94
659.902	37942.66
660.253	37931.36
660.604	37948.31
660.955	37875.54
661.306	37951.02
661.656	37881.87
662.007	37869.44
662.358	37979.95
662.708	37891.59
663.059	37804.13
663.409	37554.2
663.76	37966.39
664.11	37810.01
664.461	37809.33
664.811	37790.35
665.161	37820.4
665.511	37851.82
665.862	37669.45
666.212	37995.09
666.562	37926.62
666.912	37880.29
667.262	37705.15
667.612	37727.3
667.962	37797.81
668.312	37608.66
668.662	37739.5
669.011	37730.91
669.361	37678.26
669.711	37537.47
670.06	37576.12
670.41	37527.08
670.76	37478.27
671.109	37713.51
671.459	37601.2
671.808	37421.54
672.157	37674.87
672.507	37382.9
672.856	37395.33
673.205	37374.99
673.554	37545.16
673.904	37484.14
674.253	37558.72
674.602	37547.42
674.951	36927.77
675.3	36681.22
675.649	37354.88
675.998	37303.36
676.346	37268.78
676.695	37538.6
677.044	37217.71
677.393	37302.68
677.741	37259.97
678.09	37306.97
678.438	37119.63
678.787	37208.22
679.135	37224.04
679.484	36922.35
679.832	37051.61
680.181	36887.32
680.529	37083.47
680.877	36912.41
681.225	36924.83
681.573	37016.81
681.922	36791.28
682.27	36591.74
682.618	36736.36
682.966	36647.1
683.314	36818.62
683.661	36533.88
684.009	36520.78
684.357	36378.18
684.705	36355.58
685.053	36397.39
685.4	36318.97
685.748	36126.89
686.095	36123.5
686.443	35981.36
686.79	35976.84
687.138	36053.22
687.485	35813.68
687.832	35832.89
688.18	35724.64
688.527	35570.29
688.874	35673.79
689.221	35645.09
689.568	35493.01
689.915	35431.99
690.262	35426.79
690.609	35275.61
690.956	35162.62
691.303	35216.86
691.65	34972.57
691.997	35068.39
692.344	34734.38
692.69	34815.96
693.037	34754.04
693.383	34684.44
693.73	34802.86
694.077	34505.46
694.423	34528.06
694.769	34451.45
695.116	34259.59
695.462	34289.65
695.808	34161.52
696.155	34276.99
696.501	33879.94
696.847	33915.2
697.193	33622.77
697.539	33760.17
697.885	33574.87
698.231	33450.58
698.577	33470.46
698.923	33519.5
699.269	33264.14
699.614	33045.39
699.96	33088.32
700.306	33005.62
700.651	32956.8
700.997	32790.48
701.342	32731.5
701.688	32720.2
702.033	32700.31
702.379	32552.29
702.724	32480.21
703.069	32585.74
703.415	32295.13
703.76	32318.63
704.105	32203.83
704.45	32171.96
704.795	31884.29
705.14	31870.96
705.485	31781.47
705.83	31858.3
706.175	31739.89
706.52	31730.17
706.865	31570.62
707.209	31604.97
707.554	31383.28
707.899	31508.93
708.243	31203.85
708.588	31217.41
708.932	31064.88
709.277	30871.43
709.621	31030.07
709.966	30858.33
710.31	30846.35
710.654	30713.7
710.998	30725.68
711.342	30742.17
711.687	30612.68
712.031	30466.47
712.375	30295.86
712.719	30484.55
713.063	30380.37
713.407	30435.74
713.75	30311.22
714.094	30219.7
714.438	30118.01
714.782	30128.85
715.125	29941.74
715.469	30080.95
715.812	29942.64
716.156	29715.53
716.499	29808.86
716.843	29666.04
717.186	29570.68
717.53	29743.55
717.873	29778.58
718.216	29591.69
718.559	29524.12
718.902	29424.24
719.246	29291.36
719.589	29320.74
719.932	29186.96
720.275	29158.48
720.617	29210.46
720.96	29027.87
721.303	29177.02
721.646	29085.27
721.989	28972.5
722.331	28956
722.674	28832.39
723.016	28846.4
723.359	28802.56
723.701	28802.34
724.044	28699.97
724.386	28548.11
724.729	28595.34
725.071	28536.58
725.413	28501.1
725.755	28467.88
726.097	28300.2
726.439	28188.79
726.782	28178.62
727.124	28351.05
727.465	28153.54
727.807	28126.87
728.149	28199.64
728.491	28012.07
728.833	28079.87
729.175	27981.79
729.516	27982.47
729.858	27860.67
730.199	27818.86
730.541	27775.7
730.882	27822.47
731.224	27815.24
731.565	27716.94
731.906	27617.06
732.248	27717.39
732.589	27547.68
732.93	27467.46
733.271	27458.87
733.612	27568.24
733.953	27443.05
734.294	27293.45
734.635	27220.91
734.976	27236.5
735.317	27091.19
735.658	27130.74
735.999	27160.12
736.339	27141.59
736.68	27137.97
737.021	27074.02
737.361	26944.08
737.702	27132.32
738.042	27039.67
738.383	26873.8
738.723	27011.87
739.063	26944.08
739.404	26923.06
739.744	26827.7
740.084	26679.45
740.424	26716.29
740.764	26597.87
741.104	26895.49
741.444	26619.57
741.784	26520.59
742.124	26571.43
742.464	26569.85
742.804	26585.9
743.143	26396.98
743.483	26484.88
743.823	26312.46
744.162	26387.26
744.502	26350.42
744.841	26164.89
745.181	26327.37
745.52	26159.92
745.86	26126.25
746.199	26173.25
746.538	25992.47
746.877	26117.89
747.216	26091.45
747.556	26054.39
747.895	25967.16
748.234	25931
748.573	25853.49
748.911	25796.99
749.25	25764.45
749.589	25720.16
749.928	25629.76
750.267	25698.69
750.605	25663.66
750.944	25500.5
751.283	25621.18
751.621	25586.6
751.96	25500.73
752.298	25389.09
752.636	25347.96
752.975	25244.92
753.313	25132.83
753.651	25295.76
753.989	25200.17
754.327	25167.63
754.666	25031.36
755.004	25020.51
755.342	25092.6
755.679	24948.65
756.017	24934.42
756.355	24945.26
756.693	24793.85
757.031	24759.28
757.368	24690.13
757.706	24676.34
758.044	24498.95
758.381	24678.38
758.719	24464.82
759.056	24554.31
759.394	24326.07
759.731	24271.38
760.068	24202.46
760.405	24152.74
760.743	24046.98
761.08	24181.44
761.417	23941.67
761.754	23943.93
762.091	23882.92
762.428	23827.55
762.765	23604.05
763.102	23650.61
763.438	23557.73
763.775	23524.06
764.112	23477.28
764.449	23470.5
764.785	23444.28
765.122	23296.72
765.458	23189.6
765.795	23086.1
766.131	23124.97
766.467	23067.35
766.804	22917.29
767.14	22903.51
767.476	22855.83
767.812	22704.42
768.148	22726.11
768.485	22568.83
768.821	22483.18
769.157	22421.71
769.492	22354.6
769.828	22395.72
770.164	22113.47
770.5	22153.25
770.836	22156.41
771.171	22048.84
771.507	21890.43
771.842	21717.55
772.178	21731.79
772.513	21699.25
772.849	21559.14
773.184	21493.6
773.519	21563.43
773.855	21381.51
774.19	21282.53
774.525	21267.39
774.86	21264.68
775.195	21123.22
775.53	21062.88
775.865	20982.65
776.2	20824.24
776.535	20698.14
776.87	20727.75
777.205	20593.74
777.539	20471.48
777.874	20599.16
778.209	20385.38
778.543	20300.19
778.878	20196.01
779.212	20207.53
779.547	20032.4
779.881	20160.08
780.215	19922.57
780.55	19949.46
780.884	19852.51
781.218	19776.36
781.552	19771.84
781.886	19670.6
782.22	19619.75
782.554	19520.32
782.888	19333.21
783.222	19226.32
783.556	19252.3
783.889	19256.15
784.223	19016.6
784.557	19001.24
784.89	19105.87
785.224	18977.96
785.557	18770.28
785.891	18790.17
786.224	18793.79
786.558	18710.4
786.891	18658.87
787.224	18504.3
787.557	18401.25
787.891	18400.8
788.224	18398.09
788.557	18392.67
788.89	18364.87
789.223	18264.31
789.556	18169.4
789.888	18106.57
790.221	18022.96
790.554	17836.3
790.887	17893.47
791.219	17771.21
791.552	17730.31
791.884	17694.83
792.217	17532.58
792.549	17636.53
792.882	17479.92
793.214	17385.69
793.546	17357.67
793.879	17269.08
794.211	17137.56
794.543	17234.28
794.875	17107.95
795.207	17129.65
795.539	16985.47
795.871	17111.12
796.203	16873.61
796.535	16677.68
796.867	16756.78
797.198	16752.94
797.53	16707.51
797.862	16537.12
798.193	16639.04
798.525	16495.99
798.856	16460.06
799.188	16341.65
799.519	16251.93
799.85	16192.95
800.182	16263
800.513	16216.68
800.844	16049.9
801.175	16077.7
801.506	16044.03
801.837	15901.21
802.168	15931.71
802.499	15953.41
802.83	15830.47
803.161	15809.46
803.491	15871.15
803.822	15763.36
804.153	15645.85
804.483	15604.26
804.814	15553.64
805.145	15552.29
805.475	15486.3
805.805	15492.18
806.136	15367.21
806.466	15437.49
806.796	15326.76
807.126	15301
807.457	15241.79
807.787	15188.91
808.117	15134.9
808.447	15124.73
808.777	15141
809.107	15119.31
809.436	15005.86
809.766	14949.14
810.096	14936.49
810.426	14904.4
810.755	14879.31
811.085	14798.18
811.414	14764.06
811.744	14710.5
812.073	14698.07
812.403	14597.74
812.732	14535.37
813.061	14479.77
813.39	14399.1
813.719	14357.74
814.049	14511.41
814.378	14357.07
814.707	14412.43
815.036	14364.98
815.365	14235.94
815.693	14166.56
816.022	14153.91
816.351	14162.72
816.68	14108.71
817.008	14121.14
817.337	13986.91
817.665	13905.1
817.994	13993.23
818.322	14020.58
818.651	13903.29
818.979	13882.5
819.307	13769.51
819.636	13824.88
819.964	13731.09
820.292	13852.45
820.62	13783.97
820.948	13682.51
821.276	13751.21
821.604	13688.38
821.932	13638.67
822.259	13638.21
822.587	13682.06
822.915	13664.43
823.243	13714.15
823.57	13675.73
823.898	13683.86
824.225	13597.31
824.553	13612.9
824.88	13614.94
825.207	13666.24
825.535	13569.29
825.862	13689.74
826.189	13576.3
826.516	13648.38
826.843	13714.37
827.17	13662.62
827.497	13671.89
827.824	13682.28
828.151	13669.63
828.478	13569.97
828.805	13657.42
829.131	13614.71
829.458	13578.1
829.785	13556.41
830.111	13536.52
830.438	13607.03
830.764	13545.11
831.09	13605.67
831.417	13485.22
831.743	13534.71
832.069	13623.07
832.395	13540.36
832.722	13549.86
833.048	13530.87
833.374	13464.21
833.7	13488.61
834.026	13454.94
834.351	13454.72
834.677	13450.2
835.003	13513.92
835.329	13451.78
835.654	13437.77
835.98	13377.88
836.306	13397.54
836.631	13273.48
836.956	13487.94
837.282	13380.14
837.607	13254.04
837.932	13223.31
838.258	13250.88
838.583	13177.44
838.908	13170.43
839.233	13184.22
839.558	13142.86
839.883	13109.64
840.208	13080.94
840.533	13076.2
840.858	13080.72
841.182	13049.76
841.507	13114.84
841.832	12970.66
842.156	12918.91
842.481	12861.51
842.805	12898.12
843.13	12872.59
843.454	12850.44
843.778	12750.78
844.103	12790.55
844.427	12706.49
844.751	12771.34
845.075	12664
845.399	12641.18
845.723	12609.77
846.047	12611.8
846.371	12495.87
846.695	12480.96
847.019	12399.15
847.343	12264.01
847.666	12320.96
847.99	12245.26
848.313	12173.85
848.637	12193.96
848.96	12109.89
849.284	12097.69
849.607	12086.39
849.931	12004.59
850.254	11829.67
850.577	11820.18
850.9	11746.74
851.223	11797.13
851.546	11731.6
851.869	11624.93
852.192	11697.93
852.515	11543.58
852.838	11510.59
853.161	11511.49
853.483	11347.88
853.806	11423.58
854.129	11356.92
854.451	11348.56
854.774	11293.42
855.096	11294.1
855.419	11201.89
855.741	11160.54
856.063	11153.99
856.385	11107.43
856.708	11085.51
857.03	10968.45
857.352	10978.85
857.674	11016.81
857.996	10956.03
858.318	10880.77
858.64	10870.83
858.961	10867.44
859.283	10784.73
859.605	10740.66
859.926	10768.69
860.248	10716.94
860.57	10598.29
860.891	10730.04
861.212	10665.64
861.534	10633.77
861.855	10582.02
862.176	10630.84
862.498	10557.39
862.819	10554
863.14	10461.35
863.461	10503.83
863.782	10441.01
864.103	10419.54
864.424	10415.47
864.745	10422.48
865.065	10346.32
865.386	10330.28
865.707	10434.23
866.027	10280.11
866.348	10308.36
866.668	10346.1
866.989	10274.46
867.309	10269.72
867.63	10262.03
867.95	10287.12
868.27	10207.57
868.59	10162.37
868.91	10244.18
869.23	10170.28
869.55	10095.26
869.87	10162.6
870.19	10090.74
870.51	10074.24
870.83	10177.51
871.15	10048.48
871.469	10055.71
871.789	10033.79
872.109	9978.2
872.428	10029.5
872.748	9975.03
873.067	9975.26
873.386	9911.08
873.706	10004.86
874.025	9839.22
874.344	9873.12
874.663	9887.8
874.982	9893.23
875.301	9808.03
875.62	9847.81
875.939	9765.77
876.258	9750.63
876.577	9709.05
876.896	9707.7
877.214	9660.92
877.533	9702.73
877.852	9729.62
878.17	9774.59
878.489	9642.84
878.807	9700.69
879.125	9653.46
879.444	9587.7
879.762	9610.75
880.08	9578.89
880.398	9518.1
880.716	9562.84
881.034	9570.98
881.352	9537.53
881.67	9531.2
881.988	9467.7
882.306	9465.67
882.624	9394.48
882.941	9395.16
883.259	9378.44
883.577	9331.89
883.894	9331.21
884.212	9408.5
884.529	9345.45
884.846	9240.82
885.164	9264.32
885.481	9230.87
885.798	9266.8
886.115	9191.78
886.432	9148.84
886.75	9132.12
887.067	9166.92
887.383	9070.65
887.7	9065.68
888.017	8997.66
888.334	9086.92
888.651	9047.6
888.967	8989.52
889.284	8990.2
889.6	8911.79
889.917	8877.89
890.233	8935.97
890.55	8857.1
890.866	8881.96
891.182	8866.59
891.498	8803.54
891.815	8736.2
892.131	8772.81
892.447	8686.25
892.763	8669.98
893.079	8588.18
893.395	8589.53
893.71	8674.73
894.026	8605.13
894.342	8593.38
894.657	8495.75
894.973	8487.84
895.289	8540.04
895.604	8428.41
895.92	8387.28
896.235	8306.38
896.55	8375.3
896.865	8269.32
897.181	8305.02
897.496	8382.76
897.811	8228.19
898.126	8240.62
898.441	8222.99
898.756	8188.64
899.071	8139.83
899.386	8133.5
899.7	8086.95
900.015	8138.47
900.33	8012.15
900.644	8029.55
900.959	7985.71
901.273	7945.48
901.588	7969.21
901.902	7959.49
902.216	7893.28
902.531	7799.72
902.845	7803.57
903.159	7779.39
903.473	7745.26
903.787	7736.45
904.101	7643.34
904.415	7644.93
904.729	7653.29
905.042	7550.47
905.356	7569.9
905.67	7593.4
905.984	7543.91
906.297	7494.2
906.611	7444.48
906.924	7437.25
907.237	7419.85
907.551	7442.67
907.864	7392.5
908.177	7369.68
908.491	7363.35
908.804	7298.49
909.117	7261.21
909.43	7213.53
909.743	7137.14
910.056	7140.76
910.368	7073.19
910.681	7142.79
910.994	6994.32
911.307	7062.12
911.619	6952.74
911.932	6968.79
912.244	6958.16
912.557	6886.98
912.869	6852.63
913.181	6882.91
913.494	6842.24
913.806	6798.17
914.118	6792.07
914.43	6728.57
914.742	6777.83
915.054	6760.66
915.366	6647.44
915.678	6644.95
915.99	6594.78
916.302	6539.87
916.613	6541.45
916.925	6532.64
917.236	6510.49
917.548	6439.99
917.859	6521.11
918.171	6416.94
918.482	6423.72
918.794	6406.54
919.105	6401.34
919.416	6283.15
919.727	6272.53
920.038	6274.57
920.349	6235.47
920.66	6173.78
920.971	6201.12
921.282	6151.63
921.593	6145.08
921.903	6134.01
922.214	6061.69
922.525	6012.65
922.835	5987.34
923.146	5967
923.456	6002.26
923.767	6005.2
924.077	5971.98
924.387	5891.75
924.697	5869.61
925.008	5882.94
925.318	5834.13
925.628	5774.24
925.938	5762.49
926.248	5766.78
926.558	5685.2
926.867	5718.65
927.177	5690.63
927.487	5662.15
927.796	5579.9
928.106	5654.92
928.416	5626.9
928.725	5578.99
929.034	5521.37
929.344	5576.05
929.653	5542.38
929.962	5481.82
930.271	5444.98
930.581	5450.63
930.89	5430.52
931.199	5377.42
931.508	5378.55
931.817	5356.85
932.125	5348.49
932.434	5270.07
932.743	5278.89
933.051	5255.16
933.36	5233.92
933.669	5191.43
933.977	5199.79
934.286	5126.35
934.594	5132.22
934.902	5116.41
935.21	5082.06
935.519	5110.53
935.827	5037.99
936.135	5009.97
936.443	4985.34
936.751	4939.01
937.059	4967.26
937.367	4916.64
937.674	4956.18
937.982	4918.67
938.29	4862.17
938.597	4899.91
938.905	4864.21
939.213	4802.74
939.52	4807.03
939.827	4787.15
940.135	4745.79
940.442	4743.76
940.749	4760.03
941.056	4730.88
941.363	4668.96
941.67	4651.56
941.977	4642.75
942.284	4621.5
942.591	4516.87
942.898	4570.66
943.205	4601.62
943.511	4570.43
943.818	4534.95
944.125	4521.62
944.431	4466.48
944.738	4453.15
945.044	4426.03
945.35	4437.78
945.657	4427.38
945.963	4357.78
946.269	4376.31
946.575	4376.76
946.881	4337.22
947.187	4345.8
947.493	4309.65
947.799	4254.51
948.105	4268.74
948.41	4255.86
948.716	4223.32
949.022	4190.33
949.327	4166.83
949.633	4108.3
949.938	4135.19
950.244	4125.92
950.549	4089.54
950.854	4105.36
951.16	4105.36
951.465	4062.87
951.77	4049.99
952.075	4007.96
952.38	4033.95
952.685	4005.47
952.99	3921.41
953.294	3952.14
953.599	3915.31
953.904	3932.03
954.209	3884.12
954.513	3872.6
954.818	3858.36
955.122	3825.59
955.426	3851.35
955.731	3813.61
956.035	3805.25
956.339	3741.75
956.643	3808.87
956.948	3766.16
957.252	3736.33
957.556	3739.72
957.86	3700.17
958.163	3735.65
958.467	3657.23
958.771	3672.6
959.075	3619.5
959.378	3651.36
959.682	3620.63
959.985	3615.43
960.289	3592.6
960.592	3555.99
960.896	3564.58
961.199	3513.06
961.502	3535.43
961.805	3526.62
962.108	3497.92
962.411	3473.51
962.714	3440.06
963.017	3418.6
963.32	3437.13
963.623	3403.23
963.926	3416.56
964.228	3396.68
964.531	3388.54
964.833	3383.8
965.136	3352.16
965.438	3315.32
965.741	3294.53
966.043	3245.27
966.345	3293.18
966.648	3280.07
966.95	3243.46
967.252	3252.05
967.554	3222.44
967.856	3255.21
968.158	3176.8
968.46	3220.86
968.761	3190.81
969.063	3192.84
969.365	3135.21
969.666	3165.04
969.968	3103.12
970.269	3055.22
970.571	3089.11
970.872	3068.32
971.174	3085.5
971.475	3060.19
971.776	3029.91
972.077	3024.26
972.378	3018.16
972.679	3004.6
972.98	2991.26
973.281	2979.51
973.582	2939.74
973.883	2964.15
974.183	2924.15
974.484	2923.47
974.785	2878.95
975.085	2916.91
975.386	2884.83
975.686	2847.31
975.986	2829.69
976.287	2876.01
976.587	2809.8
976.887	2815.9
977.187	2791.04
977.487	2794.21
977.787	2762.12
978.087	2735
978.387	2774.32
978.687	2753.3
978.987	2736.35
979.286	2718.73
979.586	2702.91
979.885	2713.08
980.185	2684.6
980.484	2670.82
980.784	2673.31
981.083	2633.31
981.382	2602.8
981.682	2641.44
981.981	2622.23
982.28	2628.33
982.579	2601.22
982.878	2583.36
983.177	2581.78
983.475	2571.16
983.774	2563.25
984.073	2538.17
984.372	2515.8
984.67	2525.74
984.969	2487.32
985.267	2509.69
985.566	2509.02
985.864	2451.62
986.162	2458.62
986.461	2476.25
986.759	2404.84
987.057	2407.32
987.355	2411.84
987.653	2376.82
987.951	2365.06
988.249	2382.69
988.547	2379.08
988.844	2355.57
989.142	2330.49
989.44	2333.2
989.737	2349.92
990.035	2344.27
990.332	2302.24
990.63	2303.6
990.927	2252.98
991.224	2264.95
991.521	2278.74
991.819	2246.65
992.116	2250.04
992.413	2242.36
992.71	2224.73
993.006	2220.89
993.303	2204.17
993.6	2237.16
993.897	2192.41
994.193	2171.85
994.49	2183.83
994.787	2167.1
995.083	2150.16
995.379	2142.02
995.676	2118.74
995.972	2119.65
996.268	2106.99
996.565	2087.11
996.861	2080.78
997.157	2100.21
997.453	2055.69
997.749	2064.06
998.044	2031.29
998.34	2021.8
998.636	2030.84
998.932	2010.72
999.227	2014.34
999.523	2013.89
999.818	1984.96
1000.114	1960.56
1000.409	1959.88
1000.704	1954.68
1001	1956.26
1001.295	1945.41
1001.59	1947.22
1001.885	1907.22
1002.18	1903.38
1002.475	1902.25
1002.77	1928.01
1003.065	1922.82
1003.359	1875.81
1003.654	1875.36
1003.949	1832.65
1004.243	1850.5
1004.538	1814.12
1004.832	1813.89
1005.127	1811.86
1005.421	1803.72
1005.715	1807.79
1006.009	1778.87
1006.304	1790.84
1006.598	1727.57
1006.892	1746.78
1007.186	1715.82
1007.48	1736.83
1007.773	1709.49
1008.067	1697.96
1008.361	1704.74
1008.655	1695.48
1008.948	1688.02
1009.242	1701.35
1009.535	1651.64
1009.829	1623.39
1010.122	1653.67
1010.415	1630.17
1010.708	1615.93
1011.001	1620.68
1011.295	1603.05
1011.588	1596.27
1011.881	1580.68
1012.173	1599.89
1012.466	1602.83
1012.759	1549.27
1013.052	1556.05
1013.344	1543.62
1013.637	1545.43
1013.93	1540.23
1014.222	1536.61
1014.514	1536.16
1014.807	1494.35
1015.099	1496.16
1015.391	1527.8
1015.683	1467.46
1015.976	1468.14
1016.268	1469.95
1016.56	1445.32
1016.851	1421.36
1017.143	1445.32
1017.435	1399.89
1017.727	1417.97
1018.018	1428.59
1018.31	1415.94
1018.602	1391.31
1018.893	1338.2
1019.185	1382.04
1019.476	1351.98
1019.767	1375.03
1020.058	1369.38
1020.35	1336.62
1020.641	1342.27
1020.932	1317.41
1021.223	1315.6
1021.514	1307.01
1021.804	1293
1022.095	1266.34
1022.386	1294.13
1022.677	1300.01
1022.967	1216.85
1023.258	1250.07
1023.548	1250.52
1023.839	1205.32
1024.129	1230.63
1024.419	1225.89
1024.709	1218.88
1025	1220.91
1025.29	1198.32
1025.58	1210.52
1025.87	1171.65
1026.16	1197.64
1026.449	1162.61
1026.739	1153.57
1027.029	1157.87
1027.319	1141.82
1027.608	1125.78
1027.898	1105.66
1028.187	1116.06
1028.477	1128.71
1028.766	1120.35
1029.055	1118.54
1029.344	1097.75
1029.634	1093.69
1029.923	1081.03
1030.212	1077.87
1030.501	1048.26
1030.79	1069.28
1031.078	1052.78
1031.367	1064.31
1031.656	1025.67
1031.945	1051.2
1032.233	1055.49
1032.522	1022.28
1032.81	1015.27
1033.099	1031.09
1033.387	1012.56
1033.675	992.67
1033.963	998.32
1034.251	981.15
1034.54	977.3
1034.828	986.12
1035.116	973.92
1035.403	963.07
1035.691	955.84
1035.979	956.97
1036.267	929.85
1036.554	934.82
1036.842	934.14
1037.129	933.01
1037.417	938.21
1037.704	917.87
1037.992	929.17
1038.279	904.31
1038.566	907.02
1038.853	907.02
1039.14	907.02
