Data from hue_340_FLMS001491_38.txt Node
Date: Mon Feb 06 15:43:02 GMT 2017
User: dcchb
Spectrometer: FLMS00149
Trigger mode: 0
Integration Time (sec): 2.000000E-2
Scans to average: 10
Electric dark correction enabled: true
Nonlinearity correction enabled: false
Boxcar width: 0
XAxis mode: Wavelengths
Number of Pixels in Spectrum: 2048
>>>>>Begin Spectral Data<<<<<
341.393	-0.97
341.776	-0.97
342.16	-0.97
342.543	-67.87
342.927	-62.44
343.31	-58.6
343.693	-66.06
344.077	-58.6
344.46	-61.54
344.843	-70.35
345.226	-37.81
345.61	-17.25
345.993	-14.53
346.376	-5.72
346.759	20.04
347.142	24.11
347.525	37.22
347.908	41.96
348.291	75.86
348.674	88.29
349.057	102.98
349.44	138.91
349.823	153.82
350.206	168.96
350.588	193.6
350.971	208.74
351.354	203.77
351.737	230.21
352.119	243.09
352.502	272.24
352.884	246.93
353.267	270.43
353.65	294.16
354.032	299.58
354.414	307.49
354.797	288.28
355.179	311.11
355.562	324.21
355.944	340.26
356.326	317.89
356.709	337.77
357.091	317.21
357.473	362.86
357.855	348.17
358.238	351.56
358.62	335.74
359.002	340.26
359.384	341.39
359.766	332.58
360.148	324.89
360.53	332.58
360.912	317.44
361.294	326.7
361.676	322.86
362.057	334.16
362.439	332.8
362.821	341.16
363.203	327.15
363.584	326.02
363.966	319.47
364.348	327.6
364.729	300.03
365.111	320.82
365.493	315.85
365.874	306.59
366.256	309.07
366.637	324.44
367.019	301.84
367.4	306.14
367.781	297.55
368.163	324.44
368.544	294.61
368.925	310.2
369.306	310.2
369.688	288.28
370.069	310.2
370.45	303.2
370.831	316.53
371.212	332.8
371.593	295.74
371.974	310.88
372.355	312.69
372.736	300.49
373.117	311.56
373.498	296.42
373.879	317.66
374.26	320.15
374.641	308.17
375.021	308.62
375.402	307.94
375.783	306.59
376.163	300.71
376.544	296.87
376.925	330.99
377.305	305.46
377.686	310.2
378.066	312.24
378.447	340.26
378.827	307.04
379.208	316.98
379.588	323.99
379.968	326.02
380.349	330.54
380.729	317.44
381.109	334.61
381.489	319.69
381.87	328.51
382.25	330.77
382.63	337.55
383.01	340.26
383.39	317.66
383.77	348.39
384.15	317.89
384.53	330.54
384.91	325.57
385.29	327.6
385.67	342.75
386.049	353.14
386.429	335.97
386.809	331.22
387.189	341.62
387.568	347.26
387.948	322.63
388.328	340.26
388.707	352.91
389.087	347.26
389.466	357.89
389.846	355.63
390.225	357.66
390.605	346.36
390.984	358.11
391.363	343.88
391.743	372.35
392.122	350.2
392.501	349.07
392.881	349.98
393.26	354.04
393.639	362.63
394.018	357.89
394.397	369.19
394.776	367.15
395.155	349.52
395.534	378
395.913	390.88
396.292	376.87
396.671	383.2
397.05	365.8
397.429	382.07
397.808	376.42
398.186	364.67
398.565	372.35
398.944	377.55
399.323	394.27
399.701	379.35
400.08	376.19
400.458	395.17
400.837	391.56
401.215	359.92
401.594	375.74
401.972	384.55
402.351	390.2
402.729	387.94
403.107	397.66
403.486	394.72
403.864	396.98
404.242	404.66
404.62	407.38
404.999	403.76
405.377	394.72
405.755	429.07
406.133	422.52
406.511	390.2
406.889	411.44
407.267	411.44
407.645	428.62
408.023	429.52
408.401	429.75
408.779	427.94
409.156	462.74
409.534	443.31
409.912	444.66
410.29	457.54
410.667	431.1
411.045	465.91
411.422	454.15
411.8	457.32
412.178	456.41
412.555	454.83
412.933	461.84
413.31	483.53
413.687	465.91
414.065	464.55
414.442	476.98
414.819	482.18
415.197	503.42
415.574	483.31
415.951	492.12
416.328	492.57
416.705	505.9
417.082	550.65
417.46	516.3
417.837	509.75
418.214	539.58
418.591	538.45
418.967	500.71
419.344	531.89
419.721	523.08
420.098	536.86
420.475	548.62
420.852	547.49
421.228	553.14
421.605	549.52
421.982	556.07
422.358	578.45
422.735	559.69
423.111	569.41
423.488	590.65
423.864	583.42
424.241	595.17
424.617	603.3
424.994	590.2
425.37	583.19
425.746	589.52
426.123	600.82
426.499	589.97
426.875	619.57
427.251	608.73
427.627	617.77
428.003	636.75
428.379	636.3
428.756	632.68
429.132	660.25
429.507	659.8
429.883	665.22
430.259	660.25
430.635	700.48
431.011	672.23
431.387	677.2
431.763	692.79
432.138	706.58
432.514	707.26
432.89	686.92
433.265	702.74
433.641	727.37
434.016	724.2
434.392	730.98
434.767	735.73
435.143	721.04
435.518	749.51
435.894	752.23
436.269	775.5
436.644	756.07
437.02	754.71
437.395	758.33
437.77	777.31
438.145	811.21
438.52	804.43
438.895	799
439.271	802.39
439.646	836.29
440.021	828.83
440.395	819.79
440.77	808.72
441.145	813.47
441.52	851.21
441.895	845.78
442.27	836.29
442.645	862.05
443.019	864.31
443.394	860.02
443.769	866.35
444.143	854.82
444.518	862.51
444.892	865.22
445.267	899.11
445.641	890.75
446.016	898.89
446.39	881.71
446.764	885.78
447.139	902.5
447.513	908.61
447.887	883.75
448.262	886.23
448.636	901.37
449.01	920.13
449.384	887.14
449.758	905.89
450.132	921.49
450.506	919
450.88	914.71
451.254	937.76
451.628	922.17
452.002	947.93
452.376	946.8
452.75	934.82
453.123	972.33
453.497	989.73
453.871	997.64
454.244	999.45
454.618	992.22
454.992	986.57
455.365	1002.84
455.739	1008.94
456.112	1043.29
456.486	1028.15
456.859	1043.52
457.232	1061.82
457.606	1048.94
457.979	1067.47
458.352	1071.09
458.725	1079
459.099	1101.6
459.472	1108.6
459.845	1116.28
460.218	1127.36
460.591	1129.39
460.964	1123.06
461.337	1129.84
461.71	1176.4
462.083	1129.84
462.456	1169.62
462.829	1177.98
463.201	1195.15
463.574	1194.25
463.947	1225.66
464.32	1234.02
464.692	1231.08
465.065	1242.16
465.438	1258.2
465.81	1263.62
466.183	1280.35
466.555	1303.62
466.928	1310.4
467.3	1306.34
467.672	1321.02
468.045	1332.55
468.417	1330.97
468.789	1347.24
469.161	1378.88
469.534	1386.79
469.906	1438.08
470.278	1420.01
470.65	1418.2
471.022	1427.01
471.394	1498.87
471.766	1498.87
472.138	1521.47
472.51	1539.32
472.882	1571.64
473.253	1565.76
473.625	1573.9
473.997	1572.32
474.369	1598.31
474.74	1642.15
475.112	1671.07
475.484	1661.58
475.855	1673.33
476.227	1707
476.598	1731.18
476.97	1745.42
477.341	1817.51
477.713	1823.38
478.084	1809.6
478.455	1859.32
478.827	1878.98
479.198	1944.51
479.569	1936.38
479.94	1982.02
480.311	1980.89
480.682	2039.42
481.053	2077.61
481.424	2076.26
481.795	2146.09
482.166	2129.82
482.537	2154
482.908	2226.31
483.279	2241.45
483.65	2240.77
484.021	2298.63
484.391	2315.57
484.762	2336.59
485.133	2363.48
485.503	2388.34
485.874	2448.68
486.244	2466.76
486.615	2492.29
486.985	2512.86
487.356	2535.23
487.726	2554.21
488.097	2637.15
488.467	2645.96
488.837	2711.27
489.207	2720.54
489.578	2723.47
489.948	2768.22
490.318	2782.46
490.688	2793.98
491.058	2850.7
491.428	2893.86
491.798	2905.16
492.168	2965.28
492.538	2962.56
492.908	3043.47
493.278	3051.37
493.648	3038.49
494.017	3096.8
494.387	3113.29
494.757	3127.08
495.126	3165.95
495.496	3130.92
495.866	3170.47
496.235	3178.6
496.605	3276.23
496.974	3308.09
497.344	3319.84
497.713	3333.4
498.082	3326.4
498.452	3345.38
498.821	3367.52
499.19	3363.23
499.559	3406.17
499.928	3447.07
500.298	3423.79
500.667	3451.59
501.036	3487.3
501.405	3483
501.774	3492.72
502.143	3542.44
502.512	3565.49
502.88	3549.67
503.249	3600.74
503.618	3594.41
503.987	3645.03
504.356	3607.97
504.724	3659.72
505.093	3646.61
505.462	3650.23
505.83	3718.02
506.199	3726.61
506.567	3724.8
506.936	3738.81
507.304	3757.34
507.672	3778.14
508.041	3761.64
508.409	3832.6
508.777	3809.32
509.145	3885.02
509.514	3852.48
509.882	3886.83
510.25	3849.77
510.618	3915.53
510.986	3885.48
511.354	3927.51
511.722	3934.74
512.09	3971.8
512.458	3966.83
512.826	3959.37
513.193	3998.24
513.561	3999.15
513.929	4026.49
514.297	4022.87
514.664	4031.01
515.032	4053.16
515.4	4090.22
515.767	4081.63
516.135	4157.79
516.502	4096.77
516.869	4182.87
517.237	4211.8
517.604	4189.2
517.972	4166.37
518.339	4189.65
518.706	4206.15
519.073	4188.29
519.44	4193.72
519.808	4310.1
520.175	4256.99
520.542	4317.1
520.909	4296.54
521.276	4302.42
521.643	4339.93
522.009	4394.16
522.376	4367.05
522.743	4360.72
523.11	4441.39
523.477	4459.02
523.843	4460.83
524.21	4503.99
524.577	4483.2
524.943	4545.35
525.31	4552.35
525.676	4563.2
526.043	4613.37
526.409	4599.13
526.776	4665.34
527.142	4714.16
527.508	4645.23
527.874	4682.29
528.241	4672.8
528.607	4728.84
528.973	4749.64
529.339	4785.57
529.705	4840.71
530.071	4814.72
530.437	4814.27
530.803	4845.9
531.169	4856.07
531.535	4877.32
531.901	4910.76
532.267	4943.75
532.632	4930.2
532.998	5005.9
533.364	4997.31
533.73	5028.95
534.095	5068.04
534.461	5063.07
534.826	5100.81
535.192	5087.71
535.557	5162.28
535.923	5126.8
536.288	5178.32
536.653	5183.97
537.019	5222.39
537.384	5211.32
537.749	5217.19
538.114	5293.35
538.479	5282.73
538.845	5323.86
539.21	5321.6
539.575	5331.99
539.94	5317.08
540.305	5370.64
540.67	5363.86
541.034	5426.45
541.399	5404.76
541.764	5512.78
542.129	5482.05
542.494	5482.5
542.858	5479.11
543.223	5503.74
543.587	5550.74
543.952	5601.82
544.316	5562.04
544.681	5611.99
545.045	5633.91
545.41	5646.79
545.774	5686.79
546.138	5676.62
546.503	5693.79
546.867	5752.55
547.231	5855.37
547.595	5798.2
547.959	5862.83
548.324	5834.58
548.688	5842.71
549.052	5835.26
549.416	5859.89
549.779	5877.06
550.143	5896.27
550.507	5947.34
550.871	6000.45
551.235	5964.97
551.599	5996.61
551.962	6013.56
552.326	6000.68
552.689	6078.19
553.053	6068.02
553.417	6082.26
553.78	6169.48
554.143	6178.07
554.507	6129.94
554.87	6175.36
555.234	6246.32
555.597	6224.4
555.96	6248.8
556.323	6278.63
556.686	6274.79
557.05	6322.02
557.413	6296.71
557.776	6326.09
558.139	6379.42
558.502	6350.27
558.865	6373.55
559.228	6426.88
559.59	6470.27
559.953	6439.08
560.316	6493.32
560.679	6508.91
561.041	6504.39
561.404	6552.75
561.767	6592.3
562.129	6534.22
562.492	6630.49
562.854	6617.16
563.217	6602.24
563.579	6591.39
563.941	6706.42
564.304	6655.35
564.666	6791.39
565.028	6736.93
565.39	6703.93
565.753	6790.03
566.115	6788.45
566.477	6833.42
566.839	6849.01
567.201	6901.89
567.563	6908
567.925	6921.78
568.287	6931.72
568.648	6939.63
569.01	6955.45
569.372	7092.85
569.734	7100.08
570.095	7057.82
570.457	7111.61
570.819	7147.76
571.18	7147.54
571.542	7193.19
571.903	7261.89
572.265	7278.16
572.626	7331.94
572.987	7331.04
573.349	7395.67
573.71	7431.6
574.071	7448.77
574.432	7500.07
574.794	7541.2
575.155	7625.94
575.516	7612.38
575.877	7772.83
576.238	7790.91
576.599	7900.29
576.96	7885.6
577.32	7950.68
577.681	8046.72
578.042	8143.67
578.403	8196.1
578.763	8196.1
579.124	8309.09
579.485	8435.64
579.845	8555.86
580.206	8589.53
580.566	8632.92
580.927	8770.77
581.287	8938.9
581.648	9039.92
582.008	9195.39
582.368	9301.38
582.728	9433.58
583.089	9506.57
583.449	9635.16
583.809	9779.33
584.169	9931.42
584.529	10141.58
584.889	10272.88
585.249	10447.34
585.609	10551.06
585.969	10767.1
586.329	11000.77
586.688	11178.17
587.048	11380.87
587.408	11522.79
587.768	11734.76
588.127	11883.23
588.487	12084.81
588.846	12394.86
589.206	12554.18
589.565	12763.66
589.925	13014.95
590.284	13289.98
590.643	13409.29
591.003	13751.66
591.362	14010.18
591.721	14272.1
592.08	14474.13
592.44	14714.8
592.799	15066.2
593.158	15213.31
593.517	15618.5
593.876	15839.29
594.235	16115.89
594.593	16300.74
594.952	16554.52
595.311	16827.96
595.67	17123.32
596.029	17498.45
596.387	17862.74
596.746	18024.99
597.104	18258.21
597.463	18511.08
597.822	18946.78
598.18	19092.31
598.538	19347.44
598.897	19650.94
599.255	19761.44
599.613	20382.22
599.972	20460.18
600.33	20796.67
600.688	20963.9
601.046	21286.38
601.404	21712.13
601.762	21799.81
602.12	22154.38
602.478	22310.53
602.836	22649.5
603.194	22703.74
603.552	22949.83
603.91	23278.64
604.268	23627.56
604.625	23719.53
604.983	24090.14
605.341	24215.56
605.698	24611.49
606.056	24849.22
606.413	24999.27
606.771	25231.36
607.128	25462.99
607.485	25507.73
607.843	25881.06
608.2	26159.47
608.557	26499.57
608.914	26471.55
609.272	26836.96
609.629	27026.34
609.986	27222.49
610.343	27370.96
610.7	27786.32
611.057	27820.44
611.414	27980.44
611.771	28195.35
612.127	28454.32
612.484	28568.22
612.841	28854.99
613.198	28906.29
613.554	29144.7
613.911	29391.92
614.267	29426.05
614.624	29578.13
614.98	29848.64
615.337	30151
615.693	30146.71
616.05	30246.82
616.406	30569.75
616.762	30616.75
617.118	30687.03
617.475	30833.24
617.831	30921.83
618.187	31118.43
618.543	31323.63
618.899	31559.78
619.255	31594.8
619.611	31791.18
619.967	31907.11
620.323	32129.93
620.678	31975.81
621.034	31971.52
621.39	32243.38
621.746	32187.56
622.101	32694.21
622.457	32609.69
622.812	32662.35
623.168	32881.32
623.523	32906.63
623.879	33004.26
624.234	32888.33
624.589	33131.71
624.945	33249.22
625.3	33369.45
625.655	33308.43
626.01	33392.72
626.365	33487.86
626.72	33424.81
627.075	33571.93
627.43	33684.69
627.785	33675.65
628.14	33794.3
628.495	33860.51
628.85	33715.43
629.205	33824.12
629.559	34101.41
629.914	33838.14
630.269	33924.24
630.623	33991.13
630.978	33881.07
631.332	34129.65
631.687	34185.02
632.041	34255.07
632.396	34124.68
632.75	34190.22
633.104	34146.15
633.459	34160.39
633.813	34133.95
634.167	34200.61
634.521	34215.3
634.875	34371.68
635.229	34258.69
635.583	34159.94
635.937	34299.59
636.291	34235.87
636.645	34276.54
636.999	34155.42
637.352	34180.73
637.706	33998.36
638.06	34295.3
638.413	34196.54
638.767	34182.53
639.121	34272.7
639.474	34082.65
639.828	34160.16
640.181	34080.84
640.534	34227.5
640.888	34132.37
641.241	34103.44
641.594	34125.81
641.947	34288.07
642.301	34135.3
642.654	34043.33
643.007	34215.3
643.36	34062.54
643.713	34115.42
644.066	34331
644.419	34029.32
644.771	33747.29
645.124	33477.92
645.477	33501.65
645.83	33262.56
646.182	33184.14
646.535	33070.92
646.888	33116.35
647.24	33025.05
647.593	33040.64
647.945	33080.42
648.298	32905.5
648.65	32827.77
649.002	32840.2
649.355	33139.4
649.707	32821.44
650.059	33065.05
650.411	33356.11
650.763	33486.05
651.115	33895.54
651.467	33702.77
651.819	33770.34
652.171	33653.96
652.523	33742.09
652.875	33686.5
653.227	33517.01
653.578	33776.89
653.93	33696.22
654.282	33479.73
654.633	33408.54
654.985	33434.08
655.337	33561.08
655.688	33563.57
656.039	33697.35
656.391	33350.92
656.742	33480.86
657.094	33483.12
657.445	33593.62
657.796	33481.31
658.147	33424.36
658.498	33441.54
658.849	33396.34
659.2	33423.68
659.551	33379.39
659.902	33564.47
660.253	33486.05
660.604	33406.73
660.955	33173.29
661.306	33366.74
661.656	33444.25
662.007	33309.56
662.358	33409.22
662.708	33439.5
663.059	33324.25
663.409	33004.71
663.76	33426.17
664.11	33307.08
664.461	33316.57
664.811	33401.99
665.161	33362.22
665.511	33235.67
665.862	33273.63
666.212	33515.21
666.562	33344.59
666.912	33208.32
667.262	33279.73
667.612	33171.49
667.962	33243.35
668.312	33149.57
668.662	33446.51
669.011	33276.34
669.361	33237.93
669.711	33370.13
670.06	33165.16
670.41	33079.06
670.76	33103.92
671.109	33255.55
671.459	33158.15
671.808	33117.7
672.157	33154.76
672.507	33011.72
672.856	32996.58
673.205	33091.94
673.554	33297.58
673.904	33045.16
674.253	33212.16
674.602	33079.06
674.951	32686.08
675.3	32456.93
675.649	32966.52
675.998	33005.62
676.346	33006.29
676.695	33025.95
677.044	32637.49
677.393	32933.75
677.741	32852.4
678.09	32826.41
678.438	32775.56
678.787	32753.87
679.135	32858.73
679.484	32588.68
679.832	32741.22
680.181	32471.39
680.529	32616.02
680.877	32547.77
681.225	32613.54
681.573	32699.86
681.922	32546.42
682.27	32338.74
682.618	32363.6
682.966	32227.33
683.314	32447.44
683.661	32157.28
684.009	32018.3
684.357	32054.45
684.705	32032.31
685.053	32048.58
685.4	31901.46
685.748	31910.95
686.095	31777.17
686.443	31778.08
686.79	31743.95
687.138	31739.43
687.485	31801.58
687.832	31611.3
688.18	31665.31
688.527	31410.63
688.874	31467.8
689.221	31459.67
689.568	31293.57
689.915	31164.76
690.262	31311.65
690.609	31207.24
690.956	31051.99
691.303	30914.6
691.65	30923.18
691.997	30939.45
692.344	30732.45
692.69	30602.06
693.037	30722.96
693.383	30351.45
693.73	30564.78
694.077	30340.37
694.423	30405.23
694.769	30290.88
695.116	30188.06
695.462	30111
695.808	30005.02
696.155	30224.67
696.501	29860.61
696.847	29868.07
697.193	29699.04
697.539	29807.28
697.885	29543.33
698.231	29501.53
698.577	29365.26
698.923	29437.57
699.269	29328.2
699.614	29191.93
699.96	29140.41
700.306	29098.15
700.651	29018.38
700.997	28889.57
701.342	28943.12
701.688	28831.49
702.033	28763.01
702.379	28754.43
702.724	28604.38
703.069	28632.4
703.415	28391.27
703.76	28376.58
704.105	28452.97
704.45	28264.95
704.795	28226.53
705.14	28080.1
705.485	28031.96
705.83	27938.18
706.175	28070.15
706.52	27911.51
706.865	27733.66
707.209	27717.39
707.554	27738.64
707.899	27812.98
708.243	27560.79
708.588	27578.87
708.932	27337.06
709.277	27384.75
709.621	27293.22
709.966	27236.95
710.31	27303.84
710.654	27046
710.998	26997.41
711.342	27034.7
711.687	27072.21
712.031	26816.63
712.375	26786.12
712.719	26794.71
713.063	26743.86
713.407	26841.26
713.75	26628.38
714.094	26717.64
714.438	26536.86
714.782	26544.09
715.125	26393.13
715.469	26460.93
715.812	26233.14
716.156	26150.43
716.499	26163.76
716.843	26289.18
717.186	25967.16
717.53	26198.34
717.873	26219.35
718.216	26103.65
718.559	26102.29
718.902	25873.83
719.246	25888.06
719.589	25860.94
719.932	25698.24
720.275	25797.22
720.617	25697.33
720.96	25638.58
721.303	25512.48
721.646	25651.23
721.989	25474.29
722.331	25491.46
722.674	25415.31
723.016	25428.87
723.359	25336.66
723.701	25332.14
724.044	25162.88
724.386	25177.12
724.729	25201.3
725.071	25089.21
725.413	25193.17
725.755	25108.87
726.097	24920.18
726.439	24791.37
726.782	24910.01
727.124	24934.42
727.465	24827.98
727.807	24727.41
728.149	24758.6
728.491	24737.36
728.833	24707.98
729.175	24590.47
729.516	24576.23
729.858	24584.37
730.199	24610.36
730.541	24473.18
730.882	24606.06
731.224	24421.43
731.565	24485.39
731.906	24389.34
732.248	24410.81
732.589	24251.04
732.93	24146.41
733.271	24160.88
733.612	24274.55
733.953	24211.72
734.294	24145.74
734.635	24103.02
734.976	24230.7
735.317	24086.98
735.658	24159.29
735.999	24145.51
736.339	23938.28
736.68	24024.16
737.021	23974.21
737.361	23787.55
737.702	24026.87
738.042	23790.49
738.383	23851.51
738.723	23803.6
739.063	23689.7
739.404	23811.51
739.744	23727.44
740.084	23560.21
740.424	23549.82
740.764	23526.54
741.104	23643.6
741.444	23435.92
741.784	23416.94
742.124	23424.62
742.464	23450.61
742.804	23426.66
743.143	23323.38
743.483	23350.5
743.823	23214.23
744.162	23167.68
744.502	23275.7
744.841	23115.48
745.181	23236.38
745.52	23074.8
745.86	23179.21
746.199	23167.68
746.538	22975.6
746.877	23055.82
747.216	23057.18
747.556	23021.47
747.895	22948.03
748.234	22830.29
748.573	22865.99
748.911	22712.1
749.25	22877.29
749.589	22713.23
749.928	22677.53
750.267	22773.79
750.605	22766.79
750.944	22584.42
751.283	22507.81
751.621	22582.16
751.96	22475.04
752.298	22512.11
752.636	22490.19
752.975	22319.12
753.313	22238.89
753.651	22419.68
753.989	22166.8
754.327	22192.79
754.666	22062.85
755.004	22138.78
755.342	22151.89
755.679	22130.42
756.017	21818.56
756.355	21996.64
756.693	21822.63
757.031	21826.25
757.368	21714.84
757.706	21638.23
758.044	21693.14
758.381	21712.8
758.719	21505.13
759.056	21571.57
759.394	21526.6
759.731	21415.64
760.068	21437.33
760.405	21357.11
760.743	21211.8
761.08	21249.54
761.417	21112.14
761.754	21113.5
762.091	21002.54
762.428	21037.12
762.765	20802.32
763.102	20916.22
763.438	20760.29
763.775	20672.15
764.112	20666.96
764.449	20619.95
764.785	20696.11
765.122	20327.98
765.458	20376.12
765.795	20326.85
766.131	20335.89
766.467	20203.69
766.804	20148.1
767.14	20038.27
767.476	20081.66
767.812	19919.86
768.148	19932.06
768.485	19940.42
768.821	19836.7
769.157	19672.86
769.492	19704.5
769.828	19697.04
770.164	19493.43
770.5	19446.65
770.836	19525.07
771.171	19407.78
771.507	19273.32
771.842	19085.3
772.178	19260.89
772.513	19091.4
772.849	19182.48
773.184	18889.83
773.519	18996.72
773.855	18938.41
774.19	18708.82
774.525	18719.21
774.86	18772.77
775.195	18702.71
775.53	18580.23
775.865	18472.89
776.2	18332.55
776.535	18231.09
776.87	18196.97
777.205	18102.5
777.539	18062.28
777.874	18176.4
778.209	17932.79
778.543	17902.96
778.878	17839.69
779.212	17808.27
779.547	17751.33
779.881	17735.73
780.215	17558.79
780.55	17658.22
780.884	17488.51
781.218	17467.04
781.552	17378.68
781.886	17277.67
782.22	17283.32
782.554	17205.13
782.888	17063.21
783.222	16950.22
783.556	16954.51
783.889	16892.82
784.223	16815.53
784.557	16788.19
784.89	16772.6
785.224	16680.39
785.557	16590.91
785.891	16481.53
786.224	16465.49
786.558	16455.32
786.891	16304.36
787.224	16264.81
787.557	16199.28
787.891	16230.92
788.224	16204.25
788.557	16190.69
788.89	16019.62
789.223	16054.42
789.556	15826.63
789.888	15824.6
790.221	15817.59
790.554	15663.25
790.887	15755.67
791.219	15719.29
791.552	15631.16
791.884	15518.62
792.217	15458.05
792.549	15495.12
792.882	15249.02
793.214	15284.5
793.546	15343.93
793.879	15215.35
794.211	15130.83
794.543	15190.94
794.875	15012.64
795.207	15152.75
795.539	15090.61
795.871	14999.31
796.203	14863.49
796.535	14864.85
796.867	14739.2
797.198	14848.13
797.53	14696.94
797.862	14579.21
798.193	14671.41
798.525	14572.88
798.856	14550.06
799.188	14348.25
799.519	14326.33
799.85	14251.31
800.182	14369.95
800.513	14319.55
800.844	14153.91
801.175	14271.42
801.506	14232.32
801.837	14050.41
802.168	14016.51
802.499	14032.33
802.83	13910.52
803.161	13895.38
803.491	13893.8
803.822	13922.5
804.153	13764.77
804.483	13734.71
804.814	13631.89
805.145	13658.78
805.475	13626.69
805.805	13667.14
806.136	13649.51
806.466	13490.2
806.796	13494.94
807.126	13476.64
807.457	13313.03
807.787	13434.15
808.117	13311.9
808.447	13276.42
808.777	13266.47
809.107	13244.33
809.436	13164.33
809.766	13245.46
810.096	13130.66
810.426	13096.08
810.755	13112.58
811.085	13063.31
811.414	13038.68
811.744	12918.46
812.073	12919.82
812.403	12914.62
812.732	12805.02
813.061	12894.05
813.39	12713.49
813.719	12687.51
814.049	12764.34
814.378	12702.65
814.707	12654.96
815.036	12593.27
815.365	12577.45
815.693	12515.31
816.022	12556.44
816.351	12485.25
816.68	12399.6
817.008	12401.64
817.337	12257.91
817.665	12344.92
817.994	12311.92
818.322	12268.53
818.651	12196.67
818.979	12162.1
819.307	12297.23
819.636	12108.31
819.964	12118.93
820.292	12127.52
820.62	12172.72
820.948	12151.02
821.276	12161.87
821.604	11997.81
821.932	12041.65
822.259	12014.75
822.587	11946.28
822.915	11970.24
823.243	12113.74
823.57	11986.96
823.898	12066.05
824.225	11966.85
824.553	11966.62
824.88	11987.86
825.207	12001.65
825.535	12008.88
825.862	11968.88
826.189	11940.63
826.516	12039.61
826.843	12040.06
827.17	12038.71
827.497	11978.15
827.824	11965.94
828.151	11975.21
828.478	11994.64
828.805	12012.27
829.131	11987.86
829.458	12007.52
829.785	11928.66
830.111	11974.3
830.438	12018.14
830.764	11912.38
831.09	11966.17
831.417	11873.52
831.743	11961.2
832.069	11967.07
832.395	11901.09
832.722	12013.4
833.048	11841.43
833.374	11909.67
833.7	11865.83
834.026	11847.08
834.351	11910.12
834.677	11977.92
835.003	11931.82
835.329	11864.25
835.654	11896.34
835.98	11799.17
836.306	11829.22
836.631	11717.81
836.956	11811.14
837.282	11791.71
837.607	11773.41
837.932	11683.69
838.258	11700.41
838.583	11670.13
838.908	11570.7
839.233	11672.84
839.558	11550.81
839.883	11572.28
840.208	11496.12
840.533	11532.28
840.858	11498.16
841.182	11458.84
841.507	11502.9
841.832	11467.2
842.156	11463.36
842.481	11364.38
842.805	11364.38
843.13	11329.57
843.454	11343.59
843.778	11332.51
844.103	11146.08
844.427	11168
844.751	11196.47
845.075	11211.84
845.399	11168.45
845.723	11033.54
846.047	11087.55
846.371	10976.82
846.695	11050.49
847.019	10873.99
847.343	10859.76
847.666	10838.06
847.99	10794.22
848.313	10786.76
848.637	10667.67
848.96	10686.43
849.284	10681.23
849.607	10563.95
849.931	10568.01
850.254	10500.9
850.577	10443.5
850.9	10331.64
851.223	10379.32
851.546	10290.05
851.869	10187.23
852.192	10292.31
852.515	10209.38
852.838	10132.32
853.161	10191.75
853.483	10121.25
853.806	10028.37
854.129	10097.97
854.451	10000.12
854.774	9948.14
855.096	9889.16
855.419	9807.81
855.741	9874.92
856.063	9759.9
856.385	9880.57
856.708	9750.86
857.03	9730.3
857.352	9658.43
857.674	9712.44
857.996	9612.33
858.318	9584.76
858.64	9631.99
858.961	9607.13
859.283	9588.6
859.605	9514.03
859.926	9496.4
860.248	9445.78
860.57	9478.1
860.891	9491.21
861.212	9455.73
861.534	9384.99
861.855	9403.3
862.176	9385.45
862.498	9331.89
862.819	9352.45
863.14	9302.28
863.461	9296.41
863.782	9224.77
864.103	9256.41
864.424	9225.22
864.745	9226.35
865.065	9153.14
865.386	9194.26
865.707	9177.99
866.027	9168.73
866.348	9105.9
866.668	9085.34
866.989	9107.94
867.309	9065.91
867.63	9016.87
867.95	9064.32
868.27	8980.03
868.59	9010.77
868.91	8945.46
869.23	9004.21
869.55	8926.93
869.87	8986.59
870.19	8891
870.51	8956.76
870.83	8910.2
871.15	8904.78
871.469	8872.24
871.789	8881.28
872.109	8837.44
872.428	8832.92
872.748	8830.88
873.067	8790.43
873.386	8817.55
873.706	8759.47
874.025	8737.55
874.344	8709.53
874.663	8779.59
874.982	8738.91
875.301	8716.08
875.62	8681.06
875.939	8675.41
876.258	8691.45
876.577	8566.26
876.896	8624.34
877.214	8590.66
877.533	8608.52
877.852	8582.3
878.17	8560.38
878.489	8544.79
878.807	8547.5
879.125	8506.37
879.444	8527.61
879.762	8451.01
880.08	8481.51
880.398	8415.53
880.716	8444.45
881.034	8418.24
881.352	8430.89
881.67	8436.09
881.988	8398.8
882.306	8329.88
882.624	8315.64
882.941	8302.76
883.259	8218.24
883.577	8293.5
883.894	8204.01
884.212	8237.9
884.529	8210.11
884.846	8175.08
885.164	8180.96
885.481	8165.59
885.798	8203.1
886.115	8086.27
886.432	8112.71
886.75	8120.62
887.067	8128.98
887.383	8041.75
887.7	8062.77
888.017	7995.2
888.334	8052.15
888.651	8041.07
888.967	7983
889.284	7895.09
889.6	7910
889.917	7932.15
890.233	7930.12
890.55	7840.18
890.866	7787.07
891.182	7806.5
891.498	7790.68
891.815	7790.46
892.131	7715.43
892.447	7726.05
892.763	7682.89
893.079	7701.2
893.395	7637.24
893.71	7531.71
894.026	7630.69
894.342	7555.44
894.657	7526.96
894.973	7507.98
895.289	7557.24
895.604	7526.51
895.92	7487.64
896.235	7422.79
896.55	7436.57
896.865	7345.95
897.181	7418.27
897.496	7400.19
897.811	7306.86
898.126	7292.62
898.441	7255.11
898.756	7236.12
899.071	7220.3
899.386	7177.59
899.7	7156.35
900.015	7116.35
900.33	7099.18
900.644	7067.09
900.959	7075
901.273	7005.39
901.588	7009.24
901.902	6918.39
902.216	6971.5
902.531	6955.68
902.845	6944.38
903.159	6909.8
903.473	6896.47
903.787	6881.78
904.101	6820.99
904.415	6812.63
904.729	6762.46
905.042	6725.18
905.356	6734.67
905.67	6681.56
905.984	6716.14
906.297	6668.45
906.611	6556.82
906.924	6611.73
907.237	6541.9
907.551	6530.15
907.864	6531.06
908.177	6482.7
908.491	6466.65
908.804	6470.49
909.117	6421.46
909.43	6417.61
909.743	6338.52
910.056	6405.86
910.368	6270.5
910.681	6296.49
910.994	6301.46
911.307	6218.75
911.619	6171.07
911.932	6242.03
912.244	6189.37
912.557	6120.45
912.869	6133.1
913.181	6065.98
913.494	6104.18
913.806	6088.81
914.118	6028.7
914.43	5981.69
914.742	6017.62
915.054	5936.5
915.366	5943.05
915.678	5938.76
915.99	5898.76
916.302	5856.72
916.613	5834.35
916.925	5827.35
917.236	5834.13
917.548	5784.64
917.859	5790.06
918.171	5786.67
918.482	5717.07
918.794	5682.72
919.105	5680.68
919.416	5595.71
919.727	5635.49
920.038	5560.01
920.349	5517.07
920.66	5545.55
920.971	5521.37
921.282	5503.06
921.593	5438.66
921.903	5457.86
922.214	5436.4
922.525	5374.93
922.835	5397.98
923.146	5338.55
923.456	5373.35
923.767	5286.57
924.077	5335.83
924.387	5249.06
924.697	5246.57
925.008	5196.63
925.318	5265.55
925.628	5177.87
925.938	5168.83
926.248	5087.93
926.558	5073.92
926.867	5091.32
927.177	5054.71
927.487	5036.18
927.796	4997.09
928.106	5042.51
928.416	4972.23
928.725	4942.85
929.034	4918.9
929.344	4932.68
929.653	4922.96
929.962	4863.76
930.271	4850.2
930.581	4798.22
930.89	4803.42
931.199	4797.09
931.508	4788.28
931.817	4759.13
932.125	4753.93
932.434	4701.27
932.743	4666.7
933.051	4633.48
933.36	4665.57
933.669	4627.83
933.977	4619.24
934.286	4575.85
934.594	4582.18
934.902	4540.83
935.21	4560.04
935.519	4500.6
935.827	4472.81
936.135	4475.07
936.443	4445.91
936.751	4460.38
937.059	4433.94
937.367	4420.6
937.674	4423.09
937.982	4387.38
938.29	4340.15
938.597	4337.44
938.905	4296.54
939.213	4298.35
939.52	4301.96
939.827	4284.34
940.135	4282.3
940.442	4235.75
940.749	4246.82
941.056	4264.9
941.363	4143.1
941.67	4155.53
941.977	4134.06
942.284	4111.23
942.591	4089.09
942.898	4082.99
943.205	4069.88
943.511	4028.52
943.818	3995.76
944.125	4019.26
944.431	4004.57
944.738	3967.73
945.044	3929.32
945.35	3938.13
945.657	3913.05
945.963	3874.4
946.269	3870.79
946.575	3871.47
946.881	3859.04
947.187	3802.54
947.493	3845.7
947.799	3819.72
948.105	3800.96
948.41	3801.41
948.716	3794.86
949.022	3744.69
949.327	3736.78
949.633	3706.5
949.938	3667.86
950.244	3699.27
950.549	3651.81
950.854	3659.95
951.16	3675.76
951.465	3570.91
951.77	3619.72
952.075	3581.76
952.38	3574.07
952.685	3568.88
952.99	3553.28
953.294	3551.93
953.599	3502.21
953.904	3510.8
954.209	3536.56
954.513	3501.76
954.818	3431.93
955.122	3457.92
955.426	3440.29
955.731	3424.25
956.035	3359.84
956.339	3385.38
956.643	3361.2
956.948	3388.31
957.252	3315.1
957.556	3314.42
957.86	3341.31
958.163	3287.98
958.467	3315.55
958.771	3254.99
959.075	3270.8
959.378	3221.31
959.682	3215.66
959.985	3228.77
960.289	3165.72
960.592	3157.81
960.896	3168.66
961.199	3172.73
961.502	3174.76
961.805	3159.62
962.108	3126.17
962.411	3102.22
962.714	3118.94
963.017	3101.54
963.32	3112.39
963.623	3052.5
963.926	3056.35
964.228	3054.54
964.531	3017.7
964.833	3032.62
965.136	3019.29
965.438	2961.21
965.741	2985.61
966.043	2941.09
966.345	2929.57
966.648	2907.42
966.95	2938.61
967.252	2936.8
967.554	2908.33
967.856	2911.27
968.158	2847.54
968.46	2853.19
968.761	2850.02
969.063	2847.09
969.365	2795.79
969.666	2796.01
969.968	2809.12
970.269	2789.46
970.571	2752.4
970.872	2799.4
971.174	2746.98
971.475	2714.66
971.776	2732.06
972.077	2684.15
972.378	2696.81
972.679	2673.76
972.98	2718.95
973.281	2668.79
973.582	2666.3
973.883	2649.35
974.183	2642.12
974.484	2658.16
974.785	2629.24
975.085	2596.47
975.386	2612.52
975.686	2566.19
975.986	2563.48
976.287	2570.48
976.587	2554.44
976.887	2529.13
977.187	2546.08
977.487	2524.83
977.787	2499.3
978.087	2487.77
978.387	2490.26
978.687	2454.1
978.987	2463.37
979.286	2459.07
979.586	2400.32
979.885	2408.91
980.185	2413.65
980.484	2415.23
980.784	2411.62
981.083	2400.32
981.382	2344.5
981.682	2365.97
981.981	2341.56
982.28	2347.66
982.579	2334.78
982.878	2353.31
983.177	2312.64
983.475	2296.82
983.774	2285.52
984.073	2275.8
984.372	2263.82
984.67	2275.58
984.969	2248.23
985.267	2254.33
985.566	2254.79
985.864	2252.07
986.162	2208.68
986.461	2196.71
986.759	2224.28
987.057	2184.28
987.355	2178.86
987.653	2177.27
987.951	2188.57
988.249	2169.36
988.547	2134.56
988.844	2136.82
989.142	2129.14
989.44	2121.46
989.737	2100.89
990.035	2047.33
990.332	2092.98
990.63	2070.61
990.927	2074
991.224	2055.92
991.521	2067.22
991.819	2028.35
992.116	2024.28
992.413	2041.68
992.71	2022.93
993.006	2016.37
993.303	2022.25
993.6	1989.03
993.897	1988.35
994.193	1963.72
994.49	1972.98
994.787	1997.17
995.083	1913.78
995.379	1927.79
995.676	1938.41
995.972	1923.49
996.268	1894.34
996.565	1911.74
996.861	1885.53
997.157	1880.56
997.453	1834.01
997.749	1865.64
998.044	1853.21
998.34	1861.12
998.636	1830.39
998.932	1820.22
999.227	1823.16
999.523	1833.78
999.818	1782.48
1000.114	1787
1000.409	1793.78
1000.704	1779.54
1001	1759.66
1001.295	1759.21
1001.59	1735.25
1001.885	1719.21
1002.18	1741.8
1002.475	1704.52
1002.77	1715.14
1003.065	1708.81
1003.359	1688.47
1003.654	1729.83
1003.949	1681.24
1004.243	1642.82
1004.538	1643.05
1004.832	1657.74
1005.127	1648.25
1005.421	1651.41
1005.715	1577.29
1006.009	1615.93
1006.304	1607.34
1006.598	1603.5
1006.892	1605.54
1007.186	1564.86
1007.48	1595.14
1007.773	1569.83
1008.067	1556.05
1008.361	1554.46
1008.655	1549.49
1008.948	1553.79
1009.242	1518.08
1009.535	1515.82
1009.829	1505.65
1010.122	1516.05
1010.415	1493.68
1010.708	1461.59
1011.001	1489.16
1011.295	1477.4
1011.588	1463.39
1011.881	1445.09
1012.173	1454.35
1012.466	1404.86
1012.759	1422.49
1013.052	1405.09
1013.344	1406.45
1013.637	1395.6
1013.93	1375.49
1014.222	1379.78
1014.514	1370.97
1014.807	1360.8
1015.099	1376.16
1015.391	1349.05
1015.683	1332.55
1015.976	1357.41
1016.268	1343.85
1016.56	1327.13
1016.851	1313.34
1017.143	1307.69
1017.435	1329.39
1017.727	1311.99
1018.018	1291.65
1018.31	1311.76
1018.602	1285.32
1018.893	1280.12
1019.185	1249.16
1019.476	1238.31
1019.767	1238.09
1020.058	1226.34
1020.35	1234.93
1020.641	1205.77
1020.932	1229.5
1021.223	1219.56
1021.514	1230.63
1021.804	1196.51
1022.095	1193.8
1022.386	1200.12
1022.677	1160.35
1022.967	1163.29
1023.258	1141.82
1023.548	1134.81
1023.839	1138.43
1024.129	1140.24
1024.419	1100.24
1024.709	1147.92
1025	1114.02
1025.29	1100.69
1025.58	1078.09
1025.87	1089.17
1026.16	1086.45
1026.449	1068.6
1026.739	1064.53
1027.029	1091.2
1027.319	1069.28
1027.608	1056.62
1027.898	1027.7
1028.187	1081.48
1028.477	1037.64
1028.766	1037.42
1029.055	996.97
1029.344	1021.6
1029.634	993.35
1029.923	1021.15
1030.212	972.56
1030.501	990.86
1030.79	986.8
1031.078	992.45
1031.367	952.67
1031.656	948.15
1031.945	940.7
1032.233	981.6
1032.522	952.9
1032.81	941.37
1033.099	936.18
1033.387	940.7
1033.675	912.67
1033.963	929.85
1034.251	918.55
1034.54	901.6
1034.828	910.64
1035.116	887.82
1035.403	912.45
1035.691	906.35
1035.979	906.35
1036.267	876.06
1036.554	881.49
1036.842	885.56
1037.129	873.13
1037.417	861.83
1037.704	872
1037.992	842.17
1038.279	833.58
1038.566	838.78
1038.853	838.78
1039.14	838.78
