Data from hue_290_FLMS001491_00019.txt Node
Date: Tue Feb 07 15:52:23 GMT 2017
User: dcchb
Spectrometer: FLMS00149
Trigger mode: 0
Integration Time (sec): 2.000000E-2
Scans to average: 10
Electric dark correction enabled: true
Nonlinearity correction enabled: false
Boxcar width: 0
XAxis mode: Wavelengths
Number of Pixels in Spectrum: 2048
>>>>>Begin Spectral Data<<<<<
341.393	-5.51
341.776	-5.51
342.16	-5.51
342.543	-52.29
342.927	-68.33
343.31	-77.37
343.693	-66.3
344.077	-45.73
344.46	-57.03
344.843	-36.69
345.226	-49.57
345.61	-34.66
345.993	-22.46
346.376	3.3
346.759	-10.25
347.142	17.32
347.525	42.4
347.908	72.68
348.291	69.97
348.674	81.27
349.057	113.13
349.44	141.61
349.823	128.5
350.206	140.02
350.588	176.86
350.971	196.75
351.354	226.8
351.737	219.34
352.119	226.35
352.502	243.07
352.884	268.38
353.267	264.09
353.65	294.82
354.032	276.29
354.414	287.59
354.797	299.12
355.179	304.09
355.562	282.85
355.944	292.11
356.326	332.79
356.709	311.09
357.091	334.37
357.473	333.69
357.855	330.08
358.238	338.21
358.62	336.86
359.002	319.45
359.384	330.3
359.766	346.12
360.148	338.89
360.53	327.36
360.912	321.71
361.294	330.53
361.676	324.2
362.057	326.46
362.439	331.43
362.821	322.17
363.203	316.52
363.584	297.99
363.966	307.03
364.348	325.56
364.729	311.55
365.111	306.57
365.493	289.4
365.874	294.6
366.256	288.27
366.637	316.97
367.019	298.66
367.4	295.73
367.781	296.63
368.163	300.25
368.544	300.02
368.925	312.45
369.306	307.7
369.688	301.6
370.069	301.38
370.45	294.82
370.831	267.93
371.212	297.08
371.593	313.13
371.974	281.94
372.355	312.45
372.736	306.35
373.117	312.22
373.498	300.92
373.879	312.22
374.26	300.7
374.641	293.47
375.021	317.2
375.402	314.03
375.783	312.45
376.163	324.43
376.544	321.94
376.925	306.12
377.305	324.43
377.686	321.04
378.066	314.26
378.447	322.39
378.827	326.46
379.208	322.84
379.588	312.45
379.968	311.55
380.349	304.54
380.729	325.33
381.109	330.3
381.489	358.32
381.87	327.82
382.25	337.99
382.63	332.34
383.01	340.02
383.39	317.2
383.77	322.39
384.15	316.74
384.53	340.7
384.91	318.32
385.29	352
385.67	352.9
386.049	338.44
386.429	337.08
386.809	344.99
387.189	343.86
387.568	339.79
387.948	356.52
388.328	326.69
388.707	351.77
389.087	356.29
389.466	344.99
389.846	365.1
390.225	341.83
390.605	354.26
390.984	360.81
391.363	334.82
391.743	363.3
392.122	358.78
392.501	386.57
392.881	360.13
393.26	361.94
393.639	366.46
394.018	371.43
394.397	382.05
394.776	387.25
395.155	378.89
395.534	355.61
395.913	371.43
396.292	378.44
396.671	371.88
397.05	384.31
397.429	381.15
397.808	386.12
398.186	370.3
398.565	384.09
398.944	382.5
399.323	367.59
399.701	401.03
400.08	383.63
400.458	410.98
400.837	398.77
401.215	416.63
401.594	403.97
401.972	387.02
402.351	405.78
402.729	454.82
403.107	391.77
403.486	409.62
403.864	426.8
404.242	403.52
404.62	429.73
404.999	405.78
405.377	448.04
405.755	422.5
406.133	441.26
406.511	449.17
406.889	459.79
407.267	451.43
407.645	446.91
408.023	477.42
408.401	461.15
408.779	466.8
409.156	477.64
409.534	467.7
409.912	476.06
410.29	510.18
410.667	493.91
411.045	501.37
411.422	497.3
411.8	508.6
412.178	522.39
412.555	526.46
412.933	551.99
413.31	539.79
413.687	553.35
414.065	554.02
414.442	580.01
414.819	590.41
415.197	567.81
415.574	580.92
415.951	589.73
416.328	610.07
416.705	622.95
417.082	611.42
417.46	642.84
417.837	611.65
418.214	613.01
418.591	613.23
418.967	645.77
419.344	635.83
419.721	671.76
420.098	655.49
420.475	667.24
420.852	678.54
421.228	684.64
421.605	683.97
421.982	712.44
422.358	709.73
422.735	700.91
423.111	735.26
423.488	739.1
423.864	755.15
424.241	743.62
424.617	741.36
424.994	783.17
425.37	765.54
425.746	803.74
426.123	780.46
426.499	791.98
426.875	832.66
427.251	820.01
427.627	841.25
428.003	848.48
428.379	867.46
428.756	840.8
429.132	855.49
429.507	884.64
429.883	878.99
430.259	899.33
430.635	904.98
431.011	888.71
431.387	924.86
431.763	938.65
432.138	952.21
432.514	968.25
432.89	982.94
433.265	1001.02
433.641	1008.02
434.016	1011.41
434.392	1029.49
434.767	1032.88
435.143	1019.1
435.518	1061.36
435.894	1100.9
436.269	1094.12
436.644	1113.11
437.02	1129.83
437.395	1125.99
437.77	1120.79
438.145	1160.79
438.52	1151.07
438.895	1161.92
439.271	1158.08
439.646	1224.52
440.021	1238.07
440.395	1202.37
440.77	1205.76
441.145	1212.99
441.52	1226.55
441.895	1229.26
442.27	1236.49
442.645	1244.63
443.019	1241.46
443.394	1269.94
443.769	1284.63
444.143	1273.33
444.518	1295.25
444.892	1295.47
445.267	1274.91
445.641	1295.47
446.016	1310.62
446.39	1327.56
446.764	1299.99
447.139	1295.25
447.513	1333.21
447.887	1346.09
448.262	1324.85
448.636	1363.04
449.01	1375.47
449.384	1361.46
449.758	1357.39
450.132	1386.55
450.506	1372.08
450.88	1393.78
451.254	1389.26
451.628	1416.83
452.002	1407.11
452.376	1428.8
452.75	1437.62
453.123	1462.48
453.497	1440.1
453.871	1465.41
454.244	1487.11
454.618	1525.98
454.992	1541.12
455.365	1525.3
455.739	1549.93
456.112	1546.54
456.486	1545.86
456.859	1536.15
457.232	1610.27
457.606	1596.71
457.979	1590.61
458.352	1623.6
458.725	1631.74
459.099	1609.14
459.472	1655.46
459.845	1683.49
460.218	1683.71
460.591	1663.37
460.964	1689.81
461.337	1727.1
461.71	1733.2
462.083	1754.67
462.456	1764.16
462.829	1765.74
463.201	1781.79
463.574	1764.61
463.947	1786.08
464.32	1813.65
464.692	1798.06
465.065	1852.3
465.438	1873.76
465.81	1850.49
466.183	1903.82
466.555	1916.48
466.928	1931.84
467.3	1912.18
467.672	1938.17
468.045	1961.22
468.417	1966.87
468.789	1979.75
469.161	1981.78
469.534	2041.9
469.906	2086.87
470.278	2078.28
470.65	2091.61
471.022	2123.25
471.394	2176.58
471.766	2199.63
472.138	2212.29
472.51	2210.7
472.882	2218.61
473.253	2267.65
473.625	2285.05
473.997	2283.7
474.369	2355.11
474.74	2336.8
475.112	2314.88
475.484	2356.24
475.855	2401.21
476.227	2420.19
476.598	2473.52
476.97	2489.34
477.341	2532.5
477.713	2555.33
478.084	2542.22
478.455	2675.78
478.827	2616.8
479.198	2679.39
479.569	2669
479.94	2781.76
480.311	2769.11
480.682	2785.15
481.053	2845.94
481.424	2898.14
481.795	2898.14
482.166	2925.04
482.537	2925.26
482.908	3001.19
483.279	3001.42
483.65	3056.78
484.021	3083
484.391	3073.28
484.762	3102.43
485.133	3172.26
485.503	3170.23
485.874	3239.6
486.244	3206.61
486.615	3297
486.985	3333.16
487.356	3354.63
487.726	3358.47
488.097	3408.19
488.467	3435.53
488.837	3487.73
489.207	3465.59
489.578	3548.97
489.948	3570.44
490.318	3621.06
490.688	3617.9
491.058	3669.42
491.428	3707.84
491.798	3706.03
492.168	3732.7
492.538	3776.54
492.908	3795.97
493.278	3814.28
493.648	3859.93
494.017	3901.96
494.387	3902.19
494.757	3940.38
495.126	4021.5
495.496	3948.06
495.866	3980.83
496.235	4012.47
496.605	4052.69
496.974	4093.37
497.344	4092.01
497.713	4067.6
498.082	4150.77
498.452	4172.91
498.821	4152.8
499.19	4185.12
499.559	4164.78
499.928	4207.71
500.298	4190.99
500.667	4263.31
501.036	4251.55
501.405	4249.97
501.774	4249.52
502.143	4317.77
502.512	4341.72
502.88	4328.84
503.249	4332.68
503.618	4380.14
503.987	4366.58
504.356	4374.04
504.724	4411.32
505.093	4447.26
505.462	4424.21
505.83	4474.83
506.199	4487.03
506.567	4483.41
506.936	4499.91
507.304	4511.44
507.672	4559.34
508.041	4553.24
508.409	4553.02
508.777	4613.58
509.145	4553.92
509.514	4635.05
509.882	4650.41
510.25	4658.1
510.618	4677.76
510.986	4662.17
511.354	4692.22
511.722	4762.28
512.09	4780.58
512.458	4715.5
512.826	4759.56
513.193	4767.93
513.561	4779
513.929	4808.15
514.297	4833.23
514.664	4783.07
515.032	4844.76
515.4	4881.59
515.767	4843.18
516.135	4909.16
516.502	4927.7
516.869	4913.23
517.237	4946.9
517.604	4929.73
517.972	4967.24
518.339	4963.63
518.706	4964.08
519.073	4953.46
519.44	4993.91
519.808	5042.49
520.175	5004.08
520.542	5087.47
520.909	5080.01
521.276	5067.35
521.643	5066.22
522.009	5122.72
522.376	5129.95
522.743	5146.45
523.11	5180.8
523.477	5163.17
523.843	5188.48
524.21	5256.5
524.577	5263.96
524.943	5272.09
525.31	5306.67
525.676	5395.25
526.043	5387.57
526.409	5344.41
526.776	5397.74
527.142	5455.82
527.508	5464.63
527.874	5451.75
528.241	5523.39
528.607	5537.85
528.973	5508.92
529.339	5528.81
529.705	5611.52
530.071	5583.27
530.437	5627.56
530.803	5641.57
531.169	5664.17
531.535	5641.57
531.901	5684.29
532.267	5685.42
532.632	5713.66
532.998	5776.49
533.364	5767.9
533.73	5772.19
534.095	5771.29
534.461	5825.07
534.826	5858.52
535.192	5858.74
535.557	5899.42
535.923	5914.11
536.288	5935.35
536.653	5940.55
537.019	5909.59
537.384	5916.14
537.749	5948.69
538.114	5949.36
538.479	5990.49
538.845	6042.92
539.21	6028.23
539.575	6030.04
539.94	6096.7
540.305	6142.58
540.67	6083.15
541.034	6066.65
541.399	6108
541.764	6132.41
542.129	6224.16
542.494	6163.14
542.858	6190.03
543.223	6195.68
543.587	6261.67
543.952	6221.22
544.316	6278.39
544.681	6284.95
545.045	6277.72
545.41	6299.64
545.774	6348.22
546.138	6320.2
546.503	6326.75
546.867	6373.31
547.231	6389.58
547.595	6387.77
547.959	6430.03
548.324	6407.43
548.688	6421.22
549.052	6487.65
549.416	6432.97
549.779	6427.32
550.143	6499.41
550.507	6482
550.871	6524.72
551.235	6571.04
551.599	6599.52
551.962	6510.03
552.326	6591.83
552.689	6576.69
553.053	6565.62
553.417	6540.76
553.78	6707.08
554.143	6599.97
554.507	6669.12
554.87	6656.69
555.234	6762.45
555.597	6635.67
555.96	6714.54
556.323	6652.17
556.686	6776.69
557.05	6772.84
557.413	6763.81
557.776	6784.6
558.139	6828.21
558.502	6879.51
558.865	6822.56
559.228	6904.82
559.59	6908.21
559.953	6889.9
560.316	6945.27
560.679	6938.26
561.041	7011.26
561.404	6989.11
561.767	7054.42
562.129	7008.54
562.492	7093.51
562.854	7063.91
563.217	7073.85
563.579	7098.49
563.941	7134.19
564.304	7096.23
564.666	7151.82
565.028	7158.15
565.39	7168.09
565.753	7229.78
566.115	7252.38
566.477	7203.79
566.839	7316.33
567.201	7307.52
567.563	7360.85
567.925	7362.89
568.287	7368.99
568.648	7428.19
569.01	7401.08
569.372	7535.08
569.734	7502.99
570.095	7495.76
570.457	7532.37
570.819	7513.84
571.18	7622.54
571.542	7627.29
571.903	7639.71
572.265	7706.61
572.626	7726.27
572.987	7750.67
573.349	7716.77
573.71	7827.73
574.071	7872.93
574.432	7908.86
574.794	7986.37
575.155	7962.64
575.516	7966.03
575.877	8006.94
576.238	8090.1
576.599	8083.32
576.96	8230.89
577.32	8209.64
577.681	8328.06
578.042	8303.65
578.403	8406.47
578.763	8361.28
579.124	8493.93
579.485	8498.22
579.845	8620.48
580.206	8761.27
580.566	8719.23
580.927	8740.7
581.287	8862.28
581.648	8981.6
582.008	9010.53
582.368	9051.43
582.728	9183.4
583.089	9236.51
583.449	9336.84
583.809	9410.06
584.169	9528.25
584.529	9651.41
584.889	9746.78
585.249	9768.02
585.609	9910.84
585.969	10010.05
586.329	10136.82
586.688	10271.51
587.048	10339.08
587.408	10429.47
587.768	10571.61
588.127	10640.31
588.487	10778.84
588.846	10940.19
589.206	11048.44
589.565	11157.81
589.925	11322.56
590.284	11330.01
590.643	11579.05
591.003	11782.66
591.362	11893.16
591.721	12000.73
592.08	12102.42
592.44	12225.58
592.799	12432.13
593.158	12460.38
593.517	12616.98
593.876	12749.18
594.235	12866.02
594.593	13040.93
594.952	13255.16
595.311	13273.92
595.67	13534.93
596.029	13674.36
596.387	13786.67
596.746	13894.47
597.104	14057.4
597.463	14155.7
597.822	14302.36
598.18	14374.23
598.538	14541.45
598.897	14706.87
599.255	14709.58
599.613	14957.26
599.972	15028.9
600.33	15148.67
600.688	15211.94
601.046	15378.04
601.404	15509.56
601.762	15698.26
602.12	15831.14
602.478	15985.48
602.836	15914.3
603.194	16048.98
603.552	16169.89
603.91	16167.4
604.268	16317.45
604.625	16440.84
604.983	16571.91
605.341	16558.35
605.698	16740.49
606.056	16896.19
606.413	16869.75
606.771	16987.94
607.128	17141.16
607.485	17091.9
607.843	17243.98
608.2	17237.2
608.557	17535.5
608.914	17466.8
609.272	17699.56
609.629	17775.72
609.986	17970.29
610.343	17945.21
610.7	18097.52
611.057	18092.09
611.414	18146.78
611.771	18212.77
612.127	18427.91
612.484	18377.51
612.841	18402.6
613.198	18443.72
613.554	18523.27
613.911	18711.51
614.267	18782.25
614.624	18826.76
614.98	18841
615.337	18933.88
615.693	18963.71
616.05	18985.4
616.406	19057.72
616.762	19085.97
617.118	19125.74
617.475	19206.42
617.831	19273.08
618.187	19345.62
618.543	19447.09
618.899	19427.88
619.255	19457.03
619.611	19522.11
619.967	19527.54
620.323	19609.57
620.678	19636.01
621.034	19565.5
621.39	19734.31
621.746	19695.44
622.101	19952.84
622.457	19868.55
622.812	19816.12
623.168	19932.72
623.523	19924.36
623.879	19986.51
624.234	19975.44
624.589	20063.34
624.945	20082.78
625.3	20050.46
625.655	20151.7
626.01	20148.76
626.365	20063.34
626.72	20200.29
627.075	20171.81
627.43	20138.14
627.785	20136.11
628.14	20192.6
628.495	20243.9
628.85	20224.47
629.205	20181.53
629.559	20226.5
629.914	20258.37
630.269	20229.89
630.623	20274.18
630.978	20175.88
631.332	20231.47
631.687	20339.72
632.041	20195.77
632.396	20291.13
632.75	20243.9
633.104	20234.86
633.459	20146.05
633.813	20218.14
634.167	20133.4
634.521	20169.55
634.875	20305.37
635.229	20260.4
635.583	20122.32
635.937	20183.34
636.291	20097.92
636.645	20127.97
636.999	20101.76
637.352	20159.16
637.706	20057.69
638.06	20112.83
638.413	20028.54
638.767	20010.91
639.121	20047.52
639.474	19975.44
639.828	19961.88
640.181	20000.29
640.534	19972.72
640.888	19954.87
641.241	19868.77
641.594	19933.85
641.947	19928.66
642.301	19891.82
642.654	19909
643.007	19988.99
643.36	19956.23
643.713	20071.7
644.066	20123.91
644.419	19855.44
644.771	19890.24
645.124	19676.01
645.477	19607.31
645.83	19446.41
646.182	19460.19
646.535	19399.86
646.888	19443.7
647.24	19307.2
647.593	19455.9
647.945	19426.52
648.298	19265.4
648.65	19210.03
649.002	19156.47
649.355	19411.38
649.707	19259.52
650.059	19404.15
650.411	19746.29
650.763	19739.74
651.115	19817.47
651.467	19784.25
651.819	19723.01
652.171	19773.86
652.523	19726.63
652.875	19648.21
653.227	19601.21
653.578	19828.09
653.93	19710.36
654.282	19717.36
654.633	19585.39
654.985	19703.58
655.337	19771.15
655.688	19773.86
656.039	19794.87
656.391	19651.38
656.742	19721.66
657.094	19671.26
657.445	19783.12
657.796	19772.5
658.147	19727.76
658.498	19675.56
658.849	19676.46
659.2	19695.22
659.551	19803.69
659.902	19807.98
660.253	19779.06
660.604	19774.08
660.955	19676.69
661.306	19796.68
661.656	19777.7
662.007	19829
662.358	19831.71
662.708	19786.06
663.059	19819.51
663.409	19697.93
663.76	19808.21
664.11	19795.55
664.461	19844.14
664.811	19931.37
665.161	19840.07
665.511	19781.32
665.862	19810.02
666.212	19857.02
666.562	19821.99
666.912	19852.05
667.262	19903.35
667.612	19804.14
667.962	19840.98
668.312	19756.91
668.662	19908.32
669.011	19941.09
669.361	19852.95
669.711	19749.45
670.06	19774.08
670.41	19737.48
670.76	19736.8
671.109	19763.92
671.459	19791.49
671.808	19754.42
672.157	19680.98
672.507	19666.52
672.856	19587.87
673.205	19669.91
673.554	19718.04
673.904	19632.17
674.253	19740.41
674.602	19654.54
674.951	19368.22
675.3	19359.63
675.649	19549.01
675.998	19591.26
676.346	19670.58
676.695	19616.8
677.044	19478.95
677.393	19651.15
677.741	19590.59
678.09	19541.32
678.438	19407.31
678.787	19578.84
679.135	19397.6
679.484	19338.62
679.832	19301.33
680.181	19216.81
680.529	19328.9
680.877	19252.97
681.225	19288
681.573	19420.42
681.922	19212.52
682.27	19139.98
682.618	19139.75
682.966	19169.81
683.314	19118.73
683.661	19058.17
684.009	19010.94
684.357	18996.48
684.705	18944.73
685.053	18944.95
685.4	18893.43
685.748	18830.61
686.095	18853.88
686.443	18737.5
686.79	18739.76
687.138	18765.98
687.485	18652.08
687.832	18607.34
688.18	18756.26
688.527	18583.83
688.874	18472.88
689.221	18572.76
689.568	18370.28
689.915	18341.81
690.262	18322.6
690.609	18311.52
690.956	18258.87
691.303	18221.13
691.65	18049.84
691.997	18183.62
692.344	18057.29
692.69	18015.26
693.037	17993.57
693.383	17818.43
693.73	17902.95
694.077	17775.72
694.423	17771.2
694.769	17695.5
695.116	17620.69
695.462	17706.12
695.808	17544.54
696.155	17642.84
696.501	17433.81
696.847	17429.06
697.193	17320.36
697.539	17391.1
697.885	17190.65
698.231	17170.99
698.577	17150.88
698.923	17149.97
699.269	17042.18
699.614	16942.52
699.96	16897.32
700.306	16869.75
700.651	16698.91
700.997	16699.36
701.342	16663.21
701.688	16609.2
702.033	16571.46
702.379	16632.25
702.724	16579.37
703.069	16501.63
703.415	16305.48
703.76	16340.73
704.105	16312.93
704.45	16154.74
704.795	16084.24
705.14	15995.2
705.485	16049.89
705.83	15971.25
706.175	15991.13
706.52	16026.61
706.865	15844.47
707.209	15835.88
707.554	15716.56
707.899	15799.95
708.243	15618.04
708.588	15747.3
708.932	15545.27
709.277	15648.09
709.621	15647.87
709.966	15539.62
710.31	15567.87
710.654	15400.41
710.998	15430.47
711.342	15404.71
711.687	15347.53
712.031	15240.87
712.375	15181.66
712.719	15223.92
713.063	15107.77
713.407	15230.25
713.75	15108.22
714.094	15090.37
714.438	14990.03
714.782	15006.3
715.125	14909.81
715.469	14952.52
715.812	14891.73
716.156	14851.5
716.499	14835.01
716.843	14803.82
717.186	14702.81
717.53	14765.4
717.873	14827.32
718.216	14792.97
718.559	14751.39
718.902	14602.02
719.246	14687.44
719.589	14628.01
719.932	14535.35
720.275	14584.62
720.617	14450.38
720.96	14531.74
721.303	14623.26
721.646	14406.99
721.989	14418.75
722.331	14513.21
722.674	14413.32
723.016	14499.42
723.359	14485.18
723.701	14459.2
724.044	14403.6
724.386	14311.63
724.729	14413.55
725.071	14335.36
725.413	14361.57
725.755	14374.45
726.097	14328.13
726.439	14191.86
726.782	14234.8
727.124	14243.16
727.465	14277.73
727.807	14284.06
728.149	14159.99
728.491	14187.56
728.833	14239.77
729.175	14124.74
729.516	14123.84
729.858	14160.22
730.199	14219.65
730.541	14047.23
730.882	14089.94
731.224	14119.09
731.565	14047.91
731.906	14112.99
732.248	14081.35
732.589	14061.01
732.93	14052.2
733.271	14124.97
733.612	14167.68
733.953	14111.41
734.294	14023.5
734.635	14034.35
734.976	14082.26
735.317	14019.43
735.658	13985.54
735.999	13992.09
736.339	13976.04
736.68	14017.63
737.021	13968.81
737.361	13962.49
737.702	14027.57
738.042	13968.14
738.383	13922.49
738.723	14037.74
739.063	14037.29
739.404	14009.49
739.744	13995.25
740.084	13976.04
740.424	14026.89
740.764	13933.33
741.104	14096.27
741.444	13999.55
741.784	13992.54
742.124	14019.43
742.464	14094.23
742.804	14070.51
743.143	14040.68
743.483	14057.17
743.823	14025.76
744.162	14097.62
744.502	14143.95
744.841	14169.49
745.181	14172.2
745.52	14126.78
745.86	14276.83
746.199	14303.95
746.538	14254.46
746.877	14415.13
747.216	14439.31
747.556	14457.16
747.895	14474.79
748.234	14439.76
748.573	14583.94
748.911	14535.8
749.25	14631.85
749.589	14745.74
749.928	14723.82
750.267	14906.42
750.605	14845.17
750.944	14953.19
751.283	15010.59
751.621	15137.14
751.96	15096.02
752.298	15212.62
752.636	15364.93
752.975	15340.08
753.313	15376.91
753.651	15539.17
753.989	15663.46
754.327	15702.1
754.666	15691.03
755.004	15879.05
755.342	15932.6
755.679	16061.41
756.017	16023.67
756.355	16224.12
756.693	16382.31
757.031	16420.73
757.368	16481.29
757.706	16543.44
758.044	16587.95
758.381	16767.16
758.719	16923.09
759.056	17059.35
759.394	17085.57
759.731	17092.8
760.068	17133.93
760.405	17274.49
760.743	17369.18
761.08	17550.41
761.417	17543.18
761.754	17694.14
762.091	17739.11
762.428	17930.74
762.765	17852.55
763.102	18086.9
763.438	18070.4
763.775	18081.7
764.112	18300.9
764.449	18313.33
764.785	18471.75
765.122	18398.3
765.458	18558.98
765.795	18533.89
766.131	18584.29
766.467	18633.55
766.804	18665.41
767.14	18596.26
767.476	18776.37
767.812	18800.32
768.148	18864.28
768.485	18836.71
768.821	18820.89
769.157	18944.5
769.492	18958.74
769.828	18963.71
770.164	18979.08
770.5	18953.32
770.836	18961.68
771.171	18936.82
771.507	19099.75
771.842	18879.19
772.178	19015.46
772.513	19013.43
772.849	19008
773.184	18987.66
773.519	19139.52
773.855	18968
774.19	18986.08
774.525	19066.76
774.86	18981.11
775.195	18989.92
775.53	18995.57
775.865	18942.92
776.2	18735.92
776.535	18685.75
776.87	18881.68
777.205	18758.74
777.539	18818.63
777.874	18767.33
778.209	18632.87
778.543	18528.47
778.878	18587.9
779.212	18610.73
779.547	18561.24
779.881	18649.82
780.215	18489.82
780.55	18546.55
780.884	18431.97
781.218	18292.54
781.552	18375.7
781.886	18332.99
782.22	18283.73
782.554	18289.83
782.888	18070.17
783.222	18197.63
783.556	18023.4
783.889	18007.8
784.223	17955.83
784.557	17970.74
784.89	17981.36
785.224	17864.3
785.557	17782.72
785.891	17807.81
786.224	17632.9
786.558	17696.63
786.891	17626.8
787.224	17627.02
787.557	17567.14
787.891	17541.37
788.224	17471.09
788.557	17521.94
788.89	17414.15
789.223	17367.59
789.556	17328.95
789.888	17293.92
790.221	17130.54
790.554	17055.96
790.887	17130.54
791.219	17015.97
791.552	17006.02
791.884	16910.88
792.217	16924.44
792.549	16878.79
792.882	16793.6
793.214	16614.62
793.546	16718.57
793.879	16705.24
794.211	16431.35
794.543	16633.6
794.875	16439.03
795.207	16672.02
795.539	16310.45
795.871	16421.18
796.203	16302.99
796.535	16250.79
796.867	16210.56
797.198	16179.83
797.53	16095.54
797.862	15972.38
798.193	16105.93
798.525	15914.3
798.856	15997.91
799.188	15848.54
799.519	15800.86
799.85	15732.61
800.182	15739.39
800.513	15728.99
800.844	15520.64
801.175	15738.03
801.506	15546.85
801.837	15485.61
802.168	15488.32
802.499	15444.71
802.83	15337.37
803.161	15354.31
803.491	15300.08
803.822	15281.77
804.153	15166.52
804.483	15094.43
804.814	15092.17
805.145	15050.37
805.475	15027.54
805.805	14970.82
806.136	14949.35
806.466	15026.64
806.796	15021.44
807.126	14760.21
807.457	14768.57
807.787	14780.09
808.117	14687.89
808.447	14654.9
808.777	14721.79
809.107	14695.8
809.436	14489.25
809.766	14621
810.096	14461
810.426	14422.36
810.755	14435.24
811.085	14502.58
811.414	14410.16
811.744	14323.61
812.073	14286.32
812.403	14272.08
812.732	14209.26
813.061	14228.92
813.39	14120
813.719	14130.17
814.049	14191.18
814.378	14179.66
814.707	14050.17
815.036	14041.13
815.365	13973.79
815.693	13880.91
816.022	13934.46
816.351	13862.38
816.68	13816.73
817.008	13822.83
817.337	13700.57
817.665	13704.41
817.994	13703.51
818.322	13692.21
818.651	13595.49
818.979	13638.43
819.307	13581.25
819.636	13612.44
819.964	13544.87
820.292	13531.76
820.62	13520.24
820.948	13504.64
821.276	13566.34
821.604	13404.76
821.932	13445.44
822.259	13500.13
822.587	13462.84
822.915	13418.55
823.243	13526.79
823.57	13345.78
823.898	13401.6
824.225	13349.62
824.553	13359.56
824.88	13395.5
825.207	13419.68
825.535	13414.48
825.862	13404.31
826.189	13378.55
826.516	13466
826.843	13443.86
827.17	13404.76
827.497	13484.08
827.824	13447.7
828.151	13451.76
828.478	13409.05
828.805	13467.81
829.131	13380.35
829.458	13389.62
829.785	13370.64
830.111	13353.91
830.438	13398.88
830.764	13406.57
831.09	13403.63
831.417	13341.03
831.743	13395.95
832.069	13328.15
832.395	13298.1
832.722	13383.74
833.048	13283.86
833.374	13360.92
833.7	13275.05
834.026	13233.24
834.351	13355.04
834.677	13269.62
835.003	13318.66
835.329	13295.38
835.654	13211.32
835.98	13185.33
836.306	13191.43
836.631	13167.03
836.956	13225.78
837.282	13171.77
837.607	13094.03
837.932	13171.77
838.258	13122.73
838.583	13140.81
838.908	13058.33
839.233	13026.92
839.558	13049.06
839.883	12898.56
840.208	12881.38
840.533	12884.55
840.858	12886.58
841.182	12940.14
841.507	12829.86
841.832	12883.64
842.156	12756.19
842.481	12769.75
842.805	12766.59
843.13	12780.14
843.454	12678
843.778	12677.55
844.103	12635.74
844.427	12650.2
844.751	12534.5
845.075	12524.11
845.399	12490.66
845.723	12427.39
846.047	12415.41
846.371	12333.15
846.695	12317.33
847.019	12209.54
847.343	12203.89
847.666	12169.09
847.99	12111.01
848.313	12075.98
848.637	12013.16
848.96	11938.36
849.284	11907.85
849.607	11897.91
849.931	11797.12
850.254	11743.79
850.577	11724.8
850.9	11573.85
851.223	11613.85
851.546	11625.6
851.869	11537.46
852.192	11532.72
852.515	11419.73
852.838	11397.58
853.161	11411.37
853.483	11364.81
853.806	11318.26
854.129	11236.46
854.451	11164.82
854.774	11173.86
855.096	11137.7
855.419	11110.58
855.741	11106.52
856.063	11026.97
856.385	10984.49
856.708	10973.19
857.03	10970.25
857.352	10947.42
857.674	10923.92
857.996	10764.83
858.318	10731.61
858.64	10772.29
858.961	10787.65
859.283	10691.84
859.605	10653.87
859.926	10660.2
860.248	10677.37
860.57	10585.63
860.891	10612.74
861.212	10458.85
861.534	10546.76
861.855	10493.88
862.176	10508.79
862.498	10590.82
862.819	10527.55
863.14	10446.65
863.461	10386.53
863.782	10329.59
864.103	10424.73
864.424	10330.49
864.745	10356.25
865.065	10292.75
865.386	10266.54
865.707	10241.68
866.027	10276.48
866.348	10187.22
866.668	10231.96
866.989	10180.89
867.309	10175.92
867.63	10163.72
867.95	10091.85
868.27	10092.08
868.59	10096.37
868.91	10097.73
869.23	10068.58
869.55	10006.21
869.87	10046.88
870.19	10097.95
870.51	9973.89
870.83	10068.35
871.15	9956.04
871.469	9951.29
871.789	9892.54
872.109	9926.43
872.428	9853.44
872.748	9859.32
873.067	9895.7
873.386	9865.19
873.706	9836.27
874.025	9807.34
874.344	9786.32
874.663	9887.11
874.982	9762.37
875.301	9771.64
875.62	9654.8
875.939	9728.92
876.258	9706.33
876.577	9716.95
876.896	9754.46
877.214	9662.03
877.533	9623.39
877.852	9632.88
878.17	9683.28
878.489	9596.95
878.807	9633.11
879.125	9599.89
879.444	9583.62
879.762	9558.31
880.08	9575.26
880.398	9429.27
880.716	9527.8
881.034	9507.69
881.352	9425.43
881.67	9401.93
881.988	9384.3
882.306	9431.76
882.624	9393.57
882.941	9283.74
883.259	9283.51
883.577	9309.73
883.894	9241.48
884.212	9347.92
884.529	9291.87
884.846	9232.21
885.164	9204.19
885.481	9150.64
885.798	9135.27
886.115	9101.82
886.432	9068.83
886.75	9092.78
887.067	9142.5
887.383	9069.28
887.7	9045.33
888.017	8993.35
888.334	8912.45
888.651	8991.54
888.967	8945.67
889.284	8871.55
889.6	8907.03
889.917	8822.96
890.233	8819.57
890.55	8770.98
890.866	8780.48
891.182	8760.14
891.498	8673.36
891.815	8707.71
892.131	8717.43
892.447	8667.48
892.763	8595.17
893.079	8568.05
893.395	8558.33
893.71	8555.17
894.026	8477.43
894.342	8477.88
894.657	8402.41
894.973	8453.93
895.289	8426.36
895.604	8347.72
895.92	8293.26
896.235	8227.72
896.55	8315.63
896.865	8245.35
897.181	8268.17
897.496	8253.71
897.811	8197.67
898.126	8173.94
898.441	8121.28
898.756	8112.7
899.071	8042.87
899.386	8011.91
899.7	8016.88
900.015	7961.97
900.33	7954.73
900.644	7883.78
900.959	7897.33
901.273	7893.04
901.588	7898.46
901.902	7812.14
902.216	7811.69
902.531	7760.16
902.845	7737.79
903.159	7722.88
903.473	7700.96
903.787	7667.96
904.101	7592.71
904.415	7624.57
904.729	7545.25
905.042	7508.19
905.356	7530.56
905.67	7460.51
905.984	7499.38
906.297	7449.21
906.611	7366.95
906.924	7384.13
907.237	7364.02
907.551	7350
907.864	7266.16
908.177	7246.05
908.491	7217.13
908.804	7182.78
909.117	7196.56
909.43	7123.34
909.743	7058.03
910.056	7060.75
910.368	7009.9
910.681	7053.52
910.994	7013.06
911.307	6964.25
911.619	6862.79
911.932	6897.81
912.244	6842.22
912.557	6839.74
912.869	6790.47
913.181	6796.57
913.494	6792.51
913.806	6669.12
914.118	6714.09
914.43	6664.37
914.742	6658.27
915.054	6642
915.366	6607.2
915.678	6589.35
915.99	6539.63
916.302	6465.51
916.613	6498.73
916.925	6489.91
917.236	6423.25
917.548	6369.47
917.859	6384.61
918.171	6352.29
918.482	6300.77
918.794	6252.41
919.105	6272.74
919.416	6230.26
919.727	6205.18
920.038	6232.52
920.349	6165.85
920.66	6182.13
920.971	6154.56
921.282	6144.61
921.593	6057.16
921.903	6040.21
922.214	6033.43
922.525	6003.15
922.835	6014.45
923.146	5991.85
923.456	5937.61
923.767	5852.42
924.077	5949.36
924.387	5915.24
924.697	5810.38
925.008	5829.37
925.318	5791.4
925.628	5782.59
925.938	5769.26
926.248	5689.71
926.558	5755.92
926.867	5731.74
927.177	5597.28
927.487	5611.97
927.796	5546.66
928.106	5555.93
928.416	5564.74
928.725	5540.11
929.034	5524.74
929.344	5535.81
929.653	5477.29
929.962	5408.59
930.271	5426.67
930.581	5434.57
930.89	5339.44
931.199	5350.06
931.508	5354.35
931.817	5341.47
932.125	5236.39
932.434	5274.58
932.743	5235.48
933.051	5171.3
933.36	5146.9
933.669	5135.6
933.977	5154.36
934.286	5109.16
934.594	5068.48
934.902	5033.68
935.21	5033.68
935.519	5018.77
935.827	5014.02
936.135	4927.24
936.443	4943.06
936.751	4910.07
937.059	4936.06
937.367	4921.14
937.674	4910.07
937.982	4869.17
938.29	4833.46
938.597	4854.25
938.905	4807.25
939.213	4777.87
939.52	4754.82
939.827	4710.3
940.135	4752.56
940.442	4702.16
940.749	4659.45
941.056	4684.76
941.363	4647.25
941.67	4603.64
941.977	4561.15
942.284	4586.91
942.591	4552.79
942.898	4582.17
943.205	4527.93
943.511	4477.54
943.818	4512.56
944.125	4455.17
944.431	4412.91
944.738	4441.83
945.044	4376.3
945.35	4392.79
945.657	4347.37
945.963	4336.52
946.269	4321.61
946.575	4332.23
946.881	4253.81
947.187	4239.13
947.493	4239.58
947.799	4249.3
948.105	4176.3
948.41	4191.67
948.716	4157.32
949.022	4188.96
949.327	4178.56
949.633	4118.9
949.938	4081.84
950.244	4080.49
950.549	4065.35
950.854	4016.53
951.16	4026.02
951.465	4018.11
951.77	3988.28
952.075	3978.34
952.38	4007.95
952.685	3961.84
952.99	3915.07
953.294	3891.11
953.599	3899.02
953.904	3915.07
954.209	3873.71
954.513	3876.88
954.818	3800.49
955.122	3800.95
955.426	3785.35
955.731	3826.26
956.035	3791.45
956.339	3767.05
956.643	3735.41
956.948	3729.53
957.252	3674.62
957.556	3689.54
957.86	3693.15
958.163	3666.49
958.467	3650.21
958.771	3628.07
959.075	3612.7
959.378	3576.54
959.682	3584.91
959.985	3566.6
960.289	3564.57
960.592	3556.88
960.896	3549.88
961.199	3527.05
961.502	3491.12
961.805	3448.86
962.108	3459.03
962.411	3430.79
962.714	3391.46
963.017	3387.62
963.32	3429.88
963.623	3401.41
963.926	3371.35
964.228	3384.01
964.531	3361.41
964.833	3342.2
965.136	3308.75
965.438	3294.29
965.741	3258.59
966.043	3265.82
966.345	3272.37
966.648	3243.67
966.95	3239.83
967.252	3263.56
967.554	3186.72
967.856	3197.57
968.158	3144.92
968.46	3131.81
968.761	3159.83
969.063	3153.05
969.365	3144.24
969.666	3079.61
969.968	3051.13
970.269	3044.81
970.571	3053.39
970.872	3077.57
971.174	2994.41
971.475	3017.91
971.776	3006.62
972.077	2993.51
972.378	2969.33
972.679	2980.63
972.98	2984.92
973.281	2935.88
973.582	2926.62
973.883	2946.05
974.183	2903.34
974.484	2907.64
974.785	2808.65
975.085	2867.41
975.386	2871.93
975.686	2877.13
975.986	2834.42
976.287	2796.9
976.587	2830.35
976.887	2781.76
977.187	2771.37
977.487	2761.65
977.787	2764.81
978.087	2747.64
978.387	2725.72
978.687	2730.24
978.987	2724.59
979.286	2704.7
979.586	2661.99
979.885	2649.34
980.185	2659.05
980.484	2627.64
980.784	2664.25
981.083	2645.27
981.382	2624.48
981.682	2616.57
981.981	2611.82
982.28	2592.62
982.579	2558.04
982.878	2536.8
983.177	2571.83
983.475	2517.14
983.774	2503.13
984.073	2513.3
984.372	2509.45
984.67	2486.4
984.969	2459.74
985.267	2468.78
985.566	2442.79
985.864	2457.93
986.162	2430.13
986.461	2429
986.759	2447.31
987.057	2393.07
987.355	2355.11
987.653	2377.93
987.951	2361.44
988.249	2352.17
988.547	2367.31
988.844	2335.45
989.142	2287.99
989.44	2293.64
989.737	2301.78
990.035	2292.96
990.332	2273.98
990.63	2244.6
990.927	2269.23
991.224	2280.99
991.521	2236.01
991.819	2206.41
992.116	2251.83
992.413	2202.34
992.71	2209.8
993.006	2209.35
993.303	2158.73
993.6	2173.87
993.897	2155.56
994.193	2144.72
994.49	2116.47
994.787	2134.32
995.083	2121.67
995.379	2128.9
995.676	2103.81
995.972	2084.83
996.268	2083.25
996.565	2043.25
996.861	2049.35
997.157	2031.73
997.453	2010.03
997.749	2032.18
998.044	2019.75
998.34	2006.19
998.636	2007.32
998.932	2005.06
999.227	1978.39
999.523	2000.77
999.818	1935.46
1000.114	1945.85
1000.409	1912.18
1000.704	1914.89
1001	1944.27
1001.295	1912.63
1001.59	1895.91
1001.885	1890.26
1002.18	1888.91
1002.475	1868.11
1002.77	1855.69
1003.065	1865.18
1003.359	1831.51
1003.654	1819.53
1003.949	1841.9
1004.243	1838.06
1004.538	1788.12
1004.832	1806.2
1005.127	1765.74
1005.421	1763.26
1005.715	1740.21
1006.009	1749.25
1006.304	1762.58
1006.598	1717.38
1006.892	1722.36
1007.186	1682.81
1007.48	1692.75
1007.773	1654.56
1008.067	1716.48
1008.361	1655.24
1008.655	1658.85
1008.948	1655.24
1009.242	1647.56
1009.535	1610.04
1009.829	1605.3
1010.122	1603.04
1010.415	1625.41
1010.708	1619.53
1011.001	1605.52
1011.295	1573.66
1011.588	1577.73
1011.881	1592.19
1012.173	1568.24
1012.466	1525.52
1012.759	1513.77
1013.052	1525.52
1013.344	1525.07
1013.637	1520.1
1013.93	1508.8
1014.222	1524.39
1014.514	1483.94
1014.807	1455.24
1015.099	1468.13
1015.391	1456.37
1015.683	1468.8
1015.976	1448.01
1016.268	1431.06
1016.56	1402.14
1016.851	1395.58
1017.143	1417.96
1017.435	1409.37
1017.727	1382.25
1018.018	1389.03
1018.31	1376.83
1018.602	1374.34
1018.893	1371.86
1019.185	1342.03
1019.476	1341.12
1019.767	1323.27
1020.058	1315.13
1020.35	1297.06
1020.641	1303.16
1020.932	1291.63
1021.223	1260.22
1021.514	1259.32
1021.804	1278.53
1022.095	1232.88
1022.386	1266.1
1022.677	1255.02
1022.967	1230.39
1023.258	1204.4
1023.548	1214.8
1023.839	1189.94
1024.129	1199.21
1024.419	1185.42
1024.709	1189.04
1025	1168.92
1025.29	1171.86
1025.58	1167.79
1025.87	1141.35
1026.16	1184.29
1026.449	1162.14
1026.739	1159.43
1027.029	1140.9
1027.319	1120.34
1027.608	1121.47
1027.898	1110.85
1028.187	1140.22
1028.477	1108.81
1028.766	1089.15
1029.055	1073.33
1029.344	1074.46
1029.634	1068.14
1029.923	1096.84
1030.212	1062.71
1030.501	1040.57
1030.79	1060.23
1031.078	1054.8
1031.367	1015.03
1031.656	1018.65
1031.945	1023.62
1032.233	1016.84
1032.522	996.73
1032.81	989.49
1033.099	986.1
1033.387	958.99
1033.675	969.16
1033.963	992.43
1034.251	970.51
1034.54	951.75
1034.828	965.31
1035.116	964.41
1035.403	935.48
1035.691	944.52
1035.979	925.77
1036.267	940.46
1036.554	935.94
1036.842	926.9
1037.129	923.28
1037.417	887.35
1037.704	885.54
1037.992	897.07
1038.279	908.37
1038.566	883.96
1038.853	883.96
1039.14	883.96
