Data from hue_260_FLMS001491_00047.txt Node
Date: Tue Feb 07 15:59:03 GMT 2017
User: dcchb
Spectrometer: FLMS00149
Trigger mode: 0
Integration Time (sec): 2.000000E-2
Scans to average: 10
Electric dark correction enabled: true
Nonlinearity correction enabled: false
Boxcar width: 0
XAxis mode: Wavelengths
Number of Pixels in Spectrum: 2048
>>>>>Begin Spectral Data<<<<<
341.393	-17.49
341.776	-17.49
342.16	-17.49
342.543	-68.78
342.927	-66.75
343.31	-74.66
343.693	-69.46
344.077	-86.86
344.46	-78.05
344.843	-53.19
345.226	-31.5
345.61	-23.36
345.993	-8.67
346.376	-13.64
346.759	0.59
347.142	36.98
347.525	51.67
347.908	66.81
348.291	75.62
348.674	101.83
349.057	105.9
349.44	110.87
349.823	127.6
350.206	155.84
350.588	179.35
350.971	193.36
351.354	204.43
351.737	222.28
352.119	254.82
352.502	257.99
352.884	257.54
353.267	277.2
353.65	293.69
354.032	296.63
354.414	295.05
354.797	293.69
355.179	317.87
355.562	309.74
355.944	312.68
356.326	321.71
356.709	320.36
357.091	324.2
357.473	342.51
357.855	333.24
358.238	331.43
358.62	328.49
359.002	317.2
359.384	308.61
359.766	324.43
360.148	306.12
360.53	320.13
360.912	314.94
361.294	338.66
361.676	328.04
362.057	304.77
362.439	342.05
362.821	310.87
363.203	321.49
363.584	322.84
363.966	319.45
364.348	316.97
364.729	332.11
365.111	302.73
365.493	301.38
365.874	302.96
366.256	286.01
366.637	297.53
367.019	321.04
367.4	293.24
367.781	281.49
368.163	305.22
368.544	304.09
368.925	295.5
369.306	291.21
369.688	296.18
370.069	298.66
370.45	312.22
370.831	283.75
371.212	281.72
371.593	295.27
371.974	300.02
372.355	310.19
372.736	297.08
373.117	315.84
373.498	286.69
373.879	311.32
374.26	317.2
374.641	308.38
375.021	292.79
375.402	310.64
375.783	303.86
376.163	304.99
376.544	316.52
376.925	292.11
377.305	309.29
377.686	312.9
378.066	277.42
378.447	291.66
378.827	317.65
379.208	313.58
379.588	337.53
379.968	291.88
380.349	317.42
380.729	338.21
381.109	324.65
381.489	338.21
381.87	327.82
382.25	328.49
382.63	321.04
383.01	316.97
383.39	330.98
383.77	329.85
384.15	330.98
384.53	324.65
384.91	314.26
385.29	323.3
385.67	335.73
386.049	352.67
386.429	341.15
386.809	340.47
387.189	375.5
387.568	342.73
387.948	331.66
388.328	353.58
388.707	351.54
389.087	334.82
389.466	375.05
389.846	344.54
390.225	352.22
390.605	359.68
390.984	346.35
391.363	367.14
391.743	366.91
392.122	374.59
392.501	362.62
392.881	368.04
393.26	376.4
393.639	355.84
394.018	369.17
394.397	366.23
394.776	393.13
395.155	388.61
395.534	362.84
395.913	373.69
396.292	387.25
396.671	364.2
397.05	378.66
397.429	391.09
397.808	389.51
398.186	361.04
398.565	381.83
398.944	380.7
399.323	399.68
399.701	392.45
400.08	411.43
400.458	414.37
400.837	406.01
401.215	413.46
401.594	389.74
401.972	386.57
402.351	394.93
402.729	430.64
403.107	425.67
403.486	429.51
403.864	416.63
404.242	415.5
404.62	436.74
404.999	423.18
405.377	452.11
405.755	437.87
406.133	462.05
406.511	431.77
406.889	447.36
407.267	464.54
407.645	435.61
408.023	455.04
408.401	475.61
408.779	488.94
409.156	451.2
409.534	484.87
409.912	496.63
410.29	506.79
410.667	500.02
411.045	512.9
411.422	517.42
411.8	521.48
412.178	508.6
412.555	531.43
412.933	555.15
413.31	559
413.687	544.76
414.065	555.83
414.442	541.6
414.819	579.11
415.197	565.55
415.574	590.18
415.951	596.06
416.328	597.64
416.705	601.03
417.082	612.1
417.46	611.88
417.837	613.23
418.214	639.22
418.591	622.95
418.967	648.49
419.344	642.38
419.721	672.44
420.098	674.7
420.475	680.12
420.852	697.52
421.228	693.23
421.605	686.45
421.982	729.84
422.358	709.95
422.735	705.89
423.111	734.13
423.488	749.27
423.864	770.52
424.241	765.54
424.617	768.03
424.994	787.01
425.37	794.47
425.746	815.26
426.123	803.28
426.499	825.88
426.875	822.49
427.251	842.15
427.627	864.75
428.003	879.44
428.379	873.34
428.756	871.76
429.132	909.27
429.507	914.92
429.883	911.3
430.259	934.13
430.635	955.6
431.011	928.93
431.387	989.72
431.763	978.65
432.138	993.56
432.514	1006.89
432.89	1021.36
433.265	1025.88
433.641	1033.33
434.016	1044.86
434.392	1081.24
434.767	1114.46
435.143	1109.72
435.518	1108.36
435.894	1172.09
436.269	1150.85
436.644	1176.16
437.02	1213.89
437.395	1185.65
437.77	1226.32
438.145	1238.3
438.52	1265.64
438.895	1275.59
439.271	1267
439.646	1316.26
440.021	1323.5
440.395	1343.83
440.77	1310.84
441.145	1352.65
441.52	1379.31
441.895	1396.94
442.27	1425.64
442.645	1392.42
443.019	1451.18
443.394	1417.28
443.769	1450.05
444.143	1462.02
444.518	1478.97
444.892	1453.21
445.267	1488.24
445.641	1505.64
446.016	1500.21
446.39	1535.47
446.764	1532.3
447.139	1515.13
447.513	1530.72
447.887	1556.71
448.262	1554.45
448.636	1597.84
449.01	1609.14
449.384	1603.04
449.758	1591.29
450.132	1634.67
450.506	1649.14
450.88	1652.98
451.254	1640.78
451.628	1708.34
452.002	1703.83
452.376	1726.65
452.75	1704.28
453.123	1740.66
453.497	1756.48
453.871	1747.44
454.244	1785.86
454.618	1799.19
454.992	1823.82
455.365	1845.06
455.739	1868.79
456.112	1886.65
456.486	1925.06
456.859	1909.92
457.232	1930.03
457.606	1932.97
457.979	1982.24
458.352	2012.52
458.725	2014.55
459.099	2029.24
459.472	2052.74
459.845	2093.19
460.218	2093.42
460.591	2117.6
460.964	2104.04
461.337	2180.65
461.71	2188.11
462.083	2209.12
462.456	2226.98
462.829	2248.9
463.201	2316.01
463.574	2314.66
463.947	2314.66
464.32	2365.28
464.692	2380.19
465.065	2360.31
465.438	2474.2
465.81	2455.44
466.183	2465.16
466.555	2513.75
466.928	2547.64
467.3	2537.48
467.672	2557.36
468.045	2626.06
468.417	2614.76
468.789	2638.04
469.161	2662.67
469.534	2692.5
469.906	2755.32
470.278	2765.94
470.65	2759.62
471.022	2861.31
471.394	2880.74
471.766	2930.69
472.138	2953.51
472.51	3000.74
472.882	3035.09
473.253	3049.1
473.625	3089.78
473.997	3165.03
474.369	3196.44
474.74	3174.52
475.112	3253.39
475.484	3290.45
475.855	3345.36
476.227	3357.12
476.598	3435.98
476.97	3449.32
477.341	3521.4
477.713	3586.04
478.084	3587.17
478.455	3703.32
478.827	3683.89
479.198	3800.49
479.569	3805.69
479.94	3883.2
480.311	3877.1
480.682	4016.08
481.053	4046.59
481.424	4134.04
481.795	4149.18
482.166	4203.65
482.537	4233.25
482.908	4277.77
483.279	4346.47
483.65	4481.83
484.021	4484.54
484.391	4510.53
484.762	4546.91
485.133	4602.96
485.503	4640.25
485.874	4720.02
486.244	4762.05
486.615	4877.53
486.985	4906.9
487.356	4969.05
487.726	5000.01
488.097	5068.48
488.467	5122.04
488.837	5165.43
489.207	5189.84
489.578	5248.14
489.948	5337.63
490.318	5362.03
490.688	5380.56
491.058	5442.03
491.428	5491.97
491.798	5581.92
492.168	5689.71
492.538	5667.79
492.908	5727.45
493.278	5782.59
493.648	5764.06
494.017	5860.33
494.387	5885.18
494.757	5915.92
495.126	5983.94
495.496	5954.33
495.866	6062.35
496.235	6084.73
496.605	6123.6
496.974	6151.39
497.344	6224.84
497.713	6173.99
498.082	6282.01
498.452	6302.8
498.821	6337.15
499.19	6346.64
499.559	6378.96
499.928	6348.67
500.298	6462.8
500.667	6460.54
501.036	6420.76
501.405	6525.85
501.774	6514.32
502.143	6552.74
502.512	6531.49
502.88	6618.72
503.249	6650.14
503.618	6630.93
503.987	6668.44
504.356	6691.04
504.724	6759.51
505.093	6776.01
505.462	6717.7
505.83	6745.05
506.199	6848.32
506.567	6869.34
506.936	6856.46
507.304	6935.55
507.672	6934.87
508.041	6991.37
508.409	7010.13
508.777	7025.72
509.145	7018.94
509.514	7026.17
509.882	7034.08
510.25	7060.29
510.618	7099.84
510.986	7054.87
511.354	7109.33
511.722	7143.46
512.09	7213.06
512.458	7200.63
512.826	7208.31
513.193	7287.63
513.561	7192.27
513.929	7313.4
514.297	7348.2
514.664	7304.13
515.032	7324.02
515.4	7357.69
515.767	7403.34
516.135	7371.47
516.502	7344.58
516.869	7378.93
517.237	7455.31
517.604	7419.83
517.972	7413.96
518.339	7489.44
518.706	7524.01
519.073	7471.13
519.44	7452.83
519.808	7604.24
520.175	7590.9
520.542	7573.28
520.909	7637.68
521.276	7586.38
521.643	7578.93
522.009	7704.57
522.376	7654.18
522.743	7678.81
523.11	7629.09
523.477	7661.41
523.843	7739.82
524.21	7763.1
524.577	7823.21
524.943	7829.99
525.31	7826.15
525.676	7838.81
526.043	7874.06
526.409	7874.06
526.776	7920.61
527.142	7905.7
527.508	7913.15
527.874	7982.98
528.241	7956.09
528.607	7945.02
528.973	7985.92
529.339	7934.4
529.705	7959.03
530.071	8021.17
530.437	8075.41
530.803	8029.31
531.169	8051
531.535	8038.8
531.901	8041.06
532.267	8057.56
532.632	8026.6
532.998	8080.15
533.364	8046.71
533.73	8083.77
534.095	8069.76
534.461	8113.37
534.826	8128.74
535.192	8072.7
535.557	8087.84
535.923	8059.59
536.288	8111.34
536.653	8072.02
537.019	7987.95
537.384	8091.23
537.749	8046.03
538.114	8084.45
538.479	7972.36
538.845	8053.04
539.21	7984.56
539.575	7971.91
539.94	7938.92
540.305	8012.36
540.67	7978.69
541.034	7982.53
541.399	7971.91
541.764	7970.33
542.129	8010.78
542.494	8022.76
542.858	7990.21
543.223	7922.42
543.587	8015.98
543.952	7919.93
544.316	7926.94
544.681	7888.75
545.045	7860.95
545.41	7949.99
545.774	7921.06
546.138	7879.03
546.503	7875.19
546.867	7899.82
547.231	7850.33
547.595	7847.62
547.959	7898.46
548.324	7781.41
548.688	7853.04
549.052	7851.46
549.416	7846.94
549.779	7767.39
550.143	7752.48
550.507	7811.69
550.871	7809.2
551.235	7783.21
551.599	7810.11
551.962	7805.81
552.326	7735.98
552.689	7768.3
553.053	7766.04
553.417	7731.46
553.78	7788.19
554.143	7745.47
554.507	7805.81
554.87	7752.25
555.234	7849.65
555.597	7736.89
555.96	7775.76
556.323	7826.15
556.686	7747.73
557.05	7781.18
557.413	7782.08
557.776	7798.58
558.139	7800.61
558.502	7790.67
558.865	7799.03
559.228	7829.09
559.59	7844.23
559.953	7808.07
560.316	7790.9
560.679	7860.95
561.041	7851.23
561.404	7854.4
561.767	7914.06
562.129	7810.78
562.492	7990.21
562.854	7888.52
563.217	7910.67
563.579	7903.44
563.941	7959.71
564.304	7929.42
564.666	8028.86
565.028	8017.11
565.39	7989.76
565.753	7977.56
566.115	8030.21
566.477	8047.39
566.839	8047.84
567.201	8135.52
567.563	8092.81
567.925	8078.57
568.287	8070.66
568.648	8136.88
569.01	8124.9
569.372	8194.5
569.734	8197.21
570.095	8224.33
570.457	8215.29
570.819	8250.09
571.18	8282.41
571.542	8244.44
571.903	8264.56
572.265	8379.81
572.626	8356.31
572.987	8310.88
573.349	8328.74
573.71	8375.29
574.071	8404.44
574.432	8495.96
574.794	8437.66
575.155	8405.8
575.516	8501.39
575.877	8499.35
576.238	8559.24
576.599	8571.44
576.96	8543.42
577.32	8588.84
577.681	8605.79
578.042	8614.15
578.403	8614.15
578.763	8670.65
579.124	8678.11
579.485	8680.36
579.845	8668.84
580.206	8675.39
580.566	8674.94
580.927	8740.48
581.287	8808.95
581.648	8798.1
582.008	8812.11
582.368	8849.63
582.728	8841.94
583.089	8820.25
583.449	8754.71
583.809	8908.16
584.169	8854.82
584.529	8950.41
584.889	8967.36
585.249	8926.69
585.609	8921.94
585.969	8999.45
586.329	8862.73
586.688	8931.21
587.048	8985.89
587.408	8993.58
587.768	8992.9
588.127	9015.95
588.487	8987.48
588.846	9106.57
589.206	9050.52
589.565	9022.95
589.925	9077.64
590.284	9066.12
590.643	9041.26
591.003	9160.58
591.362	9098.66
591.721	9144.99
592.08	9155.83
592.44	9177.75
592.799	9199.45
593.158	9210.29
593.517	9182.27
593.876	9208.03
594.235	9196.96
594.593	9222.27
594.952	9192.22
595.311	9265.66
595.67	9256.17
596.029	9323.51
596.387	9271.08
596.746	9335.71
597.104	9224.53
597.463	9335.26
597.822	9352.66
598.18	9304.53
598.538	9252.55
598.897	9351.08
599.255	9326
599.613	9423.4
599.972	9343.4
600.33	9439.44
600.688	9284.19
601.046	9384.53
601.404	9458.88
601.762	9381.59
602.12	9395.37
602.478	9397.18
602.836	9401.48
603.194	9410.52
603.552	9449.84
603.91	9352.44
604.268	9466.11
604.625	9349.05
604.983	9416.39
605.341	9413.68
605.698	9426.56
606.056	9538.42
606.413	9443.06
606.771	9460.01
607.128	9488.93
607.485	9445.32
607.843	9462.49
608.2	9543.39
608.557	9503.17
608.914	9521.25
609.272	9495.94
609.629	9616.39
609.986	9569.16
610.343	9517.41
610.7	9674.92
611.057	9617.29
611.414	9598.31
611.771	9610.51
612.127	9674.92
612.484	9637.4
612.841	9701.36
613.198	9614.35
613.554	9647.12
613.911	9658.19
614.267	9644.63
614.624	9604.41
614.98	9680.56
615.337	9769.83
615.693	9694.12
616.05	9654.8
616.406	9737.74
616.762	9710.62
617.118	9715.59
617.475	9722.15
617.831	9750.39
618.187	9772.77
618.543	9813.44
618.899	9778.19
619.255	9786.1
619.611	9729.83
619.967	9860.45
620.323	9837.4
620.678	9770.28
621.034	9770.28
621.39	9741.58
621.746	9790.84
622.101	9790.17
622.457	9784.97
622.812	9757.85
623.168	9834.91
623.523	9831.07
623.879	9854.35
624.234	9754.46
624.589	9788.13
624.945	9830.62
625.3	9862.25
625.655	9791.07
626.01	9831.52
626.365	9814.57
626.72	9827.45
627.075	9814.35
627.43	9752.2
627.785	9769.83
628.14	9748.36
628.495	9798.98
628.85	9837.4
629.205	9697.06
629.559	9770.51
629.914	9711.52
630.269	9781.13
630.623	9729.15
630.978	9722.82
631.332	9755.82
631.687	9814.8
632.041	9695.25
632.396	9672.2
632.75	9759.66
633.104	9737.06
633.459	9654.8
633.813	9651.86
634.167	9670.17
634.521	9664.75
634.875	9603.96
635.229	9646.44
635.583	9599.21
635.937	9571.87
636.291	9601.47
636.645	9612.32
636.999	9544.98
637.352	9557.4
637.706	9483.51
638.06	9574.13
638.413	9569.38
638.767	9422.27
639.121	9515.82
639.474	9467.24
639.828	9452.55
640.181	9459.78
640.534	9531.64
640.888	9424.75
641.241	9426.11
641.594	9383.62
641.947	9463.85
642.301	9401.48
642.654	9419.1
643.007	9438.76
643.36	9356.28
643.713	9350.86
644.066	9335.26
644.419	9319.67
644.771	9342.49
645.124	9182.95
645.477	9250.07
645.83	9138.21
646.182	9110.64
646.535	9009.85
646.888	9126.68
647.24	9029.96
647.593	9095.04
647.945	9072.9
648.298	9087.59
648.65	9030.19
649.002	9012.11
649.355	9040.13
649.707	9037.87
650.059	9064.54
650.411	9157.19
650.763	9161.71
651.115	9241.48
651.467	9247.81
651.819	9255.49
652.171	9247.36
652.523	9224.98
652.875	9193.12
653.227	9166.91
653.578	9252.78
653.93	9248.26
654.282	9229.05
654.633	9257.07
654.985	9266.56
655.337	9225.44
655.688	9211.65
656.039	9262.95
656.391	9196.51
656.742	9227.7
657.094	9154.25
657.445	9238.77
657.796	9244.19
658.147	9203.97
658.498	9169.62
658.849	9188.37
659.2	9229.96
659.551	9208.71
659.902	9199
660.253	9271.99
660.604	9218.43
660.955	9203.52
661.306	9292.78
661.656	9233.34
662.007	9239.45
662.358	9263.4
662.708	9320.35
663.059	9209.84
663.409	9220.46
663.76	9184.98
664.11	9279.9
664.461	9250.75
664.811	9234.93
665.161	9260.69
665.511	9231.31
665.862	9247.36
666.212	9273.12
666.562	9315.83
666.912	9187.92
667.262	9211.88
667.612	9232.21
667.962	9256.4
668.312	9167.13
668.662	9299.33
669.011	9193.12
669.361	9230.63
669.711	9285.55
670.06	9255.04
670.41	9238.09
670.76	9224.08
671.109	9245.1
671.459	9243.06
671.808	9220.24
672.157	9215.72
672.507	9125.1
672.856	9160.35
673.205	9162.84
673.554	9179.79
673.904	9160.35
674.253	9205.77
674.602	9160.8
674.951	8962.84
675.3	9032.22
675.649	9119.22
675.998	9125.78
676.346	9083.97
676.695	9149.28
677.044	9106.12
677.393	9072.22
677.741	9058.43
678.09	8992.67
678.438	9026.8
678.787	9066.12
679.135	9018.66
679.484	9012.56
679.832	9024.99
680.181	8916.97
680.529	8998.1
680.877	8896.63
681.225	8937.76
681.573	8964.88
681.922	8929.17
682.27	8813.02
682.618	8869.51
682.966	8907.48
683.314	8863.64
683.661	8854.37
684.009	8837.2
684.357	8828.61
684.705	8824.54
685.053	8792.68
685.4	8749.74
685.748	8709.97
686.095	8728.73
686.443	8690.99
686.79	8707.03
687.138	8696.64
687.485	8650.31
687.832	8585.23
688.18	8696.86
688.527	8578.45
688.874	8534.61
689.221	8564.66
689.568	8474.04
689.915	8485.79
690.262	8493.48
690.609	8487.15
690.956	8378.23
691.303	8477.43
691.65	8406.93
691.997	8388.4
692.344	8328.96
692.69	8291.22
693.037	8318.79
693.383	8224.78
693.73	8248.29
694.077	8109.31
694.423	8203.99
694.769	8087.16
695.116	8081.28
695.462	8100.04
695.808	8093.26
696.155	8079.48
696.501	8027.5
696.847	7971.68
697.193	7880.16
697.539	7947.05
697.885	7918.35
698.231	7911.8
698.577	7881.52
698.923	7823.89
699.269	7799.03
699.614	7743.44
699.96	7714.51
700.306	7723.78
700.651	7662.76
700.997	7615.08
701.342	7649.21
701.688	7622.31
702.033	7594.52
702.379	7578.02
702.724	7524.92
703.069	7514.97
703.415	7442.88
703.76	7457.12
704.105	7441.53
704.45	7430.45
704.795	7395.65
705.14	7305.26
705.485	7324.24
705.83	7312.49
706.175	7301.19
706.52	7293.51
706.865	7230.01
707.209	7214.19
707.554	7207.64
707.899	7168.54
708.243	7210.12
708.588	7164.25
708.932	7148.88
709.277	7119.28
709.621	7154.98
709.966	7113.4
710.31	7106.17
710.654	7028.21
710.998	6959.05
711.342	7016.45
711.687	6975.55
712.031	6976.91
712.375	6964.93
712.719	6943.91
713.063	6879.51
713.407	6952.27
713.75	6869.57
714.094	6894.42
714.438	6904.14
714.782	6856.23
715.125	6851.49
715.469	6867.31
715.812	6810.81
716.156	6826.63
716.499	6791.6
716.843	6824.37
717.186	6760.87
717.53	6802.9
717.873	6810.81
718.216	6786.63
718.559	6776.23
718.902	6722.45
719.246	6738.27
719.589	6668.67
719.932	6613.3
720.275	6675.67
720.617	6636.12
720.96	6643.13
721.303	6704.82
721.646	6679.74
721.989	6706.18
722.331	6646.07
722.674	6664.37
723.016	6621.21
723.359	6585.96
723.701	6648.55
724.044	6613.98
724.386	6606.97
724.729	6597.71
725.071	6574.43
725.413	6589.35
725.755	6590.25
726.097	6517.03
726.439	6533.98
726.782	6551.83
727.124	6585.28
727.465	6579.18
727.807	6526.3
728.149	6518.39
728.491	6545.96
728.833	6573.3
729.175	6529.46
729.516	6458.05
729.858	6500.31
730.199	6512.06
730.541	6530.59
730.882	6428.45
731.224	6496.24
731.565	6466.41
731.906	6462.57
732.248	6479.74
732.589	6464.38
732.93	6421.22
733.271	6404.27
733.612	6463.7
733.953	6508.22
734.294	6492.63
734.635	6472.74
734.976	6455.11
735.317	6429.12
735.658	6488.56
735.999	6455.34
736.339	6473.64
736.68	6435.9
737.021	6495.11
737.361	6433.64
737.702	6495.11
738.042	6439.07
738.383	6487.2
738.723	6466.41
739.063	6480.87
739.404	6504.15
739.744	6547.99
740.084	6479.74
740.424	6513.64
740.764	6507.99
741.104	6566.52
741.444	6587.76
741.784	6483.81
742.124	6506.18
742.464	6567.88
742.804	6637.48
743.143	6566.3
743.483	6666.41
743.823	6586.86
744.162	6622.11
744.502	6611.04
744.841	6661.89
745.181	6653.53
745.52	6715.44
745.86	6713.41
746.199	6747.31
746.538	6761.77
746.877	6852.16
747.216	6783.92
747.556	6880.19
747.895	6904.82
748.234	6955.21
748.573	6969.45
748.911	7015.55
749.25	6994.08
749.589	7137.35
749.928	7150.24
750.267	7213.51
750.605	7218.03
750.944	7289.44
751.283	7357.69
751.621	7396.33
751.96	7437.01
752.298	7548.87
752.636	7620.96
752.975	7690.33
753.313	7686.27
753.651	7845.13
753.989	7885.36
754.327	7956.09
754.666	8062.3
755.004	8139.59
755.342	8299.81
755.679	8365.12
756.017	8354.95
756.355	8565.79
756.693	8601.95
757.031	8764.88
757.368	8840.13
757.706	9017.98
758.044	9042.39
758.381	9213.91
758.719	9319.22
759.056	9472.66
759.394	9539.55
759.731	9660
760.068	9738.19
760.405	9843.72
760.743	9998.52
761.08	10115.13
761.417	10160.55
761.754	10396.25
762.091	10443.03
762.428	10620.2
762.765	10661.33
763.102	10859.06
763.438	10913.53
763.775	11014.77
764.112	11189.45
764.449	11292.5
764.785	11366.17
765.122	11477.58
765.458	11624.24
765.795	11676.67
766.131	11834.63
766.467	11990.79
766.804	12041.63
767.14	12082.54
767.476	12194.4
767.812	12332.47
768.148	12482.52
768.485	12487.5
768.821	12517.78
769.157	12714.84
769.492	12748.51
769.828	12955.73
770.164	12888.62
770.5	13003.42
770.836	13030.76
771.171	13179.46
771.507	13247.25
771.842	13299.45
772.178	13313.01
772.513	13353.69
772.849	13431.2
773.184	13550.52
773.519	13635.04
773.855	13630.97
774.19	13594.13
774.525	13771.76
774.86	13711.19
775.195	13791.64
775.53	13841.59
775.865	13812.89
776.2	13725.88
776.535	13797.29
776.87	13852.66
777.205	13880.91
777.539	13814.24
777.874	14009.26
778.209	13928.81
778.543	13957.97
778.878	13919.55
779.212	14058.3
779.547	13959.32
779.881	14080.9
780.215	13992.77
780.55	14127.45
780.884	14016.27
781.218	13974.92
781.552	14010.39
781.886	14018.53
782.22	13994.12
782.554	14073.9
782.888	13919.55
783.222	13879.55
783.556	13963.84
783.889	13957.74
784.223	13945.54
784.557	13949.15
784.89	13929.49
785.224	13923.62
785.557	13837.97
785.891	13784.64
786.224	13821.92
786.558	13806.11
786.891	13728.59
787.224	13807.24
787.557	13703.28
787.891	13728.59
788.224	13751.19
788.557	13708.48
788.89	13729.5
789.223	13649.5
789.556	13638.88
789.888	13637.97
790.221	13628.71
790.554	13489.73
790.887	13621.7
791.219	13525.44
791.552	13523.4
791.884	13390.3
792.217	13444.99
792.549	13457.64
792.882	13396.85
793.214	13354.59
793.546	13343.52
793.879	13208.16
794.211	13249.96
794.543	13293.58
794.875	13252.9
795.207	13333.12
795.539	13182.62
795.871	13213.13
796.203	13135.16
796.535	13066.92
796.867	13028.05
797.198	13063.53
797.53	12937.2
797.862	12973.81
798.193	13000.93
798.525	12873.25
798.856	12925.23
799.188	12802.06
799.519	12749.18
799.85	12729.07
800.182	12762.52
800.513	12762.74
800.844	12629.64
801.175	12747.6
801.506	12658.57
801.837	12592.58
802.168	12641.62
802.499	12550.32
802.83	12544.67
803.161	12424.22
803.491	12493.37
803.822	12460.38
804.153	12384.22
804.483	12307.39
804.814	12278.69
805.145	12339.25
805.475	12225.13
805.805	12231.01
806.136	12187.62
806.466	12271.01
806.796	12275.75
807.126	12122.76
807.457	12073.72
807.787	12124.12
808.117	12062.2
808.447	12052.25
808.777	11981.07
809.107	12035.53
809.436	11923.22
809.766	11959.37
810.096	11863.78
810.426	11891.35
810.755	11827.17
811.085	11842.32
811.414	11830.11
811.744	11786.72
812.073	11710.12
812.403	11741.08
812.732	11652.72
813.061	11751.47
813.39	11672.83
813.719	11559.84
814.049	11642.32
814.378	11585.15
814.707	11556.22
815.036	11601.87
815.365	11527.97
815.693	11419.28
816.022	11455.89
816.351	11502.66
816.68	11368.2
817.008	11372.95
817.337	11353.97
817.665	11317.13
817.994	11326.62
818.322	11301.76
818.651	11243.46
818.979	11194.2
819.307	11302.67
819.636	11255.44
819.964	11191.94
820.292	11214.08
820.62	11236.91
820.948	11200.07
821.276	11195.1
821.604	11206.63
821.932	11169.11
822.259	11201.43
822.587	11102.9
822.915	11125.27
823.243	11187.19
823.57	11088.66
823.898	11078.72
824.225	11163.01
824.553	11126.63
824.88	11109.45
825.207	11165.72
825.535	11159.4
825.862	11106.29
826.189	11163.24
826.516	11147.42
826.843	11209.11
827.17	11179.96
827.497	11177.7
827.824	11116.69
828.151	11223.8
828.478	11220.64
828.805	11280.3
829.131	11169.34
829.458	11153.75
829.785	11149.9
830.111	11132.96
830.438	11258.38
830.764	11219.51
831.09	11261.77
831.417	11058.16
831.743	11138.38
832.069	11220.19
832.395	11108.1
832.722	11114.65
833.048	11152.39
833.374	11109.23
833.7	11116.46
834.026	11099.28
834.351	11143.8
834.677	11093.63
835.003	11121.88
835.329	11025.39
835.654	11038.04
835.98	11038.95
836.306	10987.65
836.631	10939.06
836.956	11022.45
837.282	11001.66
837.607	10962.34
837.932	10964.37
838.258	10991.49
838.583	10960.31
838.908	10854.77
839.233	10976.58
839.558	10797.37
839.883	10789.24
840.208	10836.47
840.533	10829.46
840.858	10831.95
841.182	10809.57
841.507	10744.04
841.832	10694.32
842.156	10691.84
842.481	10689.13
842.805	10677.37
843.13	10616.13
843.454	10681.67
843.778	10601.44
844.103	10557.83
844.427	10533.2
844.751	10531.62
845.075	10529.36
845.399	10479.19
845.723	10399.64
846.047	10441.67
846.371	10345.63
846.695	10408.68
847.019	10313.09
847.343	10234
847.666	10182.02
847.99	10178.18
848.313	10074.68
848.637	10064.96
848.96	10041.69
849.284	10056.6
849.607	9947.22
849.931	9899.32
850.254	9847.34
850.577	9850.96
850.9	9712.43
851.223	9744.07
851.546	9714.46
851.869	9660.23
852.192	9659.55
852.515	9597.4
852.838	9581.81
853.161	9593.56
853.483	9545.88
853.806	9533
854.129	9531.87
854.451	9479.67
854.774	9356.05
855.096	9407.13
855.419	9302.27
855.741	9368.03
856.063	9300.24
856.385	9258.2
856.708	9154.02
857.03	9129.39
857.352	9172.78
857.674	9159.22
857.996	9137.75
858.318	9038.77
858.64	9045.33
858.961	9054.59
859.283	8985.22
859.605	8982.05
859.926	9056.85
860.248	8951.77
860.57	8938.66
860.891	8865.44
861.212	8855.28
861.534	8909.96
861.855	8819.12
862.176	8872.22
862.498	8903.18
862.819	8829.97
863.14	8829.06
863.461	8778.44
863.782	8696.18
864.103	8743.87
864.424	8768.72
864.745	8703.87
865.065	8636.52
865.386	8639.24
865.707	8658.44
866.027	8695.96
866.348	8584.1
866.668	8611.44
866.989	8610.99
867.309	8556.75
867.63	8566.7
867.95	8518.56
868.27	8493.25
868.59	8556.07
868.91	8513.59
869.23	8506.36
869.55	8540.93
869.87	8496.64
870.19	8475.62
870.51	8458.22
870.83	8416.64
871.15	8418.68
871.469	8407.83
871.789	8437.43
872.109	8365.35
872.428	8331.45
872.748	8363.99
873.067	8435.4
873.386	8337.1
873.706	8293.71
874.025	8297.32
874.344	8272.69
874.663	8311.34
874.982	8274.05
875.301	8199.47
875.62	8219.81
875.939	8200.15
876.258	8245.35
876.577	8232.92
876.896	8178.68
877.214	8161.73
877.533	8191.56
877.852	8206.48
878.17	8230.43
878.489	8141.62
878.807	8098.01
879.125	8105.69
879.444	8092.13
879.762	8121.28
880.08	8080.38
880.398	8045.81
880.716	8069.76
881.034	8064.79
881.352	7988.86
881.67	7999.48
881.988	7966.71
882.306	7985.47
882.624	7867.28
882.941	7907.96
883.259	7855.98
883.577	7876.54
883.894	7905.7
884.212	7869.31
884.529	7840.61
884.846	7805.81
885.164	7794.74
885.481	7734.4
885.798	7788.86
886.115	7677.68
886.432	7681.07
886.75	7687.4
887.067	7763.1
887.383	7678.36
887.7	7680.39
888.017	7615.53
888.334	7600.39
888.651	7591.58
888.967	7508.64
889.284	7487.18
889.6	7519.27
889.917	7477.01
890.233	7494.41
890.55	7418.03
890.866	7469.78
891.182	7418.03
891.498	7333.96
891.815	7334.19
892.131	7382.55
892.447	7296.67
892.763	7319.95
893.079	7272.72
893.395	7268.2
893.71	7263.45
894.026	7217.58
894.342	7173.29
894.657	7199.27
894.973	7140.52
895.289	7143.68
895.604	7104.36
895.92	7043.8
896.235	6984.59
896.55	7038.6
896.865	6971.71
897.181	7058.94
897.496	6952.27
897.811	6933.74
898.126	6911.15
898.441	6812.17
898.756	6859.62
899.071	6847.19
899.386	6815.56
899.7	6808.78
900.015	6719.06
900.33	6723.13
900.644	6698.27
900.959	6715.9
901.273	6638.61
901.588	6629.12
901.902	6585.5
902.216	6564.26
902.531	6556.8
902.845	6529.69
903.159	6502.12
903.473	6450.82
903.787	6484.26
904.101	6449.01
904.415	6406.3
904.729	6353.42
905.042	6365.62
905.356	6396.36
905.67	6302.8
905.984	6365.4
906.297	6356.36
906.611	6273.65
906.924	6243.37
907.237	6279.07
907.551	6224.38
907.864	6183.93
908.177	6177.15
908.491	6147.78
908.804	6099.64
909.117	6054.9
909.43	6082.24
909.743	6049.93
910.056	5989.81
910.368	6019.64
910.681	5903.94
910.994	5929.7
911.307	5919.31
911.619	5873.66
911.932	5891.29
912.244	5830.95
912.557	5886.99
912.869	5805.86
913.181	5742.59
913.494	5754.34
913.806	5716.6
914.118	5671.86
914.43	5695.81
914.742	5679.31
915.054	5653.55
915.366	5631.41
915.678	5587.56
915.99	5532.43
916.302	5522.26
916.613	5503.73
916.925	5466.66
917.236	5486.78
917.548	5418.76
917.859	5460.34
918.171	5401.13
918.482	5332.88
918.794	5351.86
919.105	5395.93
919.416	5277.97
919.727	5308.48
920.038	5262.6
920.349	5266.22
920.66	5230.96
920.971	5235.94
921.282	5186.22
921.593	5180.34
921.903	5188.03
922.214	5119.33
922.525	5108.26
922.835	5100.12
923.146	5036.62
923.456	5042.49
923.767	5009.5
924.077	4982.38
924.387	5021.93
924.697	5022.38
925.008	4968.37
925.318	4948.26
925.628	4924.76
925.938	4905.55
926.248	4894.7
926.558	4859.22
926.867	4852.89
927.177	4854.7
927.487	4810.64
927.796	4800.92
928.106	4748.49
928.416	4726.8
928.725	4746.68
929.034	4714.59
929.344	4709.4
929.653	4699
929.962	4706.01
930.271	4640.25
930.581	4590.98
930.89	4589.4
931.199	4562.06
931.508	4519.57
931.817	4577.2
932.125	4495.39
932.434	4486.35
932.743	4481.38
933.051	4458.1
933.36	4438.44
933.669	4434.15
933.977	4397.99
934.286	4381.27
934.594	4394.15
934.902	4338.56
935.21	4320.25
935.519	4304.21
935.827	4277.54
936.135	4280.93
936.443	4219.47
936.751	4260.82
937.059	4258.11
937.367	4222.4
937.674	4176.75
937.982	4205.23
938.29	4149.64
938.597	4172.23
938.905	4135.4
939.213	4093.37
939.52	4112.12
939.827	4092.01
940.135	4032.13
940.442	4025.57
940.749	4019.92
941.056	4058.57
941.363	3986.7
941.67	3980.38
941.977	3933.15
942.284	3942.64
942.591	3978.34
942.898	3905.58
943.205	3919.36
943.511	3902.86
943.818	3882.3
944.125	3857.89
944.431	3806.59
944.738	3835.52
945.044	3801.17
945.35	3757.33
945.657	3796.43
945.963	3753.04
946.269	3721.17
946.575	3750.1
946.881	3720.5
947.187	3685.69
947.493	3692.93
947.799	3658.12
948.105	3641.63
948.41	3582.65
948.716	3590.78
949.022	3566.83
949.327	3603.89
949.633	3560.73
949.938	3578.13
950.244	3544
950.549	3537
950.854	3497.9
951.16	3449.54
951.465	3486.38
951.77	3445.7
952.075	3473.95
952.38	3416.32
952.685	3426.72
952.99	3410.22
953.294	3381.97
953.599	3336.55
953.904	3327.29
954.209	3345.36
954.513	3368.19
954.818	3318.7
955.122	3337.45
955.426	3298.59
955.731	3301.52
956.035	3225.82
956.339	3242.32
956.643	3231.69
956.948	3215.2
957.252	3214.75
957.556	3185.37
957.86	3149.89
958.163	3186.5
958.467	3141.08
958.771	3152.15
959.075	3149.44
959.378	3139.49
959.682	3107.4
959.985	3085.71
960.289	3070.12
960.592	3057.01
960.896	3019.27
961.199	3050
961.502	3030.12
961.805	3017.24
962.108	3011.59
962.411	3003.9
962.714	2954.64
963.017	2967.07
963.32	2977.01
963.623	2938.6
963.926	2916.22
964.228	2880.29
964.531	2893.85
964.833	2911.93
965.136	2863.34
965.438	2854.3
965.741	2844.36
966.043	2827.41
966.345	2828.09
966.648	2834.87
966.95	2809.78
967.252	2770.46
967.554	2788.32
967.856	2803.46
968.158	2737.92
968.46	2726.17
968.761	2734.98
969.063	2696.57
969.365	2709.45
969.666	2721.2
969.968	2673.29
970.269	2652.95
970.571	2662.44
970.872	2648.21
971.174	2665.38
971.475	2622.22
971.776	2578.83
972.077	2585.61
972.378	2601.43
972.679	2606.85
972.98	2592.16
973.281	2584.03
973.582	2546.06
973.883	2515.1
974.183	2520.75
974.484	2528.89
974.785	2513.52
975.085	2494.31
975.386	2534.09
975.686	2475.78
975.986	2471.49
976.287	2486.63
976.587	2465.39
976.887	2458.38
977.187	2443.47
977.487	2440.98
977.787	2416.12
978.087	2382
978.387	2406.18
978.687	2385.39
978.987	2365.73
979.286	2357.59
979.586	2351.94
979.885	2365.05
980.185	2363.69
980.484	2313.07
980.784	2292.51
981.083	2302.45
981.382	2291.83
981.682	2274.66
981.981	2292.74
982.28	2272.4
982.579	2239.4
982.878	2235.11
983.177	2247.77
983.475	2264.04
983.774	2212.74
984.073	2191.27
984.372	2201.44
984.67	2202.57
984.969	2183.59
985.267	2190.37
985.566	2165.96
985.864	2153.08
986.162	2120.31
986.461	2126.41
986.759	2114.66
987.057	2093.65
987.355	2092.52
987.653	2104.27
987.951	2072.86
988.249	2082.12
988.547	2032.4
988.844	2071.95
989.142	2042.57
989.44	2028.79
989.737	2001.67
990.035	2030.6
990.332	2012.97
990.63	2009.13
990.927	1950.6
991.224	1941.56
991.521	1994.67
991.819	1967.77
992.116	1983.37
992.413	1919.41
992.71	1934.55
993.006	1951.5
993.303	1900.66
993.6	1895.23
993.897	1896.59
994.193	1888
994.49	1902.01
994.787	1859.08
995.083	1872.63
995.379	1835.57
995.676	1856.14
995.972	1861.34
996.268	1847.1
996.565	1832.64
996.861	1812.97
997.157	1800.09
997.453	1784.05
997.749	1765.97
998.044	1784.5
998.34	1762.35
998.636	1783.37
998.932	1781.11
999.227	1723.71
999.523	1757.61
999.818	1737.27
1000.114	1693.2
1000.409	1689.81
1000.704	1675.58
1001	1692.75
1001.295	1642.13
1001.59	1668.8
1001.885	1663.37
1002.18	1668.57
1002.475	1649.82
1002.77	1645.52
1003.065	1654.79
1003.359	1604.62
1003.654	1609.14
1003.949	1590.83
1004.243	1590.61
1004.538	1601.23
1004.832	1592.87
1005.127	1564.17
1005.421	1555.13
1005.715	1560.55
1006.009	1540.44
1006.304	1553.55
1006.598	1534.34
1006.892	1527.78
1007.186	1506.77
1007.48	1521.01
1007.773	1509.93
1008.067	1488.46
1008.361	1450.05
1008.655	1471.06
1008.948	1469.03
1009.242	1470.61
1009.535	1438.97
1009.829	1448.69
1010.122	1433.1
1010.415	1434.45
1010.708	1446.43
1011.001	1401.91
1011.295	1414.12
1011.588	1413.66
1011.881	1395.81
1012.173	1363.04
1012.466	1354.46
1012.759	1354.46
1013.052	1376.38
1013.344	1317.62
1013.637	1332.76
1013.93	1319.65
1014.222	1342.7
1014.514	1332.76
1014.807	1306.77
1015.099	1300.45
1015.391	1314.46
1015.683	1272.2
1015.976	1290.05
1016.268	1253.89
1016.56	1259.32
1016.851	1234.91
1017.143	1267
1017.435	1241.69
1017.727	1245.76
1018.018	1227
1018.31	1231.97
1018.602	1212.31
1018.893	1231.3
1019.185	1193.1
1019.476	1191.3
1019.767	1184.06
1020.058	1195.14
1020.35	1188.13
1020.641	1178.64
1020.932	1176.16
1021.223	1134.8
1021.514	1149.26
1021.804	1160.11
1022.095	1124.86
1022.386	1135.48
1022.677	1121.47
1022.967	1119.89
1023.258	1087.12
1023.548	1098.42
1023.839	1082.15
1024.129	1088.02
1024.419	1083.73
1024.709	1067.91
1025	1067.68
1025.29	1037.63
1025.58	1045.99
1025.87	1041.7
1026.16	1037.63
1026.449	1044.86
1026.739	1021.58
1027.029	997.63
1027.319	1014.8
1027.608	1024.3
1027.898	998.08
1028.187	976.61
1028.477	1004.41
1028.766	964.41
1029.055	953.56
1029.344	981.36
1029.634	957.4
1029.923	965.54
1030.212	973
1030.501	936.61
1030.79	950.85
1031.078	935.03
1031.367	942.94
1031.656	940.23
1031.945	914.69
1032.233	910.63
1032.522	912.21
1032.81	889.38
1033.099	893
1033.387	908.82
1033.675	891.64
1033.963	871.08
1034.251	860.23
1034.54	860.91
1034.828	866.11
1035.116	861.81
1035.403	857.52
1035.691	846.67
1035.979	842.38
1036.267	830.18
1036.554	831.98
1036.842	815.49
1037.129	835.6
1037.417	809.61
1037.704	806
1037.992	810.29
1038.279	831.76
1038.566	786.79
1038.853	786.79
1039.14	786.79
