Data from hue_330_FLMS001491_51.txt Node
Date: Mon Feb 06 15:45:34 GMT 2017
User: dcchb
Spectrometer: FLMS00149
Trigger mode: 0
Integration Time (sec): 2.000000E-2
Scans to average: 10
Electric dark correction enabled: true
Nonlinearity correction enabled: false
Boxcar width: 0
XAxis mode: Wavelengths
Number of Pixels in Spectrum: 2048
>>>>>Begin Spectral Data<<<<<
341.393	-14.9
341.776	-14.9
342.16	-14.9
342.543	-69.14
342.927	-71.4
343.31	-58.06
343.693	-62.13
344.077	-64.62
344.46	-60.32
344.843	-45.86
345.226	-42.92
345.61	-44.05
345.993	-17.84
346.376	-6.99
346.759	19
347.142	39.11
347.525	39.79
347.908	49.73
348.291	74.81
348.674	84.76
349.057	95.6
349.44	119.56
349.823	126.56
350.206	151.87
350.588	183.96
350.971	214.7
351.354	219.22
351.737	223.29
352.119	252.44
352.502	263.06
352.884	258.09
353.267	258.54
353.65	264.87
354.032	288.37
354.414	285.66
354.797	299.89
355.179	322.94
355.562	306.9
355.944	326.11
356.326	319.55
356.709	345.32
357.091	341.02
357.473	330.63
357.855	337.63
358.238	348.71
358.62	335.6
359.002	345.99
359.384	336.28
359.766	350.29
360.148	320.46
360.53	319.33
360.912	344.86
361.294	309.16
361.676	320.23
362.057	337.63
362.439	313.68
362.821	330.4
363.203	331.98
363.584	320.23
363.966	315.49
364.348	322.72
364.729	341.47
365.111	324.53
365.493	295.6
365.874	309.84
366.256	328.59
366.637	329.05
367.019	310.06
367.4	296.28
367.781	312.1
368.163	322.94
368.544	300.35
368.925	314.81
369.306	310.06
369.688	299.22
370.069	318.65
370.45	302.83
370.831	298.76
371.212	309.84
371.593	316.16
371.974	317.97
372.355	302.38
372.736	303.06
373.117	311.87
373.498	301.48
373.879	302.83
374.26	285.66
374.641	320.01
375.021	309.61
375.402	332.89
375.783	325.2
376.163	329.72
376.544	302.15
376.925	312.32
377.305	295.15
377.686	322.94
378.066	320.23
378.447	337.86
378.827	327.69
379.208	338.99
379.588	335.6
379.968	342.83
380.349	323.4
380.729	311.64
381.109	326.79
381.489	317.07
381.87	338.08
382.25	321.59
382.63	347.58
383.01	335.82
383.39	318.2
383.77	337.86
384.15	361.81
384.53	326.56
384.91	354.81
385.29	342.38
385.67	331.53
386.049	363.39
386.429	329.27
386.809	358.65
387.189	328.37
387.568	342.38
387.948	343.06
388.328	348.25
388.707	358.2
389.087	344.41
389.466	364.07
389.846	370.63
390.225	374.02
390.605	359.55
390.984	360
391.363	366.56
391.743	369.04
392.122	364.07
392.501	357.74
392.881	374.02
393.26	369.5
393.639	383.28
394.018	374.69
394.397	351.64
394.776	374.24
395.155	381.02
395.534	378.99
395.913	387.35
396.292	389.38
396.671	367.46
397.05	389.61
397.429	376.95
397.808	386.44
398.186	389.38
398.565	386.67
398.944	382.83
399.323	417.86
399.701	397.07
400.08	407.24
400.458	395.03
400.837	400.23
401.215	408.59
401.594	415.37
401.972	419.66
402.351	400.23
402.729	410.62
403.107	412.21
403.486	421.25
403.864	426.9
404.242	415.37
404.62	415.6
404.999	404.75
405.377	434.8
405.755	433.68
406.133	407.69
406.511	431.87
406.889	425.54
407.267	429.38
407.645	442.49
408.023	448.36
408.401	454.69
408.779	445.43
409.156	457.86
409.534	443.84
409.912	463.73
410.29	487.23
410.667	482.04
411.045	503.28
411.422	499.21
411.8	495.14
412.178	491.75
412.555	495.37
412.933	496.5
413.31	513.9
413.687	513.9
414.065	529.27
414.442	516.84
414.819	544.41
415.197	547.34
415.574	559.55
415.951	532.66
416.328	578.76
416.705	570.39
417.082	556.61
417.46	572.65
417.837	585.76
418.214	598.19
418.591	615.59
418.967	604.97
419.344	589.6
419.721	635.7
420.098	635.93
420.475	630.73
420.852	623.05
421.228	626.44
421.605	646.78
421.982	659.88
422.358	656.04
422.735	653.78
423.111	637.51
423.488	654.46
423.864	656.04
424.241	669.83
424.617	684.52
424.994	671.63
425.37	657.62
425.746	692.65
426.123	674.8
426.499	731.75
426.875	724.51
427.251	736.94
427.627	766.1
428.003	728.81
428.379	755.93
428.756	739.88
429.132	757.51
429.507	750.28
429.883	792.99
430.259	795.25
430.635	796.6
431.011	810.16
431.387	819.65
431.763	836.38
432.138	845.19
432.514	835.92
432.89	843.61
433.265	860.78
433.641	873.21
434.016	862.36
434.392	875.47
434.767	911.63
435.143	901.46
435.518	924.06
435.894	914.34
436.269	910.95
436.644	919.31
437.02	950.05
437.395	952.53
437.77	965.64
438.145	970.16
438.52	985.52
438.895	960.21
439.271	1001.12
439.646	986.65
440.021	973.55
440.395	1002.25
440.77	1010.16
441.145	1012.87
441.52	1030.27
441.895	1025.75
442.27	1035.69
442.645	1025.3
443.019	1049.93
443.394	1066.43
443.769	1060.55
444.143	1076.6
444.518	1068.01
444.892	1068.69
445.267	1068.91
445.641	1072.98
446.016	1075.47
446.39	1106.65
446.764	1091.96
447.139	1089.25
447.513	1124.28
447.887	1103.04
448.262	1099.42
448.636	1090.38
449.01	1147.1
449.384	1132.19
449.758	1133.54
450.132	1132.41
450.506	1155.92
450.88	1137.16
451.254	1138.29
451.628	1177.84
452.002	1187.33
452.376	1183.71
452.75	1213.32
453.123	1199.98
453.497	1201.79
453.871	1195.46
454.244	1230.26
454.618	1233.2
454.992	1263.26
455.365	1267.55
455.739	1277.27
456.112	1299.19
456.486	1315.46
456.859	1301.22
457.232	1286.99
457.606	1299.19
457.979	1315.91
458.352	1366.53
458.725	1335.35
459.099	1368.57
459.472	1395.68
459.845	1398.17
460.218	1396.14
460.591	1426.64
460.964	1424.38
461.337	1455.34
461.71	1433.2
462.083	1457.83
462.456	1424.61
462.829	1464.16
463.201	1497.38
463.574	1498.96
463.947	1504.83
464.32	1556.81
464.692	1561.55
465.065	1569.24
465.438	1566.53
465.81	1591.38
466.183	1621.44
466.555	1618.95
466.928	1646.98
467.3	1644.49
467.672	1643.59
468.045	1679.97
468.417	1672.74
468.789	1704.6
469.161	1733.3
469.534	1755
469.906	1780.53
470.278	1768.1
470.65	1803.36
471.022	1810.36
471.394	1840.64
471.766	1879.96
472.138	1869.8
472.51	1932.39
472.882	1940.53
473.253	1970.81
473.625	1972.62
473.997	2013.52
474.369	1994.31
474.74	2022.56
475.112	2038.38
475.484	2098.04
475.855	2141.2
476.227	2138.26
476.598	2202.67
476.97	2190.24
477.341	2233.63
477.713	2246.73
478.084	2267.53
478.455	2347.97
478.827	2344.36
479.198	2431.59
479.569	2383.45
479.94	2473.4
480.311	2486.05
480.682	2515.2
481.053	2564.92
481.424	2586.39
481.795	2611.92
482.166	2618.93
482.537	2617.35
482.908	2706.16
483.279	2743.9
483.65	2757.68
484.021	2795.19
484.391	2825.25
484.762	2856.66
485.133	2902.31
485.503	2923.33
485.874	2964.23
486.244	3016.43
486.615	3012.82
486.985	3084.68
487.356	3093.72
487.726	3128.29
488.097	3159.48
488.467	3192.47
488.837	3243.54
489.207	3288.29
489.578	3347.27
489.948	3348.63
490.318	3375.52
490.688	3391.34
491.058	3451.9
491.428	3501.17
491.798	3509.3
492.168	3595.85
492.538	3605.34
492.908	3614.38
493.278	3637.88
493.648	3691.22
494.017	3732.8
494.387	3750.65
494.757	3746.81
495.126	3748.84
495.496	3801.04
495.866	3791.78
496.235	3864.55
496.605	3898.44
496.974	3890.53
497.344	3969.63
497.713	3968.95
498.082	3973.02
498.452	4016.63
498.821	4011.43
499.19	4045.33
499.559	4049.63
499.928	4107.02
500.298	4090.98
500.667	4118.1
501.036	4129.4
501.405	4174.82
501.774	4135.5
502.143	4220.92
502.512	4184.99
502.88	4243.07
503.249	4235.16
503.618	4246
503.987	4296.62
504.356	4287.81
504.724	4294.36
505.093	4311.99
505.462	4380.69
505.83	4382.27
506.199	4386.57
506.567	4452.33
506.936	4444.64
507.304	4470.86
507.672	4457.75
508.041	4520.35
508.409	4493.46
508.777	4524.87
509.145	4566.9
509.514	4555.6
509.882	4627.92
510.25	4609.38
510.618	4610.74
510.986	4647.58
511.354	4633.34
511.722	4678.31
512.09	4722.83
512.458	4675.37
512.826	4725.77
513.193	4760.11
513.561	4717.86
513.929	4777.06
514.297	4837.85
514.664	4802.83
515.032	4827.01
515.4	4886.89
515.767	4884.41
516.135	4899.09
516.502	4843.28
516.869	4966.44
517.237	4935.03
517.604	4926.66
517.972	4975.7
518.339	5015.48
518.706	5020
519.073	4993.1
519.44	5078.3
519.808	5078.07
520.175	5072.65
520.542	5108.13
520.909	5119.43
521.276	5092.54
521.643	5182.25
522.009	5179.76
522.376	5138.41
522.743	5208.46
523.11	5186.09
523.477	5295.92
523.843	5276.94
524.21	5342.92
524.577	5349.25
524.943	5357.84
525.31	5376.82
525.676	5399.42
526.043	5439.65
526.409	5467.89
526.776	5508.34
527.142	5495.24
527.508	5510.38
527.874	5594.22
528.241	5592.18
528.607	5619.75
528.973	5722.58
529.339	5604.39
529.705	5772.52
530.071	5732.97
530.437	5817.04
530.803	5794.66
531.169	5833.08
531.535	5821.56
531.901	5810.26
532.267	5895.45
532.632	5923.02
532.998	5965.51
533.364	5993.98
533.73	5968.67
534.095	6031.95
534.461	6011.83
534.826	6065.39
535.192	6040.08
535.557	6149.91
535.923	6138.61
536.288	6197.14
536.653	6226.29
537.019	6209.12
537.384	6212.28
537.749	6238.04
538.114	6285.5
538.479	6275.78
538.845	6317.14
539.21	6270.81
539.575	6353.29
539.94	6373.86
540.305	6440.07
540.67	6396.46
541.034	6485.49
541.399	6563.01
541.764	6549.9
542.129	6534.53
542.494	6567.3
542.858	6628.54
543.223	6627.18
543.587	6694.75
543.952	6597.35
544.316	6716.9
544.681	6678.71
545.045	6784.47
545.41	6786.05
545.774	6830.57
546.138	6818.37
546.503	6825.82
546.867	6829.21
547.231	6924.8
547.595	6904.01
547.959	6953.28
548.324	6942.43
548.688	7021.98
549.052	6977.91
549.416	7048.42
549.779	7058.59
550.143	7119.6
550.507	7093.84
550.871	7146.49
551.235	7113.95
551.599	7195.31
551.962	7159.6
552.326	7213.61
552.689	7278.69
553.053	7258.58
553.417	7302.87
553.78	7364.34
554.143	7345.36
554.507	7421.74
554.87	7420.84
555.234	7512.81
555.597	7412.7
555.96	7478.91
556.323	7500.83
556.686	7494.05
557.05	7507.39
557.413	7561.62
557.776	7601.62
558.139	7623.09
558.502	7567.95
558.865	7675.52
559.228	7648.85
559.59	7767.72
559.953	7627.38
560.316	7788.96
560.679	7738.79
561.041	7794.61
561.404	7872.58
561.767	7840.03
562.129	7853.82
562.492	7957.32
562.854	7932.91
563.217	7899.69
563.579	7978.56
563.941	8056.53
564.304	7968.39
564.666	8102.4
565.028	8112.34
565.39	8193.47
565.753	8124.09
566.115	8196.86
566.477	8175.62
566.839	8303.3
567.201	8204.54
567.563	8314.82
567.925	8303.75
568.287	8312.11
568.648	8316.63
569.01	8435.05
569.372	8447.25
569.734	8430.53
570.095	8526.8
570.457	8573.57
570.819	8591.65
571.18	8611.09
571.542	8713.46
571.903	8715.94
572.265	8686.34
572.626	8822.38
572.987	8823.96
573.349	8924.07
573.71	8916.84
574.071	8987.35
574.432	9016.95
574.794	9138.53
575.155	9143.28
575.516	9136.95
575.877	9244.52
576.238	9374.23
576.599	9425.75
576.96	9469.82
577.32	9570.38
577.681	9564.06
578.042	9676.14
578.403	9764.05
578.763	9861.22
579.124	9925.4
579.485	10020.32
579.845	10106.87
580.206	10234.55
580.566	10298.95
580.927	10552.51
581.287	10594.09
581.648	10705.27
582.008	10914.3
582.368	10978.03
582.728	11158.36
583.089	11317.23
583.449	11449.88
583.809	11662.31
584.169	11818.01
584.529	11967.61
584.889	12243.53
585.249	12345
585.609	12564.2
585.969	12723.97
586.329	12922.84
586.688	13188.14
587.048	13394.69
587.408	13561.69
587.768	13729.6
588.127	14093.2
588.487	14258.85
588.846	14589.91
589.206	14819.74
589.565	14942.9
589.925	15310.57
590.284	15498.14
590.643	15809.09
591.003	16112.36
591.362	16391
591.721	16718.22
592.08	16911.66
592.44	17254.02
592.799	17438.65
593.158	17744.18
593.517	18030.27
593.876	18424.39
594.235	18547.55
594.593	18874.32
594.952	19192.73
595.311	19427.07
595.67	19861.19
596.029	20358.57
596.387	20547.04
596.746	20773.03
597.104	21045.56
597.463	21282.84
597.822	21696.84
598.18	21841.7
598.538	22183.16
598.897	22586.54
599.255	22658.18
599.613	23381.77
599.972	23354.2
600.33	23726.62
600.688	23961.42
601.046	24288.64
601.404	24760.72
601.762	25002.29
602.12	25294.94
602.478	25623.52
602.836	25877.3
603.194	25972.66
603.552	26284.29
603.91	26516.15
604.268	26810.16
604.625	26994.78
604.983	27460.54
605.341	27388.22
605.698	27900.3
606.056	28118.37
606.413	28275.88
606.771	28611.01
607.128	28932.81
607.485	28985.01
607.843	29185.91
608.2	29582.97
608.557	29808.27
608.914	29897.76
609.272	30215.72
609.629	30485.54
609.986	30746.1
610.343	30954.23
610.7	31397.15
611.057	31462.01
611.414	31676.02
611.771	31917.59
612.127	32146.97
612.484	32300.63
612.841	32583.79
613.198	32688.87
613.554	32832.37
613.911	33188.97
614.267	33224.45
614.624	33442.52
614.98	33565.69
615.337	33914.6
615.693	34094.03
616.05	34045.45
616.406	34383.97
616.762	34439.33
617.118	34540.12
617.475	34675.49
617.831	34967.23
618.187	35059.43
618.543	35296.26
618.899	35595.46
619.255	35619.87
619.611	35638.17
619.967	35910.26
620.323	36006.3
620.678	36070.48
621.034	36089.46
621.39	36190.47
621.746	36163.58
622.101	36717.24
622.457	36610.58
622.812	36764.47
623.168	36884.02
623.523	37160.39
623.879	37111.58
624.234	37018.93
624.589	37282.65
624.945	37296.89
625.3	37494.17
625.655	37477.45
626.01	37656.43
626.365	37663.88
626.72	37786.14
627.075	37752.24
627.43	37803.54
627.785	37827.95
628.14	38088.05
628.495	38021.84
628.85	38046.25
629.205	38018.68
629.559	38430.19
629.914	38229.97
630.269	38295.28
630.623	38316.07
630.978	38177.54
631.332	38350.42
631.687	38485.33
632.041	38486.01
632.396	38694.36
632.75	38543.63
633.104	38641.48
633.459	38422.05
633.813	38484.2
634.167	38587.7
634.521	38601.49
634.875	38683.29
635.229	38573.92
635.583	38575.5
635.937	38514.71
636.291	38451.88
636.645	38546.8
636.999	38413.69
637.352	38603.52
637.706	38475.61
638.06	38700.92
638.413	38499.11
638.767	38416.63
639.121	38612.33
639.474	38415.05
639.828	38410.08
640.181	38674.7
640.534	38473.58
640.888	38418.89
641.241	38394.26
641.594	38509.06
641.947	38541.37
642.301	38444.65
642.654	38549.73
643.007	38608.49
643.36	38387.48
643.713	38419.34
644.066	38631.31
644.419	38359.46
644.771	38200.37
645.124	37844.22
645.477	37717.21
645.83	37584.34
646.182	37437.22
646.535	37327.17
646.888	37468.41
647.24	37193.61
647.593	37456.88
647.945	37420.95
648.298	37269.32
648.65	37186.16
649.002	37083.11
649.355	37248.98
649.707	37207.17
650.059	37393.16
650.411	37893.71
650.763	37881.28
651.115	38162.85
651.467	38137.09
651.819	38137.09
652.171	38151.33
652.523	37962.63
652.875	37872.69
653.227	37785.69
653.578	37978.22
653.93	37998.79
654.282	37787.95
654.633	37707.72
654.985	37944.33
655.337	37759.93
655.688	37868.85
656.039	37933.25
656.391	37569.65
656.742	37744.33
657.094	37787.95
657.445	37804.44
657.796	37785.69
658.147	37657.56
658.498	37664.33
658.849	37693.49
659.2	37718.57
659.551	37714.73
659.902	37896.64
660.253	37795.63
660.604	37782.07
660.955	37738.23
661.306	37650.78
661.656	37749.53
662.007	37641.51
662.358	37568.52
662.708	37675.18
663.059	37607.16
663.409	37342.54
663.76	37714.5
664.11	37650.1
664.461	37710.89
664.811	37679.25
665.161	37680.15
665.511	37423.89
665.862	37579.37
666.212	37681.28
666.562	37842.63
666.912	37394.29
667.262	37534.62
667.612	37548.18
667.962	37518.8
668.312	37551.12
668.662	37826.59
669.011	37535.52
669.361	37475.64
669.711	37408.3
670.06	37518.58
670.41	37324
670.76	37339.15
671.109	37558.8
671.459	37391.12
671.808	37520.84
672.157	37368.98
672.507	37212.59
672.856	37269.77
673.205	37400.16
673.554	37437.22
673.904	37319.48
674.253	37512.02
674.602	37330.78
674.951	36784.36
675.3	36631.14
675.649	37262.54
675.998	37116.1
676.346	37138.47
676.695	37269.99
677.044	36992.04
677.393	37296.43
677.741	37338.47
678.09	37237.68
678.438	36981.19
678.787	37127.17
679.135	37056.44
679.484	36920.17
679.832	37086.5
680.181	36893.51
680.529	36871.59
680.877	36884.92
681.225	36790.46
681.573	37063.9
681.922	36778.03
682.27	36651.93
682.618	36677.02
682.966	36592.95
683.314	36510.24
683.661	36517.02
684.009	36344.14
684.357	36257.82
684.705	36222.11
685.053	36190.02
685.4	36183.24
685.748	36093.3
686.095	36062.57
686.443	35946.41
686.79	35834.1
687.138	35964.27
687.485	35985.06
687.832	35749.36
688.18	35922.46
688.527	35595.91
688.874	35697.61
689.221	35585.29
689.568	35528.8
689.915	35438.4
690.262	35270.5
690.609	35268.47
690.956	35203.83
691.303	35166.55
691.65	34892.88
691.997	34967.46
692.344	34902.37
692.69	34901.24
693.037	34848.82
693.383	34505.32
693.73	34681.59
694.077	34468.26
694.423	34526.79
694.769	34397.08
695.116	34397.98
695.462	34230.3
695.808	34165.22
696.155	34200.7
696.501	33878.22
696.847	33865.79
697.193	33656.3
697.539	33725.91
697.885	33486.82
698.231	33464.9
698.577	33380.83
698.923	33307.16
699.269	33191.46
699.614	33011.58
699.96	33071.46
700.306	33114.85
700.651	32883.9
700.997	32890.22
701.342	32845.25
701.688	32659.95
702.033	32690.91
702.379	32548.99
702.724	32480.74
703.069	32559.61
703.415	32161.88
703.76	32204.14
704.105	32249.11
704.45	32143.58
704.795	32059.06
705.14	31873.98
705.485	31902.68
705.83	31683.93
706.175	31859.74
706.52	31671.27
706.865	31595.57
707.209	31648
707.554	31378.85
707.899	31539.75
708.243	31439.87
708.588	31326.2
708.932	31116.71
709.277	31159.65
709.621	31130.5
709.966	30858.19
710.31	31038.97
710.654	30670.17
710.998	30755.59
711.342	30700.68
711.687	30683.05
712.031	30500.68
712.375	30399.21
712.719	30419.1
713.063	30411.42
713.407	30488.25
713.75	30313.57
714.094	30360.8
714.438	30162.61
714.782	30260.24
715.125	30006.46
715.469	30125.55
715.812	29890.53
716.156	29730.08
716.499	29763.75
716.843	29739.8
717.186	29640.36
717.53	29731.66
717.873	29712.68
718.216	29632
718.559	29456.41
718.902	29331.9
719.246	29428.17
719.589	29406.25
719.932	29082.19
720.275	29240.38
720.617	29199.92
720.96	29163.09
721.303	29105.92
721.646	29123.32
721.989	28839.26
722.331	29102.98
722.674	28924
723.016	28987.73
723.359	28719.71
723.701	28920.16
724.044	28653.5
724.386	28504.8
724.729	28649.43
725.071	28577.79
725.413	28670.45
725.755	28596.1
726.097	28476.1
726.439	28339.83
726.782	28289.89
727.124	28382.54
727.465	28209.67
727.807	28156.34
728.149	28186.62
728.491	28069.33
728.833	28182.1
729.175	28096.22
729.516	28035.21
729.858	27961.09
730.199	27962.22
730.541	28004.93
730.882	27974.87
731.224	27960.63
731.565	27728.78
731.906	27735.1
732.248	27678.83
732.589	27648.33
732.93	27518.16
733.271	27521.55
733.612	27628.21
733.953	27541.21
734.294	27437.71
734.635	27376.47
734.976	27427.99
735.317	27333.31
735.658	27252.86
735.999	27221.67
736.339	27230.03
736.68	27190.71
737.021	27096.93
737.361	27074.56
737.702	27032.3
738.042	27026.65
738.383	27029.59
738.723	26998.85
739.063	26839.53
739.404	26854.68
739.744	26882.7
740.084	26683.61
740.424	26671.86
740.764	26679.99
741.104	26853.77
741.444	26579.65
741.784	26580.33
742.124	26621.69
742.464	26569.03
742.804	26352.77
743.143	26405.87
743.483	26423.95
743.823	26307.8
744.162	26310.96
744.502	26366.33
744.841	26242.04
745.181	26267.12
745.52	26193.9
745.86	26289.27
746.199	26166.11
746.538	26115.03
746.877	26119.1
747.216	26193.68
747.556	26072.55
747.895	26037.97
748.234	25865.77
748.573	25826.91
748.911	25825.78
749.25	25801.6
749.589	25604.09
749.928	25707.59
750.267	25618.55
750.605	25645.22
750.944	25593.92
751.283	25489.74
751.621	25503.52
751.96	25363.19
752.298	25364.54
752.636	25469.63
752.975	25299.91
753.313	25089.75
753.651	25272.34
753.989	25064.44
754.327	25030.54
754.666	24931.79
755.004	25080.94
755.342	24941.05
755.679	24921.17
756.017	24766.14
756.355	24775.18
756.693	24687.27
757.031	24739.7
757.368	24657.67
757.706	24550.78
758.044	24507.84
758.381	24526.6
758.719	24329.77
759.056	24418.58
759.394	24371.12
759.731	24129.1
760.068	24149.89
760.405	24081.19
760.743	24003.9
761.08	24022.21
761.417	23882.78
761.754	23741.76
762.091	23908.76
762.428	23675.55
762.765	23542.45
763.102	23680.97
763.438	23491.15
763.775	23246.41
764.112	23432.39
764.449	23347.42
764.785	23202.12
765.122	23026.3
765.458	23091.38
765.795	22912.41
766.131	22900.2
766.467	22918.51
766.804	22767.33
767.14	22603.26
767.476	22710.15
767.812	22634.22
768.148	22596.93
768.485	22576.82
768.821	22343.83
769.157	22196.49
769.492	22232.65
769.828	22236.94
770.164	21971.87
770.5	21931.64
770.836	22054.12
771.171	21823.62
771.507	21760.8
771.842	21551.99
772.178	21735.94
772.513	21587.47
772.849	21500.24
773.184	21388.83
773.519	21364.42
773.855	21230.42
774.19	21058.9
774.525	21117.65
774.86	21045.34
775.195	20982.29
775.53	20920.14
775.865	20827.04
776.2	20644.67
776.535	20537.33
776.87	20522.64
777.205	20391.57
777.539	20332.13
777.874	20405.35
778.209	20220.73
778.543	20156.77
778.878	19958.36
779.212	20065.02
779.547	19878.36
779.881	19960.85
780.215	19863.22
780.55	19851.7
780.884	19712.26
781.218	19648.76
781.552	19746.39
781.886	19547.97
782.22	19415.32
782.554	19434.31
782.888	19175.56
783.222	19152.5
783.556	19080.19
783.889	19109.57
784.223	18909.57
784.557	18915.22
784.89	18923.36
785.224	18822.8
785.557	18733.53
785.891	18644.95
786.224	18629.13
786.558	18645.17
786.891	18437.5
787.224	18380.32
787.557	18256.94
787.891	18251.29
788.224	18197.95
788.557	18199.54
788.89	18051.06
789.223	18095.13
789.556	17976.72
789.888	17891.75
790.221	17815.59
790.554	17773.33
790.887	17807.23
791.219	17634.35
791.552	17574.92
791.884	17599.55
792.217	17473.45
792.549	17403.85
792.882	17251.99
793.214	17154.37
793.546	17314.59
793.879	17206.12
794.211	17175.16
794.543	17063.29
794.875	17018.32
795.207	17124.99
795.539	17035.72
795.871	16944.65
796.203	16671.21
796.535	16690.42
796.867	16695.62
797.198	16644.77
797.53	16635.28
797.862	16441.62
798.193	16544.21
798.525	16430.32
798.856	16445.68
799.188	16198.68
799.519	16209.76
799.85	16096.99
800.182	16143.77
800.513	16121.17
800.844	15962.31
801.175	16050.89
801.506	16044.34
801.837	15805.25
802.168	15890.9
802.499	15830.11
802.83	15712.6
803.161	15675.99
803.491	15671.01
803.822	15610.45
804.153	15592.37
804.483	15466.05
804.814	15313.06
805.145	15431.92
805.475	15409.1
805.805	15342.66
806.136	15282.78
806.466	15326.84
806.796	15214.98
807.126	15127.53
807.457	15083.69
807.787	15093.4
808.117	14997.59
808.447	14888.89
808.777	15068.09
809.107	14905.61
809.436	14864.71
809.766	14911.26
810.096	14803.24
810.426	14736.12
810.755	14851.15
811.085	14687.99
811.414	14644.6
811.744	14537.71
812.073	14540.2
812.403	14566.86
812.732	14349.02
813.061	14393.53
813.39	14261.79
813.719	14391.95
814.049	14392.63
814.378	14284.61
814.707	14162.81
815.036	14126.2
815.365	14164.39
815.693	14037.61
816.022	14080.1
816.351	14023.37
816.68	13991.74
817.008	14026.76
817.337	13852.08
817.665	13821.35
817.994	13808.46
818.322	13834.68
818.651	13747.22
818.979	13716.04
819.307	13791.29
819.636	13740.22
819.964	13595.36
820.292	13641.46
820.62	13646.66
820.948	13517.4
821.276	13678.3
821.604	13570.5
821.932	13656.15
822.259	13608.47
822.587	13554.91
822.915	13516.49
823.243	13624.97
823.57	13493.44
823.898	13547.91
824.225	13499.77
824.553	13600.56
824.88	13420.23
825.207	13442.82
825.535	13538.87
825.862	13509.26
826.189	13467.91
826.516	13510.17
826.843	13536.16
827.17	13497.51
827.497	13551.07
827.824	13590.17
828.151	13476.95
828.478	13465.2
828.805	13528.02
829.131	13490.28
829.458	13485.54
829.785	13415.48
830.111	13521.92
830.438	13545.19
830.764	13487.12
831.09	13509.49
831.417	13402.6
831.743	13468.59
832.069	13464.29
832.395	13346.1
832.722	13428.59
833.048	13401.7
833.374	13474.69
833.7	13362.6
834.026	13326.44
834.351	13351.75
834.677	13321.92
835.003	13362.6
835.329	13360.79
835.654	13296.84
835.98	13287.57
836.306	13252.32
836.631	13238.08
836.956	13248.48
837.282	13230.4
837.607	13149.05
837.932	13216.62
838.258	13089.16
838.583	13137.97
838.908	13074.92
839.233	13105.66
839.558	13076.28
839.883	12985.66
840.208	13001.48
840.533	12949.96
840.858	12950.18
841.182	12932.78
841.507	12915.83
841.832	12785.21
842.156	12848.04
842.481	12820.47
842.805	12809.85
843.13	12787.02
843.454	12736.4
843.778	12681.71
844.103	12654.82
844.427	12611.89
844.751	12700.7
845.075	12521.04
845.399	12542.28
845.723	12408.95
846.047	12469.06
846.371	12370.54
846.695	12370.54
847.019	12288.73
847.343	12229.98
847.666	12226.36
847.99	12157.21
848.313	12119.92
848.637	12090.32
848.96	12048.96
849.284	11969.19
849.607	11911.11
849.931	11889.19
850.254	11732.59
850.577	11706.82
850.9	11694.4
851.223	11661.4
851.546	11545.25
851.869	11558.58
852.192	11578.92
852.515	11424.35
852.838	11335.08
853.161	11386.83
853.483	11302.32
853.806	11339.83
854.129	11240.4
854.451	11285.14
854.774	11162.66
855.096	11195.2
855.419	11132.15
855.741	11093.96
856.063	11047.18
856.385	10994.3
856.708	10996.56
857.03	10861.88
857.352	10981.19
857.674	10939.39
857.996	10886.06
858.318	10791.82
858.64	10850.12
858.961	10778.71
859.283	10739.39
859.605	10674.31
859.926	10754.31
860.248	10672.73
860.57	10553.41
860.891	10610.58
861.212	10547.08
861.534	10569.23
861.855	10566.06
862.176	10509.12
862.498	10460.98
862.819	10469.8
863.14	10455.11
863.461	10421.89
863.782	10285.17
864.103	10433.64
864.424	10303.92
864.745	10298.73
865.065	10316.35
865.386	10295.79
865.707	10314.55
866.027	10315.45
866.348	10276.35
866.668	10233.42
866.989	10199.52
867.309	10156.36
867.63	10217.37
867.95	10147.09
868.27	10148.9
868.59	10164.27
868.91	10140.09
869.23	10164.72
869.55	10093.08
869.87	10107.77
870.19	10041.11
870.51	10126.98
870.83	10027.1
871.15	9989.13
871.469	10028.23
871.789	10022.35
872.109	9966.08
872.428	9966.31
872.748	9937.83
873.067	9952.29
873.386	9934.22
873.706	9849.02
874.025	9901.9
874.344	9780.32
874.663	9864.84
874.982	9753.88
875.301	9787.55
875.62	9773.99
875.939	9740.55
876.258	9709.59
876.577	9699.87
876.896	9695.8
877.214	9708.46
877.533	9632.76
877.852	9650.61
878.17	9598.41
878.489	9693.54
878.807	9698.52
879.125	9644.05
879.444	9612.87
879.762	9554.11
880.08	9576.94
880.398	9577.16
880.716	9553.89
881.034	9494.68
881.352	9451.74
881.67	9473.66
881.988	9447.22
882.306	9391.86
882.624	9407.68
882.941	9313.89
883.259	9375.36
883.577	9366.55
883.894	9254.01
884.212	9266.89
884.529	9280.9
884.846	9276.15
885.164	9237.51
885.481	9206.78
885.798	9205.65
886.115	9181.69
886.432	9110.06
886.75	9064.86
887.067	9129.04
887.383	9015.37
887.7	9076.16
888.017	9014.01
888.334	9023.73
888.651	8929.27
888.967	8979.67
889.284	8928.82
889.6	8834.58
889.917	8826.45
890.233	8809.95
890.55	8754.13
890.866	8744.42
891.182	8788.94
891.498	8702.84
891.815	8680.46
892.131	8651.09
892.447	8671.88
892.763	8605.44
893.079	8641.37
893.395	8580.58
893.71	8509.39
894.026	8588.49
894.342	8550.52
894.657	8460.36
894.973	8475.5
895.289	8463.29
895.604	8352.79
895.92	8329.74
896.235	8336.52
896.55	8330.87
896.865	8280.47
897.181	8289.97
897.496	8254.71
897.811	8225.56
898.126	8197.54
898.441	8188.5
898.756	8192.57
899.071	8099.24
899.386	8107.15
899.7	8004.32
900.015	7979.69
900.33	7991.22
900.644	7885.23
900.959	7945.57
901.273	7975.17
901.588	7895.17
901.902	7878.23
902.216	7853.82
902.531	7809.07
902.845	7792.58
903.159	7704.9
903.473	7685.46
903.787	7671.22
904.101	7651.79
904.415	7647.04
904.729	7636.65
905.042	7537.67
905.356	7472.13
905.67	7516.65
905.984	7534.51
906.297	7428.97
906.611	7460.83
906.924	7409.76
907.237	7382.19
907.551	7322.08
907.864	7376.77
908.177	7300.39
908.491	7257.22
908.804	7202.08
909.117	7231.24
909.43	7151.24
909.743	7118.7
910.056	7099.71
910.368	7064.46
910.681	7035.54
910.994	6992.15
911.307	7006.84
911.619	7007.51
911.932	6980.4
912.244	6850.46
912.557	6899.04
912.869	6887.52
913.181	6829.44
913.494	6795.99
913.806	6770.46
914.118	6768.88
914.43	6673.28
914.742	6713.06
915.054	6651.14
915.366	6624.7
915.678	6640.52
915.99	6527.3
916.302	6565.94
916.613	6486.4
916.925	6503.8
917.236	6501.99
917.548	6438.26
917.859	6421.99
918.171	6428.09
918.482	6357.36
918.794	6341.54
919.105	6322.56
919.416	6241.21
919.727	6272.62
920.038	6289.34
920.349	6224.48
920.66	6155.78
920.971	6145.39
921.282	6099.97
921.593	6105.62
921.903	6071.94
922.214	6073.75
922.525	6049.8
922.835	6050.93
923.146	5973.19
923.456	5946.07
923.767	5951.5
924.077	5904.72
924.387	5868.11
924.697	5842.12
925.008	5861.33
925.318	5795.12
925.628	5791.95
925.938	5757.83
926.248	5736.36
926.558	5731.61
926.867	5697.27
927.177	5638.74
927.487	5598.29
927.796	5563.03
928.106	5585.18
928.416	5577.27
928.725	5553.54
929.034	5479.64
929.344	5544.5
929.653	5467.22
929.962	5411.62
930.271	5403.49
930.581	5439.42
930.89	5341.57
931.199	5355.13
931.508	5341.79
931.817	5304.73
932.125	5330.72
932.434	5326.43
932.743	5219.31
933.051	5217.96
933.36	5187.9
933.669	5206.66
933.977	5118.98
934.286	5138.86
934.594	5126.21
934.902	5066.32
935.21	5091.63
935.519	5082.37
935.827	5006.21
936.135	5004.85
936.443	4950.39
936.751	4929.38
937.059	4931.41
937.367	4903.16
937.674	4906.55
937.982	4893.44
938.29	4872.65
938.597	4829.94
938.905	4789.04
939.213	4800.34
939.52	4729.83
939.827	4773.9
940.135	4721.47
940.442	4725.77
940.749	4709.49
941.056	4720.12
941.363	4660.68
941.67	4645.54
941.977	4611.64
942.284	4578.42
942.591	4577.97
942.898	4569.84
943.205	4528.71
943.511	4513.34
943.818	4490.52
944.125	4478.31
944.431	4439.9
944.738	4441.03
945.044	4430.86
945.35	4382.95
945.657	4344.31
945.963	4378.66
946.269	4330.07
946.575	4345.44
946.881	4335.04
947.187	4324.42
947.493	4270.41
947.799	4264.31
948.105	4253.91
948.41	4205.33
948.716	4200.13
949.022	4185.21
949.327	4135.72
949.633	4104.54
949.938	4154.48
950.244	4126.01
950.549	4080.58
950.854	4081.49
951.16	4060.7
951.465	4018.21
951.77	4029.74
952.075	3993.58
952.38	4004.88
952.685	4013.69
952.99	3938.89
953.294	3918.78
953.599	3909.74
953.904	3919.23
954.209	3868.39
954.513	3907.93
954.818	3859.35
955.122	3844.88
955.426	3814.6
955.731	3775.73
956.035	3758.56
956.339	3778.67
956.643	3761.27
956.948	3723.53
957.252	3746.81
957.556	3684.21
957.86	3722.63
958.163	3715.62
958.467	3682.86
958.771	3696.87
959.075	3647.6
959.378	3605.57
959.682	3612.57
959.985	3592.01
960.289	3617.55
960.592	3519.24
960.896	3532.8
961.199	3506.36
961.502	3522.41
961.805	3475.63
962.108	3488.06
962.411	3463.88
962.714	3448.51
963.017	3425.23
963.32	3387.95
963.623	3371.9
963.926	3400.83
964.228	3382.75
964.531	3316.54
964.833	3335.52
965.136	3343.2
965.438	3307.95
965.741	3282.87
966.043	3290.78
966.345	3267.05
966.648	3268.63
966.95	3247.61
967.252	3215.97
967.554	3179.14
967.856	3198.12
968.158	3150.67
968.46	3203.32
968.761	3174.85
969.063	3156.77
969.365	3128.52
969.666	3128.97
969.968	3102.31
970.269	3107.05
970.571	3091.91
970.872	3084.9
971.174	3051.01
971.475	3006.71
971.776	3032.02
972.077	2991.57
972.378	2990.44
972.679	2980.73
972.98	2993.16
973.281	2935.76
973.582	2961.97
973.883	2965.81
974.183	2919.71
974.484	2887.85
974.785	2892.37
975.085	2921.29
975.386	2896.44
975.686	2902.31
975.986	2841.75
976.287	2825.93
976.587	2784.8
976.887	2835.42
977.187	2805.82
977.487	2805.14
977.787	2776.44
978.087	2748.64
978.387	2736.67
978.687	2715.65
978.987	2728.08
979.286	2715.65
979.586	2716.55
979.885	2705.93
980.185	2697.57
980.484	2631.13
980.784	2657.35
981.083	2644.01
981.382	2630.68
981.682	2631.58
981.981	2627.29
982.28	2598.82
982.579	2564.47
982.878	2577.12
983.177	2569.89
983.475	2539.61
983.774	2578.7
984.073	2524.24
984.372	2513.17
984.67	2531.7
984.969	2531.25
985.267	2463
985.566	2487.86
985.864	2498.71
986.162	2473.17
986.461	2445.15
986.759	2428.42
987.057	2418.48
987.355	2410.57
987.653	2414.64
987.951	2381.87
988.249	2378.71
988.547	2395.88
988.844	2320.18
989.142	2354.98
989.44	2314.98
989.737	2303.23
990.035	2285.15
990.332	2297.13
990.63	2308.2
990.927	2294.42
991.224	2286.96
991.521	2280.86
991.819	2249.45
992.116	2237.24
992.413	2216
992.71	2228.88
993.006	2211.71
993.303	2194.98
993.6	2208.32
993.897	2200.86
994.193	2184.59
994.49	2148.66
994.787	2126.29
995.083	2134.42
995.379	2127.19
995.676	2091.94
995.972	2094.87
996.268	2104.59
996.565	2071.15
996.861	2092.84
997.157	2067.3
997.453	2065.72
997.749	2059.85
998.044	2057.14
998.34	2053.52
998.636	1988.66
998.932	2005.61
999.227	2002.45
999.523	1983.46
999.818	1992.5
1000.114	1959.51
1000.409	1982.79
1000.704	1938.95
1001	1943.92
1001.295	1938.04
1001.59	1924.03
1001.885	1911.6
1002.18	1888.33
1002.475	1914.31
1002.77	1885.61
1003.065	1894.2
1003.359	1857.82
1003.654	1876.35
1003.949	1841.77
1004.243	1824.6
1004.538	1813.98
1004.832	1818.72
1005.127	1823.47
1005.421	1803.81
1005.715	1785.73
1006.009	1767.43
1006.304	1786.63
1006.598	1774.43
1006.892	1734.43
1007.186	1729.91
1007.48	1708.67
1007.773	1730.14
1008.067	1742.79
1008.361	1689.69
1008.655	1676.35
1008.948	1686.07
1009.242	1648.56
1009.535	1674.55
1009.829	1656.92
1010.122	1613.76
1010.415	1606.3
1010.708	1627.77
1011.001	1601.33
1011.295	1605.85
1011.588	1575.79
1011.881	1593.42
1012.173	1599.52
1012.466	1533.08
1012.759	1560.2
1013.052	1541.67
1013.344	1555.23
1013.637	1532.4
1013.93	1511.16
1014.222	1513.87
1014.514	1514.32
1014.807	1515.45
1015.099	1493.31
1015.391	1512.52
1015.683	1491.05
1015.976	1470.71
1016.268	1439.3
1016.56	1457.15
1016.851	1430.94
1017.143	1428.45
1017.435	1396.36
1017.727	1443.59
1018.018	1402.01
1018.31	1423.93
1018.602	1401.56
1018.893	1399.98
1019.185	1353.88
1019.476	1368.11
1019.767	1386.64
1020.058	1363.82
1020.35	1316.82
1020.641	1330.37
1020.932	1317.49
1021.223	1295.12
1021.514	1275.23
1021.804	1280.88
1022.095	1267.33
1022.386	1256.03
1022.677	1261
1022.967	1272.3
1023.258	1253.77
1023.548	1252.86
1023.839	1232.3
1024.129	1248.79
1024.419	1212.86
1024.709	1205.41
1025	1193.2
1025.29	1186.65
1025.58	1187.78
1025.87	1170.6
1026.16	1165.86
1026.449	1147.55
1026.739	1186.2
1027.029	1142.36
1027.319	1122.92
1027.608	1140.32
1027.898	1129.48
1028.187	1121.34
1028.477	1133.77
1028.766	1126.54
1029.055	1129.02
1029.344	1124.96
1029.634	1083.83
1029.923	1099.19
1030.212	1094.9
1030.501	1070.72
1030.79	1073.66
1031.078	1084.96
1031.367	1052.19
1031.656	1042.25
1031.945	1053.09
1032.233	1037.73
1032.522	1002.47
1032.81	1022.36
1033.099	1006.32
1033.387	1004.28
1033.675	1006.32
1033.963	972.42
1034.251	989.14
1034.54	966.99
1034.828	975.13
1035.116	970.61
1035.403	971.74
1035.691	958.41
1035.979	947.56
1036.267	931.52
1036.554	934
1036.842	970.84
1037.129	932.64
1037.417	920.67
1037.704	933.32
1037.992	898.3
1038.279	902.82
1038.566	889.93
1038.853	889.93
1039.14	889.93
