Data from hue_26_FLMS001491_00081.txt Node
Date: Tue Feb 07 17:14:40 GMT 2017
User: dcchb
Spectrometer: FLMS00149
Trigger mode: 0
Integration Time (sec): 2.000000E-2
Scans to average: 10
Electric dark correction enabled: true
Nonlinearity correction enabled: false
Boxcar width: 0
XAxis mode: Wavelengths
Number of Pixels in Spectrum: 2048
>>>>>Begin Spectral Data<<<<<
341.393	-5.16
341.776	-5.16
342.16	-5.16
342.543	-68.2
342.927	-71.59
343.31	-60.52
343.693	-68.2
344.077	-71.14
344.46	-65.94
344.843	-53.74
345.226	-45.61
345.61	-25.04
345.993	-1.09
346.376	-4.93
346.759	14.05
347.142	20.61
347.525	32.13
347.908	59.7
348.291	66.71
348.674	94.5
349.057	108.51
349.44	117.33
349.823	137.21
350.206	164.56
350.588	196.87
350.971	211.79
351.354	228.96
351.737	245.01
352.119	236.87
352.502	262.63
352.884	260.83
353.267	277.55
353.65	308.96
354.032	304.89
354.414	313.48
354.797	319.58
355.179	314.38
355.562	322.29
355.944	331.33
356.326	329.53
356.709	330.43
357.091	344.89
357.473	330.88
357.855	333.59
358.238	358.68
358.62	347.6
359.002	359.81
359.384	334.5
359.766	340.15
360.148	360.48
360.53	361.84
360.912	352.35
361.294	319.13
361.676	333.14
362.057	343.76
362.439	326.14
362.821	321.16
363.203	331.11
363.584	324.55
363.966	337.89
364.348	345.8
364.729	318.9
365.111	306.47
365.493	308.28
365.874	297.44
366.256	326.81
366.637	335.63
367.019	330.88
367.4	322.75
367.781	294.95
368.163	330.66
368.544	305.35
368.925	333.37
369.306	339.02
369.688	326.14
370.069	300.83
370.45	315.06
370.831	314.84
371.212	327.49
371.593	306.93
371.974	314.84
372.355	308.73
372.736	281.39
373.117	302.18
373.498	296.31
373.879	314.16
374.26	317.1
374.641	329.07
375.021	317.55
375.402	319.58
375.783	309.19
376.163	334.04
376.544	301.28
376.925	344.67
377.305	327.27
377.686	304.44
378.066	336.76
378.447	310.54
378.827	339.47
379.208	331.33
379.588	330.88
379.968	337.66
380.349	334.95
380.729	326.59
381.109	333.37
381.489	324.55
381.87	339.69
382.25	338.79
382.63	331.33
383.01	313.03
383.39	347.38
383.77	346.47
384.15	352.58
384.53	344.67
384.91	339.69
385.29	345.57
385.67	347.15
386.049	346.25
386.429	344.67
386.809	337.21
387.189	344.21
387.568	345.8
387.948	341.28
388.328	375.63
388.707	352.12
389.087	358.23
389.466	379.02
389.846	372.01
390.225	352.12
390.605	348.06
390.984	364.33
391.363	349.41
391.743	362.97
392.122	371.33
392.501	359.13
392.881	351.67
393.26	369.3
393.639	369.98
394.018	369.07
394.397	368.62
394.776	370.65
395.155	391.9
395.534	385.79
395.913	376.76
396.292	386.47
396.671	393.93
397.05	384.67
397.429	376.76
397.808	379.02
398.186	380.6
398.565	396.19
398.944	368.17
399.323	383.31
399.701	398.68
400.08	410.43
400.458	369.98
400.837	402.52
401.215	402.29
401.594	385.79
401.972	390.09
402.351	418.79
402.729	403.42
403.107	402.52
403.486	407.04
403.864	399.58
404.242	409.75
404.62	397.77
404.999	401.84
405.377	411.11
405.755	406.13
406.133	412.69
406.511	439.8
406.889	431.22
407.267	423.99
407.645	426.25
408.023	425.57
408.401	435.06
408.779	435.51
409.156	429.18
409.534	439.8
409.912	447.49
410.29	449.07
410.667	447.26
411.045	421.27
411.422	451.78
411.8	448.39
412.178	458.56
412.555	432.12
412.933	455.4
413.31	465.57
413.687	469.18
414.065	460.82
414.442	471.89
414.819	466.7
415.197	496.53
415.574	480.03
415.951	492.68
416.328	479.8
416.705	486.13
417.082	493.36
417.46	485.45
417.837	489.3
418.214	467.15
418.591	485.91
418.967	509.18
419.344	501.27
419.721	507.6
420.098	514.15
420.475	515.51
420.852	530.42
421.228	514.15
421.605	511.44
421.982	515.74
422.358	532.46
422.735	528.84
423.111	525
423.488	522.06
423.864	553.7
424.241	535.85
424.617	532.46
424.994	528.62
425.37	561.16
425.746	554.83
426.123	565
426.499	532.01
426.875	564.1
427.251	556.86
427.627	567.49
428.003	568.16
428.379	583.53
428.756	562.06
429.132	584.66
429.507	569.97
429.883	580.82
430.259	619.91
430.635	581.04
431.011	612.68
431.387	626.24
431.763	614.72
432.138	611.55
432.514	625.56
432.89	621.04
433.265	624.88
433.641	642.74
434.016	641.61
434.392	643.87
434.767	650.65
435.143	662.4
435.518	666.69
435.894	681.38
436.269	690.65
436.644	680.7
437.02	686.13
437.395	704.43
437.77	666.69
438.145	703.98
438.52	692.91
438.895	706.24
439.271	703.98
439.646	717.31
440.021	737.88
440.395	714.37
440.77	726.12
441.145	723.19
441.52	731.55
441.895	743.98
442.27	742.4
442.645	745.79
443.019	739.68
443.394	722.74
443.769	744.2
444.143	758.89
444.518	751.89
444.892	741.27
445.267	756.86
445.641	774.03
446.016	765.22
446.39	772.23
446.764	795.73
447.139	775.84
447.513	844.77
447.887	807.7
448.262	788.72
448.636	778.78
449.01	813.35
449.384	809.74
449.758	823.52
450.132	826.91
450.506	825.11
450.88	809.74
451.254	846.35
451.628	841.38
452.002	856.29
452.376	872.56
452.75	868.04
453.123	871.21
453.497	870.75
453.871	887.7
454.244	876.86
454.618	892.22
454.992	900.36
455.365	913.69
455.739	934.48
456.112	916.4
456.486	929.51
456.859	940.13
457.232	963.41
457.606	932.67
457.979	941.03
458.352	966.8
458.725	993.46
459.099	990.98
459.472	1030.52
459.845	984.42
460.218	1008.83
460.591	1019.68
460.964	1039.11
461.337	1052.67
461.71	1054.48
462.083	1066.46
462.456	1051.09
462.829	1089.51
463.201	1099.67
463.574	1104.42
463.947	1114.36
464.32	1122.05
464.692	1111.88
465.065	1165.89
465.438	1165.66
465.81	1181.48
466.183	1220.8
466.555	1218.77
466.928	1235.94
467.3	1214.7
467.672	1255.15
468.045	1292.21
468.417	1299.67
468.789	1293.57
469.161	1313
469.534	1324.75
469.906	1356.39
470.278	1357.52
470.65	1389.16
471.022	1380.57
471.394	1416.73
471.766	1456.28
472.138	1463.96
472.51	1481.81
472.882	1498.53
473.253	1524.97
473.625	1564.52
473.997	1582.83
474.369	1589.83
474.74	1577.18
475.112	1619.21
475.484	1655.37
475.855	1704.63
476.227	1715.48
476.598	1760.9
476.97	1808.81
477.341	1837.73
477.713	1846.55
478.084	1864.4
478.455	1904.85
478.827	1945.08
479.198	1995.24
479.569	2007.67
479.94	2071.63
480.311	2099.65
480.682	2129.7
481.053	2171.96
481.424	2210.15
481.795	2225.52
482.166	2291.28
482.537	2344.61
482.908	2377.38
483.279	2396.14
483.65	2491.28
484.021	2530.15
484.391	2585.29
484.762	2595
485.133	2612.63
485.503	2718.39
485.874	2735.11
486.244	2784.6
486.615	2837.71
486.985	2889.01
487.356	2932.62
487.726	2954.31
488.097	3075.22
488.467	3067.98
488.837	3109.57
489.207	3204.93
489.578	3262.1
489.948	3260.97
490.318	3332.84
490.688	3359.73
491.058	3376.22
491.428	3472.04
491.798	3524.7
492.168	3561.08
492.538	3620.51
492.908	3681.53
493.278	3733.05
493.648	3742.99
494.017	3786.16
494.387	3831.58
494.757	3887.85
495.126	3977.56
495.496	3985.7
495.866	4007.62
496.235	4070.44
496.605	4074.74
496.974	4102.76
497.344	4140.05
497.713	4209.88
498.082	4236.77
498.452	4300.49
498.821	4291
499.19	4339.82
499.559	4406.25
499.928	4422.52
500.298	4451.9
500.667	4479.25
501.036	4480.83
501.405	4554.27
501.774	4558.57
502.143	4594.95
502.512	4610.09
502.88	4665.91
503.249	4674.5
503.618	4683.76
503.987	4785.91
504.356	4796.07
504.724	4819.35
505.093	4834.04
505.462	4836.07
505.83	4888.05
506.199	4870.65
506.567	4973.02
506.936	4953.81
507.304	5005.11
507.672	5052.56
508.041	5039.91
508.409	5059.34
508.777	5124.2
509.145	5177.31
509.514	5183.86
509.882	5200.58
510.25	5200.13
510.618	5244.42
510.986	5255.27
511.354	5280.81
511.722	5348.6
512.09	5369.17
512.458	5374.82
512.826	5420.01
513.193	5413.01
513.561	5461.82
513.929	5474.7
514.297	5501.37
514.664	5599.9
515.032	5556.73
515.4	5572.55
515.767	5589.05
516.135	5646.67
516.502	5615.71
516.869	5673.79
517.237	5679.44
517.604	5709.95
517.972	5759.89
518.339	5727.58
518.706	5763.05
519.073	5763.05
519.44	5790.85
519.808	5929.15
520.175	5889.61
520.542	5940.23
520.909	6000.79
521.276	5940.23
521.643	6021.8
522.009	6040.56
522.376	6086.44
522.743	6067.45
523.11	6114.46
523.477	6188.13
523.843	6150.39
524.21	6278.75
524.577	6312.42
524.943	6235.58
525.31	6312.87
525.676	6396.48
526.043	6405.07
526.409	6415.92
526.776	6468.8
527.142	6534.11
527.508	6521.9
527.874	6567.33
528.241	6593.77
528.607	6614.33
528.973	6705.63
529.339	6693.2
529.705	6724.16
530.071	6804.84
530.437	6798.28
530.803	6860.43
531.169	6937.04
531.535	6909.24
531.901	6909.92
532.267	6956.02
532.632	6982.46
532.998	7033.3
533.364	6998.95
533.73	7090.03
534.095	7140.19
534.461	7126.63
534.826	7208.89
535.192	7193.75
535.557	7291.83
535.923	7330.92
536.288	7325.05
536.653	7389.9
537.019	7286.63
537.384	7380.19
537.749	7338.61
538.114	7419.28
538.479	7427.87
538.845	7492.5
539.21	7467.19
539.575	7506.96
539.94	7547.19
540.305	7612.5
540.67	7605.72
541.034	7622.89
541.399	7699.73
541.764	7671.25
542.129	7802.55
542.494	7708.54
542.858	7822.66
543.223	7805.26
543.587	7867.18
543.952	7894.98
544.316	7867.63
544.681	7899.5
545.045	8011.13
545.41	8002.09
545.774	8024.92
546.138	8050.23
546.503	8083.22
546.867	8120.73
547.231	8184.69
547.595	8176.1
547.959	8271.92
548.324	8259.03
548.688	8240.05
549.052	8283.44
549.416	8348.3
549.779	8364.57
550.143	8416.32
550.507	8496.77
550.871	8477.56
551.235	8444.57
551.599	8498.8
551.962	8591.45
552.326	8567.95
552.689	8538.35
553.053	8635.3
553.417	8562.76
553.78	8678.01
554.143	8664.9
554.507	8701.96
554.87	8728.4
555.234	8862.41
555.597	8788.29
555.96	8839.81
556.323	8864.22
556.686	8898.57
557.05	8877.32
557.413	8935.63
557.776	9018.79
558.139	9125.23
558.502	9003.87
558.865	9096.75
559.228	9181.5
559.59	9192.8
559.953	9125.68
560.316	9288.39
560.679	9203.64
561.041	9258.1
561.404	9304.43
561.767	9370.19
562.129	9302.17
562.492	9420.36
562.854	9354.15
563.217	9427.14
563.579	9423.98
563.941	9454.94
564.304	9571.32
564.666	9629.17
565.028	9572.22
565.39	9644.99
565.753	9705.1
566.115	9794.36
566.477	9777.41
566.839	9796.62
567.201	9849.5
567.563	9901.25
567.925	9977.63
568.287	9896.05
568.648	9954.58
569.01	10038.2
569.372	10105.77
569.734	10093.11
570.095	10137.4
570.457	10272.99
570.819	10239.55
571.18	10288.81
571.542	10352.31
571.903	10409.71
572.265	10395.25
572.626	10485.19
572.987	10506.21
573.349	10561.57
573.71	10617.62
574.071	10690.16
574.432	10677.73
574.794	10804.05
575.155	10859.87
575.516	10847.21
575.877	10965.4
576.238	11063.25
576.599	11106.19
576.96	11178.05
577.32	11287.88
577.681	11377.6
578.042	11476.12
578.403	11502.56
578.763	11658.04
579.124	11682.45
579.485	11827.3
579.845	12000.4
580.206	12067.3
580.566	12081.53
580.927	12372.37
581.287	12402.88
581.648	12504.12
582.008	12673.61
582.368	12854.85
582.728	12913.83
583.089	13158.79
583.449	13211.45
583.809	13466.81
584.169	13672.45
584.529	13784.09
584.889	14065.89
585.249	14116.28
585.609	14355.6
585.969	14662.48
586.329	14772.08
586.688	15018.18
587.048	15197.61
587.408	15374.78
587.768	15744.49
588.127	15842.56
588.487	16228.09
588.846	16461.98
589.206	16575.65
589.565	16854.29
589.925	17179.93
590.284	17414.27
590.643	17675.28
591.003	18088.83
591.362	18387.36
591.721	18559.78
592.08	18730.17
592.44	19169.26
592.799	19413.09
593.158	19659.19
593.517	19986.64
593.876	20234.99
594.235	20531.03
594.593	20873.62
594.952	21084.23
595.311	21448.29
595.67	21805.12
596.029	22283.75
596.387	22424.76
596.746	22844.87
597.104	23013.67
597.463	23253.89
597.822	23724.39
598.18	23896.59
598.538	24118.05
598.897	24567.98
599.255	24738.83
599.613	25331.81
599.972	25327.74
600.33	25738.57
600.688	25954.16
601.046	26295.17
601.404	26698.78
601.762	26917.07
602.12	27342.15
602.478	27551.18
602.836	27840.21
603.194	28037.05
603.552	28412.85
603.91	28547.99
604.268	29030.01
604.625	29067.53
604.983	29355.65
605.341	29533.05
605.698	29862.31
606.056	30258
606.413	30331.9
606.771	30741.61
607.128	31008.72
607.485	31114.48
607.843	31422.49
608.2	31829.26
608.557	32049.82
608.914	32154
609.272	32479.87
609.629	32770.03
609.986	33172.28
610.343	33063.58
610.7	33488.2
611.057	33592.15
611.414	33792.83
611.771	33981.07
612.127	34374.73
612.484	34491.11
612.841	34787.83
613.198	34723.2
613.554	34919.12
613.911	35357.08
614.267	35439.79
614.624	35570.41
614.98	35689.05
615.337	36078.42
615.693	36271.41
616.05	36277.28
616.406	36682.24
616.762	36631.62
617.118	36835.46
617.475	36902.8
617.831	37188.22
618.187	37227.31
618.543	37400.19
618.899	37707.07
619.255	37636.34
619.611	37823.45
619.967	38040.4
620.323	38295.53
620.678	38247.62
621.034	38237.23
621.39	38323.55
621.746	38477
622.101	38967.83
622.457	38794.05
622.812	38948.85
623.168	39095.96
623.523	39168.28
623.879	39349.29
624.234	39117.66
624.589	39457.54
624.945	39469.74
625.3	39704.31
625.655	39748.83
626.01	39678.55
626.365	39799.9
626.72	39956.96
627.075	40002.61
627.43	39997.41
627.785	39905.66
628.14	40147.01
628.495	40316.5
628.85	40272.66
629.205	40209.61
629.559	40408.7
629.914	40291.64
630.269	40353.33
630.623	40242.15
630.978	40251.87
631.332	40615.02
631.687	40642.14
632.041	40473.55
632.396	40640.78
632.75	40499.09
633.104	40665.64
633.459	40503.16
633.813	40638.97
634.167	40516.27
634.521	40757.61
634.875	40785.41
635.229	40537.28
635.583	40513.1
635.937	40536.15
636.291	40460.9
636.645	40597.39
636.999	40522.59
637.352	40687.33
637.706	40467.23
638.06	40681.46
638.413	40533.89
638.767	40430.17
639.121	40644.85
639.474	40410.73
639.828	40525.3
640.181	40614.57
640.534	40610.27
640.888	40476.27
641.241	40267.68
641.594	40532.99
641.947	40510.84
642.301	40373.22
642.654	40608.69
643.007	40588.13
643.36	40471.75
643.713	40389.26
644.066	40612.31
644.419	40308.81
644.771	40179.78
645.124	39877.41
645.477	39740.47
645.83	39532.34
646.182	39295.96
646.535	39297.99
646.888	39469.29
647.24	39083.08
647.593	39402.17
647.945	39517.2
648.298	39201.95
648.65	39032.01
649.002	39000.37
649.355	39143.87
649.707	39294.15
650.059	39345.22
650.411	39897.07
650.763	39838.99
651.115	40359.66
651.467	40157.4
651.819	40234.24
652.171	40202.15
652.523	39971.65
652.875	40022.49
653.227	39993.79
653.578	40095.94
653.93	39947.69
654.282	39882.84
654.633	39790.41
654.985	39974.13
655.337	39952.66
655.688	39948.37
656.039	40089.38
656.391	39845.32
656.742	39755.16
657.094	39824.76
657.445	39786.57
657.796	39838.54
658.147	39774.14
658.498	39799
658.849	39885.32
659.2	39808.71
659.551	39788.15
659.902	39893.91
660.253	39813.23
660.604	39743.86
660.955	39656.85
661.306	39831.76
661.656	39686.46
662.007	39759.22
662.358	39740.47
662.708	39826.57
663.059	39736.62
663.409	39486.24
663.76	39800.58
664.11	39823.4
664.461	39878.99
664.811	39780.01
665.161	39787.02
665.511	39716.74
665.862	39704.31
666.212	39855.49
666.562	39817.07
666.912	39725.33
667.262	39771.65
667.612	39671.77
667.962	39735.04
668.312	39713.35
668.662	39819.33
669.011	39712.9
669.361	39499.12
669.711	39530.08
670.06	39683.07
670.41	39505.9
670.76	39441.72
671.109	39530.98
671.459	39479.46
671.808	39467.48
672.157	39689.85
672.507	39307.71
672.856	39445.11
673.205	39410.08
673.554	39582.05
673.904	39368.27
674.253	39703.41
674.602	39347.03
674.951	38936.19
675.3	38745.01
675.649	39352
675.998	39218.9
676.346	39364.66
676.695	39524.43
677.044	39236.98
677.393	39152.91
677.741	39230.2
678.09	39133.48
678.438	39001.28
678.787	39183.42
679.135	39192.46
679.484	38998.34
679.832	39046.02
680.181	38836.99
680.529	38873.37
680.877	38868.62
681.225	38755.18
681.573	38968.06
681.922	38731.23
682.27	38634.05
682.618	38694.62
682.966	38542.08
683.314	38614.17
683.661	38600.84
684.009	38240.84
684.357	38432.7
684.705	38222.31
685.053	38247.4
685.4	38299.6
685.748	38117.91
686.095	38034.97
686.443	37940.06
686.79	38021.42
687.138	38062.54
687.485	37785.72
687.832	37860.97
688.18	37804.92
688.527	37621.88
688.874	37609.9
689.221	37444.26
689.568	37407.42
689.915	37396.57
690.262	37457.14
690.609	37253.98
690.956	37284.94
691.303	37064.15
691.65	36977.83
691.997	36886.53
692.344	36869.36
692.69	36700.77
693.037	36706.65
693.383	36534.67
693.73	36690.15
694.077	36320.67
694.423	36410.16
694.769	36299.2
695.116	36150.73
695.462	36139.66
695.808	36012.2
696.155	36130.39
696.501	35765.2
696.847	35840.46
697.193	35531.09
697.539	35864.86
697.885	35428.49
698.231	35231.88
698.577	35424.65
698.923	35327.7
699.269	35218.1
699.614	34998.22
699.96	34850.2
700.306	35062.62
700.651	34649.53
700.997	34747.38
701.342	34678.23
701.688	34635.06
702.033	34470.77
702.379	34588.06
702.724	34323.21
703.069	34434.17
703.415	34059.71
703.76	34077.79
704.105	34154.85
704.45	34108.07
704.795	33795.76
705.14	33763.9
705.485	33722.32
705.83	33621.76
706.175	33551.25
706.52	33491.14
706.865	33364.36
707.209	33187.64
707.554	33226.97
707.899	33223.12
708.243	32960.76
708.588	33087.76
708.932	32909.69
709.277	32780.65
709.621	32808.22
709.966	32572.07
710.31	32726.87
710.654	32485.52
710.998	32492.75
711.342	32518.96
711.687	32370.26
712.031	32232.87
712.375	32138.86
712.719	32202.59
713.063	32035.58
713.407	32187.22
713.75	31945.19
714.094	31969.15
714.438	31846.66
714.782	31881.01
715.125	31774.35
715.469	31852.09
715.812	31601.02
716.156	31432.44
716.499	31504.07
716.843	31565.99
717.186	31376.62
717.53	31464.07
717.873	31405.32
718.216	31347.47
718.559	31156.06
718.902	30993.13
719.246	31076.74
719.589	30982.28
719.932	31036.51
720.275	30905.9
720.617	30912.9
720.96	30742.28
721.303	30728.05
721.646	30800.14
721.989	30566.24
722.331	30597.2
722.674	30612.12
723.016	30653.25
723.359	30567.6
723.701	30583.87
724.044	30412.8
724.386	30239.93
724.729	30401.73
725.071	30227.27
725.413	30233.15
725.755	30285.12
726.097	30117.89
726.439	30082.87
726.782	29961.74
727.124	30009.42
727.465	29936.88
727.807	29954.06
728.149	29885.13
728.491	29850.56
728.833	29902.76
729.175	29621.64
729.516	29549.77
729.858	29589.09
730.199	29483.56
730.541	29520.85
730.882	29457.12
731.224	29627.51
731.565	29508.87
731.906	29413.96
732.248	29482.66
732.589	29250.12
732.93	29219.61
733.271	29283.79
733.612	29072.27
733.953	29171.93
734.294	29165.15
734.635	29119.28
734.976	29158.15
735.317	28853.52
735.658	28988.66
735.999	29009.45
736.339	28781.43
736.68	28923.12
737.021	28712.28
737.361	28686.29
737.702	28716.35
738.042	28734.65
738.383	28609.01
738.723	28680.64
739.063	28603.81
739.404	28590.25
739.744	28504.38
740.084	28355.23
740.424	28432.29
740.764	28347.32
741.104	28402.69
741.444	28276.14
741.784	28196.14
742.124	28243.82
742.464	28269.36
742.804	28211.05
743.143	28031.85
743.483	28115.46
743.823	27972.41
744.162	27921.12
744.502	28022.13
744.841	27830.05
745.181	28057.38
745.52	27750.95
745.86	27839.76
746.199	27774.68
746.538	27731.06
746.877	27795.7
747.216	27809.93
747.556	27636.38
747.895	27576.04
748.234	27544.4
748.573	27492.65
748.911	27713.89
749.25	27371.3
749.589	27282.26
749.928	27408.14
750.267	27411.75
750.605	27312.77
750.944	27206.78
751.283	27203.39
751.621	27156.39
751.96	27000.24
752.298	26978.77
752.636	27064.42
752.975	26977.41
753.313	26800.02
753.651	26858.77
753.989	26733.35
754.327	26788.72
754.666	26620.36
755.004	26703.75
755.342	26674.14
755.679	26608.83
756.017	26510.08
756.355	26472.57
756.693	26344.66
757.031	26456.07
757.368	26235.96
757.706	26230.09
758.044	26148.73
758.381	26138.34
758.719	26078
759.056	26158.9
759.394	25963.2
759.731	25795.97
760.068	25780.38
760.405	25652.93
760.743	25691.34
761.08	25756.65
761.417	25725.47
761.754	25567.73
762.091	25402.99
762.428	25412.48
762.765	25203.22
763.102	25424.68
763.438	25111.92
763.775	25185.37
764.112	25167.06
764.449	24921.65
764.785	24916.68
765.122	24728.66
765.458	24727.08
765.795	24672.39
766.131	24658.6
766.467	24554.65
766.804	24346.75
767.14	24379.51
767.476	24392.85
767.812	24165.51
768.148	24203.02
768.485	24153.31
768.821	24095.91
769.157	23991.05
769.492	23822.01
769.828	23794.44
770.164	23550.84
770.5	23618.4
770.836	23488.69
771.171	23412.08
771.507	23404.17
771.842	23244.18
772.178	23197.4
772.513	23121.24
772.849	23050.96
773.184	22840.35
773.519	22979.33
773.855	22780.69
774.19	22609.84
774.525	22547.92
774.86	22607.36
775.195	22608.26
775.53	22394.71
775.865	22385.89
776.2	22181.61
776.535	22039.69
776.87	22119.69
777.205	22050.08
777.539	21848.51
777.874	21927.83
778.209	21827.94
778.543	21741.84
778.878	21501.85
779.212	21470.21
779.547	21418.24
779.881	21491
780.215	21293.27
780.55	21395.64
780.884	21267.28
781.218	21067.96
781.552	21138.92
781.886	20961.98
782.22	20805.6
782.554	20830.46
782.888	20585.26
783.222	20611.93
783.556	20501.2
783.889	20393.86
784.223	20354.76
784.557	20268.89
784.89	20301.43
785.224	20114.09
785.557	20074.77
785.891	19988.67
786.224	19973.53
786.558	19928.78
786.891	19794.32
787.224	19797.94
787.557	19611.96
787.891	19601.79
788.224	19610.83
788.557	19573.99
788.89	19502.81
789.223	19479.98
789.556	19324.96
789.888	19286.99
790.221	19139.2
790.554	18990.05
790.887	19130.16
791.219	19024.4
791.552	18874.12
791.884	18757.52
792.217	18803.39
792.549	18740.57
792.882	18570.18
793.214	18517.52
793.546	18538.31
793.879	18381.93
794.211	18297.41
794.543	18494.7
794.875	18306
795.207	18354.81
795.539	18224.65
795.871	18226.46
796.203	18032.11
796.535	17964.09
796.867	17939.91
797.198	17856.97
797.53	17853.58
797.862	17796.18
798.193	17835.96
798.525	17703.98
798.856	17699.24
799.188	17468.74
799.519	17467.15
799.85	17343.54
800.182	17295.63
800.513	17366.59
800.844	17201.62
801.175	17246.37
801.506	17194.62
801.837	17163.66
802.168	17131.8
802.499	17059.03
802.83	16895.19
803.161	16945.13
803.491	16887.73
803.822	16709.89
804.153	16775.19
804.483	16682.77
804.814	16629.89
805.145	16566.39
805.475	16482.09
805.805	16415.43
806.136	16462.66
806.466	16497.01
806.796	16319.16
807.126	16241.88
807.457	16174.98
807.787	16238.49
808.117	16116.23
808.447	16128.43
808.777	16106.06
809.107	16047.53
809.436	15891.38
809.766	15868.55
810.096	15859.96
810.426	15823.36
810.755	15798.5
811.085	15823.36
811.414	15772.73
811.744	15607.99
812.073	15607.32
812.403	15633.53
812.732	15484.83
813.061	15498.17
813.39	15473.31
813.719	15399.41
814.049	15480.77
814.378	15365.74
814.707	15349.47
815.036	15289.36
815.365	15234.9
815.693	15078.52
816.022	15122.36
816.351	15027.44
816.68	15000.1
817.008	15058.4
817.337	14859.31
817.665	14873.1
817.994	14928.92
818.322	14945.64
818.651	14824.51
818.979	14681.46
819.307	14764.85
819.636	14747.68
819.964	14695.93
820.292	14685.53
820.62	14699.54
820.948	14621.58
821.276	14644.4
821.604	14628.36
821.932	14595.59
822.259	14643.95
822.587	14594.23
822.915	14546.78
823.243	14770.5
823.57	14584.97
823.898	14558.98
824.225	14554.46
824.553	14547.91
824.88	14563.28
825.207	14520.56
825.535	14558.3
825.862	14546.78
826.189	14507.46
826.516	14661.8
826.843	14578.64
827.17	14597.62
827.497	14611.41
827.824	14596.04
828.151	14641.69
828.478	14524.41
828.805	14575.25
829.131	14464.07
829.458	14476.95
829.785	14551.3
830.111	14516.72
830.438	14557.85
830.764	14614.12
831.09	14570.05
831.417	14360.79
831.743	14563.28
832.069	14485.31
832.395	14389.72
832.722	14464.75
833.048	14411.64
833.374	14324.19
833.7	14315.6
834.026	14358.76
834.351	14389.49
834.677	14297.29
835.003	14317.18
835.329	14304.53
835.654	14296.39
835.98	14282.15
836.306	14302.94
836.631	14193.57
836.956	14198.54
837.282	14197.86
837.607	14153.34
837.932	14119.9
838.258	14162.38
838.583	14143.4
838.908	14107.02
839.233	14118.77
839.558	14018.66
839.883	13968.49
840.208	13991.09
840.533	13893.01
840.858	13951.31
841.182	14022.72
841.507	13945.66
841.832	13864.76
842.156	13886.23
842.481	13774.6
842.805	13704.99
843.13	13742.73
843.454	13725.56
843.778	13688.5
844.103	13627.71
844.427	13595.84
844.751	13644.88
845.075	13576.18
845.399	13540.25
845.723	13395.85
846.047	13403.31
846.371	13297.09
846.695	13355.62
847.019	13312.46
847.343	13170.09
847.666	13120.6
847.99	13074.95
848.313	13047.83
848.637	12932.81
848.96	12889.42
849.284	12866.14
849.607	12783.66
849.931	12749.76
850.254	12730.33
850.577	12649.88
850.9	12538.7
851.223	12563.55
851.546	12457.12
851.869	12358.36
852.192	12406.04
852.515	12260.06
852.838	12205.82
853.161	12270.68
853.483	12250.12
853.806	12168.76
854.129	12179.61
854.451	12073.4
854.774	12095.09
855.096	12020.74
855.419	11950.69
855.741	11935.77
856.063	11839.05
856.385	11873.63
856.708	11780.07
857.03	11823.01
857.352	11797.02
857.674	11653.07
857.996	11698.27
858.318	11580.75
858.64	11570.59
858.961	11587.99
859.283	11542.11
859.605	11453.75
859.926	11574.2
860.248	11496.46
860.57	11379.18
860.891	11423.02
861.212	11336.47
861.534	11369.23
861.855	11382.34
862.176	11376.69
862.498	11329.24
862.819	11309.8
863.14	11185.28
863.461	11223.48
863.782	11163.82
864.103	11208.56
864.424	11155.23
864.745	11195.23
865.065	11037.94
865.386	11048.11
865.707	10970.38
866.027	11055.12
866.348	10948.23
866.668	11071.16
866.989	10931.96
867.309	10894.67
867.63	10995.46
867.95	10917.5
868.27	10879.3
868.59	10889.7
868.91	10822.81
869.23	10722.47
869.55	10851.96
869.87	10826.2
870.19	10819.42
870.51	10800.66
870.83	10712.08
871.15	10673.43
871.469	10698.07
871.789	10759.31
872.109	10708.24
872.428	10604.06
872.748	10581.23
873.067	10642.93
873.386	10712.53
873.706	10644.73
874.025	10541.46
874.344	10536.04
874.663	10578.97
874.982	10521.8
875.301	10583.27
875.62	10458.07
875.939	10482.25
876.258	10451.74
876.577	10336.72
876.896	10407.68
877.214	10376.94
877.533	10411.29
877.852	10368.81
878.17	10414.68
878.489	10338.75
878.807	10420.33
879.125	10329.26
879.444	10260.56
879.762	10230.28
880.08	10207.46
880.398	10176.05
880.716	10232.32
881.034	10117.06
881.352	10141.92
881.67	10102.6
881.988	10128.36
882.306	10089.95
882.624	10065.54
882.941	10013.56
883.259	9971.31
883.577	9934.92
883.894	10012.43
884.212	9956.62
884.529	10002.49
884.846	9957.75
885.164	9868.03
885.481	9821.48
885.798	9805.43
886.115	9793.68
886.432	9774.7
886.75	9734.25
887.067	9796.17
887.383	9660.81
887.7	9715.72
888.017	9626.91
888.334	9702.16
888.651	9698.77
888.967	9684.31
889.284	9616.51
889.6	9592.11
889.917	9552.79
890.233	9567.93
890.55	9452.9
890.866	9476.18
891.182	9530.87
891.498	9402.96
891.815	9395.05
892.131	9309.18
892.447	9343.3
892.763	9226.92
893.079	9291.78
893.395	9253.36
893.71	9164.32
894.026	9209.52
894.342	9136.98
894.657	9095.4
894.973	9080.71
895.289	9069.86
895.604	9020.6
895.92	9023.53
896.235	8940.15
896.55	8964.78
896.865	8899.7
897.181	8875.06
897.496	8919.58
897.811	8882.75
898.126	8848.17
898.441	8739.47
898.756	8746.71
899.071	8717.33
899.386	8680.49
899.7	8618.12
900.015	8548.74
900.33	8508.29
900.644	8538.8
900.959	8565.69
901.273	8541.06
901.588	8458.35
901.902	8424.68
902.216	8423.55
902.531	8380.61
902.845	8395.08
903.159	8286.38
903.473	8247.74
903.787	8238.47
904.101	8235.76
904.415	8241.63
904.729	8125.7
905.042	8060.17
905.356	8097.23
905.67	8077.12
905.984	8070.56
906.297	8041.64
906.611	7991.47
906.924	7984.92
907.237	7979.49
907.551	7986.95
907.864	7858.59
908.177	7849.55
908.491	7823.57
908.804	7738.14
909.117	7725.04
909.43	7665.38
909.743	7635.77
910.056	7677.81
910.368	7629.67
910.681	7570.69
910.994	7534.76
911.307	7528.66
911.619	7459.96
911.932	7487.98
912.244	7383.58
912.557	7412.95
912.869	7364.82
913.181	7268.1
913.494	7309
913.806	7280.98
914.118	7212.73
914.43	7189.46
914.742	7187.88
915.054	7122.34
915.366	7082.12
915.678	7045.51
915.99	7054.09
916.302	7052.06
916.613	6979.07
916.925	7027.88
917.236	6993.3
917.548	6882.12
917.859	6898.62
918.171	6817.72
918.482	6810.71
918.794	6810.03
919.105	6751.96
919.416	6682.35
919.727	6772.52
920.038	6716.02
920.349	6669.25
920.66	6584.5
920.971	6639.19
921.282	6641.9
921.593	6518.74
921.903	6465.41
922.214	6504.05
922.525	6395.35
922.835	6485.75
923.146	6434.9
923.456	6373.66
923.767	6314
924.077	6351.06
924.387	6299.31
924.697	6302.25
925.008	6247.34
925.318	6195.13
925.628	6221.8
925.938	6156.04
926.248	6189.71
926.558	6097.96
926.867	6095.48
927.177	6078.53
927.487	6038.75
927.796	5975.93
928.106	6013.67
928.416	5975.25
928.725	5985.65
929.034	5913.11
929.344	5883.28
929.653	5931.64
929.962	5814.13
930.271	5834.01
930.581	5749.04
930.89	5842.37
931.199	5695.94
931.508	5695.26
931.817	5732.55
932.125	5668.37
932.434	5625.66
932.743	5619.33
933.051	5558.31
933.36	5560.57
933.669	5543.4
933.977	5518.54
934.286	5493.23
934.594	5458.66
934.902	5464.08
935.21	5403.97
935.519	5442.39
935.827	5359.22
936.135	5387.25
936.443	5312.22
936.751	5288.49
937.059	5241.94
937.367	5256.85
937.674	5262.5
937.982	5241.26
938.29	5241.94
938.597	5217.08
938.905	5152.9
939.213	5128.5
939.52	5117.87
939.827	5109.74
940.135	5066.58
940.442	5070.64
940.749	5041.72
941.056	5023.19
941.363	4991.78
941.67	4939.35
941.977	4933.92
942.284	4943.64
942.591	4885.34
942.898	4856.86
943.205	4905.22
943.511	4865.68
943.818	4852.57
944.125	4794.72
944.431	4741.39
944.738	4778
945.044	4735.74
945.35	4691.22
945.657	4684.89
945.963	4727.15
946.269	4608.51
946.575	4621.16
946.881	4545.01
947.187	4612.12
947.493	4536.19
947.799	4542.75
948.105	4543.88
948.41	4495.52
948.716	4510.88
949.022	4447.16
949.327	4470.21
949.633	4425.46
949.938	4418.91
950.244	4429.08
950.549	4356.76
950.854	4336.88
951.16	4307.27
951.465	4314.96
951.77	4309.76
952.075	4324
952.38	4253.04
952.685	4268.4
952.99	4228.18
953.294	4222.3
953.599	4160.38
953.904	4165.36
954.209	4117.9
954.513	4148.18
954.818	4141.85
955.122	4106.6
955.426	4052.14
955.731	4062.31
956.035	4063.66
956.339	4035.19
956.643	3989.32
956.948	3999.49
957.252	3948.87
957.556	3969.88
957.86	3946.38
958.163	3928.75
958.467	3922.65
958.771	3906.83
959.075	3862.54
959.378	3885.82
959.682	3856.66
959.985	3833.61
960.289	3842.2
960.592	3783.9
960.896	3822.31
961.199	3740.06
961.502	3721.98
961.805	3768.08
962.108	3705.93
962.411	3722.43
962.714	3674.07
963.017	3646.27
963.32	3700.06
963.623	3595.43
963.926	3619.83
964.228	3596.33
964.531	3577.12
964.833	3589.33
965.136	3559.5
965.438	3514.3
965.741	3541.42
966.043	3536.45
966.345	3492.38
966.648	3489.22
966.95	3470.46
967.252	3498.26
967.554	3436.34
967.856	3411.93
968.158	3420.52
968.46	3416.9
968.761	3394.53
969.063	3362.21
969.365	3324.25
969.666	3368.54
969.968	3320.41
970.269	3300.29
970.571	3329.9
970.872	3256.68
971.174	3297.36
971.475	3216.91
971.776	3243.12
972.077	3231.14
972.378	3213.97
972.679	3178.72
972.98	3150.02
973.281	3206.06
973.582	3119.06
973.883	3117.7
974.183	3126.74
974.484	3099.4
974.785	3087.42
975.085	3100.53
975.386	3103.01
975.686	3072.05
975.986	3057.14
976.287	3049.68
976.587	3033.41
976.887	3042.67
977.187	2975.11
977.487	2961.77
977.787	2937.14
978.087	2945.95
978.387	2930.13
978.687	2891.94
978.987	2901.89
979.286	2898.72
979.586	2903.69
979.885	2879.74
980.185	2832.51
980.484	2853.98
980.784	2870.25
981.083	2810.14
981.382	2812.62
981.682	2819.86
981.981	2835.67
982.28	2777.37
982.579	2766.98
982.878	2794.55
983.177	2719.29
983.475	2707.77
983.774	2707.32
984.073	2684.49
984.372	2698.5
984.67	2705.28
984.969	2656.7
985.267	2695.11
985.566	2674.1
985.864	2653.76
986.162	2622.8
986.461	2588.9
986.759	2595.91
987.057	2552.29
987.355	2559.52
987.653	2545.74
987.951	2519.07
988.249	2519.98
988.547	2513.65
988.844	2511.61
989.142	2503.93
989.44	2489.02
989.737	2483.82
990.035	2464.16
990.332	2451.96
990.63	2400.43
990.927	2446.76
991.224	2399.75
991.521	2404.27
991.819	2424.61
992.116	2391.39
992.413	2366.76
992.71	2363.37
993.006	2352.75
993.303	2378.74
993.6	2348
993.897	2296.93
994.193	2345.74
994.49	2320.66
994.787	2312.52
995.083	2246.76
995.379	2276.37
995.676	2246.54
995.972	2259.19
996.268	2244.28
996.565	2230.94
996.861	2232.3
997.157	2231.62
997.453	2179.65
997.749	2216.71
998.044	2157.5
998.34	2176.26
998.636	2124.96
998.932	2101.68
999.227	2149.36
999.523	2146.65
999.818	2150.27
1000.114	2084.96
1000.409	2100.55
1000.704	2065.07
1001	2058.97
1001.295	2063.04
1001.59	2049.71
1001.885	2040.67
1002.18	2023.04
1002.475	1999.31
1002.77	1992.31
1003.065	1987.11
1003.359	1969.48
1003.654	1979.65
1003.949	1978.07
1004.243	1941.46
1004.538	1945.75
1004.832	1919.77
1005.127	1935.36
1005.421	1909.82
1005.715	1901.24
1006.009	1901.91
1006.304	1872.31
1006.598	1861.91
1006.892	1859.88
1007.186	1832.99
1007.48	1870.5
1007.773	1795.7
1008.067	1817.85
1008.361	1797.74
1008.655	1785.53
1008.948	1805.42
1009.242	1778.53
1009.535	1785.98
1009.829	1772.2
1010.122	1738.75
1010.415	1741.01
1010.708	1712.99
1011.001	1732.43
1011.295	1715.25
1011.588	1691.52
1011.881	1672.54
1012.173	1668.7
1012.466	1665.99
1012.759	1653.33
1013.052	1658.76
1013.344	1644.74
1013.637	1622.6
1013.93	1623.95
1014.222	1624.86
1014.514	1569.04
1014.807	1601.81
1015.099	1603.39
1015.391	1569.94
1015.683	1560
1015.976	1563.39
1016.268	1563.62
1016.56	1528.59
1016.851	1531.53
1017.143	1530.4
1017.435	1503.73
1017.727	1475.26
1018.018	1487.23
1018.31	1452.89
1018.602	1467.12
1018.893	1454.69
1019.185	1432.1
1019.476	1433.23
1019.767	1436.39
1020.058	1428.71
1020.35	1405.2
1020.641	1427.35
1020.932	1403.17
1021.223	1374.02
1021.514	1380.12
1021.804	1338.31
1022.095	1370.63
1022.386	1356.62
1022.677	1356.39
1022.967	1323.17
1023.258	1296.96
1023.548	1336.73
1023.839	1315.26
1024.129	1298.77
1024.419	1282.04
1024.709	1278.88
1025	1275.04
1025.29	1273.23
1025.58	1248.37
1025.87	1259.67
1026.16	1254.47
1026.449	1249.5
1026.739	1226.68
1027.029	1218.09
1027.319	1205.66
1027.608	1211.76
1027.898	1174.02
1028.187	1205.66
1028.477	1187.13
1028.766	1155.27
1029.055	1169.73
1029.344	1153.01
1029.634	1171.09
1029.923	1136.96
1030.212	1135.61
1030.501	1143.52
1030.79	1109.17
1031.078	1105.78
1031.367	1103.97
1031.656	1112.56
1031.945	1115.27
1032.233	1089.28
1032.522	1086.34
1032.81	1100.8
1033.099	1075.72
1033.387	1037.98
1033.675	1050.41
1033.963	1054.03
1034.251	1039.34
1034.54	1028.26
1034.828	1027.59
1035.116	1009.96
1035.403	1028.04
1035.691	978.32
1035.979	979
1036.267	993.24
1036.554	986.46
1036.842	1001.6
1037.129	969.28
1037.417	978.1
1037.704	972.45
1037.992	952.11
1038.279	977.64
1038.566	959.79
1038.853	959.79
1039.14	959.79
