Data from hue_90_FLMS001491_55.txt Node
Date: Mon Feb 06 15:25:20 GMT 2017
User: dcchb
Spectrometer: FLMS00149
Trigger mode: 0
Integration Time (sec): 2.000000E-2
Scans to average: 10
Electric dark correction enabled: true
Nonlinearity correction enabled: false
Boxcar width: 0
XAxis mode: Wavelengths
Number of Pixels in Spectrum: 2048
>>>>>Begin Spectral Data<<<<<
341.393	-3.01
341.776	-3.01
342.16	-3.01
342.543	-61.99
342.927	-81.88
343.31	-62.44
343.693	-83.01
344.077	-59.73
344.46	-71.03
344.843	-48.66
345.226	-40.97
345.61	-17.25
345.993	-27.87
346.376	-1.65
346.759	-1.88
347.142	22.53
347.525	48.97
347.908	67.95
348.291	73.6
348.674	83.99
349.057	117.44
349.44	136.2
349.823	151.79
350.206	167.61
350.588	189.98
350.971	209.19
351.354	238.34
351.737	212.58
352.119	248.51
352.502	247.83
352.884	251.9
353.267	278.11
353.65	291
354.032	284.44
354.414	310.66
354.797	315.18
355.179	293.48
355.562	329.41
355.944	319.24
356.326	310.43
356.709	317.89
357.091	349.75
357.473	361.95
357.855	352.46
358.238	353.14
358.62	335.51
359.002	346.81
359.384	324.21
359.766	333.48
360.148	342.75
360.53	367.15
360.912	344.1
361.294	342.29
361.676	350.65
362.057	325.34
362.439	330.54
362.821	320.15
363.203	325.34
363.584	309.3
363.966	327.15
364.348	344.1
364.729	319.02
365.111	298.68
365.493	319.02
365.874	315.18
366.256	325.8
366.637	314.05
367.019	319.02
367.4	320.82
367.781	323.76
368.163	331.22
368.544	316.53
368.925	306.14
369.306	289.19
369.688	297.1
370.069	303.65
370.45	311.79
370.831	302.52
371.212	310.43
371.593	312.46
371.974	293.93
372.355	308.62
372.736	299.13
373.117	333.48
373.498	316.08
373.879	300.03
374.26	319.02
374.641	269.07
375.021	327.38
375.402	322.63
375.783	303.42
376.163	312.24
376.544	316.98
376.925	319.92
377.305	330.99
377.686	326.47
378.066	308.85
378.447	327.15
378.827	314.27
379.208	318.79
379.588	323.76
379.968	326.25
380.349	311.56
380.729	331.9
381.109	338
381.489	325.8
381.87	349.75
382.25	330.09
382.63	347.26
383.01	343.65
383.39	340.26
383.77	333.71
384.15	347.26
384.53	324.89
384.91	333.03
385.29	326.25
385.67	339.36
386.049	342.75
386.429	366.93
386.809	331.67
387.189	344.1
387.568	342.75
387.948	370.99
388.328	347.94
388.707	342.29
389.087	336.87
389.466	363.54
389.846	362.41
390.225	368.73
390.605	368.73
390.984	362.86
391.363	364.21
391.743	342.52
392.122	359.92
392.501	389.75
392.881	380.71
393.26	375.96
393.639	375.96
394.018	368.06
394.397	389.07
394.776	384.78
395.155	360.82
395.534	360.82
395.913	355.17
396.292	388.39
396.671	396.3
397.05	382.52
397.429	377.77
397.808	388.17
398.186	367.38
398.565	396.3
398.944	401.73
399.323	387.94
399.701	398.34
400.08	388.85
400.458	385.91
400.837	404.89
401.215	410.77
401.594	421.61
401.972	388.17
402.351	394.72
402.729	392.91
403.107	401.73
403.486	401.5
403.864	386.81
404.242	401.73
404.62	413.25
404.999	423.42
405.377	395.85
405.755	424.33
406.133	420.48
406.511	424.78
406.889	421.84
407.267	416.42
407.645	439.69
408.023	442.4
408.401	436.08
408.779	411.67
409.156	434.27
409.534	429.75
409.912	443.99
410.29	434.49
410.667	444.21
411.045	427.49
411.422	457.54
411.8	445.34
412.178	456.41
412.555	440.82
412.933	438.11
413.31	487.37
413.687	462.52
414.065	480.37
414.442	467.26
414.819	468.39
415.197	470.88
415.574	494.15
415.951	498.67
416.328	506.13
416.705	472.69
417.082	499.58
417.46	495.06
417.837	466.13
418.214	478.56
418.591	495.28
418.967	488.28
419.344	496.19
419.721	513.59
420.098	530.54
420.475	471.56
420.852	496.87
421.228	530.31
421.605	553.14
421.982	526.24
422.358	520.14
422.735	530.54
423.111	521.72
423.488	539.35
423.864	525.11
424.241	535.73
424.617	534.38
424.994	543.19
425.37	559.69
425.746	549.07
426.123	561.27
426.499	562.63
426.875	562.63
427.251	586.35
427.627	603.98
428.003	565.79
428.379	592.46
428.756	577.99
429.132	581.38
429.507	598.33
429.883	593.36
430.259	622.96
430.635	626.35
431.011	591.33
431.387	655.51
431.763	654.38
432.138	636.52
432.514	618.44
432.89	627.94
433.265	641.95
433.641	651.89
434.016	656.18
434.392	657.77
434.767	688.27
435.143	670.42
435.518	673.36
435.894	673.36
436.269	668.61
436.644	705
437.02	714.94
437.395	706.35
437.77	688.5
438.145	694.37
438.52	707.93
438.895	715.16
439.271	724.88
439.646	733.7
440.021	746.8
440.395	736.86
440.77	754.94
441.145	753.36
441.52	741.38
441.895	762.62
442.27	761.94
442.645	745.9
443.019	777.76
443.394	767.37
443.769	769.63
444.143	802.85
444.518	813.69
444.892	793.81
445.267	781.6
445.641	775.05
446.016	808.95
446.39	831.09
446.764	823.41
447.139	801.04
447.513	837.87
447.887	825.44
448.262	840.36
448.636	832.9
449.01	848.49
449.384	855.05
449.758	855.27
450.132	884.65
450.506	886.46
450.88	890.08
451.254	869.51
451.628	899.57
452.002	900.7
452.376	902.96
452.75	910.64
453.123	918.78
453.497	918.55
453.871	935.5
454.244	968.49
454.618	955.38
454.992	972.79
455.365	951.32
455.739	1014.82
456.112	959.45
456.486	976.85
456.859	1015.72
457.232	999.45
457.606	999.68
457.979	1027.25
458.352	1031.99
458.725	1038.55
459.099	1094.36
459.472	1081.48
459.845	1066.34
460.218	1101.82
460.591	1104.31
460.964	1115.83
461.337	1127.81
461.71	1172.33
462.083	1168.94
462.456	1166.23
462.829	1184.08
463.201	1195.38
463.574	1191.99
463.947	1216.62
464.32	1271.31
464.692	1268.14
465.065	1269.27
465.438	1299.78
465.81	1306.11
466.183	1359.44
466.555	1366
466.928	1369.16
467.3	1380.23
467.672	1430.4
468.045	1471.08
468.417	1464.75
468.789	1469.72
469.161	1472.43
469.534	1525.31
469.906	1553.79
470.278	1544.75
470.65	1608.7
471.022	1621.81
471.394	1655.93
471.766	1704.97
472.138	1737.51
472.51	1756.04
472.882	1812.76
473.253	1855.25
473.625	1875.36
473.997	1923.72
474.369	1948.8
474.74	1973.21
475.112	2019.31
475.484	2062.93
475.855	2110.61
476.227	2188.8
476.598	2203.94
476.97	2223.83
477.341	2330.04
477.713	2401.45
478.084	2426.76
478.455	2514.44
478.827	2528.22
479.198	2627.2
479.569	2666.75
479.94	2758.95
480.311	2800.53
480.682	2905.16
481.053	3026.29
481.424	3068.32
481.795	3116.46
482.166	3231.93
482.537	3306.74
482.908	3406.85
483.279	3478.71
483.65	3598.48
484.021	3671.92
484.391	3768.64
484.762	3886.15
485.133	3964.12
485.503	4040.05
485.874	4189.88
486.244	4268.97
486.615	4420.83
486.985	4514.16
487.356	4665.57
487.726	4723.2
488.097	4898.78
488.467	4887.94
488.837	5077.76
489.207	5185.78
489.578	5373.35
489.948	5428.49
490.318	5528.15
490.688	5704.64
491.058	5837.52
491.428	5912.77
491.798	6022.37
492.168	6242.03
492.538	6324.28
492.908	6415.58
493.278	6564.73
493.648	6647.89
494.017	6773.76
494.387	6916.81
494.757	7007.2
495.126	7177.59
495.496	7220.08
495.866	7354.09
496.235	7421.43
496.605	7549.34
496.974	7743.45
497.344	7821.42
497.713	7968.31
498.082	7996.78
498.452	8095.99
498.821	8246.27
499.19	8326.26
499.559	8465.47
499.928	8535.52
500.298	8603.77
500.667	8742.3
501.036	8801.28
501.405	8984.33
501.774	8965.34
502.143	9113.81
502.512	9182.74
502.88	9299.8
503.249	9304.54
503.618	9389.74
503.987	9508.83
504.356	9535.5
504.724	9594.71
505.093	9686.91
505.462	9752.67
505.83	9848.48
506.199	9925.09
506.567	10045.77
506.936	10092.09
507.304	10281.47
507.672	10263.61
508.041	10271.52
508.409	10321.69
508.777	10450.28
509.145	10608.24
509.514	10544.96
509.882	10608.46
510.25	10585.87
510.618	10750.61
510.986	10734.34
511.354	10886.2
511.722	10913.77
512.09	10943.37
512.458	10961.22
512.826	11008
513.193	11128.45
513.561	11125.06
513.929	11238.5
514.297	11366.18
514.664	11305.39
515.032	11376.58
515.4	11424.26
515.767	11474.66
516.135	11586.29
516.502	11528.89
516.869	11585.84
517.237	11647.31
517.604	11648.66
517.972	11674.88
518.339	11737.93
518.706	11676.68
519.073	11770.47
519.44	11752.39
519.808	11844.82
520.175	11852.27
520.542	12018.37
520.909	11995.09
521.276	11920.07
521.643	12028.99
522.009	12082.55
522.376	12196.9
522.743	12172.04
523.11	12226.5
523.477	12336.78
523.843	12280.74
524.21	12388.98
524.577	12431.24
524.943	12509.66
525.31	12508.75
525.676	12564.34
526.043	12558.47
526.409	12549.2
526.776	12606.83
527.142	12695.19
527.508	12666.04
527.874	12674.62
528.241	12728.86
528.607	12703.32
528.973	12759.37
529.339	12710.78
529.705	12805.92
530.071	12857.44
530.437	12825.35
530.803	12824
531.169	12884.11
531.535	12828.97
531.901	12823.55
532.267	12873.72
532.632	12889.76
532.998	12818.58
533.364	12849.08
533.73	12810.44
534.095	12931.79
534.461	12791.91
534.826	12837.78
535.192	12812.25
535.557	12883.66
535.923	12818.35
536.288	12744
536.653	12724.57
537.019	12720.05
537.384	12780.38
537.749	12772.25
538.114	12717.11
538.479	12702.42
538.845	12754.17
539.21	12654.74
539.575	12620.39
539.94	12595.98
540.305	12615.42
540.67	12568.64
541.034	12537.23
541.399	12535.19
541.764	12474.18
542.129	12480.51
542.494	12438.02
542.858	12431.69
543.223	12440.73
543.587	12425.14
543.952	12447.74
544.316	12332.94
544.681	12328.87
545.045	12355.76
545.41	12287.97
545.774	12262.21
546.138	12250
546.503	12176.33
546.867	12125.94
547.231	12225.37
547.595	12151.02
547.959	12108.76
548.324	12129.55
548.688	12140.18
549.052	12035.55
549.416	11976.11
549.779	12011.14
550.143	11988.77
550.507	11989.9
550.871	11959.61
551.235	11890.46
551.599	11929.11
551.962	11948.09
552.326	11878.94
552.689	11905.38
553.053	11780.41
553.417	11796.68
553.78	11833.29
554.143	11800.07
554.507	11801.88
554.87	11707.64
555.234	11841.43
555.597	11698.83
555.96	11652.73
556.323	11747.64
556.686	11763.46
557.05	11725.95
557.413	11632.17
557.776	11653.86
558.139	11689.57
558.502	11675.55
558.865	11661.32
559.228	11732.5
559.59	11685.05
559.953	11643.47
560.316	11742.45
560.679	11690.47
561.041	11745.84
561.404	11802.78
561.767	11797.59
562.129	11695.44
562.492	11771.37
562.854	11725.04
563.217	11692.73
563.579	11783.8
563.941	11759.62
564.304	11738.83
564.666	11810.92
565.028	11772.5
565.39	11745.61
565.753	11817.02
566.115	11776.34
566.477	11838.04
566.839	11835.1
567.201	11896.34
567.563	11882.33
567.925	11967.07
568.287	11888.2
568.648	11854.31
569.01	11892.5
569.372	12025.38
569.734	11948.32
570.095	12030.35
570.457	11905.61
570.819	11936.34
571.18	11978.15
571.542	12041.19
571.903	11948.99
572.265	12017.47
572.626	11959.61
572.987	12025.83
573.349	12048.65
573.71	12059.27
574.071	12047.97
574.432	12114.87
574.794	12107.41
575.155	12143.79
575.516	12044.58
575.877	12158.03
576.238	12152.15
576.599	12172.49
576.96	12104.7
577.32	12141.53
577.681	12203.68
578.042	12241.19
578.403	12150.8
578.763	12154.19
579.124	12204.35
579.485	12205.48
579.845	12292.26
580.206	12182.89
580.566	12196.22
580.927	12190.12
581.287	12231.25
581.648	12186.28
582.008	12185.6
582.368	12184.92
582.728	12208.87
583.089	12111.02
583.449	12160.06
583.809	12121.87
584.169	12105.83
584.529	12157.58
584.889	12231.25
585.249	12083.68
585.609	12066.28
585.969	12186.95
586.329	12111.7
586.688	12048.88
587.048	12111.7
587.408	12046.84
587.768	12121.64
588.127	12082.78
588.487	12076
588.846	12063.57
589.206	11970.46
589.565	11970.91
589.925	12046.39
590.284	12017.24
590.643	12073.96
591.003	12056.79
591.362	12039.61
591.721	11971.59
592.08	11986.51
592.44	12083.68
592.799	11936.56
593.158	11937.92
593.517	11932.95
593.876	11983.57
594.235	11984.02
594.593	11904.7
594.952	11939.05
595.311	11904.7
595.67	11927.98
596.029	11955.55
596.387	11929.11
596.746	11991.93
597.104	11883.46
597.463	11919.16
597.822	11996.22
598.18	11816.12
598.538	11932.05
598.897	11966.85
599.255	11822.44
599.613	11917.36
599.972	11861.76
600.33	11919.62
600.688	11892.5
601.046	11934.08
601.404	12000.97
601.762	11940.18
602.12	11945.15
602.478	11982.89
602.836	11906.06
603.194	11827.42
603.552	11913.74
603.91	11760.52
604.268	11899.5
604.625	11870.8
604.983	11937.69
605.341	11816.34
605.698	11887.98
606.056	11829.45
606.413	11924.14
606.771	11981.31
607.128	11928.88
607.485	11854.53
607.843	11861.76
608.2	11925.27
608.557	11997.13
608.914	11906.28
609.272	11997.58
609.629	11987.41
609.986	11961.65
610.343	11984.47
610.7	12051.14
611.057	12019.05
611.414	11974.53
611.771	12109.67
612.127	12043.45
612.484	12040.97
612.841	12113.74
613.198	12021.99
613.554	12061.76
613.911	12180.4
614.267	12044.81
614.624	12087.75
614.98	12079.84
615.337	12177.46
615.693	12116.67
616.05	12145.82
616.406	12155.09
616.762	12058.82
617.118	12202.77
617.475	12110.35
617.831	12166.39
618.187	12275.54
618.543	12137.24
618.899	12226.27
619.255	12279.61
619.611	12152.83
619.967	12234.86
620.323	12266.05
620.678	12278.7
621.034	12203.9
621.39	12184.24
621.746	12284.8
622.101	12400.51
622.457	12230.57
622.812	12197.57
623.168	12278.93
623.523	12271.92
623.879	12249.78
624.234	12249.1
624.589	12262.43
624.945	12293.17
625.3	12300.85
625.655	12265.6
626.01	12318.02
626.365	12253.17
626.72	12217.91
627.075	12250.23
627.43	12217.01
627.785	12176.56
628.14	12115.09
628.495	12278.48
628.85	12155.09
629.205	12148.08
629.559	12241.87
629.914	12170.23
630.269	12199.83
630.623	12116.9
630.978	12155.32
631.332	12197.57
631.687	12192.15
632.041	12126.84
632.396	12141.76
632.75	12151.25
633.104	12172.72
633.459	12103.34
633.813	12016.11
634.167	12039.39
634.521	12026.28
634.875	11975.89
635.229	12042.32
635.583	11870.35
635.937	11917.13
636.291	11941.99
636.645	11880.75
636.999	11889.56
637.352	11904.48
637.706	11819.28
638.06	11870.35
638.413	11770.02
638.767	11898.15
639.121	11888.66
639.474	11868.54
639.828	11810.47
640.181	11768.21
640.534	11758.26
640.888	11710.81
641.241	11716.01
641.594	11719.62
641.947	11840.3
642.301	11771.82
642.654	11731.82
643.007	11729.34
643.36	11730.02
643.713	11702.45
644.066	11732.28
644.419	11632.84
644.771	11571.38
645.124	11558.27
645.477	11466.97
645.83	11454.54
646.182	11309.91
646.535	11321.21
646.888	11354.21
647.24	11278.5
647.593	11357.6
647.945	11377.26
648.298	11214.78
648.65	11248.45
649.002	11244.83
649.355	11286.41
649.707	11260.2
650.059	11315.79
650.411	11396.47
650.763	11444.15
651.115	11568.89
651.467	11523.47
651.819	11510.14
652.171	11529.8
652.523	11469.68
652.875	11563.24
653.227	11447.09
653.578	11503.81
653.93	11542.22
654.282	11524.15
654.633	11525.28
654.985	11497.48
655.337	11539.96
655.688	11462.9
656.039	11574.09
656.391	11477.14
656.742	11454.32
657.094	11478.95
657.445	11495.45
657.796	11486.41
658.147	11470.36
658.498	11509.91
658.849	11548.33
659.2	11420.42
659.551	11453.41
659.902	11618.61
660.253	11471.94
660.604	11539.96
660.955	11539.29
661.306	11607.76
661.656	11545.39
662.007	11633.52
662.358	11526.86
662.708	11619.74
663.059	11553.75
663.409	11555.11
663.76	11583.35
664.11	11582.22
664.461	11572.28
664.811	11659.28
665.161	11570.7
665.511	11579.06
665.862	11550.13
666.212	11669.91
666.562	11626.97
666.912	11597.36
667.262	11579.06
667.612	11629.45
667.962	11636.01
668.312	11562.11
668.662	11617.7
669.011	11594.65
669.361	11575.44
669.711	11580.64
670.06	11535.22
670.41	11514.65
670.76	11484.83
671.109	11567.99
671.459	11509.23
671.808	11572.28
672.157	11636.46
672.507	11437.14
672.856	11460.42
673.205	11457.93
673.554	11544.03
673.904	11471.27
674.253	11504.03
674.602	11499.74
674.951	11411.38
675.3	11213.65
675.649	11445.5
675.998	11432.85
676.346	11415.9
676.695	11483.47
677.044	11366.86
677.393	11405.96
677.741	11403.92
678.09	11368.67
678.438	11360.31
678.787	11440.98
679.135	11312.4
679.484	11190.6
679.832	11275.11
680.181	11262.46
680.529	11294.1
680.877	11219.75
681.225	11177.49
681.573	11311.95
681.922	11137.04
682.27	11133.42
682.618	11128.68
682.966	11071.28
683.314	11071.95
683.661	11084.84
684.009	10998.51
684.357	11006.42
684.705	10937.27
685.053	10969.81
685.4	10940.43
685.748	10918.74
686.095	10892.98
686.443	10853.66
686.79	10836.71
687.138	10848.91
687.485	10826.54
687.832	10824.05
688.18	10828.8
688.527	10743.6
688.874	10762.81
689.221	10768.01
689.568	10629.48
689.915	10645.53
690.262	10612.98
690.609	10596.71
690.956	10497.96
691.303	10498.86
691.65	10559.88
691.997	10529.14
692.344	10436.72
692.69	10330.05
693.037	10372.76
693.383	10320.34
693.73	10313.1
694.077	10297.74
694.423	10238.3
694.769	10203.95
695.116	10200.11
695.462	10144.07
695.808	10097.29
696.155	10143.84
696.501	10027.69
696.847	10015.49
697.193	9904.3
697.539	9895.26
697.885	9875.15
698.231	9867.69
698.577	9809.39
698.923	9761.03
699.269	9774.59
699.614	9717.87
699.96	9676.06
700.306	9657.08
700.651	9594.93
700.997	9640.35
701.342	9571.2
701.688	9532.11
702.033	9514.26
702.379	9479
702.724	9418.21
703.069	9523.75
703.415	9297.54
703.76	9361.94
704.105	9322.17
704.45	9288.95
704.795	9234.71
705.14	9240.14
705.485	9219.12
705.83	9166.02
706.175	9218.44
706.52	9158.56
706.865	9120.37
707.209	9086.7
707.554	9045.79
707.899	9019.13
708.243	8963.08
708.588	8968.06
708.932	8898
709.277	8879.92
709.621	8935.06
709.966	8879.47
710.31	8857.78
710.654	8735.29
710.998	8730.1
711.342	8792.01
711.687	8709.98
712.031	8646.26
712.375	8707.5
712.719	8654.17
713.063	8707.05
713.407	8661.62
713.75	8618.69
714.094	8638.57
714.438	8552.7
714.782	8543.89
715.125	8484.23
715.469	8531.46
715.812	8466.6
716.156	8470.44
716.499	8419.82
716.843	8448.29
717.186	8444.68
717.53	8470.44
717.873	8473.15
718.216	8431.12
718.559	8419.14
718.902	8337.34
719.246	8377.79
719.589	8339.15
719.932	8356.09
720.275	8279.03
720.617	8322.87
720.96	8301.18
721.303	8304.34
721.646	8309.77
721.989	8267.51
722.331	8258.7
722.674	8233.84
723.016	8263.44
723.359	8267.06
723.701	8262.76
724.044	8201.97
724.386	8169.66
724.729	8189.77
725.071	8206.95
725.413	8180.28
725.755	8201.52
726.097	8147.06
726.439	8119.04
726.782	8156.78
727.124	8160.39
727.465	8145.25
727.807	8132.6
728.149	8035.65
728.491	8138.92
728.833	8144.57
729.175	8148.64
729.516	8110
729.858	8116.55
730.199	8169.88
730.541	8135.99
730.882	8087.4
731.224	8109.32
731.565	8092.15
731.906	8088.3
732.248	8126.72
732.589	8051.92
732.93	8034.52
733.271	8054.18
733.612	8095.08
733.953	8076.55
734.294	8015.76
734.635	8074.29
734.976	8091.24
735.317	8084.69
735.658	8044.24
735.999	8037.01
736.339	8047.18
736.68	8066.38
737.021	8061.86
737.361	8107.06
737.702	8124.24
738.042	8084.69
738.383	8099.6
738.723	8143.22
739.063	8079.04
739.404	8179.38
739.744	8152.48
740.084	8086.27
740.424	8145.93
740.764	8162.88
741.104	8148.87
741.444	8159.94
741.784	8089.89
742.124	8163.1
742.464	8191.8
742.804	8206.27
743.143	8208.08
743.483	8264.8
743.823	8211.92
744.162	8274.29
744.502	8292.82
744.841	8253.72
745.181	8357.9
745.52	8389.77
745.86	8412.36
746.199	8430.22
746.538	8405.58
746.877	8538.01
747.216	8531.23
747.556	8549.99
747.895	8633.6
748.234	8651.68
748.573	8630.21
748.911	8779.13
749.25	8731.45
749.589	8917.21
749.928	8957.43
750.267	8968.28
750.605	8946.59
750.944	9043.76
751.283	9150.42
751.621	9256.18
751.96	9264.54
752.298	9380.47
752.636	9465.67
752.975	9519.68
753.313	9569.62
753.651	9774.36
753.989	9810.07
754.327	9917.63
754.666	10000.57
755.004	10083.28
755.342	10104.52
755.679	10304.29
756.017	10393.33
756.355	10540.44
756.693	10529.82
757.031	10759.65
757.368	10801
757.706	10909.7
758.044	11068.79
758.381	11188.11
758.719	11369.8
759.056	11460.19
759.394	11583.35
759.731	11739.96
760.068	11850.47
760.405	11947.19
760.743	12113.51
761.08	12275.99
761.417	12360.28
761.754	12558.92
762.091	12681.18
762.428	12803.66
762.765	12849.31
763.102	13159.58
763.438	13092.69
763.775	13278.22
764.112	13488.16
764.449	13620.36
764.785	13670.53
765.122	13764.54
765.458	13872.33
765.795	14052.89
766.131	14168.37
766.467	14313.9
766.804	14338.99
767.14	14462.15
767.476	14648.58
767.812	14697.62
768.148	14816.26
768.485	14946.88
768.821	14984.17
769.157	15033.66
769.492	15221.22
769.828	15370.15
770.164	15213.99
770.5	15408.79
770.836	15563.36
771.171	15587.09
771.507	15737.14
771.842	15620.76
772.178	15761.1
772.513	15872.05
772.849	15951.6
773.184	15943.24
773.519	15975.55
773.855	16097.81
774.19	16055.78
774.525	16225.72
774.86	16197.02
775.195	16309.56
775.53	16341.65
775.865	16136.68
776.2	16265.49
776.535	16258.26
776.87	16352.27
777.205	16354.98
777.539	16279.5
777.874	16463.45
778.209	16366.5
778.543	16439.72
778.878	16355.21
779.212	16418.25
779.547	16330.57
779.881	16508.42
780.215	16414.19
780.55	16539.83
780.884	16345.49
781.218	16467.74
781.552	16488.31
781.886	16420.74
782.22	16425.26
782.554	16394.53
782.888	16380.52
783.222	16343
783.556	16296.45
783.889	16344.81
784.223	16271.82
784.557	16227.53
784.89	16398.37
785.224	16222.1
785.557	16279.73
785.891	16262.55
786.224	16148.66
786.558	16290.12
786.891	16113.4
787.224	16086.51
787.557	16056.23
787.891	16119.51
788.224	16045.61
788.557	16051.03
788.89	16039.96
789.223	16045.16
789.556	15950.92
789.888	15982.79
790.221	15890.81
790.554	15794.54
790.887	15821.66
791.219	15813.07
791.552	15768.1
791.884	15771.72
792.217	15671.38
792.549	15733.53
792.882	15562.01
793.214	15633.87
793.546	15558.84
793.879	15440.65
794.211	15453.76
794.543	15443.59
794.875	15388.45
795.207	15470.26
795.539	15432.29
795.871	15486.08
796.203	15317.27
796.535	15129.7
796.867	15193.2
797.198	15219.42
797.53	15155.24
797.862	15112.53
798.193	15155.69
798.525	15067.33
798.856	15103.71
799.188	14975.35
799.519	14981.68
799.85	14824.85
800.182	14871.63
800.513	14835.92
800.844	14723.16
801.175	14851.52
801.506	14724.97
801.837	14808.35
802.168	14682.48
802.499	14620.56
802.83	14609.49
803.161	14512.77
803.491	14578.53
803.822	14458.31
804.153	14468.48
804.483	14376.5
804.814	14324.98
805.145	14308.25
805.475	14293.11
805.805	14304.19
806.136	14217.41
806.466	14281.36
806.796	14205.21
807.126	14080.24
807.457	14160.91
807.787	14045.66
808.117	14051.31
808.447	14040.69
808.777	14015.38
809.107	13997.75
809.436	13971.31
809.766	13917.08
810.096	13866.46
810.426	13870.75
810.755	13806.8
811.085	13788.04
811.414	13747.14
811.744	13682.06
812.073	13685.22
812.403	13705.78
812.732	13579.23
813.061	13599.35
813.39	13539.23
813.719	13565.45
814.049	13592.57
814.378	13492.91
814.707	13469.41
815.036	13470.54
815.365	13263.99
815.693	13198
816.022	13248.62
816.351	13287.72
816.68	13225.8
817.008	13220.82
817.337	13122.3
817.665	13057.67
817.994	13153.26
818.322	13177.89
818.651	13052.24
818.979	13074.61
819.307	13040.49
819.636	13001.62
819.964	13017.44
820.292	13027.61
820.62	13049.98
820.948	12892.7
821.276	13014.05
821.604	12904
821.932	12989.42
822.259	13016.31
822.587	12919.36
822.915	12882.75
823.243	12947.61
823.57	12932.47
823.898	12972.7
824.225	12901.74
824.553	12906.03
824.88	12922.3
825.207	12946.03
825.535	12905.13
825.862	13030.77
826.189	12891.57
826.516	12929.53
826.843	13011.79
827.17	12938.8
827.497	13013.82
827.824	12926.82
828.151	12980.15
828.478	12963.88
828.805	13033.03
829.131	12886.6
829.458	12948.06
829.785	12888.86
830.111	12954.84
830.438	13022.64
830.764	12913.26
831.09	12948.97
831.417	12880.95
831.743	12938.35
832.069	12880.04
832.395	12908.74
832.722	12950.78
833.048	12850.89
833.374	12880.49
833.7	12835.07
834.026	12775.86
834.351	12901.74
834.677	12901.29
835.003	12878.91
835.329	12884.56
835.654	12838.91
835.98	12720.72
836.306	12787.16
836.631	12696.32
836.956	12784.9
837.282	12809.31
837.607	12717.56
837.932	12743.78
838.258	12698.58
838.583	12610.67
838.908	12604.8
839.233	12609.32
839.558	12569.54
839.883	12529.32
840.208	12426.27
840.533	12503.1
840.858	12503.78
841.182	12498.81
841.507	12530
841.832	12394.18
842.156	12414.74
842.481	12364.58
842.805	12388.53
843.13	12327.06
843.454	12407.29
843.778	12277.12
844.103	12191.02
844.427	12163.45
844.751	12163.9
845.075	12142.66
845.399	12161.19
845.723	12115.32
846.047	12155.09
846.371	12035.77
846.695	12018.37
847.019	11861.54
847.343	11846.17
847.666	11730.92
847.99	11720.3
848.313	11708.1
848.637	11630.36
848.96	11620.87
849.284	11680.3
849.607	11560.98
849.931	11471.27
850.254	11374.77
850.577	11325.28
850.9	11265.62
851.223	11279.86
851.546	11157.6
851.869	11181.1
852.192	11158.28
852.515	11070.15
852.838	11011.62
853.161	11039.19
853.483	11030.6
853.806	10926.2
854.129	10940.66
854.451	10857.95
854.774	10864.5
855.096	10887.33
855.419	10809.14
855.741	10829.48
856.063	10759.65
856.385	10716.94
856.708	10586.32
857.03	10639.42
857.352	10620.89
857.674	10608.46
857.996	10485.76
858.318	10436.04
858.64	10486.21
858.961	10411.18
859.283	10412.99
859.605	10299.77
859.926	10351.97
860.248	10293.44
860.57	10346.78
860.891	10346.55
861.212	10229.94
861.534	10196.95
861.855	10230.62
862.176	10204.18
862.498	10228.14
862.819	10213.9
863.14	10156.05
863.461	10117.86
863.782	10104.75
864.103	10086.67
864.424	10019.55
864.745	10062.26
865.065	9994.47
865.386	9967.8
865.707	9941.81
866.027	9896.84
866.348	9895.94
866.668	9927.35
866.989	9909.95
867.309	9821.59
867.63	9878.77
867.95	9864.3
868.27	9804.42
868.59	9792.21
868.91	9809.84
869.23	9720.58
869.55	9685.32
869.87	9858.88
870.19	9721.71
870.51	9695.72
870.83	9776.4
871.15	9632.22
871.469	9712.67
871.789	9693.46
872.109	9647.81
872.428	9578.43
872.748	9591.54
873.067	9697.08
873.386	9598.55
873.706	9599
874.025	9554.25
874.344	9544.54
874.663	9590.64
874.982	9526.68
875.301	9514.48
875.62	9476.29
875.939	9496.63
876.258	9447.82
876.577	9376.41
876.896	9427.48
877.214	9353.36
877.533	9372.56
877.852	9324.88
878.17	9359.46
878.489	9360.59
878.807	9366.91
879.125	9356.07
879.444	9345.45
879.762	9269.74
880.08	9266.35
880.398	9209.63
880.716	9267.93
881.034	9273.13
881.352	9233.13
881.67	9192
881.988	9209.4
882.306	9121.05
882.624	9131.67
882.941	9071.33
883.259	9075.4
883.577	9039.47
883.894	9048.05
884.212	8998.79
884.529	9034.27
884.846	9001.5
885.164	8936.19
885.481	8882.86
885.798	8931.9
886.115	8894.61
886.432	8875.18
886.75	8825.69
887.067	8841.28
887.383	8829.08
887.7	8761.51
888.017	8726.71
888.334	8758.34
888.651	8730.32
888.967	8681.51
889.284	8693.26
889.6	8627.05
889.917	8664.56
890.233	8610.55
890.55	8563.09
890.866	8539.82
891.182	8461.18
891.498	8516.77
891.815	8451.91
892.131	8405.13
892.447	8399.03
892.763	8380.95
893.079	8358.35
893.395	8275.64
893.71	8319.03
894.026	8283.78
894.342	8243.1
894.657	8279.26
894.973	8170.56
895.289	8152.48
895.604	8151.35
895.92	8138.25
896.235	8078.14
896.55	8116.78
896.865	8071.13
897.181	8032.03
897.496	8040.4
897.811	7947.07
898.126	7977.57
898.441	7912.94
898.756	7876.33
899.071	7828.65
899.386	7847.86
899.7	7809.22
900.015	7738.93
900.33	7717.92
900.644	7676.79
900.959	7700.29
901.273	7636.11
901.588	7649.22
901.902	7540.97
902.216	7605.61
902.531	7542.56
902.845	7523.8
903.159	7479.05
903.473	7409
903.787	7399.51
904.101	7391.15
904.415	7353.63
904.729	7360.64
905.042	7293.75
905.356	7258.27
905.67	7315.9
905.984	7221.43
906.297	7200.87
906.611	7164.49
906.924	7165.39
907.237	7141.44
907.551	7119.52
907.864	7076.81
908.177	7093.75
908.491	7002.01
908.804	6999.97
909.117	6986.86
909.43	6958.16
909.743	6846.53
910.056	6850.14
910.368	6864.38
910.681	6851.95
910.994	6770.82
911.307	6746.87
911.619	6685.63
911.932	6829.58
912.244	6663.48
912.557	6652.64
912.869	6564.5
913.181	6593.43
913.494	6524.73
913.806	6628.23
914.118	6534.9
914.43	6490.15
914.742	6480.44
915.054	6469.82
915.366	6395.92
915.678	6354.79
915.99	6353.21
916.302	6313.66
916.613	6308.46
916.925	6309.82
917.236	6267.79
917.548	6193.44
917.859	6274.57
918.171	6160.45
918.482	6089.49
918.794	6112.99
919.105	6142.14
919.416	6073.67
919.727	6041.8
920.038	6074.57
920.349	6016.72
920.66	5980.11
920.971	5986.21
921.282	5955.03
921.593	5955.25
921.903	5880.23
922.214	5842.49
922.525	5829.15
922.835	5833.22
923.146	5769.95
923.456	5726.33
923.767	5745.99
924.077	5720.46
924.387	5667.13
924.697	5739.67
925.008	5671.64
925.318	5634.81
925.628	5568.6
925.938	5600.69
926.248	5555.26
926.558	5549.16
926.867	5530.63
927.177	5463.51
927.487	5492.21
927.796	5457.86
928.106	5427.58
928.416	5375.38
928.725	5384.65
929.034	5349.62
929.344	5342.84
929.653	5386.68
929.962	5282.95
930.271	5293.35
930.581	5248.83
930.89	5237.76
931.199	5225.78
931.508	5185.56
931.817	5207.7
932.125	5196.63
932.434	5167.7
932.743	5106.01
933.051	5106.46
933.36	5057.65
933.669	5030.98
933.977	5026.01
934.286	5012.9
934.594	4991.21
934.902	4986.46
935.21	4921.83
935.519	4941.49
935.827	4931.33
936.135	4941.95
936.443	4863.08
936.751	4818.79
937.059	4845.9
937.367	4779.69
937.674	4803.19
937.982	4744.21
938.29	4758.45
938.597	4760.93
938.905	4661.95
939.213	4655.17
939.52	4657.21
939.827	4628.06
940.135	4626.25
940.442	4589.87
940.749	4606.14
941.056	4538.34
941.363	4532.47
941.67	4508.29
941.977	4496.08
942.284	4479.13
942.591	4480.94
942.898	4463.54
943.205	4435.07
943.511	4387.84
943.818	4352.36
944.125	4379.93
944.431	4328.86
944.738	4334.96
945.044	4358.46
945.35	4331.57
945.657	4259.93
945.963	4309.42
946.269	4226.26
946.575	4227.39
946.881	4229.2
947.187	4209.76
947.493	4114.17
947.799	4163.89
948.105	4104.91
948.41	4148.97
948.716	4102.42
949.022	4130.67
949.327	4093.38
949.633	4071.01
949.938	4065.81
950.244	4057
950.549	3983.78
950.854	3955.31
951.16	3964.12
951.465	3946.04
951.77	3907.62
952.075	3931.35
952.38	3919.6
952.685	3867.4
952.99	3846.83
953.294	3875.76
953.599	3820.85
953.904	3834.86
954.209	3796.44
954.513	3808.19
954.818	3752.83
955.122	3776.78
955.426	3766.38
955.731	3739.72
956.035	3723
956.339	3658.59
956.643	3653.62
956.948	3665.37
957.252	3626.73
957.556	3603.45
957.86	3621.53
958.163	3612.94
958.467	3631.47
958.771	3573.17
959.075	3560.51
959.378	3541.76
959.682	3547.63
959.985	3487.97
960.289	3522.32
960.592	3518.03
960.896	3476.9
961.199	3459.95
961.502	3416.34
961.805	3441.65
962.108	3365.72
962.411	3405.72
962.714	3373.63
963.017	3373.85
963.32	3372.04
963.623	3335.89
963.926	3324.14
964.228	3285.04
964.531	3251.6
964.833	3300.18
965.136	3270.13
965.438	3211.82
965.741	3251.14
966.043	3213.86
966.345	3213.86
966.648	3206.62
966.95	3171.6
967.252	3148.77
967.554	3166.4
967.856	3183.35
968.158	3109.68
968.46	3116.01
968.761	3077.36
969.063	3092.28
969.365	3113.07
969.666	3073.07
969.968	3038.95
970.269	3043.92
970.571	3020.19
970.872	2997.82
971.174	2994.2
971.475	2956.91
971.776	2956.91
972.077	2946.07
972.378	2940.87
972.679	2931.83
972.98	2910.59
973.281	2925.05
973.582	2895.67
973.883	2878.72
974.183	2868.33
974.484	2858.39
974.785	2824.71
975.085	2840.53
975.386	2822.45
975.686	2841.44
975.986	2776.35
976.287	2806.18
976.587	2734.09
976.887	2764.83
977.187	2776.58
977.487	2728.67
977.787	2738.61
978.087	2718.73
978.387	2682.8
978.687	2685.51
978.987	2663.36
979.286	2648.45
979.586	2638.05
979.885	2659.52
980.185	2626.08
980.484	2646.19
980.784	2652.97
981.083	2624.95
981.382	2600.99
981.682	2585.17
981.981	2579.3
982.28	2581.33
982.579	2525.29
982.878	2523.03
983.177	2529.58
983.475	2515.57
983.774	2493.42
984.073	2504.95
984.372	2479.64
984.67	2427.21
984.969	2408.45
985.267	2448.23
985.566	2449.58
985.864	2415.01
986.162	2428.11
986.461	2400.32
986.759	2410.26
987.057	2376.59
987.355	2336.14
987.653	2367.78
987.951	2323.26
988.249	2363.94
988.547	2334.56
988.844	2285.97
989.142	2296.37
989.44	2271.06
989.737	2265.18
990.035	2273.77
990.332	2271.06
990.63	2258.85
990.927	2243.49
991.224	2201.45
991.521	2191.51
991.819	2214.11
992.116	2223.15
992.413	2214.11
992.71	2163.94
993.006	2168.69
993.303	2159.87
993.6	2199.87
993.897	2134.79
994.193	2167.78
994.49	2093.66
994.787	2080.33
995.083	2124.62
995.379	2062.25
995.676	2097.95
995.972	2081.23
996.268	2034
996.565	2047.11
996.861	2049.37
997.157	1999.2
997.453	1999.65
997.749	2017.73
998.044	2009.59
998.34	2015.92
998.636	1975.24
998.932	1970.27
999.227	1938.18
999.523	1964.62
999.818	1954.91
1000.114	1928.01
1000.409	1943.16
1000.704	1911.29
1001	1888.47
1001.295	1884.63
1001.59	1870.61
1001.885	1859.32
1002.18	1824.29
1002.475	1859.99
1002.77	1847.56
1003.065	1836.72
1003.359	1841.24
1003.654	1839.66
1003.949	1807.57
1004.243	1789.03
1004.538	1772.76
1004.832	1786.78
1005.127	1762.37
1005.421	1714.91
1005.715	1745.65
1006.009	1739.09
1006.304	1729.38
1006.598	1711.52
1006.892	1678.53
1007.186	1685.76
1007.48	1689.83
1007.773	1700.68
1008.067	1664.29
1008.361	1661.81
1008.655	1652.32
1008.948	1624.29
1009.242	1629.04
1009.535	1635.14
1009.829	1611.64
1010.122	1605.76
1010.415	1602.6
1010.708	1583.62
1011.001	1588.36
1011.295	1563.96
1011.588	1563.05
1011.881	1541.36
1012.173	1559.44
1012.466	1564.63
1012.759	1554.46
1013.052	1514.92
1013.344	1525.09
1013.637	1491.42
1013.93	1483.96
1014.222	1498.42
1014.514	1495.94
1014.807	1468.59
1015.099	1455.94
1015.391	1433.11
1015.683	1467.46
1015.976	1430.63
1016.268	1444.64
1016.56	1394.69
1016.851	1426.56
1017.143	1396.28
1017.435	1398.76
1017.727	1398.76
1018.018	1382.04
1018.31	1368.25
1018.602	1345.2
1018.893	1344.98
1019.185	1336.62
1019.476	1347.24
1019.767	1333.23
1020.058	1336.84
1020.35	1319.22
1020.641	1282.38
1020.932	1284.19
1021.223	1276.05
1021.514	1293.23
1021.804	1287.35
1022.095	1298.43
1022.386	1263.4
1022.677	1238.31
1022.967	1215.94
1023.258	1241.25
1023.548	1189.28
1023.839	1198.32
1024.129	1224.76
1024.419	1200.35
1024.709	1181.37
1025	1182.27
1025.29	1184.76
1025.58	1166.68
1025.87	1174.59
1026.16	1149.05
1026.449	1165.1
1026.739	1139.11
1027.029	1120.35
1027.319	1127.58
1027.608	1103.63
1027.898	1132.33
1028.187	1074.48
1028.477	1099.56
1028.766	1085.78
1029.055	1080.58
1029.344	1076.06
1029.634	1077.19
1029.923	1056.62
1030.212	1069.51
1030.501	1061.6
1030.79	1039.45
1031.078	1049.39
1031.367	1033.35
1031.656	1033.57
1031.945	1033.57
1032.233	1016.17
1032.522	999
1032.81	1010.52
1033.099	996.97
1033.387	1001.48
1033.675	989.06
1033.963	971.66
1034.251	957.19
1034.54	963.52
1034.828	946.12
1035.116	961.03
1035.403	954.48
1035.691	937.98
1035.979	948.83
1036.267	972.79
1036.554	922.84
1036.842	900.24
1037.129	922.17
1037.417	919.68
1037.704	921.04
1037.992	890.08
1038.279	912.22
1038.566	862.05
1038.853	862.05
1039.14	862.05
