Data from hue_240_FLMS001491_00021.txt Node
Date: Tue Feb 07 16:35:14 GMT 2017
User: dcchb
Spectrometer: FLMS00149
Trigger mode: 0
Integration Time (sec): 2.000000E-2
Scans to average: 10
Electric dark correction enabled: true
Nonlinearity correction enabled: false
Boxcar width: 0
XAxis mode: Wavelengths
Number of Pixels in Spectrum: 2048
>>>>>Begin Spectral Data<<<<<
341.393	-28.76
341.776	-28.76
342.16	-28.76
342.543	-86.83
342.927	-75.31
343.31	-67.17
343.693	-60.62
344.077	-47.51
344.46	-51.13
344.843	-33.5
345.226	-30.11
345.61	-44.35
345.993	-9.77
346.376	-19.72
346.759	-0.96
347.142	21.19
347.525	51.69
347.908	37.68
348.291	70.45
348.674	83.33
349.057	100.51
349.44	135.08
349.823	152.93
350.206	185.93
350.588	195.64
350.971	173.05
351.354	207.62
351.737	258.69
352.119	253.27
352.502	264.8
352.884	266.6
353.267	274.96
353.65	300.05
354.032	285.81
354.414	277.9
354.797	300.73
355.179	310.22
355.562	321.74
355.944	315.64
356.326	340.27
356.709	349.54
357.091	336.43
357.473	332.36
357.855	331.46
358.238	339.6
358.62	349.09
359.002	325.58
359.384	353.83
359.766	333.27
360.148	360.16
360.53	323.1
360.912	310.44
361.294	326.71
361.676	325.58
362.057	334.17
362.439	351.57
362.821	336.21
363.203	323.1
363.584	312.48
363.966	347.28
364.348	326.94
364.729	316.77
365.111	333.49
365.493	310.22
365.874	318.58
366.256	318.35
366.637	299.82
367.019	321.97
367.4	301.18
367.781	325.36
368.163	317.45
368.544	314.51
368.925	302.99
369.306	309.54
369.688	314.74
370.069	289.65
370.45	285.59
370.831	297.11
371.212	314.51
371.593	296.88
371.974	308.64
372.355	305.02
372.736	295.08
373.117	305.92
373.498	309.99
373.879	294.85
374.26	302.08
374.641	318.13
375.021	283.55
375.402	309.99
375.783	323.32
376.163	330.33
376.544	312.48
376.925	314.06
377.305	301.4
377.686	298.24
378.066	328.07
378.447	313.16
378.827	341.86
379.208	325.13
379.588	325.13
379.968	315.64
380.349	314.06
380.729	338.24
381.109	318.81
381.489	330.1
381.87	328.3
382.25	317.22
382.63	339.82
383.01	348.18
383.39	348.18
383.77	338.92
384.15	332.59
384.53	328.97
384.91	344.34
385.29	349.76
385.67	359.93
386.049	352.93
386.429	360.84
386.809	349.09
387.189	355.19
387.568	349.31
387.948	335.3
388.328	342.31
388.707	354.28
389.087	373.49
389.466	382.98
389.846	373.27
390.225	350.44
390.605	364.68
390.984	358.8
391.363	359.48
391.743	361.06
392.122	377.56
392.501	395.41
392.881	368.75
393.26	346.38
393.639	382.98
394.018	374.17
394.397	347.73
394.776	358.35
395.155	382.53
395.534	387.05
395.913	396.77
396.292	374.62
396.671	361.97
397.05	383.44
397.429	412.14
397.808	404.23
398.186	375.3
398.565	389.76
398.944	395.41
399.323	394.74
399.701	431.34
400.08	410.55
400.458	420.72
400.837	417.11
401.215	412.81
401.594	410.1
401.972	410.78
402.351	418.69
402.729	408.75
403.107	425.24
403.486	405.81
403.864	419.59
404.242	427.28
404.62	434.28
404.999	433.83
405.377	456.43
405.755	438.58
406.133	444.23
406.511	459.37
406.889	459.14
407.267	468.18
407.645	471.12
408.023	461.17
408.401	470.89
408.779	475.41
409.156	476.32
409.534	474.73
409.912	500.27
410.29	528.07
410.667	524.45
411.045	492.81
411.422	505.47
411.8	509.31
412.178	518.12
412.555	526.48
412.933	555.64
413.31	551.79
413.687	559.48
414.065	561.74
414.442	570.1
414.819	562.64
415.197	579.36
415.574	579.14
415.951	609.87
416.328	565.8
416.705	559.7
417.082	578.01
417.46	606.93
417.837	643.54
418.214	606.26
418.591	636.76
418.967	639.25
419.344	634.96
419.721	639.25
420.098	655.29
420.475	664.11
420.852	652.13
421.228	684.22
421.605	662.98
421.982	694.84
422.358	711.79
422.735	687.84
423.111	696.65
423.488	721.05
423.864	736.87
424.241	749.75
424.617	756.31
424.994	769.41
425.37	730.77
425.746	782.97
426.123	789.08
426.499	811.22
426.875	808.28
427.251	817.55
427.627	820.26
428.003	836.53
428.379	842.41
428.756	866.81
429.132	858.23
429.507	844.44
429.883	859.58
430.259	898.9
430.635	908.17
431.011	905.91
431.387	920.37
431.763	965.79
432.138	946.81
432.514	952.69
432.89	953.82
433.265	983.19
433.641	1010.76
434.016	1015.74
434.392	1029.52
434.767	1054.61
435.143	1041.95
435.518	1057.32
435.894	1065.9
436.269	1093.25
436.644	1094.38
437.02	1104.77
437.395	1129.63
437.77	1115.85
438.145	1176.64
438.52	1199.23
438.895	1186.58
439.271	1215.73
439.646	1232.91
440.021	1250.08
440.395	1247.37
440.77	1232.91
441.145	1262.74
441.52	1312.45
441.895	1310.19
442.27	1308.16
442.645	1338.67
443.019	1344.77
443.394	1344.77
443.769	1352.68
444.143	1359.23
444.518	1377.53
444.892	1376.86
445.267	1389.06
445.641	1404.65
446.016	1388.83
446.39	1416.18
446.764	1437.87
447.139	1420.47
447.513	1470.19
447.887	1453.46
448.262	1433.13
448.636	1484.88
449.01	1499.79
449.384	1504.76
449.758	1521.49
450.132	1539.56
450.506	1544.76
450.88	1549.06
451.254	1574.14
451.628	1585.66
452.002	1586.12
452.376	1624.99
452.75	1642.39
453.123	1621.6
453.497	1641.71
453.871	1662.05
454.244	1701.59
454.618	1712.67
454.992	1702.95
455.365	1709.96
455.739	1783.4
456.112	1762.61
456.486	1748.82
456.859	1788.37
457.232	1859.33
457.606	1824.08
457.979	1839.67
458.352	1894.81
458.725	1918.09
459.099	1940.01
459.472	1915.37
459.845	1963.73
460.218	1958.08
460.591	2002.6
460.964	2026.56
461.337	2048.7
461.71	2065.2
462.083	2094.35
462.456	2096.84
462.829	2126.22
463.201	2148.59
463.574	2146.33
463.947	2151.75
464.32	2222.48
464.692	2254.12
465.065	2245.99
465.438	2282.14
465.81	2332.54
466.183	2330.28
466.555	2370.05
466.928	2387.45
467.3	2404.17
467.672	2403.04
468.045	2497.73
468.417	2484.62
468.789	2455.25
469.161	2549.26
469.534	2556.26
469.906	2589.25
470.278	2631.51
470.65	2648.46
471.022	2701.57
471.394	2773.43
471.766	2750.15
472.138	2818.85
472.51	2840.55
472.882	2896.59
473.253	2933.65
473.625	2933.88
473.997	3016.36
474.369	3000.99
474.74	3056.59
475.112	3129.35
475.484	3125.29
475.855	3198.28
476.227	3201.89
476.598	3244.83
476.97	3274.43
477.341	3417.48
477.713	3429.91
478.084	3451.6
478.455	3497.93
478.827	3547.65
479.198	3600.3
479.569	3618.61
479.94	3758.71
480.311	3726.4
480.682	3838.94
481.053	3860.86
481.424	3940.4
481.795	3975.88
482.166	4033.96
482.537	4049.78
482.908	4144.02
483.279	4164.13
483.65	4261.3
484.021	4321.64
484.391	4331.58
484.762	4408.87
485.133	4453.61
485.503	4471.46
485.874	4546.72
486.244	4575.87
486.615	4664.91
486.985	4685.92
487.356	4748.07
487.726	4784.68
488.097	4942.41
488.467	4948.74
488.837	5029.42
489.207	5059.02
489.578	5131.11
489.948	5163.88
490.318	5212.69
490.688	5235.74
491.058	5333.81
491.428	5326.13
491.798	5390.76
492.168	5486.13
492.538	5516.18
492.908	5573.58
493.278	5647.48
493.648	5616.07
494.017	5706.23
494.387	5742.62
494.757	5799.79
495.126	5813.8
495.496	5868.94
495.866	5870.75
496.235	5930.18
496.605	5963.4
496.974	6007.92
497.344	6031.2
497.713	6056.28
498.082	6081.59
498.452	6094.47
498.821	6178.76
499.19	6178.09
499.559	6279.78
499.928	6243.17
500.298	6254.02
500.667	6364.97
501.036	6269.61
501.405	6348.93
501.774	6360.23
502.143	6445.88
502.512	6441.81
502.88	6515.48
503.249	6517.06
503.618	6569.26
503.987	6588.47
504.356	6613.1
504.724	6625.98
505.093	6629.83
505.462	6608.13
505.83	6711.63
506.199	6735.81
506.567	6836.6
506.936	6784.62
507.304	6816.04
507.672	6884.96
508.041	6845.87
508.409	6865.07
508.777	6936.71
509.145	6979.2
509.514	6898.07
509.882	7011.74
510.25	6999.31
510.618	7025.75
510.986	7036.59
511.354	7090.38
511.722	7130.38
512.09	7169.02
512.458	7142.81
512.826	7221
513.193	7198.4
513.561	7176.48
513.929	7190.26
514.297	7236.36
514.664	7257.15
515.032	7319.98
515.4	7367.89
515.767	7359.07
516.135	7428.45
516.502	7341.22
516.869	7467.77
517.237	7427.32
517.604	7438.17
517.972	7373.53
518.339	7497.6
518.706	7494.44
519.073	7439.52
519.44	7508.9
519.808	7623.7
520.175	7545.28
520.542	7647.43
520.909	7663.47
521.276	7608.56
521.643	7721.77
522.009	7717.48
522.376	7721.1
522.743	7743.92
523.11	7821.43
523.477	7858.95
523.843	7855.56
524.21	7884.26
524.577	7911.83
524.943	7955.44
525.31	7908.89
525.676	7976.23
526.043	8009.68
526.409	8034.99
526.776	8063.46
527.142	8109.79
527.508	8090.8
527.874	8155.89
528.241	8157.7
528.607	8168.77
528.973	8192.5
529.339	8108.43
529.705	8219.84
530.071	8193.17
530.437	8271.14
530.803	8263.46
531.169	8260.74
531.535	8220.07
531.901	8198.37
532.267	8231.37
532.632	8255.77
532.998	8236.79
533.364	8279.5
533.73	8290.8
534.095	8329.44
534.461	8312.72
534.826	8364.7
535.192	8328.76
535.557	8366.73
535.923	8338.26
536.288	8329.89
536.653	8339.16
537.019	8345.26
537.384	8319.95
537.749	8277.47
538.114	8333.74
538.479	8287.41
538.845	8302.55
539.21	8292.61
539.575	8299.16
539.94	8307.75
540.305	8324.92
540.67	8303.68
541.034	8292.83
541.399	8232.5
541.764	8314.3
542.129	8305.04
542.494	8287.64
542.858	8305.71
543.223	8268.2
543.587	8258.71
543.952	8241.08
544.316	8270.01
544.681	8234.53
545.045	8211.7
545.41	8238.6
545.774	8323.34
546.138	8230.69
546.503	8352.49
546.867	8199.95
547.231	8297.8
547.595	8290.57
547.959	8299.39
548.324	8279.95
548.688	8277.47
549.052	8257.58
549.416	8239.27
549.779	8215.77
550.143	8248.09
550.507	8272.49
550.871	8276.11
551.235	8205.83
551.599	8287.86
551.962	8219.61
552.326	8214.64
552.689	8260.52
553.053	8217.81
553.417	8255.55
553.78	8264.58
554.143	8201.54
554.507	8252.61
554.87	8296
555.234	8320.18
555.597	8258.48
555.96	8267.52
556.323	8319.72
556.686	8304.58
557.05	8319.27
557.413	8338.03
557.776	8327.86
558.139	8377.35
558.502	8364.92
558.865	8366.28
559.228	8401.98
559.59	8402.21
559.953	8407.18
560.316	8491.02
560.679	8469.78
561.041	8497.57
561.404	8476.56
561.767	8532.37
562.129	8469.1
562.492	8569.66
562.854	8541.19
563.217	8590.9
563.579	8563.11
563.941	8619.6
564.304	8573.5
564.666	8613.73
565.028	8703.9
565.39	8707.51
565.753	8720.62
566.115	8689.88
566.477	8779.83
566.839	8771.46
567.201	8819.6
567.563	8786.15
567.925	8891.46
568.287	8898.01
568.648	8808.75
569.01	8959.93
569.372	8949.09
569.734	8917.22
570.095	9002.42
570.457	9009.2
570.819	9041.97
571.18	9033.83
571.542	9036.99
571.903	9054.62
572.265	9069.99
572.626	9137.1
572.987	9102.53
573.349	9198.8
573.71	9204.67
574.071	9175.97
574.432	9203.54
574.794	9255.75
575.155	9232.02
575.516	9301.17
575.877	9243.09
576.238	9286.03
576.599	9415.52
576.96	9296.42
577.32	9415.06
577.681	9361.73
578.042	9351.34
578.403	9423.65
578.763	9499.13
579.124	9452.35
579.485	9508.39
579.845	9538
580.206	9526.25
580.566	9492.12
580.927	9492.8
581.287	9551.56
581.648	9582.97
582.008	9621.84
582.368	9619.58
582.728	9636.07
583.089	9645.11
583.449	9636.53
583.809	9635.17
584.169	9679.69
584.529	9542.52
584.889	9695.73
585.249	9630.88
585.609	9648.28
585.969	9764.66
586.329	9639.69
586.688	9679.46
587.048	9727.15
587.408	9721.72
587.768	9748.16
588.127	9733.92
588.487	9747.26
588.846	9775.73
589.206	9707.03
589.565	9778.44
589.925	9847.37
590.284	9782.29
590.643	9793.58
591.003	9830.19
591.362	9882.62
591.721	9849.85
592.08	9857.31
592.44	9845.33
592.799	9770.76
593.158	9847.14
593.517	9819.12
593.876	9926.91
594.235	9832
594.593	9843.53
594.952	9869.74
595.311	9814.37
595.67	9855.73
596.029	9994.03
596.387	9977.99
596.746	9975.95
597.104	9919.23
597.463	9909.06
597.822	9951.32
598.18	9912.45
598.538	9956.74
598.897	10008.04
599.255	9917.65
599.613	10004.65
599.972	9985.9
600.33	10050.75
600.688	9991.32
601.046	9949.96
601.404	10069.51
601.762	10020.92
602.12	10091.88
602.478	10027.93
602.836	10099.56
603.194	10010.3
603.552	10007.14
603.91	10008.95
604.268	10071.77
604.625	9971.43
604.983	10055.27
605.341	10006.91
605.698	10083.75
606.056	10080.81
606.413	10076.51
606.771	10121.71
607.128	10067.93
607.485	10064.54
607.843	10040.58
608.2	10116.29
608.557	10087.36
608.914	10108.15
609.272	10119.9
609.629	10194.93
609.986	10244.87
610.343	10185.21
610.7	10204.19
611.057	10211.65
611.414	10196.51
611.771	10238.32
612.127	10254.36
612.484	10242.16
612.841	10241.93
613.198	10127.13
613.554	10222.5
613.911	10322.38
614.267	10257.07
614.624	10304.53
614.98	10262.72
615.337	10348.6
615.693	10408.71
616.05	10339.33
616.406	10359.9
616.762	10347.24
617.118	10331.65
617.475	10329.84
617.831	10387.02
618.187	10423.17
618.543	10362.61
618.899	10432.21
619.255	10375.49
619.611	10338.2
619.967	10452.1
620.323	10453.23
620.678	10483.51
621.034	10368.48
621.39	10400.12
621.746	10434.7
622.101	10528.48
622.457	10438.99
622.812	10436.96
623.168	10505.43
623.523	10451.65
623.879	10432.21
624.234	10369.61
624.589	10460.01
624.945	10383.17
625.3	10450.29
625.655	10405.32
626.01	10479.22
626.365	10505.43
626.72	10489.39
627.075	10481.02
627.43	10393.57
627.785	10396.28
628.14	10432.89
628.495	10368.48
628.85	10414.36
629.205	10382.95
629.559	10390.4
629.914	10364.64
630.269	10346.11
630.623	10336.62
630.978	10336.17
631.332	10288.26
631.687	10378.43
632.041	10347.24
632.396	10334.59
632.75	10246.91
633.104	10241.93
633.459	10278.77
633.813	10252.78
634.167	10307.7
634.521	10267.02
634.875	10226.34
635.229	10246
635.583	10203.29
635.937	10178.21
636.291	10132.56
636.645	10118.77
636.999	10123.97
637.352	10152.9
637.706	10100.24
638.06	10100.47
638.413	10091.66
638.767	10107.93
639.121	10031.09
639.474	10111.77
639.828	10002.84
640.181	10059.34
640.534	10014.82
640.888	10085.78
641.241	9928.72
641.594	9962.39
641.947	9992
642.301	9950.64
642.654	9969.85
643.007	10020.92
643.36	9940.7
643.713	9923.75
644.066	9990.87
644.419	9886.01
644.771	9830.87
645.124	9727.37
645.477	9711.1
645.83	9646.47
646.182	9678.79
646.535	9552.01
646.888	9624.1
647.24	9514.72
647.593	9614.15
647.945	9594.27
648.298	9527.83
648.65	9487.6
649.002	9525.79
649.355	9532.57
649.707	9515.17
650.059	9617.32
650.411	9659.35
650.763	9726.02
651.115	9790.65
651.467	9770.31
651.819	9760.14
652.171	9741.38
652.523	9692.8
652.875	9764.88
653.227	9780.7
653.578	9782.96
653.93	9719.91
654.282	9654.6
654.633	9663.87
654.985	9721.04
655.337	9618.22
655.688	9726.47
656.039	9778.9
656.391	9667.26
656.742	9682.85
657.094	9649.86
657.445	9721.95
657.796	9640.82
658.147	9695.51
658.498	9645.34
658.849	9713.13
659.2	9714.49
659.551	9658.45
659.902	9672.68
660.253	9726.69
660.604	9703.64
660.955	9602.18
661.306	9718.11
661.656	9680.14
662.007	9676.75
662.358	9665.68
662.708	9747.48
663.059	9685.11
663.409	9568.96
663.76	9748.61
664.11	9634.04
664.461	9708.61
664.811	9725.79
665.161	9635.17
665.511	9601.27
665.862	9688.5
666.212	9630.88
666.562	9669.52
666.912	9650.09
667.262	9625.23
667.612	9690.08
667.962	9615.28
668.312	9672.68
668.662	9673.14
669.011	9653.25
669.361	9620.71
669.711	9552.91
670.06	9599.92
670.41	9655.06
670.76	9652.12
671.109	9555.62
671.459	9590.2
671.808	9635.17
672.157	9614.38
672.507	9593.36
672.856	9578
673.205	9557.21
673.554	9571.22
673.904	9528.28
674.253	9629.75
674.602	9599.47
674.951	9432.46
675.3	9371
675.649	9512.69
675.998	9490.99
676.346	9555.4
676.695	9562.86
677.044	9421.39
677.393	9509.07
677.741	9401.05
678.09	9469.75
678.438	9479.92
678.787	9405.57
679.135	9420.71
679.484	9363.31
679.832	9432.24
680.181	9338.68
680.529	9357.89
680.877	9395.4
681.225	9320.6
681.573	9406.93
681.922	9323.54
682.27	9220.94
682.618	9298.46
682.966	9263.88
683.314	9314.73
683.661	9257.1
684.009	9131.68
684.357	9179.14
684.705	9143.43
685.053	9193.83
685.4	9179.59
685.748	9096.88
686.095	9065.47
686.443	9083.77
686.79	9049.65
687.138	9040.38
687.485	9044.9
687.832	9013.49
688.18	9076.99
688.527	8978.24
688.874	8916.55
689.221	8934.4
689.568	8885.81
689.915	8921.29
690.262	8848.3
690.609	8861.86
690.956	8842.65
691.303	8783.44
691.65	8782.09
691.997	8710.9
692.344	8660.05
692.69	8768.53
693.037	8694.18
693.383	8603.33
693.73	8620.06
694.077	8595.65
694.423	8599.04
694.769	8552.94
695.116	8557.23
695.462	8489.44
695.808	8466.84
696.155	8442.66
696.501	8448.99
696.847	8397.91
697.193	8391.14
697.539	8373.06
697.885	8351.36
698.231	8320.85
698.577	8242.21
698.923	8231.59
699.269	8260.07
699.614	8114.53
699.96	8164.93
700.306	8132.39
700.651	8113.4
700.997	8106.85
701.342	8093.29
701.688	8038.83
702.033	7991.15
702.379	8051.71
702.724	7913.63
703.069	7962.22
703.415	7903.01
703.76	7877.25
704.105	7862.34
704.45	7864.14
704.795	7836.35
705.14	7802.45
705.485	7825.05
705.83	7723.13
706.175	7725.39
706.52	7757.25
706.865	7635
707.209	7705.5
707.554	7630.03
707.899	7645.84
708.243	7550.93
708.588	7605.17
708.932	7540.99
709.277	7522.23
709.621	7532.63
709.966	7523.59
710.31	7512.74
710.654	7440.88
710.998	7435
711.342	7398.62
711.687	7382.57
712.031	7392.97
712.375	7346.64
712.719	7412.63
713.063	7338.51
713.407	7387.32
713.75	7305.51
714.094	7317.49
714.438	7246.53
714.782	7303.93
715.125	7238.17
715.469	7263.71
715.812	7230.26
716.156	7238.85
716.499	7206.31
716.843	7149.13
717.186	7128.34
717.53	7170.38
717.873	7192.3
718.216	7173.31
718.559	7165.63
718.902	7118.85
719.246	7116.37
719.589	7042.7
719.932	6986.2
720.275	7095.35
720.617	7038.4
720.96	7048.57
721.303	7006.09
721.646	7058.29
721.989	7006.31
722.331	6970.61
722.674	6959.76
723.016	7002.02
723.359	6945.98
723.701	6980.55
724.044	7014.22
724.386	6874.79
724.729	6911.85
725.071	6947.56
725.413	6898.75
725.755	6926.32
726.097	6943.04
726.439	6894.68
726.782	6923.38
727.124	6891.74
727.465	6893.77
727.807	6880.67
728.149	6891.97
728.491	6812.19
728.833	6908.24
729.175	6855.13
729.516	6845.87
729.858	6784.85
730.199	6809.48
730.541	6811.97
730.882	6768.13
731.224	6850.61
731.565	6782.82
731.906	6827.79
732.248	6859.2
732.589	6755.47
732.93	6753.89
733.271	6782.82
733.612	6720.44
733.953	6822.14
734.294	6763.16
734.635	6761.35
734.976	6741.69
735.317	6781.69
735.658	6727.45
735.999	6738.3
736.339	6744.85
736.68	6799.31
737.021	6721.12
737.361	6770.16
737.702	6819.88
738.042	6738.52
738.383	6729.03
738.723	6748.47
739.063	6782.59
739.404	6851.06
739.744	6748.92
740.084	6764.06
740.424	6811.52
740.764	6752.53
741.104	6805.64
741.444	6782.36
741.784	6843.15
742.124	6824.62
742.464	6807.22
742.804	6809.03
743.143	6842.48
743.483	6871.18
743.823	6817.39
744.162	6886.77
744.502	6882.7
744.841	6866.43
745.181	6890.61
745.52	6859.42
745.86	6978.97
746.199	6952.76
746.538	6921.34
746.877	7018.74
747.216	7041.34
747.556	7035.46
747.895	7104.84
748.234	7077.05
748.573	7105.97
748.911	7077.72
749.25	7194.33
749.589	7231.17
749.928	7190.94
750.267	7255.35
750.605	7300.54
750.944	7430.26
751.283	7347.09
751.621	7468.45
751.96	7468.67
752.298	7491.27
752.636	7602.91
752.975	7561.78
753.313	7663.7
753.651	7787.31
753.989	7759.97
754.327	7834.09
754.666	7882.9
755.004	7973.97
755.342	8093.74
755.679	8097.13
756.017	8196.11
756.355	8258.94
756.693	8332.38
757.031	8381.42
757.368	8488.31
757.706	8589.32
758.044	8535.76
758.381	8744.12
758.719	8822.54
759.056	8980.05
759.394	9013.27
759.731	9138.91
760.068	9157.67
760.405	9204
760.743	9295.07
761.08	9442.18
761.417	9471.78
761.754	9611.22
762.091	9740.25
762.428	9799.01
762.765	9854.6
763.102	9988.61
763.438	10070.64
763.775	10117.64
764.112	10137.98
764.449	10351.99
764.785	10297.98
765.122	10407.81
765.458	10476.5
765.795	10626.33
766.131	10639.44
766.467	10710.4
766.804	10752.66
767.14	10802.6
767.476	10965.3
767.812	11016.83
768.148	11106.54
768.485	11081.23
768.821	11144.96
769.157	11271.06
769.492	11295.01
769.828	11339.98
770.164	11393.99
770.5	11473.09
770.836	11491.39
771.171	11462.92
771.507	11519.64
771.842	11606.42
772.178	11677.6
772.513	11673.99
772.849	11788.56
773.184	11785.85
773.519	11838.28
773.855	11742.46
774.19	11811.16
774.525	11814.55
774.86	11927.54
775.195	11873.08
775.53	11935
775.865	11776.81
776.2	11943.58
776.535	11920.76
776.87	11999.85
777.205	11886.64
777.539	11967.31
777.874	12017.48
778.209	11937.93
778.543	12023.13
778.878	11913.98
779.212	12059.74
779.547	12005.28
779.881	12050.25
780.215	11998.5
780.55	12047.54
780.884	12030.36
781.218	11945.62
781.552	12067.65
781.886	12057.48
782.22	11994.66
782.554	11961.44
782.888	11845.96
783.222	11852.74
783.556	11886.86
783.889	11911.49
784.223	11812.97
784.557	11841.67
784.89	11827.66
785.224	11768.9
785.557	11740.65
785.891	11764.61
786.224	11717.83
786.558	11697.72
786.891	11615.91
787.224	11679.64
787.557	11659.3
787.891	11676.92
788.224	11730.93
788.557	11633.76
788.89	11620.43
789.223	11617.04
789.556	11564.39
789.888	11556.02
790.221	11532.97
790.554	11463.82
790.887	11503.14
791.219	11386.54
791.552	11430.38
791.884	11304.28
792.217	11367.78
792.549	11341.11
792.882	11317.16
793.214	11299.53
793.546	11296.14
793.879	11242.81
794.211	11124.85
794.543	11194.23
794.875	11180.44
795.207	11187.22
795.539	11131.85
795.871	11123.72
796.203	11073.32
796.535	10995.59
796.867	10944.29
797.198	10912.65
797.53	10945.87
797.862	10954.23
798.193	10930.5
798.525	10801.24
798.856	10909.71
799.188	10756.04
799.519	10738.19
799.85	10784.29
800.182	10750.4
800.513	10668.36
800.844	10690.28
801.175	10680.79
801.506	10705.65
801.837	10640.12
802.168	10579.78
802.499	10621.36
802.83	10547.69
803.161	10487.35
803.491	10551.3
803.822	10489.16
804.153	10435.6
804.483	10381.14
804.814	10314.47
805.145	10389.95
805.475	10408.71
805.805	10320.35
806.136	10366.22
806.466	10306.79
806.796	10249.17
807.126	10190.41
807.457	10210.75
807.787	10190.86
808.117	10204.19
808.447	10117.87
808.777	10107.25
809.107	10070.41
809.436	10095.05
809.766	10055.72
810.096	10033.58
810.426	9988.83
810.755	9970.98
811.085	9952.68
811.414	9948.16
811.744	9873.13
812.073	9854.15
812.403	9888.27
812.732	9801.04
813.061	9831.78
813.39	9761.04
813.719	9749.29
814.049	9794.49
814.378	9740.03
814.707	9719.91
815.036	9718.78
815.365	9742.06
815.693	9563.53
816.022	9555.62
816.351	9568.28
816.68	9557.66
817.008	9576.41
817.337	9468.62
817.665	9470.65
817.994	9484.44
818.322	9486.93
818.651	9459.36
818.979	9434.72
819.307	9519.02
819.636	9444.21
819.964	9403.09
820.292	9432.92
820.62	9414.84
820.948	9402.63
821.276	9394.95
821.604	9395.4
821.932	9389.75
822.259	9431.56
822.587	9408.96
822.915	9429.98
823.243	9417.77
823.57	9372.35
823.898	9335.07
824.225	9330.09
824.553	9279.7
824.88	9261.17
825.207	9347.49
825.535	9339.36
825.862	9416.42
826.189	9308.4
826.516	9374.39
826.843	9419.81
827.17	9419.58
827.497	9417.1
827.824	9384.33
828.151	9437.21
828.478	9374.39
828.805	9416.87
829.131	9336.65
829.458	9422.29
829.785	9407.83
830.111	9401.96
830.438	9412.13
830.764	9422.29
831.09	9410.09
831.417	9337.33
831.743	9365.35
832.069	9376.42
832.395	9345.69
832.722	9334.16
833.048	9306.82
833.374	9338
833.7	9342.07
834.026	9349.75
834.351	9388.85
834.677	9299.13
835.003	9286.48
835.329	9290.32
835.654	9278.34
835.98	9190.44
836.306	9317.66
836.631	9231.11
836.956	9236.08
837.282	9317.21
837.607	9216.88
837.932	9124.9
838.258	9231.57
838.583	9247.16
838.908	9159.25
839.233	9116.54
839.558	9132.81
839.883	9175.52
840.208	9089.2
840.533	9062.98
840.858	9093.49
841.182	9041.29
841.507	9060.5
841.832	8970.78
842.156	9020.5
842.481	8980.27
842.805	8964.45
843.13	8965.58
843.454	8931.23
843.778	8901.4
844.103	8845.59
844.427	8833.84
844.751	8858.47
845.075	8819.37
845.399	8822.76
845.723	8750.67
846.047	8723.56
846.371	8650.11
846.695	8681.07
847.019	8583.45
847.343	8591.81
847.666	8532.15
847.99	8447.18
848.313	8512.49
848.637	8509.55
848.96	8440.4
849.284	8446.05
849.607	8373.96
849.931	8352.04
850.254	8311.59
850.577	8306.62
850.9	8247.41
851.223	8264.58
851.546	8185.49
851.869	8105.72
852.192	8178.49
852.515	8098.26
852.838	8053.97
853.161	8071.82
853.483	8007.64
853.806	7981.88
854.129	7933.52
854.451	7924.03
854.774	7927.42
855.096	7874.99
855.419	7828.89
855.741	7845.84
856.063	7819.62
856.385	7816.01
856.708	7749.12
857.03	7740.76
857.352	7733.53
857.674	7731.49
857.996	7730.36
858.318	7619.86
858.64	7651.49
858.961	7633.64
859.283	7659.4
859.605	7561.1
859.926	7610.14
860.248	7543.93
860.57	7518.84
860.891	7523.36
861.212	7504.15
861.534	7433.19
861.855	7442.46
862.176	7457.83
862.498	7410.37
862.819	7442.46
863.14	7440.2
863.461	7451.05
863.782	7343.71
864.103	7416.7
864.424	7358.85
864.745	7370.82
865.065	7300.77
865.386	7311.39
865.707	7236.59
866.027	7268.68
866.348	7297.38
866.668	7337.38
866.989	7292.63
867.309	7219.19
867.63	7282.92
867.95	7208.12
868.27	7176.48
868.59	7133.32
868.91	7165.18
869.23	7198.4
869.55	7102.58
869.87	7211.73
870.19	7169.25
870.51	7179.19
870.83	7147.33
871.15	7112.3
871.469	7086.08
871.789	7110.04
872.109	7087.21
872.428	7044.05
872.748	7049.48
873.067	7000.66
873.386	7064.84
873.706	7050.83
874.025	6962.7
874.344	7031.4
874.663	7034.79
874.982	7021.45
875.301	7005.41
875.62	6903.49
875.939	6914.34
876.258	6912.3
876.577	6936.03
876.896	6929.7
877.214	6839.54
877.533	6877.05
877.852	6848.58
878.17	6842.93
878.489	6879.08
878.807	6868.46
879.125	6802.48
879.444	6866.88
879.762	6753.89
880.08	6788.01
880.398	6732.2
880.716	6750.73
881.034	6729.48
881.352	6741.69
881.67	6701.24
881.988	6717.73
882.306	6702.14
882.624	6714.8
882.941	6635.48
883.259	6638.64
883.577	6664.4
883.894	6635.93
884.212	6612.88
884.529	6581.92
884.846	6555.25
885.164	6532.65
885.481	6524.07
885.798	6568.13
886.115	6535.82
886.432	6540.56
886.75	6465.76
887.067	6506.67
887.383	6501.24
887.7	6503.05
888.017	6468.93
888.334	6479.1
888.651	6462.6
888.967	6418.08
889.284	6379.89
889.6	6366.56
889.917	6315.48
890.233	6366.33
890.55	6328.36
890.866	6288.82
891.182	6245.88
891.498	6274.13
891.815	6222.6
892.131	6224.41
892.447	6194.81
892.763	6172.44
893.079	6184.87
893.395	6156.17
893.71	6134.47
894.026	6200.91
894.342	6099.9
894.657	6096.05
894.973	6041.82
895.289	6017.64
895.604	6080.24
895.92	5984.87
896.235	5980.35
896.55	6010.63
896.865	5998.2
897.181	5910.52
897.496	5925.66
897.811	5878.43
898.126	5843.86
898.441	5886.12
898.756	5811.32
899.071	5779.23
899.386	5836.17
899.7	5738.78
900.015	5769.74
900.33	5663.98
900.644	5660.13
900.959	5653.13
901.273	5627.37
901.588	5642.51
901.902	5608.61
902.216	5623.07
902.531	5551.21
902.845	5578.78
903.159	5533.81
903.473	5525.9
903.787	5521.15
904.101	5501.72
904.415	5445.45
904.729	5467.6
905.042	5455.62
905.356	5380.59
905.67	5380.59
905.984	5438.22
906.297	5396.41
906.611	5265.79
906.924	5344.21
907.237	5309.86
907.551	5281.39
907.864	5277.77
908.177	5247.49
908.491	5181.5
908.804	5197.09
909.117	5188.96
909.43	5172.01
909.743	5116.87
910.056	5100.37
910.368	5091.11
910.681	5091.79
910.994	5073.93
911.307	5040.94
911.619	4993.71
911.932	4996.65
912.244	4978.8
912.557	4969.76
912.869	4890.66
913.181	4890.89
913.494	4901.28
913.806	4881.85
914.118	4879.82
914.43	4835.52
914.742	4850.21
915.054	4862.41
915.366	4830.32
915.678	4752.81
915.99	4835.07
916.302	4721.4
916.613	4746.03
916.925	4725.47
917.236	4706.49
917.548	4675.53
917.859	4670.56
918.171	4652.7
918.482	4585.81
918.794	4619.71
919.105	4582.42
919.416	4563.67
919.727	4518.69
920.038	4565.25
920.349	4523.21
920.66	4496.55
920.971	4463.55
921.282	4500.62
921.593	4449.32
921.903	4435.99
922.214	4420.17
922.525	4365.93
922.835	4384.46
923.146	4335.87
923.456	4334.52
923.767	4310.34
924.077	4337.68
924.387	4325.93
924.697	4252.49
925.008	4202.09
925.318	4224.92
925.628	4218.59
925.938	4162.55
926.248	4173.62
926.558	4168.42
926.867	4148.76
927.177	4154.86
927.487	4113.51
927.796	4089.1
928.106	4075.09
928.416	4041.42
928.725	4045.71
929.034	4014.53
929.344	4073.96
929.653	4009.56
929.962	3950.57
930.271	3981.76
930.581	3961.65
930.89	3943.12
931.199	3874.42
931.508	3921.42
931.817	3931.82
932.125	3891.37
932.434	3878.94
932.743	3821.31
933.051	3848.43
933.36	3785.83
933.669	3773.4
933.977	3743.12
934.286	3800.07
934.594	3775.44
934.902	3701.99
935.21	3706.51
935.519	3709.45
935.827	3661.09
936.135	3679.17
936.443	3670.13
936.751	3648.21
937.059	3637.59
937.367	3636.68
937.674	3610.24
937.982	3610.7
938.29	3588.78
938.597	3584.26
938.905	3497.7
939.213	3501.09
939.52	3494.99
939.827	3501.55
940.135	3484.37
940.442	3458.16
940.749	3469.46
941.056	3449.8
941.363	3410.93
941.67	3431.94
941.977	3410.7
942.284	3384.94
942.591	3360.76
942.898	3349.01
943.205	3351.04
943.511	3347.2
943.818	3325.73
944.125	3282.34
944.431	3297.71
944.738	3304.26
945.044	3275.56
945.35	3286.64
945.657	3210.03
945.963	3250.71
946.269	3197.15
946.575	3202.57
946.881	3188.79
947.187	3174.1
947.493	3161.67
947.799	3190.82
948.105	3153.31
948.41	3113.76
948.716	3112.18
949.022	3123.03
949.327	3099.07
949.633	3091.84
949.938	3051.39
950.244	3090.26
950.549	3039.86
950.854	3032.41
951.16	3002.8
951.465	3030.82
951.77	2982.69
952.075	2976.59
952.38	2969.81
952.685	2937.95
952.99	2940.66
953.294	2926.42
953.599	2901.34
953.904	2885.07
954.209	2867.21
954.513	2864.95
954.818	2881.45
955.122	2853.88
955.426	2872.41
955.731	2870.15
956.035	2865.86
956.339	2799.64
956.643	2793.09
956.948	2777.72
957.252	2779.76
957.556	2758.52
957.86	2761.45
958.163	2771.17
958.467	2763.94
958.771	2739.08
959.075	2723.26
959.378	2729.59
959.682	2670.61
959.985	2659.08
960.289	2671.74
960.592	2625.19
960.896	2657.27
961.199	2641.68
961.502	2585.41
961.805	2614.56
962.108	2606.88
962.411	2569.14
962.714	2558.07
963.017	2572.76
963.32	2571.63
963.623	2540.22
963.926	2551.51
964.228	2518.75
964.531	2511.74
964.833	2529.82
965.136	2463.38
965.438	2462.25
965.741	2468.81
966.043	2477.84
966.345	2470.39
966.648	2479.65
966.95	2437.17
967.252	2428.81
967.554	2428.13
967.856	2398.98
968.158	2399.2
968.46	2357.85
968.761	2367.11
969.063	2377.06
969.365	2357.62
969.666	2339.77
969.968	2341.58
970.269	2330.73
970.571	2352.2
970.872	2302.48
971.174	2324.18
971.475	2347.23
971.776	2292.76
972.077	2286.89
972.378	2271.3
972.679	2250.51
972.98	2241.01
973.281	2260
973.582	2258.64
973.883	2224.74
974.183	2211.64
974.484	2239.88
974.785	2218.64
975.085	2180.23
975.386	2148.59
975.686	2178.19
975.986	2180.68
976.287	2165.31
976.587	2145.88
976.887	2136.38
977.187	2141.36
977.487	2116.05
977.787	2112.43
978.087	2113.11
978.387	2066.78
978.687	2078.98
978.987	2078.31
979.286	2031.08
979.586	2088.93
979.885	2044.86
980.185	2034.47
980.484	1990.17
980.784	2018.65
981.083	2004.86
981.382	1989.5
981.682	1996.73
981.981	1984.3
982.28	1971.87
982.579	1958.54
982.878	1974.81
983.177	1973.22
983.475	1952.66
983.774	1929.16
984.073	1934.13
984.372	1936.84
984.67	1903.17
984.969	1902.49
985.267	1940.01
985.566	1914.24
985.864	1895.26
986.162	1832.44
986.461	1846
986.759	1860.69
987.057	1867.92
987.355	1845.09
987.653	1811.87
987.951	1848.03
988.249	1812.33
988.547	1818.2
988.844	1817.07
989.142	1796.51
989.44	1796.28
989.737	1763.74
990.035	1780.46
990.332	1747.92
990.63	1742.27
990.927	1754.7
991.224	1729.16
991.521	1735.72
991.819	1733.01
992.116	1732.33
992.413	1704.08
992.71	1719.45
993.006	1688.71
993.303	1678.09
993.6	1653.23
993.897	1670.63
994.193	1646.23
994.49	1648.49
994.787	1667.24
995.083	1631.77
995.379	1609.39
995.676	1656.62
995.972	1608.94
996.268	1625.44
996.565	1623.4
996.861	1603.74
997.157	1646
997.453	1589.73
997.749	1587.25
998.044	1558.77
998.34	1584.31
998.636	1553.57
998.932	1536.85
999.227	1547.7
999.523	1531.65
999.818	1551.99
1000.114	1523.52
1000.409	1506.12
1000.704	1522.62
1001	1496.85
1001.295	1505.44
1001.59	1491.66
1001.885	1476.97
1002.18	1467.02
1002.475	1460.7
1002.77	1463.86
1003.065	1438.1
1003.359	1456.18
1003.654	1451.66
1003.949	1395.16
1004.243	1415.5
1004.538	1396.74
1004.832	1407.59
1005.127	1403.75
1005.421	1406.01
1005.715	1369.17
1006.009	1368.95
1006.304	1370.3
1006.598	1347.25
1006.892	1395.16
1007.186	1328.04
1007.48	1345.67
1007.773	1335.95
1008.067	1309.74
1008.361	1335.28
1008.655	1313.58
1008.948	1314.71
1009.242	1317.65
1009.535	1293.24
1009.829	1258.89
1010.122	1265.67
1010.415	1301.83
1010.708	1279.23
1011.001	1278.1
1011.295	1263.19
1011.588	1271.55
1011.881	1227.48
1012.173	1255.28
1012.466	1253.92
1012.759	1254.37
1013.052	1227.03
1013.344	1212.79
1013.637	1210.76
1013.93	1199.01
1014.222	1201.04
1014.514	1224.77
1014.807	1203.75
1015.099	1179.57
1015.391	1185.22
1015.683	1152.23
1015.976	1140.93
1016.268	1165.56
1016.56	1156.3
1016.851	1133.7
1017.143	1122.85
1017.435	1147.48
1017.727	1117.2
1018.018	1119.69
1018.31	1097.09
1018.602	1118.56
1018.893	1084.43
1019.185	1089.63
1019.476	1095.06
1019.767	1101.61
1020.058	1075.62
1020.35	1061.38
1020.641	1042.4
1020.932	1046.92
1021.223	1043.08
1021.514	1056.64
1021.804	1050.76
1022.095	1025.68
1022.386	998.79
1022.677	1018.67
1022.967	1006.24
1023.258	1006.24
1023.548	1004.66
1023.839	987.04
1024.129	977.54
1024.419	986.81
1024.709	978.9
1025	967.83
1025.29	970.09
1025.58	959.47
1025.87	938.9
1026.16	927.15
1026.449	959.69
1026.739	949.07
1027.029	949.75
1027.319	930.09
1027.608	941.39
1027.898	918.79
1028.187	898
1028.477	900.71
1028.766	889.19
1029.055	914.04
1029.344	876.53
1029.634	899.81
1029.923	882.86
1030.212	894.84
1030.501	873.59
1030.79	848.28
1031.078	862.97
1031.367	832.92
1031.656	859.36
1031.945	862.52
1032.233	859.81
1032.522	839.02
1032.81	823.88
1033.099	818.45
1033.387	833.14
1033.675	820.71
1033.963	800.15
1034.251	799.92
1034.54	779.81
1034.828	802.41
1035.116	779.58
1035.403	800.37
1035.691	773.71
1035.979	765.12
1036.267	773.48
1036.554	742.07
1036.842	776.19
1037.129	788.17
1037.417	739.36
1037.704	770.77
1037.992	743.88
1038.279	753.6
1038.566	722.64
1038.853	722.64
1039.14	722.64
