Data from hue_28_FLMS001491_00045.txt Node
Date: Tue Feb 07 17:17:20 GMT 2017
User: dcchb
Spectrometer: FLMS00149
Trigger mode: 0
Integration Time (sec): 2.000000E-2
Scans to average: 10
Electric dark correction enabled: true
Nonlinearity correction enabled: false
Boxcar width: 0
XAxis mode: Wavelengths
Number of Pixels in Spectrum: 2048
>>>>>Begin Spectral Data<<<<<
341.393	-10.58
341.776	-10.58
342.16	-10.58
342.543	-48.32
342.927	-63.46
343.31	-64.14
343.693	-61.65
344.077	-65.94
344.46	-61.42
344.843	-47.87
345.226	-49.67
345.61	-14.87
345.993	-35.66
346.376	-2.44
346.759	5.69
347.142	20.61
347.525	50.66
347.908	52.92
348.291	75.07
348.674	95.18
349.057	103.54
349.44	104.67
349.823	139.47
350.206	154.84
350.588	197.55
350.971	217.21
351.354	235.74
351.737	236.19
352.119	262.86
352.502	280.94
352.884	272.58
353.267	280.04
353.65	289.75
354.032	299.24
354.414	313.71
354.797	321.16
355.179	326.59
355.562	342.86
355.944	332.91
356.326	343.76
356.709	347.38
357.091	361.84
357.473	350.32
357.855	369.98
358.238	355.29
358.62	347.38
359.002	345.57
359.384	336.3
359.766	339.92
360.148	350.99
360.53	362.52
360.912	353.03
361.294	329.75
361.676	348.51
362.057	317.1
362.439	330.43
362.821	338.34
363.203	328.4
363.584	322.97
363.966	347.38
364.348	318.23
364.729	331.79
365.111	329.07
365.493	322.75
365.874	320.71
366.256	311.9
366.637	318.9
367.019	325.23
367.4	325.46
367.781	302.86
368.163	310.77
368.544	290.66
368.925	318.23
369.306	343.99
369.688	325.01
370.069	323.65
370.45	312.12
370.831	333.37
371.212	319.81
371.593	307.38
371.974	343.31
372.355	321.39
372.736	336.98
373.117	327.94
373.498	327.94
373.879	331.33
374.26	314.84
374.641	323.2
375.021	321.62
375.402	319.13
375.783	317.77
376.163	327.04
376.544	342.63
376.925	300.15
377.305	336.3
377.686	338.79
378.066	343.54
378.447	324.55
378.827	311.22
379.208	327.94
379.588	331.56
379.968	338.34
380.349	330.43
380.729	358.68
381.109	342.86
381.489	342.63
381.87	332.01
382.25	327.04
382.63	347.6
383.01	344.21
383.39	344.21
383.77	350.99
384.15	338.11
384.53	352.12
384.91	358.9
385.29	337.66
385.67	349.19
386.049	341.95
386.429	357.55
386.809	372.91
387.189	329.53
387.568	358.68
387.948	352.35
388.328	363.42
388.707	354.61
389.087	367.94
389.466	354.84
389.846	344.44
390.225	368.39
390.605	358.9
390.984	376.98
391.363	378.79
391.743	390.99
392.122	368.17
392.501	358.23
392.881	371.78
393.26	388.05
393.639	367.94
394.018	373.59
394.397	369.52
394.776	379.24
395.155	374.04
395.534	369.52
395.913	393.03
396.292	382.18
396.671	409.07
397.05	385.12
397.429	409.75
397.808	398.22
398.186	383.54
398.565	375.63
398.944	401.84
399.323	412.69
399.701	403.2
400.08	402.29
400.458	419.69
400.837	411.56
401.215	406.13
401.594	408.17
401.972	417.88
402.351	399.58
402.729	423.99
403.107	413.59
403.486	400.03
403.864	419.01
404.242	430.99
404.62	435.29
404.999	427.38
405.377	428.28
405.755	423.53
406.133	421.73
406.511	433.25
406.889	420.14
407.267	430.31
407.645	429.18
408.023	425.34
408.401	438.45
408.779	439.13
409.156	442.74
409.534	442.29
409.912	450.43
410.29	458.34
410.667	455.85
411.045	470.09
411.422	475.74
411.8	461.05
412.178	502.63
412.555	482.06
412.933	470.99
413.31	468.96
413.687	463.31
414.065	489.97
414.442	482.06
414.819	497.66
415.197	469.41
415.574	479.58
415.951	486.36
416.328	471.67
416.705	488.62
417.082	499.46
417.46	504.21
417.837	507.37
418.214	505.79
418.591	501.05
418.967	522.97
419.344	533.59
419.721	515.06
420.098	518.67
420.475	518.9
420.852	527.49
421.228	541.05
421.605	536.3
421.982	537.2
422.358	546.47
422.735	541.95
423.111	535.62
423.488	552.57
423.864	550.76
424.241	563.64
424.617	536.98
424.994	560.93
425.37	561.38
425.746	579.46
426.123	587.37
426.499	558.22
426.875	583.53
427.251	595.96
427.627	607.71
428.003	605.22
428.379	590.08
428.756	597.31
429.132	591.44
429.507	615.39
429.883	615.85
430.259	614.04
430.635	643.19
431.011	632.12
431.387	631.21
431.763	634.83
432.138	647.03
432.514	650.87
432.89	654.71
433.265	660.14
433.641	648.61
434.016	662.62
434.392	677.76
434.767	703.75
435.143	678.44
435.518	681.61
435.894	705.79
436.269	696.52
436.644	713.24
437.02	705.56
437.395	715.73
437.77	714.6
438.145	720.02
438.52	714.6
438.895	732.9
439.271	725
439.646	729.51
440.021	729.74
440.395	731.77
440.77	736.07
441.145	771.1
441.52	760.25
441.895	758.89
442.27	775.84
442.645	761.15
443.019	792.79
443.394	776.52
443.769	796.63
444.143	780.81
444.518	798.21
444.892	788.72
445.267	781.26
445.641	803.41
446.016	800.93
446.39	825.33
446.764	800.25
447.139	838.66
447.513	830.3
447.887	829.4
448.262	833.01
448.636	832.56
449.01	842.28
449.384	863.97
449.758	832.11
450.132	850.42
450.506	850.42
450.88	887.25
451.254	876.86
451.628	876.18
452.002	888.38
452.376	889.74
452.75	907.59
453.123	892.45
453.497	925.67
453.871	919.11
454.244	949.17
454.618	919.57
454.992	951.43
455.365	947.59
455.739	948.72
456.112	980.13
456.486	952.11
456.859	981.71
457.232	981.49
457.606	992.78
457.979	996.63
458.352	1038.21
458.725	1015.61
459.099	1041.82
459.472	1043.86
459.845	1054.48
460.218	1073.69
460.591	1073.23
460.964	1091.77
461.337	1095.61
461.71	1113.91
462.083	1120.69
462.456	1155.49
462.829	1148.26
463.201	1149.62
463.574	1165.89
463.947	1178.99
464.32	1188.94
464.692	1224.42
465.065	1256.51
465.438	1239.78
465.81	1254.7
466.183	1265.55
466.555	1286.11
466.928	1308.26
467.3	1272.33
467.672	1296.51
468.045	1343.74
468.417	1359.78
468.789	1378.99
469.161	1363.4
469.534	1392.32
469.906	1436.84
470.278	1414.69
470.65	1441.59
471.022	1447.24
471.394	1499.21
471.766	1520
472.138	1526.33
472.51	1548.48
472.882	1585.31
473.253	1603.84
473.625	1615.59
473.997	1665.54
474.369	1667.8
474.74	1675.7
475.112	1697.4
475.484	1761.35
475.855	1799.77
476.227	1812.2
476.598	1875.02
476.97	1880.44
477.341	1951.4
477.713	1928.13
478.084	1969.71
478.455	2033.66
478.827	2028.92
479.198	2082.7
479.569	2105.75
479.94	2167.44
480.311	2226.42
480.682	2268.01
481.053	2329.25
481.424	2346.87
481.795	2406.08
482.166	2410.6
482.537	2449.92
482.908	2507.55
483.279	2579.18
483.65	2622.35
484.021	2702.57
484.391	2694.66
484.762	2766.75
485.133	2786.18
485.503	2849.68
485.874	2887.88
486.244	2943.47
486.615	3040.87
486.985	3063.92
487.356	3148.43
487.726	3198.83
488.097	3231.82
488.467	3264.59
488.837	3366.73
489.207	3393.4
489.578	3447.86
489.948	3488.09
490.318	3562.89
490.688	3585.48
491.058	3659.83
491.428	3688.98
491.798	3761.07
492.168	3840.17
492.538	3861.41
492.908	3914.29
493.278	3979.15
493.648	4049.2
494.017	4050.56
494.387	4094.85
494.757	4130.56
495.126	4246.48
495.496	4259.14
495.866	4323.32
496.235	4408.29
496.605	4413.49
496.974	4472.47
497.344	4506.36
497.713	4524.44
498.082	4570.09
498.452	4617.77
498.821	4654.16
499.19	4676.53
499.559	4701.39
499.928	4735.06
500.298	4800.82
500.667	4845.79
501.036	4800.82
501.405	4933.92
501.774	4892.34
502.143	4932.57
502.512	4992.45
502.88	5053.47
503.249	5076.29
503.618	5086.24
503.987	5152.68
504.356	5180.92
504.724	5229.06
505.093	5189.51
505.462	5229.74
505.83	5271.54
506.199	5375.27
506.567	5411.65
506.936	5407.36
507.304	5489.84
507.672	5453.01
508.041	5501.37
508.409	5533.91
508.777	5543.63
509.145	5647.13
509.514	5623.17
509.882	5647.35
510.25	5676.96
510.618	5704.98
510.986	5709.5
511.354	5740.46
511.722	5837.85
512.09	5828.36
512.458	5859.1
512.826	5947.46
513.193	5924.18
513.561	5865.2
513.929	6013.44
514.297	6033.78
514.664	6089.6
515.032	6091.86
515.4	6091.41
515.767	6133.89
516.135	6176.6
516.502	6178.19
516.869	6256.83
517.237	6257.73
517.604	6208.47
517.972	6259.09
518.339	6351.06
518.706	6298.18
519.073	6362.59
519.44	6378.41
519.808	6453.21
520.175	6431.06
520.542	6487.78
520.909	6533.43
521.276	6532.3
521.643	6593.99
522.009	6635.35
522.376	6684.39
522.743	6681.67
523.11	6750.83
523.477	6831.28
523.843	6826.53
524.21	6899.97
524.577	6945.85
524.943	6967.09
525.31	7010.25
525.676	7073.3
526.043	7074.21
526.409	7097.93
526.776	7175.67
527.142	7186.75
527.508	7201.89
527.874	7281.21
528.241	7329.34
528.607	7308.78
528.973	7367.76
529.339	7338.61
529.705	7437.59
530.071	7457.25
530.437	7522.33
530.803	7587.64
531.169	7591.03
531.535	7618.83
531.901	7629.45
532.267	7665.83
532.632	7775.88
532.998	7772.49
533.364	7810.46
533.73	7840.29
534.095	7885.94
534.461	7897.69
534.826	7949.89
535.192	7916.22
535.557	8063.11
535.923	8024.46
536.288	8088.64
536.653	8061.53
537.019	8096.33
537.384	8188.98
537.749	8230.33
538.114	8225.36
538.479	8189.43
538.845	8302.65
539.21	8298.58
539.575	8378.81
539.94	8374.29
540.305	8471.01
540.67	8457
541.034	8450.67
541.399	8527.28
541.764	8517.56
542.129	8562.08
542.494	8592.81
542.858	8629.19
543.223	8612.7
543.587	8775.4
543.952	8721.62
544.316	8763.88
544.681	8726.82
545.045	8886.59
545.41	8876.19
545.774	8941.05
546.138	8951.9
546.503	8964.78
546.867	8920.49
547.231	9053.36
547.595	9071.89
547.959	9075.28
548.324	9075.74
548.688	9214.72
549.052	9177.2
549.416	9267.37
549.779	9233.7
550.143	9257.43
550.507	9310.98
550.871	9341.27
551.235	9304.66
551.599	9462.39
551.962	9395.28
552.326	9435.5
552.689	9554.37
553.053	9469.62
553.417	9550.3
553.78	9686.57
554.143	9679.56
554.507	9659.45
554.87	9688.6
555.234	9764.98
555.597	9764.76
555.96	9736.06
556.323	9756.85
556.686	9873.23
557.05	9825.09
557.413	9903.51
557.776	9956.84
558.139	10021.7
558.502	10014.02
558.865	10035.48
559.228	10118.42
559.59	10099.66
559.953	10120.68
560.316	10237.74
560.679	10224.18
561.041	10314.12
561.404	10384.4
561.767	10395.02
562.129	10348.92
562.492	10489.94
562.854	10451.52
563.217	10403.84
563.579	10546.21
563.941	10606.32
564.304	10616.71
564.666	10664.62
565.028	10675.92
565.39	10771.06
565.753	10753.66
566.115	10758.18
566.477	10829.36
566.839	10846.76
567.201	10968.79
567.563	10951.84
567.925	11037.72
568.287	11039.75
568.648	11100.99
569.01	11123.37
569.372	11246.07
569.734	11146.42
570.095	11206.53
570.457	11260.54
570.819	11332.63
571.18	11384.83
571.542	11515.9
571.903	11467.99
572.265	11432.51
572.626	11620.53
572.987	11639.96
573.349	11684.48
573.71	11806.29
574.071	11802.22
574.432	11968.54
574.794	12034.08
575.155	12100.52
575.516	12042.66
575.877	12164.92
576.238	12187.74
576.599	12320.62
576.96	12387.29
577.32	12409.89
577.681	12545.48
578.042	12726.04
578.403	12733.72
578.763	12859.37
579.124	12981.62
579.485	13003.09
579.845	13191.79
580.206	13243.31
580.566	13384.78
580.927	13464.77
581.287	13662.73
581.648	13818.89
582.008	13997.41
582.368	14107.47
582.728	14211.19
583.089	14440.34
583.449	14558.76
583.809	14722.14
584.169	14838.97
584.529	15040.1
584.889	15403.03
585.249	15415.46
585.609	15597.6
585.969	15933.41
586.329	16056.34
586.688	16306.73
587.048	16457.69
587.408	16667.17
587.768	16942.65
588.127	17154.39
588.487	17343.54
588.846	17729.75
589.206	17867.14
589.565	18107.36
589.925	18435.04
590.284	18706.9
590.643	18923.39
591.003	19227.11
591.362	19566.76
591.721	19784.61
592.08	20038.84
592.44	20359.28
592.799	20787.52
593.158	20985.03
593.517	21139.15
593.876	21445.13
594.235	21734.16
594.593	22122.85
594.952	22458.21
595.311	22630.63
595.67	22933.68
596.029	23421.57
596.387	23650.27
596.746	24007.32
597.104	24185.17
597.463	24493.41
597.822	24872.38
598.18	25081.42
598.538	25374.06
598.897	25624.45
599.255	25874.39
599.613	26565.45
599.972	26613.58
600.33	26970.41
600.688	27065.09
601.046	27622.59
601.404	27803.83
601.762	28005.18
602.12	28470.93
602.478	28747.08
602.836	28948.66
603.194	29201.76
603.552	29497.57
603.91	29597.68
604.268	30026.37
604.625	30098.46
604.983	30455.96
605.341	30596.07
605.698	31042.39
606.056	31405.32
606.413	31550.17
606.771	31892.09
607.128	32237.61
607.485	32280.78
607.843	32302.24
608.2	32804.6
608.557	33193.97
608.914	33266.29
609.272	33626.28
609.629	33832.37
609.986	34079.6
610.343	34099.94
610.7	34464.9
611.057	34630.54
611.414	34638
611.771	34925.23
612.127	35251.77
612.484	35426.23
612.841	35697.63
613.198	35665.32
613.554	35946.89
613.911	36364.06
614.267	36385.98
614.624	36468.24
614.98	36714.78
615.337	37073.19
615.693	37249.01
616.05	37350.7
616.406	37670.24
616.762	37549.79
617.118	37884.24
617.475	37803.57
617.831	38020.96
618.187	38371.01
618.543	38438.13
618.899	38703.21
619.255	38772.13
619.611	38806.48
619.967	38995.4
620.323	39145.68
620.678	39159.24
621.034	39065.68
621.39	39316.97
621.746	39187.49
622.101	39720.35
622.457	39685.1
622.812	39717.87
623.168	39902.95
623.523	40000.57
623.879	40135.48
624.234	39941.59
624.589	40167.35
624.945	40338.19
625.3	40363.73
625.655	40467.9
626.01	40577.51
626.365	40575.25
626.72	40678.52
627.075	40682.59
627.43	40860.44
627.785	40796.94
628.14	40885.97
628.495	40999.42
628.85	40947.44
629.205	40938.17
629.559	41260.65
629.914	41066.76
630.269	41203.7
630.623	41089.81
630.978	40914.22
631.332	41389.69
631.687	41393.3
632.041	41316.24
632.396	41378.84
632.75	41218.17
633.104	41382.46
633.459	41218.85
633.813	41209.13
634.167	41367.99
634.521	41264.49
634.875	41262.46
635.229	41250.94
635.583	41190.37
635.937	41224.72
636.291	41289.13
636.645	41423.59
636.999	41299.52
637.352	41404.6
637.706	41130.71
638.06	41455
638.413	41225.63
638.767	41307.2
639.121	41384.94
639.474	41128.68
639.828	41236.7
640.181	41240.99
640.534	41407.54
640.888	41231.73
641.241	41057.49
641.594	41153.76
641.947	41232.86
642.301	41183.59
642.654	41177.72
643.007	41313.31
643.36	41186.3
643.713	41172.97
644.066	41337.03
644.419	41071.5
644.771	40771.63
645.124	40416.38
645.477	40344.74
645.83	40159.44
646.182	40028.37
646.535	39883.06
646.888	40041.93
647.24	39817.07
647.593	40060.01
647.945	39978.43
648.298	39945.66
648.65	39728.72
649.002	39578.66
649.355	39968.03
649.707	39722.61
650.059	40140.91
650.411	40636.26
650.763	40616.83
651.115	40959.42
651.467	40806.43
651.819	40682.59
652.171	40661.57
652.523	40612.31
652.875	40571.18
653.227	40378.19
653.578	40769.37
653.93	40519.88
654.282	40382.94
654.633	40429.71
654.985	40507.23
655.337	40553.78
655.688	40560.11
656.039	40511.75
656.391	40273.33
656.742	40373.9
657.094	40488.24
657.445	40578.64
657.796	40551.74
658.147	40363.95
658.498	40411.86
658.849	40461.35
659.2	40432.2
659.551	40385.2
659.902	40444.63
660.253	40376.16
660.604	40421.8
660.955	40265.65
661.306	40472.88
661.656	40375.25
662.007	40459.77
662.358	40348.59
662.708	40316.72
663.059	40323.5
663.409	40197.18
663.76	40386.33
664.11	40477.85
664.461	40319.43
664.811	40380.9
665.161	40242.83
665.511	40287.57
665.862	40464.97
666.212	40438.75
666.562	40423.84
666.912	40317.17
667.262	40281.47
667.612	40330.73
667.962	40357.4
668.312	40262.49
668.662	40375.03
669.011	40366.89
669.361	40224.52
669.711	40170.06
670.06	40215.03
670.41	40006.9
670.76	40107.24
671.109	40301.81
671.459	40108.82
671.808	39951.31
672.157	40182.71
672.507	39900.46
672.856	39918.09
673.205	39906.11
673.554	39922.16
673.904	39819.33
674.253	40107.24
674.602	39896.39
674.951	39445.33
675.3	39206.24
675.649	39800.58
675.998	39787.92
676.346	39677.19
676.695	39971.42
677.044	39726.91
677.393	39721.26
677.741	39895.94
678.09	39819.33
678.438	39627.02
678.787	39718.32
679.135	39674.25
679.484	39459.8
679.832	39669.73
680.181	39307.94
680.529	39462.73
680.877	39430.42
681.225	39443.98
681.573	39518.33
681.922	39296.18
682.27	39313.36
682.618	39225
682.966	39050.54
683.314	39199.46
683.661	39073.37
684.009	38899.36
684.357	38909.75
684.705	38800.38
685.053	38918.12
685.4	38902.07
685.748	38742.75
686.095	38675.86
686.443	38545.02
686.79	38468.64
687.138	38441.07
687.485	38552.93
687.832	38563.77
688.18	38380.73
688.527	38169.66
688.874	38207.4
689.221	37976.9
689.568	38164.91
689.915	37902.32
690.262	37778.94
690.609	37857.8
690.956	37627.53
691.303	37641.31
691.65	37496.68
691.997	37551.15
692.344	37426.85
692.69	37229.12
693.037	37256.46
693.383	36911.39
693.73	37127.65
694.077	36801.33
694.423	36942.12
694.769	36886.53
695.116	36547.1
695.462	36661.9
695.808	36603.15
696.155	36704.16
696.501	36374.45
696.847	36284.51
697.193	36081.58
697.539	36349.37
697.885	36020.34
698.231	35889.04
698.577	35860.34
698.923	35777.86
699.269	35700.35
699.614	35342.39
699.96	35481.82
700.306	35364.99
700.651	35303.07
700.997	35087.71
701.342	35027.6
701.688	35173.35
702.033	35023.75
702.379	34894.27
702.724	34867.6
703.069	34911.67
703.415	34616.99
703.76	34681.84
704.105	34684.78
704.45	34484.11
704.795	34240.72
705.14	34157.56
705.485	34151.69
705.83	34064.23
706.175	34090.9
706.52	34037.79
706.865	33735.43
707.209	33737.01
707.554	33749.21
707.899	33691.81
708.243	33540.86
708.588	33472.16
708.932	33406.4
709.277	33304.93
709.621	33133.86
709.966	33048.66
710.31	33105.39
710.654	32785.62
710.998	32962.57
711.342	32866.07
711.687	32800.54
712.031	32728.67
712.375	32503.59
712.719	32713.08
713.063	32648
713.407	32701.33
713.75	32496.14
714.094	32425.86
714.438	32362.81
714.782	32321
715.125	32222.25
715.469	32225.86
715.812	32101.8
716.156	31850.5
716.499	31949.71
716.843	31934.57
717.186	31846.66
717.53	31854.35
717.873	31946.1
718.216	31940.67
718.559	31642.83
718.902	31352.21
719.246	31531.42
719.589	31429.95
719.932	31371.42
720.275	31369.39
720.617	31342.27
720.96	31181.82
721.303	31166.68
721.646	31169.62
721.989	30908.16
722.331	31167.36
722.674	30918.33
723.016	30985.44
723.359	31036.97
723.701	31015.95
724.044	30865.67
724.386	30763.08
724.729	30786.35
725.071	30723.3
725.413	30782.74
725.755	30629.29
726.097	30420.49
726.439	30469.75
726.782	30341.62
727.124	30510.88
727.465	30281.05
727.807	30385.46
728.149	30266.37
728.491	30203.32
728.833	30240.83
729.175	30131.23
729.516	30099.36
729.858	29936.2
730.199	30059.82
730.541	29948.63
730.882	30019.37
731.224	29866.38
731.565	29821.18
731.906	29723.55
732.248	29888.97
732.589	29732.59
732.93	29579.6
733.271	29732.37
733.612	29618.25
733.953	29525.82
734.294	29489.66
734.635	29447.86
734.976	29534.86
735.317	29361.98
735.658	29306.84
735.999	29203.79
736.339	29145.94
736.68	29255.32
737.021	29165.38
737.361	29009
737.702	29125.15
738.042	29077.92
738.383	28979.62
738.723	29009
739.063	28924.93
739.404	28988.88
739.744	28987.75
740.084	28811.04
740.424	28879.96
740.764	28740.76
741.104	28834.09
741.444	28651.04
741.784	28622.57
742.124	28544.83
742.464	28603.13
742.804	28520.65
743.143	28382.12
743.483	28483.14
743.823	28362.69
744.162	28278.17
744.502	28338.73
744.841	28181
745.181	28369.47
745.52	28188
745.86	28242.46
746.199	28146.19
746.538	28163.14
746.877	28155.01
747.216	28062.13
747.556	28043.15
747.895	27970.38
748.234	28004.05
748.573	27874.56
748.911	27778.07
749.25	27686.32
749.589	27709.6
749.928	27733.55
750.267	27751.86
750.605	27641.8
750.944	27623.95
751.283	27510.96
751.621	27633.21
751.96	27371.3
752.298	27379.66
752.636	27463.28
752.975	27231.64
753.313	27223.73
753.651	27375.59
753.989	27149.61
754.327	27086.56
754.666	26972.89
755.004	26957.3
755.342	27073.45
755.679	27025.09
756.017	26887.02
756.355	26918.43
756.693	26716.63
757.031	26733.35
757.368	26624.2
757.706	26508.72
758.044	26551.21
758.381	26525.22
758.719	26381.72
759.056	26470.76
759.394	26416.52
759.731	26064.22
760.068	26073.93
760.405	26080.71
760.743	26078.9
761.08	26030.09
761.417	25689.08
761.754	25735.18
762.091	25741.29
762.428	25687.28
762.765	25525.25
763.102	25581.97
763.438	25503.33
763.775	25303.33
764.112	25407.51
764.449	25377
764.785	25255.88
765.122	25084.58
765.458	25026.73
765.795	24997.8
766.131	24946.28
766.467	24810.69
766.804	24783.35
767.14	24599.85
767.476	24529.57
767.812	24566.18
768.148	24532.5
768.485	24332.51
768.821	24221.1
769.157	24243.25
769.492	24028.34
769.828	24045.96
770.164	23855.91
770.5	23755.12
770.836	23810.04
771.171	23736.82
771.507	23645.52
771.842	23474
772.178	23419.99
772.513	23453.66
772.849	23257.74
773.184	23233.33
773.519	23309.26
773.855	23208.47
774.19	22928.03
774.525	22904.07
774.86	22818.88
775.195	22925.32
775.53	22738.43
775.865	22606.45
776.2	22467.47
776.535	22326.69
776.87	22386.35
777.205	22302.96
777.539	22094.83
777.874	22227.48
778.209	22050.54
778.543	22017.77
778.878	21838.34
779.212	21921.5
779.547	21587.27
779.881	21744.78
780.215	21527.84
780.55	21683.09
780.884	21484.9
781.218	21451.68
781.552	21427.95
781.886	21278.8
782.22	21111.8
782.554	21187.28
782.888	20848.53
783.222	20812.6
783.556	20815.31
783.889	20743
784.223	20619.61
784.557	20542.33
784.89	20646.73
785.224	20424.14
785.557	20333.29
785.891	20287.64
786.224	20237.7
786.558	20241.54
786.891	20023.7
787.224	20032.51
787.557	19798.84
787.891	19901.89
788.224	19824.15
788.557	19784.61
788.89	19662.12
789.223	19608.57
789.556	19474.33
789.888	19358.86
790.221	19413.77
790.554	19275.02
790.887	19292.19
791.219	19221.01
791.552	19243.83
791.884	19074.8
792.217	19074.34
792.549	18951.63
792.882	18724.75
793.214	18790.28
793.546	18760.45
793.879	18622.38
794.211	18576.73
794.543	18597.07
794.875	18624.86
795.207	18586.9
795.539	18370.18
795.871	18487.47
796.203	18209.51
796.535	18167.7
796.867	18230.3
797.198	17990.08
797.53	18053.35
797.862	17967.03
798.193	17958.67
798.525	17828.95
798.856	18023.52
799.188	17655.17
799.519	17626.92
799.85	17559.58
800.182	17599.81
800.513	17685.23
800.844	17446.36
801.175	17477.32
801.506	17417.66
801.837	17332.24
802.168	17359.36
802.499	17245.92
802.83	17063.1
803.161	17179.7
803.491	17035.98
803.822	17025.58
804.153	17039.59
804.483	16842.31
804.814	16759.83
805.145	16759.6
805.475	16749.21
805.805	16668.76
806.136	16628.76
806.466	16636.67
806.796	16592.6
807.126	16391.25
807.457	16339.27
807.787	16323.23
808.117	16276.45
808.447	16263.57
808.777	16340.4
809.107	16167.07
809.436	16193.97
809.766	16115.78
810.096	16050.92
810.426	16073.97
810.755	16041.43
811.085	15966.63
811.414	15932.73
811.744	15857.93
812.073	15875.78
812.403	15764.37
812.732	15768.22
813.061	15736.35
813.39	15564.6
813.719	15582.01
814.049	15722.34
814.378	15594.89
814.707	15483.93
815.036	15501.1
815.365	15370.49
815.693	15318.74
816.022	15322.13
816.351	15222.69
816.68	15235.8
817.008	15265.18
817.337	15034.22
817.665	15102.7
817.994	15061.12
818.322	15029.93
818.651	14929.59
818.979	14923.94
819.307	14985.86
819.636	14905.19
819.964	14823.83
820.292	14865.41
820.62	14860.22
820.948	14820.44
821.276	14881.91
821.604	14812.31
821.932	14917.16
822.259	14773.21
822.587	14803.95
822.915	14706.32
823.243	14796.49
823.57	14834.91
823.898	14747.9
824.225	14726.43
824.553	14648.7
824.88	14778.64
825.207	14765.08
825.535	14714.46
825.862	14774.34
826.189	14698.64
826.516	14748.81
826.843	14754
827.17	14733.44
827.497	14838.75
827.824	14706.32
828.151	14808.01
828.478	14737.06
828.805	14809.6
829.131	14636.49
829.458	14670.62
829.785	14599.21
830.111	14626.78
830.438	14793.1
830.764	14596.95
831.09	14743.16
831.417	14650.96
831.743	14674.46
832.069	14645.98
832.395	14652.09
832.722	14658.41
833.048	14556.27
833.374	14613.44
833.7	14516.72
834.026	14544.74
834.351	14594.01
834.677	14485.09
835.003	14508.36
835.329	14567.79
835.654	14419.55
835.98	14433.34
836.306	14408.93
836.631	14410.51
836.956	14468.59
837.282	14433.79
837.607	14379.78
837.932	14289.38
838.258	14288.71
838.583	14333.9
838.908	14228.59
839.233	14132.1
839.558	14163.51
839.883	14143.63
840.208	14073.12
840.533	14035.15
840.858	14151.31
841.182	14121.48
841.507	14063.85
841.832	13933.24
842.156	13884.2
842.481	13939.56
842.805	13950.41
843.13	13909.28
843.454	13872.9
843.778	13781.37
844.103	13788.61
844.427	13723.98
844.751	13741.6
845.075	13745.44
845.399	13641.27
845.723	13547.48
846.047	13683.98
846.371	13446.24
846.695	13491.21
847.019	13418.45
847.343	13320.14
847.666	13272.01
847.99	13178
848.313	13234.95
848.637	13160.6
848.96	13165.57
849.284	13058.68
849.607	12942.07
849.931	12943.88
850.254	12875.41
850.577	12825.24
850.9	12682.65
851.223	12641.07
851.546	12615.98
851.869	12566.94
852.192	12594.74
852.515	12406.04
852.838	12405.82
853.161	12447.17
853.483	12370.56
853.806	12344.35
854.129	12336.67
854.451	12246.5
854.774	12169.67
855.096	12181.87
855.419	12096.22
855.741	12106.62
856.063	12092.15
856.385	12007.41
856.708	12014.42
857.03	11929.9
857.352	11922.21
857.674	11851.26
857.996	11917.02
858.318	11735.1
858.64	11792.73
858.961	11701.88
859.283	11752.28
859.605	11640.19
859.926	11636.12
860.248	11608.1
860.57	11510.02
860.891	11588.44
861.212	11428.67
861.534	11512.73
861.855	11391.61
862.176	11446.3
862.498	11443.13
862.819	11457.59
863.14	11421.89
863.461	11340.08
863.782	11296.02
864.103	11316.35
864.424	11307.99
864.745	11302.8
865.065	11194.55
865.386	11133.76
865.707	11105.51
866.027	11239.07
866.348	11218.28
866.668	11154.78
866.989	11053.99
867.309	11036.59
867.63	11138.73
867.95	11099.19
868.27	11010.37
868.59	10993.2
868.91	10976.25
869.23	10997.72
869.55	10921.34
869.87	10976.48
870.19	10969.7
870.51	10987.32
870.83	10989.81
871.15	10893.09
871.469	10788.46
871.789	10878.4
872.109	10854.22
872.428	10733.55
872.748	10818.97
873.067	10739.87
873.386	10831.4
873.706	10744.17
874.025	10669.37
874.344	10668.69
874.663	10645.41
874.982	10670.95
875.301	10625.3
875.62	10567
875.939	10623.04
876.258	10594.11
876.577	10576.04
876.896	10549.6
877.214	10467.11
877.533	10506.88
877.852	10464.63
878.17	10491.29
878.489	10467.56
878.807	10475.93
879.125	10436.38
879.444	10457.85
879.762	10410.84
880.08	10326.1
880.398	10358.41
880.716	10364.74
881.034	10250.62
881.352	10322.48
881.67	10251.75
881.988	10253.56
882.306	10215.82
882.624	10187.57
882.941	10215.37
883.259	10100.12
883.577	10048.14
883.894	10066.44
884.212	10078.42
884.529	10110.06
884.846	10037.74
885.164	9967.01
885.481	9981.7
885.798	10026.45
886.115	9943.06
886.432	9974.24
886.75	9905.32
887.067	9901.7
887.383	9809.05
887.7	9917.07
888.017	9827.58
888.334	9875.26
888.651	9777.41
888.967	9731.54
889.284	9707.81
889.6	9700.58
889.917	9656.51
890.233	9621.48
890.55	9583.75
890.866	9626.23
891.182	9569.51
891.498	9521.6
891.815	9540.36
892.131	9463.07
892.447	9426.69
892.763	9366.12
893.079	9315.96
893.395	9370.87
893.71	9347.14
894.026	9318.44
894.342	9247.03
894.657	9243.64
894.973	9213.36
895.289	9120.03
895.604	9140.59
895.92	9135.4
896.235	9081.61
896.55	9088.62
896.865	9025.79
897.181	8997.32
897.496	9063.53
897.811	8914.16
898.126	8915.51
898.441	8838.91
898.756	8846.82
899.071	8766.14
899.386	8768.17
899.7	8784.22
900.015	8709.64
900.33	8654.96
900.644	8683.2
900.959	8649.53
901.273	8583.77
901.588	8568.4
901.902	8534.73
902.216	8520.95
902.531	8489.31
902.845	8424.45
903.159	8390.78
903.473	8423.32
903.787	8344.46
904.101	8337.22
904.415	8258.58
904.729	8300.84
905.042	8173.84
905.356	8149.43
905.67	8199.15
905.984	8157.34
906.297	8124.8
906.611	8046.16
906.924	8055.42
907.237	8104.01
907.551	8008.19
907.864	7883.22
908.177	7916.44
908.491	7942.43
908.804	7890
909.117	7836.67
909.43	7779.72
909.743	7732.72
910.056	7738.6
910.368	7741.76
910.681	7704.25
910.994	7677.81
911.307	7603.68
911.619	7564.36
911.932	7535.44
912.244	7548.54
912.557	7485.95
912.869	7495.66
913.181	7431.49
913.494	7401.66
913.806	7422.45
914.118	7363.92
914.43	7321.88
914.742	7303.81
915.054	7286.18
915.366	7256.57
915.678	7208.44
915.99	7144.04
916.302	7128.44
916.613	7044.38
916.925	7094.09
917.236	7062
917.548	7027.65
917.859	6993.98
918.171	6983.59
918.482	6945.17
918.794	6919.63
919.105	6855.46
919.416	6867.43
919.727	6805.74
920.038	6747.89
920.349	6708.34
920.66	6717.61
920.971	6749.02
921.282	6649.13
921.593	6611.17
921.903	6619.98
922.214	6540.66
922.525	6544.5
922.835	6536.59
923.146	6504.5
923.456	6430.61
923.767	6462.47
924.077	6382.25
924.387	6423.83
924.697	6345.41
925.008	6361.68
925.318	6317.84
925.628	6223.38
925.938	6222.48
926.248	6233.55
926.558	6223.61
926.867	6135.02
927.177	6184.29
927.487	6151.75
927.796	6094.12
928.106	6040.11
928.416	6073.33
928.725	5944.52
929.034	5988.59
929.344	6005.99
929.653	5946.33
929.962	5941.58
930.271	5842.6
930.581	5896.84
930.89	5848.25
931.199	5813.67
931.508	5806.9
931.817	5817.06
932.125	5763.73
932.434	5726.9
932.743	5706.11
933.051	5674.24
933.36	5649.84
933.669	5601.48
933.977	5561.03
934.286	5563.74
934.594	5595.15
934.902	5523.06
935.21	5492.55
935.519	5460.69
935.827	5502.72
936.135	5354.93
936.443	5400.13
936.751	5356.29
937.059	5384.53
937.367	5342.5
937.674	5315.38
937.982	5314.25
938.29	5274.48
938.597	5288.94
938.905	5267.02
939.213	5205.78
939.52	5148.61
939.827	5219.34
940.135	5132.79
940.442	5112
940.749	5110.19
941.056	5050.53
941.363	5028.16
941.67	5021.38
941.977	4989.97
942.284	4937.09
942.591	4912
942.898	4893.25
943.205	4921.49
943.511	4906.13
943.818	4845.34
944.125	4789.29
944.431	4862.97
944.738	4838.11
945.044	4803.76
945.35	4750.43
945.657	4749.52
945.963	4774.61
946.269	4710.2
946.575	4714.27
946.881	4684.89
947.187	4639.47
947.493	4593.59
947.799	4619.13
948.105	4574.16
948.41	4603.54
948.716	4607.38
949.022	4530.32
949.327	4565.8
949.633	4459.59
949.938	4442.64
950.244	4463.65
950.549	4428.4
950.854	4406.03
951.16	4434.95
951.465	4412.13
951.77	4369.64
952.075	4371.9
952.38	4332.58
952.685	4361.28
952.99	4266.14
953.294	4307.73
953.599	4220.72
953.904	4215.3
954.209	4132.36
954.513	4204.9
954.818	4173.27
955.122	4188.86
955.426	4148.18
955.731	4116.09
956.035	4091.46
956.339	4059.14
956.643	4068.18
956.948	4027.96
957.252	4026.15
957.556	3986.38
957.86	4009.65
958.163	4019.82
958.467	3989.32
958.771	3943.67
959.075	3946.61
959.378	3877.68
959.682	3886.49
959.985	3885.14
960.289	3847.62
960.592	3815.31
960.896	3833.61
961.199	3773.5
961.502	3790.23
961.805	3769.89
962.108	3784.12
962.411	3781.41
962.714	3710.91
963.017	3731.92
963.32	3722.88
963.623	3680.62
963.926	3672.26
964.228	3654.18
964.531	3662.54
964.833	3644.24
965.136	3625.48
965.438	3573.73
965.741	3542.1
966.043	3523.57
966.345	3561.3
966.648	3527.18
966.95	3515.2
967.252	3486.28
967.554	3519.5
967.856	3463.45
968.158	3445.15
968.46	3432.27
968.761	3428.43
969.063	3424.81
969.365	3383.68
969.666	3377.81
969.968	3361.54
970.269	3349.56
970.571	3338.26
970.872	3325.15
971.174	3296.68
971.475	3298.49
971.776	3259.84
972.077	3246.74
972.378	3249.67
972.679	3257.58
972.98	3268.88
973.281	3198.6
973.582	3230.92
973.883	3171.48
974.183	3159.73
974.484	3165.83
974.785	3137.14
975.085	3125.84
975.386	3133.29
975.686	3053.52
975.986	3079.51
976.287	3067.08
976.587	3067.98
976.887	3068.21
977.187	3010.36
977.487	3036.57
977.787	2977.59
978.087	2995.22
978.387	2969.23
978.687	2945.73
978.987	2965.39
979.286	2935.11
979.586	2933.3
979.885	2951.38
980.185	2945.5
980.484	2877.03
980.784	2849.68
981.083	2813.98
981.382	2791.83
981.682	2847.88
981.981	2816.24
982.28	2786.86
982.579	2798.84
982.878	2779.4
983.177	2752.51
983.475	2790.03
983.774	2738.28
984.073	2755
984.372	2705.73
984.67	2732.4
984.969	2717.26
985.267	2711.61
985.566	2645.85
985.864	2693.08
986.162	2678.62
986.461	2639.52
986.759	2626.87
987.057	2559.75
987.355	2611.05
987.653	2568.11
987.951	2565.62
988.249	2564.04
988.547	2560.88
988.844	2555.46
989.142	2536.25
989.44	2511.39
989.737	2495.34
990.035	2480.66
990.332	2509.81
990.63	2477.94
990.927	2466.19
991.224	2406.76
991.521	2438.17
991.819	2457.83
992.116	2414.22
992.413	2427.78
992.71	2396.36
993.006	2380.54
993.303	2355.01
993.6	2357.49
993.897	2358.85
994.193	2326.31
994.49	2333.54
994.787	2292.86
995.083	2319.98
995.379	2328.79
995.676	2306.2
995.972	2303.94
996.268	2276.14
996.565	2227.33
996.861	2243.37
997.157	2217.16
997.453	2218.29
997.749	2226.88
998.044	2193.88
998.34	2207.67
998.636	2172.87
998.932	2170.38
999.227	2124.73
999.523	2147.1
999.818	2122.47
1000.114	2138.29
1000.409	2122.92
1000.704	2115.02
1001	2107.56
1001.295	2079.99
1001.59	2096.26
1001.885	2045.86
1002.18	2065.75
1002.475	2058.52
1002.77	2027.33
1003.065	2015.58
1003.359	2029.82
1003.654	2010.61
1003.949	1999.54
1004.243	1997.05
1004.538	1930.61
1004.832	1948.24
1005.127	1948.24
1005.421	1960.22
1005.715	1917.51
1006.009	1915.02
1006.304	1907.79
1006.598	1891.07
1006.892	1867.79
1007.186	1845.64
1007.48	1849.49
1007.773	1837.28
1008.067	1830.28
1008.361	1794.57
1008.655	1818.98
1008.948	1783.27
1009.242	1798.41
1009.535	1788.47
1009.829	1789.15
1010.122	1759.09
1010.415	1735.36
1010.708	1767.91
1011.001	1740.11
1011.295	1725.42
1011.588	1702.14
1011.881	1712.77
1012.173	1680.45
1012.466	1701.92
1012.759	1687.68
1013.052	1672.54
1013.344	1652.65
1013.637	1653.11
1013.93	1648.81
1014.222	1581.7
1014.514	1620.79
1014.807	1596.61
1015.099	1606.55
1015.391	1572.88
1015.683	1595.71
1015.976	1589.83
1016.268	1557.06
1016.56	1564.3
1016.851	1535.6
1017.143	1520.91
1017.435	1526.33
1017.727	1520.91
1018.018	1513.9
1018.31	1481.36
1018.602	1499.89
1018.893	1462.38
1019.185	1487.69
1019.476	1489.95
1019.767	1471.19
1020.058	1442.49
1020.35	1425.77
1020.641	1425.54
1020.932	1396.39
1021.223	1418.54
1021.514	1388.03
1021.804	1412.89
1022.095	1368.14
1022.386	1362.27
1022.677	1368.14
1022.967	1366.56
1023.258	1346
1023.548	1315.71
1023.839	1327.47
1024.129	1315.04
1024.419	1313.68
1024.709	1281.59
1025	1293.34
1025.29	1267.81
1025.58	1277.3
1025.87	1262.38
1026.16	1267.58
1026.449	1275.49
1026.739	1268.71
1027.029	1252.89
1027.319	1228.48
1027.608	1233
1027.898	1183.74
1028.187	1197.07
1028.477	1183.06
1028.766	1199.11
1029.055	1178.77
1029.344	1178.09
1029.634	1187.81
1029.923	1159.79
1030.212	1164.08
1030.501	1121.59
1030.79	1130.63
1031.078	1151.42
1031.367	1104.19
1031.656	1089.05
1031.945	1108.49
1032.233	1103.97
1032.522	1084.99
1032.81	1087.47
1033.099	1070.75
1033.387	1071.43
1033.675	1073.46
1033.963	1051.77
1034.251	1048.6
1034.54	1066.46
1034.828	1039.34
1035.116	1049.05
1035.403	1027.13
1035.691	1032.78
1035.979	1024.65
1036.267	1012.9
1036.554	1004.76
1036.842	991.43
1037.129	997.3
1037.417	977.19
1037.704	966.12
1037.992	962.73
1038.279	963.63
1038.566	967.02
1038.853	967.02
1039.14	967.02
