Data from hue_70_FLMS001491_32.txt Node
Date: Mon Feb 06 15:20:45 GMT 2017
User: dcchb
Spectrometer: FLMS00149
Trigger mode: 0
Integration Time (sec): 2.000000E-2
Scans to average: 10
Electric dark correction enabled: true
Nonlinearity correction enabled: false
Boxcar width: 0
XAxis mode: Wavelengths
Number of Pixels in Spectrum: 2048
>>>>>Begin Spectral Data<<<<<
341.393	5.56
341.776	5.56
342.16	5.56
342.543	-37.15
342.927	-65.39
343.31	-72.17
343.693	-64.04
344.077	-72.63
344.46	-57.26
344.843	-70.59
345.226	-49.57
345.61	-40.54
345.993	-18.84
346.376	-10.25
346.759	26.13
347.142	30.87
347.525	46.24
347.908	56.64
348.291	79.46
348.674	92.79
349.057	123.75
349.44	119.91
349.823	125.34
350.206	189.51
350.588	205.33
350.971	202.17
351.354	241.26
351.737	246.69
352.119	250.08
352.502	258.44
352.884	284.2
353.267	292.56
353.65	293.69
354.032	303.64
354.414	322.39
354.797	303.64
355.179	304.31
355.562	319.91
355.944	333.47
356.326	330.53
356.709	347.7
357.091	337.08
357.473	344.54
357.855	331.88
358.238	349.28
358.62	339.12
359.002	348.38
359.384	333.01
359.766	340.47
360.148	363.52
360.53	340.25
360.912	330.3
361.294	324.43
361.676	330.3
362.057	351.54
362.439	331.21
362.821	339.79
363.203	334.82
363.584	324.2
363.966	313.35
364.348	319.45
364.729	317.65
365.111	309.74
365.493	328.49
365.874	317.2
366.256	319
366.637	337.99
367.019	331.21
367.4	336.86
367.781	323.52
368.163	333.01
368.544	318.32
368.925	318.55
369.306	320.58
369.688	314.71
370.069	300.47
370.45	309.96
370.831	315.39
371.212	314.94
371.593	317.65
371.974	319.23
372.355	296.18
372.736	322.62
373.117	306.12
373.498	312.68
373.879	309.96
374.26	310.87
374.641	308.38
375.021	286.46
375.402	323.97
375.783	322.39
376.163	329.85
376.544	315.39
376.925	337.08
377.305	318.1
377.686	312.45
378.066	331.66
378.447	314.03
378.827	323.3
379.208	326.46
379.588	330.75
379.968	333.47
380.349	340.47
380.729	327.82
381.109	326.23
381.489	353.8
381.87	343.18
382.25	345.22
382.63	332.79
383.01	343.18
383.39	361.94
383.77	346.12
384.15	351.54
384.53	355.16
384.91	340.7
385.29	362.17
385.67	342.51
386.049	320.13
386.429	359.23
386.809	340.25
387.189	354.26
387.568	363.97
387.948	352.45
388.328	359.45
388.707	360.58
389.087	353.58
389.466	363.3
389.846	352.22
390.225	390.41
390.605	348.83
390.984	362.17
391.363	359.23
391.743	359.23
392.122	346.35
392.501	362.17
392.881	361.94
393.26	369.62
393.639	360.36
394.018	361.49
394.397	350.41
394.776	372.11
395.155	371.43
395.534	373.92
395.913	348.15
396.292	356.97
396.671	386.57
397.05	380.7
397.429	356.29
397.808	377.53
398.186	363.97
398.565	373.46
398.944	392.22
399.323	395.39
399.701	367.82
400.08	379.57
400.458	386.8
400.837	392
401.215	388.61
401.594	379.34
401.972	398.55
402.351	394.03
402.729	395.16
403.107	397.64
403.486	386.8
403.864	395.84
404.242	383.18
404.62	410.75
404.999	401.71
405.377	396.74
405.755	421.37
406.133	423.41
406.511	409.85
406.889	424.76
407.267	422.73
407.645	436.29
408.023	416.85
408.401	408.49
408.779	422.5
409.156	422.73
409.534	427.93
409.912	435.38
410.29	424.99
410.667	421.6
411.045	434.25
411.422	446.46
411.8	449.17
412.178	462.95
412.555	446.01
412.933	446.01
413.31	448.27
413.687	465.89
414.065	459.79
414.442	447.81
414.819	461.37
415.197	454.37
415.574	475.16
415.951	447.14
416.328	470.64
416.705	455.27
417.082	457.98
417.46	493.01
417.837	482.16
418.214	474.71
418.591	487.13
418.967	482.16
419.344	468.83
419.721	493.69
420.098	490.75
420.475	488.72
420.852	481.71
421.228	509.73
421.605	496.85
421.982	498.89
422.358	495.04
422.735	510.18
423.111	520.58
423.488	507.47
423.864	522.61
424.241	504.99
424.617	515.16
424.994	516.51
425.37	538.66
425.746	533.91
426.123	529.39
426.499	558.09
426.875	551.31
427.251	544.53
427.627	551.77
428.003	549.28
428.379	551.31
428.756	556.28
429.132	584.08
429.507	591.99
429.883	591.09
430.259	568.04
430.635	584.08
431.011	577.3
431.387	591.09
431.763	585.89
432.138	588.6
432.514	586.34
432.89	600.13
433.265	630.18
433.641	600.8
434.016	610.75
434.392	642.38
434.767	628.15
435.143	646
435.518	628.37
435.894	632.67
436.269	639.22
436.644	656.17
437.02	672.89
437.395	636.28
437.77	657.98
438.145	670.18
438.52	675.83
438.895	660.01
439.271	685.77
439.646	693.68
440.021	674.7
440.395	684.64
440.77	704.3
441.145	686.22
441.52	699.56
441.895	706.34
442.27	725.09
442.645	712.21
443.019	692.1
443.394	728.48
443.769	696.85
444.143	733.46
444.518	715.83
444.892	711.99
445.267	734.81
445.641	740.91
446.016	764.64
446.39	759.22
446.764	752.66
447.139	758.09
447.513	777.52
447.887	761.25
448.262	796.5
448.636	791.08
449.01	798.76
449.384	762.61
449.758	781.36
450.132	774.81
450.506	795.37
450.88	823.4
451.254	789.72
451.628	797.41
452.002	824.3
452.376	817.29
452.75	826.56
453.123	855.26
453.497	850.51
453.871	833.11
454.244	857.97
454.618	876.28
454.992	860.91
455.365	870.17
455.739	885.99
456.112	911.53
456.486	888.03
456.859	924.18
457.232	915.15
457.606	925.99
457.979	944.75
458.352	966.22
458.725	974.13
459.099	965.77
459.472	974.8
459.845	1019.32
460.218	1004.63
460.591	1019.55
460.964	1003.05
461.337	1053.67
461.71	1057.29
462.083	1094.8
462.456	1077.4
462.829	1087.34
463.201	1087.57
463.574	1085.99
463.947	1118.3
464.32	1127.57
464.692	1160.34
465.065	1171.64
465.438	1192.2
465.81	1190.84
466.183	1195.14
466.555	1246.44
466.928	1244.85
467.3	1263.84
467.672	1265.87
468.045	1279.88
468.417	1331.86
468.789	1337.73
469.161	1340.9
469.534	1352.87
469.906	1392.2
470.278	1385.64
470.65	1396.71
471.022	1482.14
471.394	1448.92
471.766	1510.38
472.138	1533.66
472.51	1603.71
472.882	1629.93
473.253	1649.14
473.625	1679.42
473.997	1725.75
474.369	1762.13
474.74	1788.34
475.112	1806.65
475.484	1848.45
475.855	1910.37
476.227	1958.96
476.598	2013.65
476.97	2053.19
477.341	2096.58
477.713	2147.43
478.084	2173.19
478.455	2271.49
478.827	2282.34
479.198	2403.92
479.569	2441.43
479.94	2494.54
480.311	2561.2
480.682	2652.27
481.053	2734.98
481.424	2824.02
481.795	2876
482.166	2970.68
482.537	3059.27
482.908	3149.21
483.279	3239.15
483.65	3299.72
484.021	3406.83
484.391	3527.51
484.762	3582.87
485.133	3677.56
485.503	3792.13
485.874	3886.82
486.244	3940.83
486.615	4093.37
486.985	4260.37
487.356	4342.63
487.726	4467.14
488.097	4548.72
488.467	4673.69
488.837	4806.34
489.207	5000.91
489.578	5115.49
489.948	5210.63
490.318	5351.41
490.688	5445.87
491.058	5620.33
491.428	5752.53
491.798	5897.16
492.168	6030.94
492.538	6176.02
492.908	6232.75
493.278	6483.81
493.648	6530.59
494.017	6741.21
494.387	6832.5
494.757	6982.1
495.126	7116.34
495.496	7220.52
495.866	7370.12
496.235	7462.77
496.605	7632.48
496.974	7760.39
497.344	7898.24
497.713	8122.41
498.082	8191.56
498.452	8340.71
498.821	8406.47
499.19	8538.22
499.559	8693.25
499.928	8815.28
500.298	8940.47
500.667	9086.23
501.036	9183.63
501.405	9333.46
501.774	9473.79
502.143	9610.96
502.512	9697.06
502.88	9841.46
503.249	9887.11
503.618	10087.56
503.987	10108.35
504.356	10259.31
504.724	10317.16
505.093	10497.04
505.462	10515.57
505.83	10671.27
506.199	10839.86
506.567	11033.75
506.936	11060.19
507.304	11257.47
507.672	11308.09
508.041	11378.37
508.409	11563.9
508.777	11671.7
509.145	11863.56
509.514	11833.05
509.882	11944.23
510.25	11963.22
510.618	12179.71
510.986	12255.64
511.354	12447.5
511.722	12528.85
512.09	12666.02
512.458	12684.55
512.826	12779.24
513.193	12929.74
513.561	12884.55
513.929	13091.77
514.297	13199.79
514.664	13362.05
515.032	13431.2
515.4	13584.64
515.767	13578.32
516.135	13696.28
516.502	13609.5
516.869	13895.82
517.237	13964.07
517.604	13967.23
517.972	14031.18
518.339	14206.77
518.706	14249.03
519.073	14305.98
519.44	14459.87
519.808	14619.87
520.175	14611.96
520.542	14784.39
520.909	14881.78
521.276	14901.44
521.643	15086.75
522.009	15125.17
522.376	15275.67
522.743	15368.78
523.11	15481.54
523.477	15552.27
523.843	15674.31
524.21	15748.88
524.577	15938.48
524.943	15824.36
525.31	15950.46
525.676	16126.72
526.043	16183.67
526.409	16273.39
526.776	16491.46
527.142	16424.34
527.508	16546.82
527.874	16711.11
528.241	16783.2
528.607	16844.67
528.973	16947.04
529.339	16991.33
529.705	17047.15
530.071	17064.1
530.437	17253.7
530.803	17290.31
531.169	17364.66
531.535	17264.09
531.901	17335.05
532.267	17458.67
532.632	17574.82
532.998	17579.11
533.364	17703.86
533.73	17677.42
534.095	17799.22
534.461	17766.91
534.826	17913.12
535.192	17957.18
535.557	17994.47
535.923	18017.97
536.288	18124.64
536.653	18123.28
537.019	18035.15
537.384	18161.02
537.749	18244.41
538.114	18201.92
538.479	18330.51
538.845	18340.22
539.21	18177.97
539.575	18298.64
539.94	18392.65
540.305	18397.62
540.67	18319.21
541.034	18412.09
541.399	18532.54
541.764	18550.84
542.129	18578.86
542.494	18597.62
542.858	18592.65
543.223	18573.21
543.587	18768.01
543.952	18694.11
544.316	18695.24
544.681	18659.76
545.045	18702.25
545.41	18807.33
545.774	18825.18
546.138	18798.97
546.503	18878.51
546.867	18772.75
547.231	18931.39
547.595	18933.43
547.959	18968.91
548.324	18944.5
548.688	18990.83
549.052	19011.84
549.416	18970.94
549.779	18964.61
550.143	19119.41
550.507	19101.33
550.871	19155.8
551.235	19123.71
551.599	19256.36
551.962	19141.78
552.326	19216.13
552.689	19258.39
553.053	19230.14
553.417	19282.12
553.78	19461.1
554.143	19367.54
554.507	19451.38
554.87	19436.24
555.234	19621.55
555.597	19492.51
555.96	19549.68
556.323	19612.05
556.686	19620.19
557.05	19739.96
557.413	19706.74
557.776	19763.92
558.139	19791.03
558.502	19756.46
558.865	19849.34
559.228	19986.96
559.59	19993.06
559.953	20027.86
560.316	20137.92
560.679	20154.64
561.041	20298.36
561.404	20272.83
561.767	20402.77
562.129	20296.33
562.492	20529.77
562.854	20577.91
563.217	20490.22
563.579	20509.21
563.941	20683.21
564.304	20710.78
564.666	20886.37
565.028	20839.14
565.39	20822.19
565.753	21108.06
566.115	21030.77
566.477	21087.72
566.839	21112.13
567.201	21159.36
567.563	21179.7
567.925	21393.25
568.287	21419.47
568.648	21435.51
569.01	21429.18
569.372	21629.4
569.734	21524.77
570.095	21642.51
570.457	21755.5
570.819	21754.15
571.18	21796.4
571.542	21821.49
571.903	21861.04
572.265	21847.93
572.626	21943.97
572.987	22013.35
573.349	22078.2
573.71	22101.71
574.071	22168.82
574.432	22221.48
574.794	22245.66
575.155	22385.99
575.516	22162.72
575.877	22418.31
576.238	22385.54
576.599	22419.66
576.96	22470.06
577.32	22422.15
577.681	22514.8
578.042	22624.41
578.403	22666.44
578.763	22555.93
579.124	22537.85
579.485	22697.17
579.845	22703.27
580.206	22697.62
580.566	22649.72
580.927	22692.65
581.287	22824.4
581.648	22640.22
582.008	22855.36
582.368	22743.72
582.728	22889.48
583.089	22815.81
583.449	22840.9
583.809	22798.41
584.169	22885.64
584.529	22781.92
584.889	22918.41
585.249	22788.92
585.609	22813.1
585.969	22791.41
586.329	22792.76
586.688	22854
587.048	22901.69
587.408	22918.63
587.768	22882.03
588.127	22779.66
588.487	22855.36
588.846	22887.22
589.206	22917.96
589.565	22951.63
589.925	23033.89
590.284	22852.87
590.643	22923.38
591.003	22904.85
591.362	23018.07
591.721	22963.15
592.08	22896.26
592.44	23033.21
592.799	22914.34
593.158	22902.36
593.517	22912.76
593.876	22958.41
594.235	22879.09
594.593	22850.16
594.952	23042.47
595.311	22952.31
595.67	22992.31
596.029	22994.56
596.387	22990.05
596.746	23106.43
597.104	22908.69
597.463	22931.29
597.822	23007.9
598.18	22928.58
598.538	22971.74
598.897	23074.34
599.255	22858.3
599.613	23199.31
599.972	22948.01
600.33	23188.68
600.688	23014.45
601.046	23174.67
601.404	23190.04
601.762	23182.81
602.12	23166.99
602.478	23294.9
602.836	23183.94
603.194	23110.72
603.552	23186.88
603.91	23159.53
604.268	23297.16
604.625	23260.09
604.983	23348
605.341	23161.79
605.698	23334.89
606.056	23330.83
606.413	23267.33
606.771	23334.89
607.128	23398.85
607.485	23332.86
607.843	23320.21
608.2	23512.52
608.557	23489.47
608.914	23491.95
609.272	23610.59
609.629	23644.72
609.986	23770.59
610.343	23628.67
610.7	23792.51
611.057	23670.03
611.414	23785.96
611.771	23752.51
612.127	23872.51
612.484	23743.02
612.841	23816.24
613.198	23857.59
613.554	23882.45
613.911	23990.24
614.267	23935.78
614.624	23941.88
614.98	24010.36
615.337	24076.12
615.693	23983.24
616.05	23925.39
616.406	24111.15
616.762	24072.5
617.118	24058.04
617.475	24159.05
617.831	24222.33
618.187	24165.16
618.543	24197.7
618.899	24382.32
619.255	24314.76
619.611	24380.07
619.967	24527.18
620.323	24551.13
620.678	24343.68
621.034	24292.61
621.39	24448.76
621.746	24373.51
622.101	24712.94
622.457	24288.32
622.812	24445.15
623.168	24442.89
623.523	24571.25
623.879	24582.32
624.234	24456.45
624.589	24480.85
624.945	24570.34
625.3	24591.81
625.655	24628.65
626.01	24511.36
626.365	24639.49
626.72	24489.21
627.075	24515.43
627.43	24542.77
627.785	24444.7
628.14	24633.39
628.495	24617.35
628.85	24485.15
629.205	24522.43
629.559	24651.02
629.914	24539.38
630.269	24532.15
630.623	24503.45
630.978	24361.53
631.332	24505.94
631.687	24595.65
632.041	24451.7
632.396	24539.38
632.75	24499.84
633.104	24556.33
633.459	24399.27
633.813	24277.92
634.167	24503.9
634.521	24272.05
634.875	24275.44
635.229	24393.85
635.583	24294.19
635.937	24304.36
636.291	24231.59
636.645	24239.05
636.999	24201.99
637.352	24280.18
637.706	24036.8
638.06	24172.16
638.413	24281.08
638.767	24011.26
639.121	24002.9
639.474	23995.67
639.828	23989.57
640.181	23988.44
640.534	24115.44
640.888	24020.75
641.241	23926.52
641.594	24067.08
641.947	24008.78
642.301	23958.38
642.654	23972.39
643.007	23941.66
643.36	23908.89
643.713	23853.3
644.066	23912.96
644.419	23714.09
644.771	23631.16
645.124	23437.72
645.477	23402.46
645.83	23166.31
646.182	23172.19
646.535	23157.5
646.888	23120.44
647.24	23005.19
647.593	23237.27
647.945	23121.12
648.298	22998.63
648.65	22990.5
649.002	22820.11
649.355	22954.34
649.707	22905.75
650.059	22981.68
650.411	23320.66
650.763	23242.47
651.115	23561.1
651.467	23425.51
651.819	23425.51
652.171	23467.32
652.523	23340.54
652.875	23419.19
653.227	23314.78
653.578	23391.16
653.93	23385.74
654.282	23368.34
654.633	23274.11
654.985	23357.27
655.337	23346.87
655.688	23429.58
656.039	23450.37
656.391	23253.09
656.742	23282.01
657.094	23333.54
657.445	23375.35
657.796	23380.32
658.147	23346.42
658.498	23316.36
658.849	23352.52
659.2	23308.23
659.551	23302.81
659.902	23333.76
660.253	23343.03
660.604	23450.6
660.955	23134
661.306	23390.94
661.656	23272.52
662.007	23329.25
662.358	23245.86
662.708	23329.02
663.059	23330.6
663.409	23137.84
663.76	23403.14
664.11	23358.62
664.461	23468
664.811	23355.91
665.161	23269.59
665.511	23204.95
665.862	23161.11
666.212	23312.97
666.562	23331.05
666.912	23291.28
667.262	23349.36
667.612	23307.1
667.962	23217.38
668.312	23280.21
668.662	23372.41
669.011	23369.24
669.361	23230.49
669.711	23282.47
670.06	23227.78
670.41	23098.06
670.76	23074.11
671.109	23258.51
671.459	23213.32
671.808	23172.19
672.157	23183.71
672.507	23031.85
672.856	23085.41
673.205	23074.11
673.554	23126.99
673.904	23101.23
674.253	23321.79
674.602	23234.11
674.951	22798.64
675.3	22585.99
675.649	23063.04
675.998	22969.71
676.346	22958.63
676.695	22933.55
677.044	22864.4
677.393	22947.56
677.741	22972.87
678.09	23015.81
678.438	22823.72
678.787	22873.89
679.135	22918.18
679.484	22647.91
679.832	22811.29
680.181	22718.19
680.529	22769.03
680.877	22699.21
681.225	22655.36
681.573	22773.1
681.922	22694.91
682.27	22557.51
682.618	22555.48
682.966	22566.55
683.314	22508.02
683.661	22433.9
684.009	22380.12
684.357	22219.67
684.705	22221.7
685.053	22318.2
685.4	22295.37
685.748	22088.83
686.095	22137.64
686.443	22011.99
686.79	22062.16
687.138	21999.79
687.485	21998.66
687.832	21835.5
688.18	21807.7
688.527	21747.14
688.874	21747.14
689.221	21689.74
689.568	21641.61
689.915	21646.13
690.262	21562.96
690.609	21593.02
690.956	21426.02
691.303	21346.25
691.65	21295.4
691.997	21343.99
692.344	21150.77
692.69	21158.23
693.037	21096.54
693.383	21026.71
693.73	21048.63
694.077	21061.06
694.423	20976.99
694.769	20895.64
695.116	20765.24
695.462	20777.45
695.808	20673.72
696.155	20776.09
696.501	20532.48
696.847	20573.39
697.193	20365.71
697.539	20484.12
697.885	20226.5
698.231	20248.2
698.577	20196.9
698.923	20109.44
699.269	20028.99
699.614	19940.86
699.96	19931.82
700.306	19830.13
700.651	19723.46
700.997	19700.87
701.342	19650.7
701.688	19758.72
702.033	19595.33
702.379	19632.17
702.724	19507.42
703.069	19483.02
703.415	19315.11
703.76	19255.45
704.105	19287.54
704.45	19257.26
704.795	19082.8
705.14	19075.57
705.485	18999.42
705.83	18981.56
706.175	19018.4
706.52	18890.72
706.865	18833.32
707.209	18779.76
707.554	18634.45
707.899	18754.22
708.243	18609.14
708.588	18682.36
708.932	18506.55
709.277	18404.86
709.621	18506.32
709.966	18319.89
710.31	18471.29
710.654	18228.81
710.998	18280.34
711.342	18280.34
711.687	18163.73
712.031	18108.37
712.375	18123.73
712.719	18041.02
713.063	18029.5
713.407	18064.53
713.75	17987.46
714.094	17987.46
714.438	17777.53
714.782	17963.74
715.125	17842.16
715.469	17836.28
715.812	17649.39
716.156	17640.13
716.499	17721.03
716.843	17682.16
717.186	17561.71
717.53	17589.06
717.873	17575.05
718.216	17523.07
718.559	17447.82
718.902	17444.65
719.246	17443.98
719.589	17352
719.932	17304.54
720.275	17215.51
720.617	17215.96
720.96	17301.16
721.303	17237.2
721.646	17272.23
721.989	17087.38
722.331	17246.69
722.674	17216.86
723.016	17171.89
723.359	17039.24
723.701	17128.05
724.044	17074.72
724.386	16958.34
724.729	17038.34
725.071	16881.73
725.413	16836.53
725.755	16978.68
726.097	16807.83
726.439	16774.39
726.782	16833.37
727.124	16911.11
727.465	16784.56
727.807	16786.59
728.149	16738.46
728.491	16726.03
728.833	16752.47
729.175	16673.6
729.516	16627.73
729.858	16626.82
730.199	16661.85
730.541	16677.44
730.882	16580.27
731.224	16602.64
731.565	16548.18
731.906	16545.92
732.248	16565.13
732.589	16542.76
732.93	16520.38
733.271	16587.5
733.612	16505.92
733.953	16532.59
734.294	16449.88
734.635	16468.41
734.976	16486.94
735.317	16446.26
735.658	16418.92
735.999	16466.6
736.339	16423.66
736.68	16514.06
737.021	16475.64
737.361	16346.6
737.702	16472.25
738.042	16344.34
738.383	16348.86
738.723	16505.7
739.063	16348.41
739.404	16351.12
739.744	16312.71
740.084	16239.94
740.424	16316.1
740.764	16333.72
741.104	16347.73
741.444	16240.39
741.784	16237.45
742.124	16336.66
742.464	16376.43
742.804	16403.1
743.143	16295.76
743.483	16347.06
743.823	16380.95
744.162	16323.78
744.502	16283.33
744.841	16339.15
745.181	16472.02
745.52	16351.8
745.86	16469.54
746.199	16402.65
746.538	16496.66
746.877	16485.36
747.216	16435.19
747.556	16526.49
747.895	16524.45
748.234	16562.42
748.573	16498.69
748.911	16580.04
749.25	16681.51
749.589	16674.96
749.928	16736.65
750.267	16749.98
750.605	16749.08
750.944	16754.73
751.283	16730.32
751.621	16836.53
751.96	16845.57
752.298	16966.02
752.636	17009.19
752.975	16950.2
753.313	17023.42
753.651	17123.31
753.989	17174.38
754.327	17207.15
754.666	17220.25
755.004	17404.2
755.342	17349.74
755.679	17401.72
756.017	17398.1
756.355	17517.65
756.693	17566.68
757.031	17790.18
757.368	17709.05
757.706	17715.38
758.044	17800.13
758.381	17910.86
758.719	17878.99
759.056	18027.69
759.394	18065.43
759.731	18012.32
760.068	18133.22
760.405	18086.45
760.743	18104.75
761.08	18372.09
761.417	18273.79
761.754	18352.2
762.091	18433.55
762.428	18377.06
762.765	18355.36
763.102	18455.25
763.438	18530.28
763.775	18369.38
764.112	18610.5
764.449	18606.66
764.785	18625.19
765.122	18650.72
765.458	18569.37
765.795	18617.96
766.131	18682.36
766.467	18693.89
766.804	18624.96
767.14	18653.44
767.476	18752.64
767.812	18733.21
768.148	18807.33
768.485	18663.15
768.821	18661.8
769.157	18670.38
769.492	18746.54
769.828	18688.92
770.164	18667.45
770.5	18649.37
770.836	18702.25
771.171	18610.5
771.507	18645.98
771.842	18521.91
772.178	18590.61
772.513	18525.08
772.849	18554.23
773.184	18536.83
773.519	18473.55
773.855	18528.02
774.19	18386.1
774.525	18373.22
774.86	18492.54
775.195	18498.19
775.53	18314.24
775.865	18302.26
776.2	18161.7
776.535	18094.81
776.87	18165.54
777.205	18092.55
777.539	17980.23
777.874	18048.25
778.209	17995.15
778.543	17933.46
778.878	17831.54
779.212	17873.34
779.547	17703.4
779.881	17791.31
780.215	17736.17
780.55	17744.99
780.884	17614.82
781.218	17533.47
781.552	17514.26
781.886	17538.89
782.22	17455.5
782.554	17343.64
782.888	17298.22
783.222	17208.95
783.556	17059.13
783.889	17121.05
784.223	17027.94
784.557	17003.31
784.89	17012.58
785.224	16949.3
785.557	16912.69
785.891	16884.67
786.224	16768.06
786.558	16718.35
786.891	16604.22
787.224	16568.52
787.557	16577.78
787.891	16542.31
788.224	16560.61
788.557	16479.26
788.89	16392.03
789.223	16421.18
789.556	16276.78
789.888	16247.4
790.221	16231.58
790.554	16067.97
790.887	16041.75
791.219	16047.4
791.552	16016.44
791.884	15926.05
792.217	15931.25
792.549	15832.27
792.882	15782.78
793.214	15705.27
793.546	15709.78
793.879	15603.12
794.211	15525.61
794.543	15644.93
794.875	15585.95
795.207	15586.85
795.539	15377.82
795.871	15477.02
796.203	15337.14
796.535	15221.44
796.867	15266.41
797.198	15160.19
797.53	15147.77
797.862	15102.34
798.193	15169.69
798.525	14967.88
798.856	15156.58
799.188	14893.53
799.519	14853.76
799.85	14817.38
800.182	14733.99
800.513	14781
800.844	14612.41
801.175	14665.97
801.506	14651.51
801.837	14529.93
802.168	14585.75
802.499	14491.51
802.83	14485.41
803.161	14404.06
803.491	14386.2
803.822	14300.1
804.153	14362.02
804.483	14233.89
804.814	14180.79
805.145	14141.46
805.475	14103.5
805.805	14022.15
806.136	14100.79
806.466	13995.03
806.796	14005.2
807.126	13880
807.457	13782.15
807.787	13859.44
808.117	13775.15
808.447	13796.39
808.777	13788.25
809.107	13713.68
809.436	13699.22
809.766	13698.09
810.096	13670.74
810.426	13564.76
810.755	13533.57
811.085	13541.25
811.414	13515.49
811.744	13374.48
812.073	13277.76
812.403	13353.69
812.732	13239.12
813.061	13305.78
813.39	13162.96
813.719	13151.21
814.049	13240.92
814.378	13191.66
814.707	12993.92
815.036	13134.26
815.365	13024.21
815.693	12924.1
816.022	13002.29
816.351	12964.55
816.68	12814.95
817.008	12854.04
817.337	12818.56
817.665	12717.09
817.994	12783.76
818.322	12842.74
818.651	12691.11
818.979	12682.97
819.307	12749.41
819.636	12622.86
819.964	12642.97
820.292	12744.89
820.62	12641.84
820.948	12542.64
821.276	12643.42
821.604	12562.07
821.932	12637.32
822.259	12613.82
822.587	12595.06
822.915	12518.23
823.243	12565.91
823.57	12504.45
823.898	12540.38
824.225	12375.18
824.553	12512.13
824.88	12525.01
825.207	12555.74
825.535	12535.4
825.862	12578.79
826.189	12457.44
826.516	12554.84
826.843	12570.43
827.17	12518.68
827.497	12562.75
827.824	12505.35
828.151	12527.95
828.478	12528.63
828.805	12651.11
829.131	12529.53
829.458	12527.72
829.785	12459.7
830.111	12465.8
830.438	12560.49
830.764	12461.28
831.09	12479.14
831.417	12410.89
831.743	12443.88
832.069	12418.12
832.395	12413.37
832.722	12492.47
833.048	12427.61
833.374	12375.41
833.7	12344.9
834.026	12354.17
834.351	12423.32
834.677	12299.93
835.003	12414.5
835.329	12242.53
835.654	12318.46
835.98	12332.02
836.306	12283.66
836.631	12252.7
836.956	12266.49
837.282	12280.72
837.607	12183.78
837.932	12124.12
838.258	12140.84
838.583	12156.43
838.908	12124.12
839.233	12105.81
839.558	12094.74
839.883	12050.45
840.208	12053.84
840.533	12048.86
840.858	12008.41
841.182	11980.84
841.507	11900.17
841.832	11932.48
842.156	11870.56
842.481	11891.13
842.805	11967.06
843.13	11844.35
843.454	11748.31
843.778	11780.17
844.103	11694.52
844.427	11714.18
844.751	11760.28
845.075	11709.44
845.399	11658.59
845.723	11587.18
846.047	11647.07
846.371	11476.45
846.695	11498.6
847.019	11424.7
847.343	11411.14
847.666	11330.92
847.99	11233.52
848.313	11295.21
848.637	11150.36
848.96	11095.22
849.284	11126.85
849.607	11040.53
849.931	10984.26
850.254	10922.11
850.577	10891.38
850.9	10871.27
851.223	10881.66
851.546	10788.56
851.869	10772.06
852.192	10777.03
852.515	10601.22
852.838	10670.82
853.161	10615.23
853.483	10587.21
853.806	10471.5
854.129	10530.26
854.451	10473.99
854.774	10452.52
855.096	10370.72
855.419	10329.81
855.741	10310.38
856.063	10257.72
856.385	10200.55
856.708	10240.55
857.03	10193.32
857.352	10111.74
857.674	10161.46
857.996	10148.35
858.318	9986.32
858.64	10059.09
858.961	10016.15
859.283	10013.89
859.605	9988.58
859.926	9951.74
860.248	9929.6
860.57	9827.91
860.891	9881.69
861.212	9839.2
861.534	9793.78
861.855	9805.76
862.176	9825.19
862.498	9763.27
862.819	9792.88
863.14	9748.81
863.461	9680.56
863.782	9633.33
864.103	9575.48
864.424	9680.34
864.745	9590.62
865.065	9545.2
865.386	9514.92
865.707	9569.16
866.027	9552.43
866.348	9511.53
866.668	9514.24
866.989	9534.81
867.309	9422.27
867.63	9454.81
867.95	9432.89
868.27	9408.03
868.59	9440.8
868.91	9405.32
869.23	9356.05
869.55	9344.08
869.87	9393.79
870.19	9328.03
870.51	9365.09
870.83	9368.71
871.15	9236.51
871.469	9263.63
871.789	9342.72
872.109	9303.63
872.428	9143.18
872.748	9227.02
873.067	9224.98
873.386	9156.51
873.706	9115.38
874.025	9154.48
874.344	9114.93
874.663	9128.94
874.982	9119
875.301	9077.87
875.62	9074.03
875.939	9036.51
876.258	9048.72
876.577	9043.29
876.896	9006.91
877.214	8911.77
877.533	9024.08
877.852	8930.08
878.17	8942.73
878.489	8949.51
878.807	8935.05
879.125	9012.33
879.444	8863.19
879.762	8846.69
880.08	8879.68
880.398	8780.48
880.716	8870.64
881.034	8786.12
881.352	8802.4
881.67	8766.24
881.988	8762.4
882.306	8673.13
882.624	8706.8
882.941	8724.43
883.259	8687.37
883.577	8620.71
883.894	8648.95
884.212	8580.03
884.529	8563.98
884.846	8563.31
885.164	8513.36
885.481	8536.19
885.798	8593.59
886.115	8552.46
886.432	8467.49
886.75	8409.86
887.067	8436.08
887.383	8408.28
887.7	8369.86
888.017	8386.59
888.334	8374.16
888.651	8312.01
888.967	8354.72
889.284	8240.15
889.6	8278.79
889.917	8238.79
890.233	8196.99
890.55	8117.89
890.866	8144.79
891.182	8192.02
891.498	8154.05
891.815	8144.11
892.131	8107.95
892.447	8037.44
892.763	7986.6
893.079	7994.06
893.395	8012.81
893.71	7977.33
894.026	7945.7
894.342	7997.45
894.657	7875.19
894.973	7866.6
895.289	7802.87
895.604	7831.12
895.92	7779.37
896.235	7760.84
896.55	7812.37
896.865	7750.45
897.181	7664.12
897.496	7685.14
897.811	7663.44
898.126	7675.65
898.441	7620.05
898.756	7546.61
899.071	7550
899.386	7549.55
899.7	7465.71
900.015	7446.5
900.33	7406.5
900.644	7358.59
900.959	7401.75
901.273	7382.32
901.588	7282.89
901.902	7282.89
902.216	7251.93
902.531	7188.2
902.845	7216
903.159	7192.04
903.473	7120.41
903.787	7110.24
904.101	7028.43
904.415	7115.89
904.729	7077.47
905.042	7044.48
905.356	6989.11
905.67	6958.6
905.984	6995.44
906.297	6931.26
906.611	6950.24
906.924	6891.94
907.237	6882.22
907.551	6806.52
907.864	6788.89
908.177	6784.14
908.491	6756.12
908.804	6746.86
909.117	6668.44
909.43	6649.46
909.743	6637.93
910.056	6602.45
910.368	6498.28
910.681	6532.17
910.994	6486.07
911.307	6477.03
911.619	6472.29
911.932	6460.54
912.244	6430.25
912.557	6406.53
912.869	6372.86
913.181	6306.64
913.494	6337.6
913.806	6290.82
914.118	6249.02
914.43	6230.71
914.742	6206.31
915.054	6150.71
915.366	6191.62
915.678	6172.86
915.99	6119.53
916.302	6107.33
916.613	6079.3
916.925	6044.05
917.236	6059.19
917.548	5991.17
917.859	6016.25
918.171	5972.64
918.482	5926.77
918.794	5876.6
919.105	5915.47
919.416	5831.85
919.727	5872.3
920.038	5856.26
920.349	5759.54
920.66	5742.82
920.971	5711.63
921.282	5697.17
921.593	5693.78
921.903	5632.99
922.214	5690.39
922.525	5615.13
922.835	5566.77
923.146	5566.1
923.456	5567.23
923.767	5509.83
924.077	5508.7
924.387	5496.27
924.697	5437.29
925.008	5435.93
925.318	5424.18
925.628	5378.76
925.938	5342.83
926.248	5355.71
926.558	5316.16
926.867	5301.47
927.177	5244.07
927.487	5261.47
927.796	5203.39
928.106	5234.13
928.416	5190.97
928.725	5167.24
929.034	5136.96
929.344	5104.87
929.653	5130.85
929.962	5077.75
930.271	5054.7
930.581	5067.8
930.89	5072.78
931.199	4939.9
931.508	4995.72
931.817	4982.84
932.125	4980.35
932.434	4938.77
932.743	4840.92
933.051	4863.74
933.36	4858.77
933.669	4831.65
933.977	4860.8
934.286	4840.92
934.594	4736.06
934.902	4743.75
935.21	4711.2
935.519	4779.45
935.827	4718.89
936.135	4651.77
936.443	4610.19
936.751	4614.03
937.059	4617.19
937.367	4586.24
937.674	4571.55
937.982	4557.54
938.29	4554.6
938.597	4506.01
938.905	4485.9
939.213	4441.83
939.52	4417.43
939.827	4505.56
940.135	4429.18
940.442	4378.78
940.749	4399.12
941.056	4427.6
941.363	4323.64
941.67	4301.27
941.977	4279.58
942.284	4275.51
942.591	4258.79
942.898	4257.66
943.205	4269.86
943.511	4230.31
943.818	4222.86
944.125	4147.15
944.431	4177.43
944.738	4173.36
945.044	4120.48
945.35	4124.55
945.657	4109.41
945.963	4103.08
946.269	4019.24
946.575	4073.25
946.881	4031
947.187	4046.14
947.493	3976.53
947.799	3980.15
948.105	3953.71
948.41	3954.84
948.716	3911.45
949.022	3937.21
949.327	3906.71
949.633	3836.42
949.938	3816.09
950.244	3847.95
950.549	3842.98
950.854	3796.2
951.16	3821.28
951.465	3751
951.77	3757.1
952.075	3726.82
952.38	3701.74
952.685	3694.51
952.99	3710.55
953.294	3702.42
953.599	3664.68
953.904	3660.16
954.209	3659.93
954.513	3632.59
954.818	3567.96
955.122	3578.58
955.426	3596.2
955.731	3533.16
956.035	3529.99
956.339	3535.64
956.643	3525.7
956.948	3473.27
957.252	3486.6
957.556	3476.89
957.86	3454.29
958.163	3476.21
958.467	3400.73
958.771	3429.88
959.075	3417.23
959.378	3406.61
959.682	3415.87
959.985	3390.33
960.289	3318.7
960.592	3320.73
960.896	3320.96
961.199	3283.9
961.502	3331.35
961.805	3297.91
962.108	3243.45
962.411	3212.94
962.714	3222.2
963.017	3238.25
963.32	3227.18
963.623	3159.38
963.926	3196.44
964.228	3200.74
964.531	3141.98
964.833	3116.22
965.136	3121.42
965.438	3067.86
965.741	3106.95
966.043	3098.14
966.345	3048.42
966.648	3045.03
966.95	3059.04
967.252	3064.47
967.554	3028.76
967.856	3013.62
968.158	2987.63
968.46	2954.87
968.761	2960.52
969.063	2965.71
969.365	2927.52
969.666	2910.8
969.968	2899.95
970.269	2915.09
970.571	2908.09
970.872	2911.7
971.174	2837.13
971.475	2883.23
971.776	2869.67
972.077	2801.2
972.378	2818.6
972.679	2797.81
972.98	2781.76
973.281	2788.99
973.582	2764.81
973.883	2777.02
974.183	2737.02
974.484	2730.01
974.785	2731.59
975.085	2693.4
975.386	2709.67
975.686	2717.36
975.986	2691.6
976.287	2694.53
976.587	2669.9
976.887	2625.61
977.187	2623.12
977.487	2598.27
977.787	2598.94
978.087	2605.5
978.387	2586.97
978.687	2590.81
978.987	2542.22
979.286	2520.07
979.586	2551.26
979.885	2531.15
980.185	2523.69
980.484	2502.22
980.784	2457.7
981.083	2476.23
981.382	2460.19
981.682	2469.23
981.981	2440.53
982.28	2476.01
982.579	2413.41
982.878	2442.56
983.177	2408.89
983.475	2403.02
983.774	2362.34
984.073	2366.63
984.372	2382.23
984.67	2359.63
984.969	2355.11
985.267	2335.22
985.566	2333.41
985.864	2299.06
986.162	2318.72
986.461	2281.21
986.759	2271.49
987.057	2267.2
987.355	2261.78
987.653	2282.34
987.951	2275.11
988.249	2242.79
988.547	2221.33
988.844	2231.27
989.142	2218.84
989.44	2186.75
989.737	2183.59
990.035	2159.41
990.332	2175
990.63	2184.04
990.927	2131.38
991.224	2149.01
991.521	2138.39
991.819	2128.22
992.116	2094.78
992.413	2090.26
992.71	2102.68
993.006	2073.31
993.303	2061.33
993.6	2082.57
993.897	2037.83
994.193	2021.11
994.49	2042.12
994.787	2007.09
995.083	2006.19
995.379	1985.85
995.676	2003.48
995.972	2001.44
996.268	1973.42
996.565	1967.1
996.861	1956.02
997.157	1938.85
997.453	1921.22
997.749	1916.48
998.044	1899.98
998.34	1935.68
998.636	1905.4
998.932	1907.44
999.227	1884.39
999.523	1902.46
999.818	1855.69
1000.114	1844.16
1000.409	1864.5
1000.704	1869.7
1001	1843.71
1001.295	1820.43
1001.59	1830.83
1001.885	1805.74
1002.18	1796.93
1002.475	1795.35
1002.77	1772.75
1003.065	1744.28
1003.359	1735.24
1003.654	1747.44
1003.949	1705.41
1004.243	1723.49
1004.538	1719.19
1004.832	1683.49
1005.127	1706.76
1005.421	1678.29
1005.715	1672.87
1006.009	1690.94
1006.304	1662.47
1006.598	1653.66
1006.892	1645.52
1007.186	1612.08
1007.48	1624.73
1007.773	1624.05
1008.067	1609.36
1008.361	1576.82
1008.655	1589.48
1008.948	1577.95
1009.242	1577.27
1009.535	1549.48
1009.829	1533.89
1010.122	1531.63
1010.415	1542.47
1010.708	1510.38
1011.001	1496.6
1011.295	1525.98
1011.588	1504.06
1011.881	1489.82
1012.173	1517.84
1012.466	1467
1012.759	1479.65
1013.052	1448.24
1013.344	1445.53
1013.637	1433.78
1013.93	1443.95
1014.222	1436.04
1014.514	1431.29
1014.807	1437.62
1015.099	1412.99
1015.391	1403.49
1015.683	1406.88
1015.976	1418.41
1016.268	1387.68
1016.56	1374.79
1016.851	1368.24
1017.143	1366.66
1017.435	1356.49
1017.727	1338.86
1018.018	1317.85
1018.31	1301.12
1018.602	1308.36
1018.893	1287.57
1019.185	1299.54
1019.476	1274.01
1019.767	1294.12
1020.058	1273.78
1020.35	1261.58
1020.641	1257.28
1020.932	1262.03
1021.223	1249.6
1021.514	1220.67
1021.804	1201.47
1022.095	1213.44
1022.386	1221.13
1022.677	1225.65
1022.967	1180
1023.258	1184.06
1023.548	1167.12
1023.839	1177.51
1024.129	1152.88
1024.419	1148.81
1024.709	1162.14
1025	1149.04
1025.29	1148.81
1025.58	1146.78
1025.87	1127.12
1026.16	1093.9
1026.449	1137.06
1026.739	1125.99
1027.029	1107
1027.319	1091.86
1027.608	1080.34
1027.898	1096.38
1028.187	1068.36
1028.477	1065.2
1028.766	1048.02
1029.055	1052.77
1029.344	1052.99
1029.634	1011.87
1029.923	1029.27
1030.212	1026.55
1030.501	1043.5
1030.79	1012.09
1031.078	1014.58
1031.367	1018.42
1031.656	1011.87
1031.945	988.36
1032.233	979.55
1032.522	975.93
1032.81	971.87
1033.099	970.96
1033.387	963.96
1033.675	947.69
1033.963	938.2
1034.251	943.39
1034.54	933.22
1034.828	941.13
1035.116	924.18
1035.403	928.03
1035.691	911.98
1035.979	929.16
1036.267	892.55
1036.554	899.1
1036.842	919.67
1037.129	870.85
1037.417	880.57
1037.704	877.41
1037.992	866.56
1038.279	877.63
1038.566	855.94
1038.853	855.94
1039.14	855.94
