Data from hue_34_FLMS001491_00009.txt Node
Date: Tue Feb 07 17:25:08 GMT 2017
User: dcchb
Spectrometer: FLMS00149
Trigger mode: 0
Integration Time (sec): 2.000000E-2
Scans to average: 10
Electric dark correction enabled: true
Nonlinearity correction enabled: false
Boxcar width: 0
XAxis mode: Wavelengths
Number of Pixels in Spectrum: 2048
>>>>>Begin Spectral Data<<<<<
341.393	-4.75
341.776	-4.75
342.16	-4.75
342.543	-55.82
342.927	-60.34
343.31	-77.06
343.693	-44.07
344.077	-56.95
344.46	-64.41
344.843	-54.46
345.226	-74.57
345.61	-31.41
345.993	-19.21
346.376	3.39
346.759	13.33
347.142	27.12
347.525	29.83
347.908	55.59
348.291	69.38
348.674	101.69
349.057	121.8
349.44	144.63
349.823	139.88
350.206	174.01
350.588	181.69
350.971	213.33
351.354	221.46
351.737	236.6
352.119	265.76
352.502	244.74
352.884	275.25
353.267	276.15
353.65	293.78
354.032	283.83
354.414	310.5
354.797	317.05
355.179	313.66
355.562	333.32
355.944	323.83
356.326	319.31
356.709	343.27
357.091	340.33
357.473	337.84
357.855	328.8
358.238	345.08
358.62	335.13
359.002	354.79
359.384	334.68
359.766	359.31
360.148	335.13
360.53	347.11
360.912	348.69
361.294	332.87
361.676	335.36
362.057	362.25
362.439	343.95
362.821	339.43
363.203	352.31
363.584	313.66
363.966	356.83
364.348	320.44
364.729	331.52
365.111	319.99
365.493	346.88
365.874	352.08
366.256	306.88
366.637	315.25
367.019	322.25
367.4	319.31
367.781	297.85
368.163	323.83
368.544	310.73
368.925	314.79
369.306	321.12
369.688	320.44
370.069	294.23
370.45	317.73
370.831	327
371.212	305.98
371.593	319.99
371.974	314.57
372.355	324.74
372.736	313.44
373.117	316.6
373.498	327
373.879	339.65
374.26	339.65
374.641	345.75
375.021	313.21
375.402	323.61
375.783	327.9
376.163	350.95
376.544	336.94
376.925	345.75
377.305	332.42
377.686	323.16
378.066	313.44
378.447	337.84
378.827	344.62
379.208	326.55
379.588	340.78
379.968	324.51
380.349	327.9
380.729	341.01
381.109	338.75
381.489	349.6
381.87	324.96
382.25	335.36
382.63	349.37
383.01	352.76
383.39	322.48
383.77	339.65
384.15	364.96
384.53	356.37
384.91	355.47
385.29	342.36
385.67	352.08
386.049	357.73
386.429	333.32
386.809	355.7
387.189	353.21
387.568	362.02
387.948	335.58
388.328	366.32
388.707	359.31
389.087	376.26
389.466	374.45
389.846	381.01
390.225	364.51
390.605	359.99
390.984	361.8
391.363	357.28
391.743	373.1
392.122	377.62
392.501	390.05
392.881	387.33
393.26	367
393.639	399.54
394.018	400.67
394.397	376.04
394.776	384.17
395.155	395.02
395.534	380.55
395.913	389.37
396.292	406.09
396.671	390.95
397.05	393.21
397.429	388.24
397.808	401.35
398.186	400.44
398.565	404.06
398.944	383.27
399.323	381.68
399.701	416.71
400.08	390.95
400.458	392.31
400.837	405.19
401.215	421.01
401.594	418.29
401.972	420.33
402.351	408.8
402.729	415.81
403.107	413.55
403.486	423.72
403.864	408.58
404.242	422.36
404.62	421.91
404.999	435.69
405.377	433.21
405.755	431.85
406.133	431.18
406.511	432.08
406.889	436.6
407.267	436.15
407.645	431.4
408.023	458.74
408.401	442.47
408.779	440.89
409.156	429.59
409.534	449.03
409.912	446.32
410.29	469.82
410.667	472.76
411.045	469.37
411.422	466.43
411.8	484.96
412.178	458.29
412.555	481.12
412.933	487.22
413.31	469.59
413.687	483.15
414.065	499.42
414.442	504.39
414.819	489.7
415.197	499.2
415.574	501.68
415.951	493.77
416.328	492.19
416.705	515.24
417.082	518.86
417.46	496.48
417.837	524.05
418.214	494.45
418.591	510.72
418.967	529.03
419.344	507.11
419.721	547.1
420.098	556.82
420.475	511.85
420.852	529.48
421.228	553.66
421.605	534.22
421.982	540.78
422.358	547.33
422.735	544.17
423.111	559.31
423.488	582.36
423.864	570.83
424.241	587.56
424.617	554.79
424.994	597.95
425.37	579.19
425.746	573.77
426.123	584.62
426.499	585.3
426.875	599.08
427.251	595.69
427.627	589.36
428.003	604.96
428.379	599.98
428.756	604.5
429.132	617.84
429.507	611.51
429.883	638.4
430.259	628.68
430.635	635.01
431.011	665.75
431.387	651.73
431.763	666.42
432.138	680.21
432.514	684.05
432.89	675.24
433.265	675.69
433.641	700.77
434.016	696.48
434.392	689.47
434.767	710.26
435.143	677.95
435.518	698.06
435.894	707.33
436.269	715.46
436.644	731.51
437.02	678.63
437.395	731.51
437.77	754.1
438.145	739.42
438.52	748.45
438.895	724.95
439.271	757.72
439.646	769.25
440.021	773.54
440.395	766.53
440.77	748.68
441.145	788.91
441.52	778.28
441.895	817.61
442.27	804.05
442.645	773.99
443.019	800.88
443.394	827.55
443.769	821.67
444.143	822.8
444.518	837.49
444.892	823.48
445.267	833.65
445.641	835.01
446.016	838.4
446.39	846.76
446.764	863.93
447.139	857.6
447.513	868.9
447.887	861.45
448.262	857.6
448.636	893.76
449.01	870.26
449.384	908.45
449.758	898.51
450.132	891.5
450.506	901.45
450.88	886.98
451.254	918.39
451.628	926.98
452.002	942.57
452.376	913.65
452.75	941.44
453.123	950.48
453.497	956.81
453.871	937.6
454.244	975.34
454.618	986.64
454.992	1013.76
455.365	988.22
455.739	1001.56
456.112	1002.23
456.486	1004.72
456.859	1038.62
457.232	1061.89
457.606	1053.76
457.979	1066.41
458.352	1076.58
458.725	1079.97
459.099	1124.72
459.472	1114.77
459.845	1112.06
460.218	1118.61
460.591	1137.37
460.964	1162.91
461.337	1170.36
461.71	1203.81
462.083	1213.75
462.456	1210.82
462.829	1200.42
463.201	1223.24
463.574	1229.12
463.947	1267.76
464.32	1267.09
464.692	1305.95
465.065	1284.94
465.438	1325.16
465.81	1310.93
466.183	1305.95
466.555	1347.54
466.928	1377.14
467.3	1401.55
467.672	1413.97
468.045	1447.65
468.417	1459.17
468.789	1475.67
469.161	1506.63
469.534	1528.32
469.906	1538.94
470.278	1561.77
470.65	1575.33
471.022	1601.09
471.394	1623.46
471.766	1649
472.138	1709.79
472.51	1741.88
472.882	1736.45
473.253	1750.91
473.625	1813.06
473.997	1831.82
474.369	1865.49
474.74	1870.01
475.112	1950.01
475.484	1985.71
475.855	1996.78
476.227	2057.8
476.598	2079.72
476.97	2124.46
477.341	2152.49
477.713	2197
478.084	2256.21
478.455	2318.58
478.827	2384.12
479.198	2394.74
479.569	2436.77
479.94	2517
480.311	2581.4
480.682	2678.8
481.053	2710.66
481.424	2762.41
481.795	2844.44
482.166	2857.78
482.537	2938.45
482.908	3012.35
483.279	3051.45
483.65	3140.71
484.021	3266.13
484.391	3290.99
484.762	3317.88
485.133	3377.76
485.503	3475.39
485.874	3585.67
486.244	3654.82
486.615	3732.11
486.985	3813.69
487.356	3893.46
487.726	3969.39
488.097	4034.24
488.467	4104.3
488.837	4243.28
489.207	4291.19
489.578	4431.75
489.948	4494.57
490.318	4578.64
490.688	4621.57
491.058	4781.12
491.428	4814.56
491.798	4851.62
492.168	5049.58
492.538	5140.66
492.908	5140.66
493.278	5285.28
493.648	5288.9
494.017	5455.45
494.387	5510.36
494.757	5577.25
495.126	5710.36
495.496	5707.42
495.866	5791.94
496.235	5874.65
496.605	5975.66
496.974	5997.13
497.344	6109.9
497.713	6203.9
498.082	6270.12
498.452	6351.47
498.821	6428.31
499.19	6433.73
499.559	6564.8
499.928	6675.08
500.298	6721.63
500.667	6821.29
501.036	6830.78
501.405	6877.33
501.774	6918.69
502.143	7045.92
502.512	7049.31
502.88	7180.38
503.249	7160.49
503.618	7254.5
503.987	7339.02
504.356	7374.5
504.724	7462.63
505.093	7491.33
505.462	7579.24
505.83	7629.63
506.199	7687.48
506.567	7792.11
506.936	7803.86
507.304	7960.47
507.672	8003.86
508.041	7997.98
508.409	8094.7
508.777	8173.12
509.145	8227.35
509.514	8193
509.882	8269.84
510.25	8333.34
510.618	8438.42
510.986	8410.63
511.354	8546.89
511.722	8606.33
512.09	8687.68
512.458	8658.53
512.826	8737.17
513.193	8752.76
513.561	8834.57
513.929	8956.83
514.297	9000.89
514.664	9000.89
515.032	9027.33
515.4	9138.74
515.767	9216.71
516.135	9281.34
516.502	9194.33
516.869	9407.89
517.237	9421.45
517.604	9393.43
517.972	9466.87
518.339	9558.84
518.706	9560.43
519.073	9620.31
519.44	9651.5
519.808	9767.2
520.175	9743.47
520.542	9901.66
520.909	9946.63
521.276	9972.62
521.643	10079.06
522.009	10080.19
522.376	10073.86
522.743	10217.58
523.11	10229.79
523.477	10448.54
523.843	10347.52
524.21	10425.04
524.577	10616.67
524.943	10598.14
525.31	10624.81
525.676	10767.4
526.043	10828.87
526.409	10828.64
526.776	10921.52
527.142	10978.02
527.508	11080.84
527.874	11115.87
528.241	11201.29
528.607	11249.2
528.973	11345.24
529.339	11295.52
529.705	11452.58
530.071	11556.53
530.437	11626.36
530.803	11665.91
531.169	11708.17
531.535	11670.65
531.901	11745.91
532.267	11837.43
532.632	11831.1
532.998	11913.59
533.364	11940.48
533.73	12042.85
534.095	12098.89
534.461	12188.61
534.826	12315.61
535.192	12227.02
535.557	12340.92
535.923	12363.06
536.288	12445.77
536.653	12584.75
537.019	12502.5
537.384	12559.9
537.749	12624.75
538.114	12597.86
538.479	12751.3
538.845	12772.55
539.21	12746.56
539.575	12812.77
539.94	12839.44
540.305	12928.93
540.67	12904.07
541.034	13037.4
541.399	13083.05
541.764	13053.44
542.129	13208.69
542.494	13215.47
542.858	13342.25
543.223	13325.07
543.587	13406.2
543.952	13367.78
544.316	13456.37
544.681	13532.53
545.045	13584.05
545.41	13713.76
545.774	13705.63
546.138	13702.24
546.503	13697.49
546.867	13736.59
547.231	13949.92
547.595	13940.42
547.959	13923.7
548.324	14037.82
548.688	14044.38
549.052	14108.56
549.416	14089.12
549.779	14140.42
550.143	14180.42
550.507	14363.01
550.871	14315.56
551.235	14430.58
551.599	14472.39
551.962	14446.4
552.326	14438.26
552.689	14516.91
553.053	14589.67
553.417	14605.04
553.78	14768.88
554.143	14691.82
554.507	14775.66
554.87	14872.15
555.234	14904.01
555.597	14999.15
555.96	14950.57
556.323	15116.66
556.686	15044.12
557.05	15160.73
557.413	15178.13
557.776	15213.84
558.139	15315.3
558.502	15387.62
558.865	15357.56
559.228	15527.95
559.59	15526.82
559.953	15550.55
560.316	15706.25
560.679	15701.51
561.041	15775.4
561.404	15803.88
561.767	15900.37
562.129	15883.88
562.492	16059.92
562.854	16096.07
563.217	16017.88
563.579	16091.1
563.941	16196.86
564.304	16270.53
564.666	16407.93
565.028	16343.98
565.39	16451.09
565.753	16544.42
566.115	16544.2
566.477	16607.25
566.839	16709.17
567.201	16754.14
567.563	16768.37
567.925	16924.3
568.287	16946.22
568.648	16962.94
569.01	17144.18
569.372	17225.31
569.734	17192.32
570.095	17317.51
570.457	17385.08
570.819	17503.27
571.18	17484.96
571.542	17540.33
571.903	17617.16
572.265	17693.55
572.626	17764.05
572.987	17837.05
573.349	17892.64
573.71	17981.45
574.071	18020.77
574.432	18220.76
574.794	18279.52
575.155	18282.23
575.516	18351.83
575.877	18559.51
576.238	18602.9
576.599	18775.33
576.96	18788.43
577.32	19074.53
577.681	19064.58
578.042	19224.13
578.403	19271.58
578.763	19412.37
579.124	19636.77
579.485	19788.63
579.845	19962.86
580.206	19907.5
580.566	20136.42
580.927	20271.78
581.287	20514.04
581.648	20534.15
582.008	20800.58
582.368	20973.46
582.728	21157.64
583.089	21238.54
583.449	21457.97
583.809	21625.42
584.169	21849.59
584.529	22014.79
584.889	22374.78
585.249	22430.37
585.609	22681.89
585.969	22998.27
586.329	22961.66
586.688	23436.9
587.048	23524.35
587.408	23786.95
587.768	23984
588.127	24173.38
588.487	24395.97
588.846	24855.17
589.206	24901.94
589.565	25141.94
589.925	25492.66
590.284	25579.21
590.643	25946.21
591.003	26189.59
591.362	26505.07
591.721	26678.62
592.08	26911.38
592.44	27270.24
592.799	27608.77
593.158	27677.92
593.517	27910.68
593.876	28196.09
594.235	28330.78
594.593	28645.8
594.952	28831.78
595.311	29048.73
595.67	29393.8
596.029	29810.29
596.387	29962.83
596.746	30124.63
597.104	30469.71
597.463	30662.92
597.822	30955.8
598.18	31254.55
598.538	31382.45
598.897	31685.49
599.255	31692.05
599.613	32349.66
599.972	32267.63
600.33	32660.84
600.688	32665.81
601.046	33088.85
601.404	33326.58
601.762	33379.69
602.12	33800.92
602.478	34009.73
602.836	34220.8
603.194	34099.22
603.552	34522.03
603.91	34542.82
604.268	34996.82
604.625	34916.14
604.983	35212.18
605.341	35287.66
605.698	35679.06
606.056	35908.43
606.413	35973.74
606.771	36286.73
607.128	36334.41
607.485	36387.74
607.843	36714.06
608.2	37046.94
608.557	37136.42
608.914	37222.98
609.272	37514.95
609.629	37648.95
609.986	37927.82
610.343	37843.75
610.7	38279.22
611.057	38262.5
611.414	38463.4
611.771	38645.54
612.127	38817.51
612.484	38867.68
612.841	39059.31
613.198	39069.03
613.554	39220.66
613.911	39499.75
614.267	39767.09
614.624	39698.62
614.98	39817.94
615.337	40228.55
615.693	40158.27
616.05	40147.42
616.406	40417.24
616.762	40421.08
617.118	40523.45
617.475	40859.04
617.831	40901.75
618.187	40919.83
618.543	41096.55
618.899	41342.87
619.255	41281.17
619.611	41329.76
619.967	41562.75
620.323	41702.63
620.678	41529.08
621.034	41476.2
621.39	41764.33
621.746	41622.63
622.101	42141.49
622.457	41890.2
622.812	42140.36
623.168	42251.09
623.523	42194.6
623.879	42319.34
624.234	42136.52
624.589	42491.31
624.945	42576.51
625.3	42583.06
625.655	42573.12
626.01	42608.6
626.365	42794.13
626.72	42663.29
627.075	42644.08
627.43	42804.3
627.785	42717.75
628.14	42716.39
628.495	43006.33
628.85	42898.99
629.205	42749.84
629.559	42999.55
629.914	42931.75
630.269	42979.43
630.623	42864.18
630.978	42853.79
631.332	43061.69
631.687	42966.1
632.041	42879.55
632.396	43073.44
632.75	42932.2
633.104	43148.24
633.459	42826.44
633.813	43020.79
634.167	43041.13
634.521	42954.12
634.875	43209.03
635.229	43044.07
635.583	42875.93
635.937	42834.13
636.291	42878.42
636.645	42866.67
636.999	42846.33
637.352	43157.28
637.706	42732.21
638.06	42938.08
638.413	42799.1
638.767	42709.16
639.121	42897.4
639.474	42689.27
639.828	42731.53
640.181	42833.22
640.534	42799.78
640.888	42657.18
641.241	42512.55
641.594	42611.31
641.947	42707.13
642.301	42620.12
642.654	42552.78
643.007	42689.27
643.36	42655.15
643.713	42583.06
644.066	42775.6
644.419	42476.85
644.771	42120.47
645.124	41736.3
645.477	41715.74
645.83	41572.69
646.182	41388.06
646.535	41344.45
646.888	41387.39
647.24	41117.56
647.593	41516.42
647.945	41419.93
648.298	41073.95
648.65	41077.11
649.002	41035.08
649.355	41158.24
649.707	41219.93
650.059	41420.38
650.411	41922.74
650.763	41786.7
651.115	42162.28
651.467	41973.13
651.819	41902.63
652.171	41987.37
652.523	41926.81
652.875	41902.85
653.227	41806.81
653.578	42011.55
653.93	41947.6
654.282	41836.41
654.633	41727.26
654.985	41822.4
655.337	41822.4
655.688	41729.52
656.039	41927.26
656.391	41570.43
656.742	41687.27
657.094	41760.94
657.445	41901.72
657.796	41603.65
658.147	41722.97
658.498	41676.19
658.849	41771.78
659.2	41611.79
659.551	41548.06
659.902	41776.08
660.253	41588.29
660.604	41730.65
660.955	41434.62
661.306	41652.01
661.656	41547.83
662.007	41624.44
662.358	41568.62
662.708	41621.05
663.059	41556.42
663.409	41242.76
663.76	41577.66
664.11	41568.85
664.461	41637.1
664.811	41645.46
665.161	41577.21
665.511	41429.42
665.862	41475.97
666.212	41499.47
666.562	41654.5
666.912	41493.15
667.262	41507.38
667.612	41394.39
667.962	41493.15
668.312	41384.22
668.662	41638.45
669.011	41411.79
669.361	41446.37
669.711	41333.15
670.06	41330.21
670.41	41235.98
670.76	41214.06
671.109	41326.37
671.459	41336.31
671.808	41231.23
672.157	41426.48
672.507	41123.89
672.856	41187.84
673.205	41261.97
673.554	41237.33
673.904	41215.19
674.253	41416.76
674.602	41121.63
674.951	40725.03
675.3	40573.17
675.649	41158.24
675.998	40980.84
676.346	41198.01
676.695	41240.5
677.044	40833.95
677.393	41010.67
677.741	40905.82
678.09	40780.62
678.438	40897.23
678.787	40866.5
679.135	40811.58
679.484	40670.57
679.832	40895.87
680.181	40680.06
680.529	40631.25
680.877	40457.69
681.225	40511.03
681.573	40739.95
681.922	40456.11
682.27	40411.59
682.618	40457.47
682.966	40333.18
683.314	40316.68
683.661	40247.98
684.009	40143.8
684.357	40139.96
684.705	39934.32
685.053	40071.04
685.4	39949.46
685.748	39827.2
686.095	39814.55
686.443	39750.37
686.79	39600.54
687.138	39763.25
687.485	39758.05
687.832	39459.75
688.18	39536.59
688.527	39292.75
688.874	39256.82
689.221	39250.27
689.568	39139.54
689.915	39035.81
690.262	39024.96
690.609	39006.88
690.956	38738.87
691.303	38871.97
691.65	38721.24
691.997	38624.07
692.344	38439.67
692.69	38288.26
693.037	38332.78
693.383	38038.77
693.73	38096.4
694.077	38060.24
694.423	37966.69
694.769	37747.93
695.116	37691.21
695.462	37661.61
695.808	37526.02
696.155	37641.27
696.501	37468.85
696.847	37322.18
697.193	37196.31
697.539	37289.87
697.885	37197.44
698.231	36916.32
698.577	37026.37
698.923	36878.35
699.269	36899.82
699.614	36507.06
699.96	36625.25
700.306	36480.85
700.651	36319.27
700.997	36262.55
701.342	36239.73
701.688	36043.8
702.033	36149.78
702.379	35965.61
702.724	35893.52
703.069	35881.09
703.415	35607.65
703.76	35621.44
704.105	35522.46
704.45	35453.08
704.795	35270.71
705.14	35301.22
705.485	35164.27
705.83	34919.53
706.175	35051.73
706.52	34929.25
706.865	34931.74
707.209	34900.78
707.554	34583.5
707.899	34779.65
708.243	34590.95
708.588	34534.01
708.932	34345.54
709.277	34234.35
709.621	34426.89
709.966	34149.84
710.31	34203.62
710.654	33924.31
710.998	33902.39
711.342	34016.28
711.687	33741.71
712.031	33792.56
712.375	33535.39
712.719	33664.43
713.063	33611.32
713.407	33694.93
713.75	33522.28
714.094	33353.7
714.438	33343.76
714.782	33231.67
715.125	33106.47
715.469	33223.76
715.812	33010.43
716.156	32914.16
716.499	32958.46
716.843	32895.41
717.186	32737.67
717.53	32765.24
717.873	32862.86
718.216	32727.28
718.559	32543.55
718.902	32337.91
719.246	32560.05
719.589	32394.18
719.932	32271.69
720.275	32339.49
720.617	32320.05
720.96	32138.82
721.303	32141.3
721.646	32169.1
721.989	31930.91
722.331	32042.1
722.674	31902.44
723.016	32047.74
723.359	31877.81
723.701	31995.32
724.044	31756
724.386	31615.21
724.729	31754.87
725.071	31597.59
725.413	31523.24
725.755	31619.51
726.097	31517.14
726.439	31224.72
726.782	31185.17
727.124	31514.88
727.465	31340.87
727.807	31163.02
728.149	31091.16
728.491	31138.16
728.833	31292.96
729.175	30993.54
729.516	31034.21
729.858	30873.54
730.199	30987.21
730.541	30820.66
730.882	30852.75
731.224	30862.24
731.565	30743.82
731.906	30623.38
732.248	30543.38
732.589	30555.35
732.93	30447.34
733.271	30435.58
733.612	30419.09
733.953	30580.21
734.294	30318.75
734.635	30377.05
734.976	30332.76
735.317	30162.82
735.658	30134.57
735.999	30182.94
736.339	30184.74
736.68	30315.14
737.021	29997.4
737.361	29890.74
737.702	30122.6
738.042	29933.9
738.383	29917.41
738.723	29831.76
739.063	29756.51
739.404	29857.52
739.744	29721.03
740.084	29633.57
740.424	29595.83
740.764	29481.48
741.104	29603.52
741.444	29354.71
741.784	29446.68
742.124	29532.78
742.464	29373.92
742.804	29289.17
743.143	29282.17
743.483	29348.61
743.823	29217.99
744.162	29113.58
744.502	29145.22
744.841	29103.19
745.181	29172.11
745.52	29007.82
745.86	29062.29
746.199	29112.68
746.538	29122.62
746.877	29078.78
747.216	28968.28
747.556	28791.11
747.895	28729.19
748.234	28739.13
748.573	28679.7
748.911	28667.95
749.25	28590.43
749.589	28491.23
749.928	28457.78
750.267	28520.61
750.605	28405.81
750.944	28371.23
751.283	28373.72
751.621	28340.05
751.96	28194.06
752.298	28221.63
752.636	28264.34
752.975	28017.34
753.313	27995.87
753.651	28027.51
753.989	27992.03
754.327	27740.06
754.666	27772.6
755.004	27834.97
755.342	27836.33
755.679	27802.21
756.017	27614.42
756.355	27629.33
756.693	27549.11
757.031	27572.16
757.368	27400.41
757.706	27322.45
758.044	27146.86
758.381	27247.87
758.719	27276.12
759.056	27223.01
759.394	27030.25
759.731	26812.18
760.068	26865.06
760.405	26764.95
760.743	26671.16
761.08	26759.52
761.417	26623.03
761.754	26563.37
762.091	26506.87
762.428	26457.84
762.765	26173.78
763.102	26277.05
763.438	26211.74
763.775	26099.65
764.112	26121.35
764.449	26083.61
764.785	25890.17
765.122	25728.82
765.458	25695.6
765.795	25631.64
766.131	25642.94
766.467	25486.56
766.804	25328.83
767.14	25271.43
767.476	25359.33
767.812	25182.61
768.148	25328.6
768.485	25020.13
768.821	24865.33
769.157	24903.53
769.492	24893.81
769.828	24825.79
770.164	24614.49
770.5	24604.32
770.836	24625.57
771.171	24426.48
771.507	24339.02
771.842	24159.59
772.178	24202.53
772.513	24036.2
772.849	24026.26
773.184	23918.02
773.519	23979.48
773.855	23733.84
774.19	23654.52
774.525	23672.15
774.86	23621.75
775.195	23515.54
775.53	23407.52
775.865	23266.96
776.2	23160.07
776.535	23031.94
776.87	23010.24
777.205	22996.68
777.539	22752.62
777.874	22762.57
778.209	22573.42
778.543	22527.77
778.878	22473.53
779.212	22424.72
779.547	22426.75
779.881	22392.63
780.215	22174.33
780.55	22273.09
780.884	22196.25
781.218	22098.4
781.552	22016.6
781.886	21885.07
782.22	21843.04
782.554	21694.12
782.888	21452.32
783.222	21355.37
783.556	21350.63
783.889	21320.12
784.223	21151.53
784.557	21146.79
784.89	21124.87
785.224	21018.66
785.557	20867.02
785.891	20839
786.224	20807.36
786.558	20794.93
786.891	20567.82
787.224	20563.98
787.557	20518.33
787.891	20392.23
788.224	20383.42
788.557	20433.36
788.89	20349.52
789.223	20286.25
789.556	20129.19
789.888	20061.17
790.221	20059.81
790.554	19847.61
790.887	19840.38
791.219	19747.05
791.552	19756.77
791.884	19676.32
792.217	19585.47
792.549	19501.86
792.882	19421.41
793.214	19154.07
793.546	19246.73
793.879	19095.77
794.211	19094.19
794.543	19084.47
794.875	18998.82
795.207	19039.27
795.539	18880.18
795.871	18993.4
796.203	18697.59
796.535	18692.39
796.867	18647.19
797.198	18560.42
797.53	18556.8
797.862	18416.69
798.193	18439.97
798.525	18269.8
798.856	18413.08
799.188	18224.61
799.519	18145.29
799.85	18075.91
800.182	18028
800.513	18034.55
800.844	17880.43
801.175	18010.15
801.506	17893.09
801.837	17830.49
802.168	17776.48
802.499	17729.48
802.83	17598.18
803.161	17587.33
803.491	17525.87
803.822	17601.57
804.153	17437.73
804.483	17315.02
804.814	17328.36
805.145	17280.45
805.475	17274.35
805.805	17165.2
806.136	17174.69
806.466	17085.88
806.796	17089.04
807.126	17005.2
807.457	16903.06
807.787	16842.49
808.117	16910.06
808.447	16773.57
808.777	16805.89
809.107	16724.31
809.436	16644.08
809.766	16695.61
810.096	16487.7
810.426	16517.76
810.755	16464.43
811.085	16429.62
811.414	16447.03
811.744	16267.82
812.073	16293.13
812.403	16251.78
812.732	16259.91
813.061	16139.69
813.39	16007.26
813.719	16032.12
814.049	16099.24
814.378	16016.75
814.707	15901.28
815.036	15924.33
815.365	15780.15
815.693	15738.57
816.022	15716.2
816.351	15619.93
816.68	15575.41
817.008	15575.64
817.337	15514.39
817.665	15471.46
817.994	15520.72
818.322	15477.79
818.651	15408.63
818.979	15335.64
819.307	15393.04
819.636	15391.23
819.964	15335.42
820.292	15250.9
820.62	15252.48
820.948	15200.05
821.276	15293.38
821.604	15206.83
821.932	15217
822.259	15184.69
822.587	15190.79
822.915	15190.11
823.243	15144.23
823.57	15132.48
823.898	15231.69
824.225	15087.06
824.553	15070.11
824.88	15075.76
825.207	15245.93
825.535	15168.87
825.862	15134.07
826.189	15094.97
826.516	15191.24
826.843	15144.23
827.17	15085.93
827.497	15050.23
827.824	15185.14
828.151	15197.11
828.478	15100.62
828.805	15206.38
829.131	15075.99
829.458	15103.56
829.785	15035.76
830.111	15014.97
830.438	15155.99
830.764	15117.79
831.09	15121.86
831.417	14994.18
831.743	15093.39
832.069	15059.49
832.395	15013.16
832.722	15099.04
833.048	15074.86
833.374	14988.53
833.7	14912.38
834.026	14993.28
834.351	14965.48
834.677	14927.97
835.003	14926.39
835.329	15009.77
835.654	14974.3
835.98	14802.77
836.306	14848.42
836.631	14740.18
836.956	14854.98
837.282	14784.24
837.607	14761.19
837.932	14711.25
838.258	14800.29
838.583	14699.27
838.908	14635.1
839.233	14663.57
839.558	14596.68
839.883	14595.55
840.208	14451.15
840.533	14475.33
840.858	14504.03
841.182	14474.42
841.507	14487.3
841.832	14366.4
842.156	14401.88
842.481	14397.36
842.805	14374.99
843.13	14221.77
843.454	14296.57
843.778	14199.4
844.103	14183.36
844.427	14076.47
844.751	14100.19
845.075	14133.41
845.399	14070.36
845.723	13939.52
846.047	13971.38
846.371	13868.34
846.695	13812.52
847.019	13742.24
847.343	13734.33
847.666	13609.36
847.99	13574.11
848.313	13590.38
848.637	13421.79
848.96	13496.37
849.284	13511.28
849.607	13318.52
849.931	13303.6
850.254	13170.95
850.577	13123.27
850.9	13095.02
851.223	13058.64
851.546	13062.71
851.869	12884.86
852.192	12923.28
852.515	12816.61
852.838	12734.35
853.161	12762.38
853.483	12632.89
853.806	12610.74
854.129	12697.52
854.451	12582.95
854.774	12560.35
855.096	12520.35
855.419	12475.38
855.741	12476.96
856.063	12403.29
856.385	12385.21
856.708	12271.09
857.03	12281.48
857.352	12278.1
857.674	12229.28
857.996	12119.68
858.318	12102.96
858.64	12108.16
858.961	12054.37
859.283	11996.29
859.605	11997.65
859.926	12015.05
860.248	11971.66
860.57	11875.17
860.891	11886.92
861.212	11875.62
861.534	11742.74
861.855	11730.54
862.176	11769.63
862.498	11759.69
862.819	11677.21
863.14	11676.08
863.461	11651.9
863.782	11582.29
864.103	11706.13
864.424	11629.98
864.745	11665.91
865.065	11481.28
865.386	11550.66
865.707	11508.4
866.027	11484.67
866.348	11499.36
866.668	11498.68
866.989	11431.11
867.309	11365.35
867.63	11422.52
867.95	11346.82
868.27	11245.58
868.59	11381.85
868.91	11220.5
869.23	11269.99
869.55	11200.84
869.87	11281.96
870.19	11256.65
870.51	11249.65
870.83	11300.04
871.15	11170.1
871.469	11167.39
871.789	11178.92
872.109	11144.79
872.428	10999.71
872.748	11071.57
873.067	11009.65
873.386	11067.51
873.706	11040.84
874.025	10981.63
874.344	10960.84
874.663	11046.26
874.982	10959.03
875.301	10980.5
875.62	10946.15
875.939	10843.78
876.258	10875.65
876.577	10798.59
876.896	10845.82
877.214	10796.78
877.533	10735.54
877.852	10757.23
878.17	10767.85
878.489	10784.8
878.807	10812.37
879.125	10684.01
879.444	10744.58
879.762	10618.7
880.08	10642.43
880.398	10662.77
880.716	10689.44
881.034	10546.62
881.352	10582.77
881.67	10481.98
881.988	10581.42
882.306	10585.71
882.624	10489.89
882.941	10474.75
883.259	10365.38
883.577	10439.27
883.894	10371.03
884.212	10327.64
884.529	10328.54
884.846	10344.13
885.164	10359.95
885.481	10189.56
885.798	10260.97
886.115	10220.07
886.432	10201.77
886.75	10135.1
887.067	10161.99
887.383	10089.68
887.7	10140.52
888.017	10068.89
888.334	10133.97
888.651	10053.52
888.967	10033.18
889.284	9884.71
889.6	10004.93
889.917	9864.15
890.233	9856.69
890.55	9850.59
890.866	9783.92
891.182	9806.52
891.498	9785.96
891.815	9750.93
892.131	9738.73
892.447	9685.4
892.763	9629.13
893.079	9623.48
893.395	9591.61
893.71	9567.88
894.026	9582.35
894.342	9511.16
894.657	9426.64
894.973	9479.98
895.289	9395.01
895.604	9455.8
895.92	9306.42
896.235	9322.92
896.55	9302.58
896.865	9290.6
897.181	9258.06
897.496	9289.93
897.811	9143.04
898.126	9160.89
898.441	9145.07
898.756	9110.27
899.071	9011.74
899.386	8989.37
899.7	8978.07
900.015	8897.39
900.33	8873.21
900.644	8811.29
900.959	8891.52
901.273	8861.69
901.588	8799.54
901.902	8709.6
902.216	8759.54
902.531	8778.3
902.845	8729.71
903.159	8651.75
903.473	8579.21
903.787	8581.92
904.101	8545.54
904.415	8441.81
904.729	8430.74
905.042	8427.8
905.356	8424.86
905.67	8433
905.984	8400.68
906.297	8302.83
906.611	8291.08
906.924	8246.56
907.237	8233.46
907.551	8225.32
907.864	8153.91
908.177	8132.89
908.491	8173.8
908.804	8046.12
909.117	8047.7
909.43	8001.15
909.743	7953.92
910.056	7917.31
910.368	7955.27
910.681	7847.03
910.994	7891.32
911.307	7797.31
911.619	7760.02
911.932	7759.12
912.244	7748.27
912.557	7714.6
912.869	7651.78
913.181	7612.46
913.494	7622.85
913.806	7621.04
914.118	7536.75
914.43	7442.74
914.742	7505.34
915.054	7396.19
915.366	7381.5
915.678	7441.84
915.99	7395.74
916.302	7325.46
916.613	7272.13
916.925	7267.38
917.236	7208.17
917.548	7247.95
917.859	7147.61
918.171	7146.25
918.482	7042.3
918.794	7089.31
919.105	6977.67
919.416	7051.34
919.727	7017.89
920.038	6933.83
920.349	6938.12
920.66	6843.21
920.971	6829.88
921.282	6880.05
921.593	6830.1
921.903	6790.33
922.214	6759.37
922.525	6742.2
922.835	6711.24
923.146	6687.28
923.456	6648.64
923.767	6610.9
924.077	6578.13
924.387	6528.87
924.697	6535.42
925.008	6497.91
925.318	6431.47
925.628	6468.53
925.938	6391.24
926.248	6374.07
926.558	6313.51
926.867	6285.03
927.177	6275.32
927.487	6287.52
927.796	6181.08
928.106	6228.76
928.416	6175.2
928.725	6171.36
929.034	6132.72
929.344	6145.6
929.653	6170.69
929.962	6041.65
930.271	6006.17
930.581	6017.92
930.89	5937.7
931.199	5966.4
931.508	5932.5
931.817	5913.74
932.125	5902.44
932.434	5927.08
932.743	5835.33
933.051	5831.26
933.36	5788.77
933.669	5753.97
933.977	5760.07
934.286	5727.98
934.594	5653.18
934.902	5675.78
935.21	5634.88
935.519	5644.37
935.827	5571.6
936.135	5604.6
936.443	5569.8
936.751	5502.91
937.059	5527.76
937.367	5447.99
937.674	5481.44
937.982	5412.74
938.29	5439.86
938.597	5397.82
938.905	5347.88
939.213	5352.63
939.52	5312.18
939.827	5327.54
940.135	5294.32
940.442	5215.23
940.749	5225.4
941.056	5228.56
941.363	5208.45
941.67	5155.34
941.977	5159.19
942.284	5089.81
942.591	5053.2
942.898	5068.79
943.205	5094.56
943.511	4985.63
943.818	5038.51
944.125	4953.32
944.431	4935.24
944.738	4961.45
945.044	4908.8
945.35	4896.14
945.657	4862.02
945.963	4846.88
946.269	4840.78
946.575	4833.77
946.881	4754.23
947.187	4764.39
947.493	4762.81
947.799	4760.78
948.105	4706.32
948.41	4704.06
948.716	4709.25
949.022	4652.31
949.327	4672.42
949.633	4607.79
949.938	4573.21
950.244	4554.68
950.549	4512.88
950.854	4552.42
951.16	4548.81
951.465	4493.67
951.77	4441.69
952.075	4460.22
952.38	4438.3
952.685	4421.58
952.99	4334.12
953.294	4392.43
953.599	4353.33
953.904	4356.95
954.209	4304.97
954.513	4295.25
954.818	4300.68
955.122	4246.67
955.426	4254.35
955.731	4264.52
956.035	4153.56
956.339	4194.47
956.643	4266.1
956.948	4151.08
957.252	4114.24
957.556	4136.84
957.86	4097.97
958.163	4081.02
958.467	4044.64
958.771	4036.5
959.075	4017.3
959.378	3944.08
959.682	4029.27
959.985	3988.37
960.289	3975.04
960.592	3944.08
960.896	3957.64
961.199	3917.41
961.502	3875.83
961.805	3857.53
962.108	3855.49
962.411	3820.92
962.714	3806.91
963.017	3784.99
963.32	3802.61
963.623	3759.22
963.926	3808.49
964.228	3755.83
964.531	3759.22
964.833	3733.01
965.136	3609.4
965.438	3693.91
965.741	3634.71
966.043	3635.38
966.345	3585.89
966.648	3608.04
966.95	3605.1
967.252	3540.47
967.554	3566.01
967.856	3562.17
968.158	3552
968.46	3517.87
968.761	3508.61
969.063	3468.61
969.365	3476.52
969.666	3412.34
969.968	3456.86
970.269	3400.81
970.571	3410.98
970.872	3365.56
971.174	3422.28
971.475	3346.35
971.776	3355.84
972.077	3321.72
972.378	3346.58
972.679	3322.62
972.98	3291.21
973.281	3270.42
973.582	3315.62
973.883	3282.4
974.183	3259.12
974.484	3227.94
974.785	3215.96
975.085	3196.07
975.386	3187.03
975.686	3182.52
975.986	3126.92
976.287	3118.56
976.587	3085.57
976.887	3093.93
977.187	3114.04
977.487	3108.62
977.787	3080.37
978.087	3057.09
978.387	3028.39
978.687	3055.51
978.987	3007.15
979.286	3029.3
979.586	3005.8
979.885	2989.07
980.185	2938.45
980.484	2946.14
980.784	2937.32
981.083	2938.68
981.382	2912.92
981.682	2913.14
981.981	2863.88
982.28	2854.16
982.579	2848.74
982.878	2860.26
983.177	2834.05
983.475	2830.66
983.774	2797.21
984.073	2773.26
984.372	2770.1
984.67	2770.1
984.969	2745.92
985.267	2750.21
985.566	2724.22
985.864	2715.41
986.162	2746.59
986.461	2693.71
986.759	2698.69
987.057	2679.25
987.355	2649.65
987.653	2629.76
987.951	2594.96
988.249	2648.29
988.547	2600.38
988.844	2585.24
989.142	2619.37
989.44	2573.49
989.737	2579.59
990.035	2543.21
990.332	2511.8
990.63	2534.85
990.927	2536.88
991.224	2517.45
991.521	2519.48
991.819	2464.12
992.116	2465.25
992.413	2453.04
992.71	2435.19
993.006	2477.9
993.303	2405.36
993.6	2430.67
993.897	2426.38
994.193	2379.37
994.49	2377.56
994.787	2366.04
995.083	2365.14
995.379	2354.97
995.676	2344.35
995.972	2319.26
996.268	2266.83
996.565	2284.91
996.861	2294.4
997.157	2276.55
997.453	2265.7
997.749	2277.68
998.044	2235.42
998.34	2232.71
998.636	2205.37
998.932	2217.79
999.227	2214.18
999.523	2215.08
999.818	2171.47
1000.114	2177.12
1000.409	2155.42
1000.704	2150.68
1001	2146.16
1001.295	2106.39
1001.59	2124.46
1001.885	2136.44
1002.18	2075.88
1002.475	2063
1002.77	2060.51
1003.065	2046.27
1003.359	2009.89
1003.654	2045.82
1003.949	2031.36
1004.243	2022.09
1004.538	2008.99
1004.832	1992.72
1005.127	1994.98
1005.421	1946.62
1005.715	1989.1
1006.009	1956.78
1006.304	1943.68
1006.598	1879.27
1006.892	1913.62
1007.186	1924.47
1007.48	1909.78
1007.773	1881.31
1008.067	1863.91
1008.361	1873.62
1008.655	1880.4
1008.948	1850.8
1009.242	1836.79
1009.535	1853.28
1009.829	1817.13
1010.122	1777.35
1010.415	1812.83
1010.708	1799.27
1011.001	1766.06
1011.295	1758.37
1011.588	1761.31
1011.881	1761.31
1012.173	1735.1
1012.466	1699.16
1012.759	1709.11
1013.052	1701.65
1013.344	1693.74
1013.637	1691.03
1013.93	1659.84
1014.222	1658.49
1014.514	1641.99
1014.807	1626.17
1015.099	1632.95
1015.391	1617.13
1015.683	1622.33
1015.976	1579.17
1016.268	1585.72
1016.56	1559.51
1016.851	1570.35
1017.143	1533.29
1017.435	1558.83
1017.727	1546.4
1018.018	1536.68
1018.31	1533.74
1018.602	1532.39
1018.893	1530.13
1019.185	1488.1
1019.476	1485.61
1019.767	1485.61
1020.058	1463.92
1020.35	1462.33
1020.641	1466.63
1020.932	1462.79
1021.223	1442.45
1021.514	1438.83
1021.804	1371.72
1022.095	1391.83
1022.386	1397.03
1022.677	1408.55
1022.967	1402
1023.258	1374.2
1023.548	1387.08
1023.839	1347.54
1024.129	1350.92
1024.419	1327.65
1024.709	1339.85
1025	1287.2
1025.29	1325.84
1025.58	1334.2
1025.87	1277.48
1026.16	1290.59
1026.449	1276.58
1026.739	1265.73
1027.029	1245.62
1027.319	1263.92
1027.608	1252.4
1027.898	1256.69
1028.187	1247.2
1028.477	1232.96
1028.766	1219.18
1029.055	1178.05
1029.344	1207.43
1029.634	1184.83
1029.923	1156.81
1030.212	1178.05
1030.501	1144.6
1030.79	1163.59
1031.078	1148.9
1031.367	1120.42
1031.656	1130.37
1031.945	1155.9
1032.233	1123.81
1032.522	1135.79
1032.81	1105.28
1033.099	1097.37
1033.387	1104.38
1033.675	1088.33
1033.963	1092.17
1034.251	1072.29
1034.54	1056.7
1034.828	1040.42
1035.116	1072.51
1035.403	1066.19
1035.691	1033.87
1035.979	1030.93
1036.267	1032.74
1036.554	1035.9
1036.842	1008.34
1037.129	1025.06
1037.417	1006.75
1037.704	998.17
1037.992	982.8
1038.279	980.99
1038.566	969.24
1038.853	969.24
1039.14	969.24
