Data from hue_190_FLMS001491_00080.txt Node
Date: Tue Feb 07 16:45:46 GMT 2017
User: dcchb
Spectrometer: FLMS00149
Trigger mode: 0
Integration Time (sec): 2.000000E-2
Scans to average: 10
Electric dark correction enabled: true
Nonlinearity correction enabled: false
Boxcar width: 0
XAxis mode: Wavelengths
Number of Pixels in Spectrum: 2048
>>>>>Begin Spectral Data<<<<<
341.393	-16.95
341.776	-16.95
342.16	-16.95
342.543	-56.27
342.927	-63.5
343.31	-75.48
343.693	-73.22
344.077	-56.04
344.46	-59.89
344.843	-44.97
345.226	-36.38
345.61	-23.5
345.993	-23.95
346.376	-18.53
346.759	4.29
347.142	27.57
347.525	53.78
347.908	69.15
348.291	64.86
348.674	95.36
349.057	96.95
349.44	115.48
349.823	135.59
350.206	162.71
350.588	186.66
350.971	207
351.354	239.32
351.737	227.34
352.119	244.29
352.502	260.11
352.884	259.2
353.267	274.57
353.65	282.7
354.032	297.62
354.414	318.86
354.797	306.66
355.179	331.97
355.562	330.39
355.944	322.25
356.326	332.87
356.709	329.71
357.091	328.58
357.473	331.97
357.855	338.97
358.238	334.91
358.62	311.18
359.002	341.01
359.384	327.67
359.766	341.01
360.148	337.17
360.53	320.22
360.912	323.16
361.294	329.26
361.676	323.16
362.057	336.71
362.439	341.23
362.821	310.05
363.203	322.7
363.584	323.16
363.966	313.89
364.348	310.27
364.729	320.9
365.111	300.78
365.493	335.36
365.874	311.4
366.256	289.94
366.637	313.66
367.019	303.72
367.4	314.34
367.781	340.33
368.163	318.64
368.544	304.4
368.925	301.24
369.306	313.44
369.688	303.49
370.069	322.03
370.45	313.66
370.831	312.99
371.212	316.38
371.593	311.4
371.974	299.2
372.355	324.74
372.736	326.55
373.117	299.65
373.498	305.08
373.879	313.44
374.26	306.43
374.641	309.6
375.021	320.9
375.402	332.19
375.783	295.13
376.163	316.83
376.544	322.7
376.925	311.86
377.305	339.2
377.686	310.73
378.066	313.21
378.447	325.87
378.827	331.52
379.208	324.06
379.588	329.26
379.968	325.87
380.349	327.45
380.729	336.04
381.109	331.97
381.489	328.58
381.87	345.98
382.25	358.41
382.63	327.68
383.01	340.33
383.39	326.55
383.77	330.39
384.15	331.74
384.53	334
384.91	351.63
385.29	343.04
385.67	333.78
386.049	359.99
386.429	352.53
386.809	324.29
387.189	345.75
387.568	350.73
387.948	338.75
388.328	338.3
388.707	338.3
389.087	343.49
389.466	342.36
389.846	350.95
390.225	343.49
390.605	352.76
390.984	374.23
391.363	359.54
391.743	371.29
392.122	360.67
392.501	364.28
392.881	383.94
393.26	354.79
393.639	376.04
394.018	362.25
394.397	353.66
394.776	357.05
395.155	348.47
395.534	349.14
395.913	385.53
396.292	393.66
396.671	388.92
397.05	378.07
397.429	380.33
397.808	375.13
398.186	373.78
398.565	398.18
398.944	394.57
399.323	388.46
399.701	409.71
400.08	390.05
400.458	398.18
400.837	407.45
401.215	397.28
401.594	417.62
401.972	395.02
402.351	393.66
402.729	427.33
403.107	422.59
403.486	433.21
403.864	398.63
404.242	411.29
404.62	432.98
404.999	425.75
405.377	442.7
405.755	428.24
406.133	454.45
406.511	428.24
406.889	442.7
407.267	445.64
407.645	444.51
408.023	442.7
408.401	457.84
408.779	452.19
409.156	475.02
409.534	482.25
409.912	476.82
410.29	477.05
410.667	528.8
411.045	499.2
411.422	509.37
411.8	515.01
412.178	529.03
412.555	527.44
412.933	554.79
413.31	547.33
413.687	570.61
414.065	583.26
414.442	569.7
414.819	557.73
415.197	585.75
415.574	581.91
415.951	609.7
416.328	620.55
416.705	637.27
417.082	633.2
417.46	644.73
417.837	661.68
418.214	665.52
418.591	665.52
418.967	654.9
419.344	685.41
419.721	671.39
420.098	684.95
420.475	714.11
420.852	706.42
421.228	727.21
421.605	749.13
421.982	734.67
422.358	761.11
422.735	786.65
423.111	770.83
423.488	792.97
423.864	808.57
424.241	824.84
424.617	813.99
424.994	857.15
425.37	851.05
425.746	885.17
426.123	903.03
426.499	883.82
426.875	913.42
427.251	930.15
427.627	924.72
428.003	962.23
428.379	969.69
428.756	940.77
429.132	964.72
429.507	968.34
429.883	997.26
430.259	1017.15
430.635	1031.39
431.011	1031.84
431.387	1031.84
431.763	1065.96
432.138	1061.89
432.514	1084.94
432.89	1089.91
433.265	1145.05
433.641	1141.66
434.016	1174.88
434.392	1201.1
434.767	1228.22
435.143	1227.31
435.518	1234.32
435.894	1269.8
436.269	1296.24
436.644	1311.83
437.02	1326.29
437.395	1349.34
437.77	1361.32
438.145	1380.75
438.52	1399.29
438.895	1426.63
439.271	1460.53
439.646	1483.58
440.021	1501.2
440.395	1493.07
440.77	1505.72
441.145	1548.43
441.52	1547.98
441.895	1567.19
442.27	1629.34
442.645	1617.13
443.019	1624.14
443.394	1637.02
443.769	1686.96
444.143	1670.46
444.518	1692.38
444.892	1714.53
445.267	1717.47
445.641	1756.11
446.016	1771.93
446.39	1770.12
446.764	1794.98
447.139	1761.54
447.513	1838.82
447.887	1837.92
448.262	1844.47
448.636	1855.32
449.01	1895.54
449.384	1921.08
449.758	1892.15
450.132	1924.02
450.506	1969.67
450.88	1930.34
451.254	1966.5
451.628	1959.72
452.002	1995.65
452.376	2037.69
452.75	2045.37
453.123	2088.08
453.497	2108.87
453.871	2146.38
454.244	2183.9
454.618	2194.52
454.992	2210.56
455.365	2220.96
455.739	2261.18
456.112	2310.9
456.486	2333.72
456.859	2274.97
457.232	2373.5
457.606	2348.64
457.979	2389.32
458.352	2446.94
458.725	2475.19
459.099	2479.26
459.472	2546.37
459.845	2589.31
460.218	2590.89
460.591	2641.51
460.964	2606.26
461.337	2682.64
461.71	2714.28
462.083	2747.27
462.456	2756.54
462.829	2771.23
463.201	2821.62
463.574	2861.85
463.947	2853.94
464.32	2969.41
464.692	2995.85
465.065	3028.39
465.438	3083.53
465.81	3065.23
466.183	3145.23
466.555	3189.29
466.928	3191.78
467.3	3228.39
467.672	3287.6
468.045	3352
468.417	3383.41
468.789	3385.45
469.161	3431.1
469.534	3522.62
469.906	3561.94
470.278	3551.09
470.65	3647.14
471.022	3729.62
471.394	3821.14
471.766	3812.78
472.138	3892.78
472.51	3991.31
472.882	4043.06
473.253	4073.11
473.625	4086.45
473.997	4233.34
474.369	4225.2
474.74	4286.89
475.112	4360.56
475.484	4465.87
475.855	4504.97
476.227	4546.1
476.598	4692.76
476.97	4722.81
477.341	4851.4
477.713	4930.94
478.084	4929.36
478.455	5123.26
478.827	5148.11
479.198	5252.74
479.569	5271.05
479.94	5436.02
480.311	5490.03
480.682	5661.09
481.053	5699.51
481.424	5828.1
481.795	5859.96
482.166	6001.2
482.537	6082.33
482.908	6157.8
483.279	6279.38
483.65	6393.28
484.021	6463.78
484.391	6570.45
484.762	6594.18
485.133	6655.19
485.503	6777
485.874	6933.6
486.244	7013.15
486.615	7139.93
486.985	7167.95
487.356	7330.2
487.726	7365.68
488.097	7540.59
488.467	7562.74
488.837	7753.92
489.207	7844.77
489.578	7939.23
489.948	8002.95
490.318	8127.92
490.688	8115.27
491.058	8251.53
491.428	8288.82
491.798	8387.58
492.168	8586.44
492.538	8602.71
492.908	8657.17
493.278	8814.01
493.648	8777.62
494.017	8943.49
494.387	9022.14
494.757	9065.07
495.126	9114.56
495.496	9173.32
495.866	9293.54
496.235	9306.2
496.605	9356.36
496.974	9385.97
497.344	9471.39
497.713	9534.21
498.082	9525.63
498.452	9684.04
498.821	9687.65
499.19	9652.63
499.559	9737.6
499.928	9891.94
500.298	9897.59
500.667	9957.48
501.036	9873.86
501.405	10034.76
501.774	9975.78
502.143	10089.45
502.512	10109.79
502.88	10106.85
503.249	10147.3
503.618	10173.97
503.987	10203.35
504.356	10245.61
504.724	10256.91
505.093	10291.03
505.462	10318.15
505.83	10335.32
506.199	10466.17
506.567	10472.72
506.936	10444.25
507.304	10550.68
507.672	10585.26
508.041	10560.63
508.409	10675.88
508.777	10673.39
509.145	10709.77
509.514	10695.99
509.882	10759.72
510.25	10729.66
510.618	10726.05
510.986	10818.25
511.354	10842.65
511.722	10917.68
512.09	10886.72
512.458	10847.4
512.826	10910.67
513.193	10843.1
513.561	10995.64
513.929	10974.85
514.297	10969.43
514.664	11031.57
515.032	10990.45
515.4	11062.76
515.767	11088.97
516.135	11060.73
516.502	10972.37
516.869	11101.18
517.237	11079.93
517.604	10997.45
517.972	11044.68
518.339	11079.93
518.706	11131.23
519.073	11124.91
519.44	11146.37
519.808	11233.6
520.175	11177.79
520.542	11204.9
520.909	11217.56
521.276	11128.52
521.643	11203.32
522.009	11140.05
522.376	11208.97
522.743	11209.42
523.11	11211.23
523.477	11301.17
523.843	11240.83
524.21	11328.74
524.577	11366.93
524.943	11258.01
525.31	11275.41
525.676	11303.43
526.043	11321.28
526.409	11242.19
526.776	11274.28
527.142	11416.42
527.508	11284.22
527.874	11331.45
528.241	11297.33
528.607	11265.92
528.973	11307.95
529.339	11220.5
529.705	11262.75
530.071	11319.25
530.437	11259.36
530.803	11208.52
531.169	11190.44
531.535	11124.68
531.901	11109.09
532.267	11097.56
532.632	11053.95
532.998	11069.99
533.364	11100.73
533.73	10968.98
534.095	11012.14
534.461	10970.33
534.826	10954.06
535.192	10811.24
535.557	10934.4
535.923	10835.2
536.288	10781.86
536.653	10782.32
537.019	10665.93
537.384	10732.37
537.749	10589.1
538.114	10581.87
538.479	10543.45
538.845	10446.28
539.21	10395.66
539.575	10369.44
539.94	10392.04
540.305	10269.79
540.67	10257.13
541.034	10206.51
541.399	10193.18
541.764	10190.92
542.129	10142.56
542.494	10019.85
542.858	9997.48
543.223	9914.54
543.587	9884.26
543.952	9916.12
544.316	9818.5
544.681	9764.49
545.045	9730.14
545.41	9708.9
545.774	9665.06
546.138	9639.52
546.503	9631.39
546.867	9529.69
547.231	9545.06
547.595	9419.41
547.959	9381.9
548.324	9289.47
548.688	9263.26
549.052	9322.92
549.416	9248.34
549.779	9184.62
550.143	9075.69
550.507	9137.61
550.871	9119.31
551.235	8950.05
551.599	9020.78
551.962	8961.12
552.326	8931.06
552.689	8861.24
553.053	8823.04
553.417	8752.99
553.78	8828.24
554.143	8678.87
554.507	8710.05
554.87	8701.47
555.234	8709.38
555.597	8669.6
555.96	8530.85
556.323	8502.6
556.686	8467.35
557.05	8488.59
557.413	8475.26
557.776	8439.1
558.139	8371.76
558.502	8367.69
558.865	8328.59
559.228	8305.32
559.59	8278.88
559.953	8246.56
560.316	8359.1
560.679	8239.33
561.041	8216.51
561.404	8233
561.767	8262.38
562.129	8239.78
562.492	8265.09
562.854	8170.41
563.217	8208.37
563.579	8172.21
563.941	8141.48
564.304	8178.09
564.666	8283.4
565.028	8183.06
565.39	8186.23
565.753	8157.3
566.115	8146.45
566.477	8113.68
566.839	8146.9
567.201	8145.77
567.563	8126.11
567.925	8167.24
568.287	8144.42
568.648	8104.42
569.01	8132.89
569.372	8198.2
569.734	8154.36
570.095	8168.15
570.457	8154.81
570.819	8202.5
571.18	8140.12
571.542	8126.57
571.903	8121.82
572.265	8113.68
572.626	8170.63
572.987	8148.03
573.349	8154.36
573.71	8122.72
574.071	8099.22
574.432	8131.54
574.794	8142.16
575.155	8150.97
575.516	8060.13
575.877	8173.8
576.238	8096.96
576.599	8115.94
576.96	8124.98
577.32	8091.99
577.681	8097.64
578.042	8108.26
578.403	8141.71
578.763	8138.77
579.124	8128.15
579.485	8088.6
579.845	8134.25
580.206	8100.8
580.566	8015.38
580.927	8053.57
581.287	8143.06
581.648	8085.66
582.008	8062.61
582.368	7997.76
582.728	8000.69
583.089	7980.13
583.449	7995.27
583.809	8064.42
584.169	8078.66
584.529	7981.94
584.889	8066.68
585.249	7967.25
585.609	7939.9
585.969	7961.82
586.329	7930.19
586.688	7965.44
587.048	7909.85
587.408	7953.92
587.768	7957.3
588.127	7912.79
588.487	7903.07
588.846	7910.98
589.206	7849.06
589.565	7867.14
589.925	7875.5
590.284	7840.47
590.643	7835.27
591.003	7917.31
591.362	7921.83
591.721	7880.02
592.08	7852
592.44	7841.83
592.799	7805.9
593.158	7821.04
593.517	7812.68
593.876	7807.25
594.235	7787.82
594.593	7744.2
594.952	7781.04
595.311	7723.86
595.67	7747.59
596.029	7788.5
596.387	7787.59
596.746	7809.29
597.104	7721.83
597.463	7703.53
597.822	7780.81
598.18	7724.54
598.538	7701.27
598.897	7705.33
599.255	7670.76
599.613	7781.94
599.972	7727.03
600.33	7710.98
600.688	7652.68
601.046	7706.69
601.404	7725.67
601.762	7716.86
602.12	7773.58
602.478	7733.36
602.836	7731.32
603.194	7693.58
603.552	7713.47
603.91	7690.87
604.268	7654.49
604.625	7686.35
604.983	7684.09
605.341	7673.92
605.698	7662.17
606.056	7707.82
606.413	7709.63
606.771	7682.96
607.128	7728.16
607.485	7643.41
607.843	7586.24
608.2	7701.04
608.557	7756.63
608.914	7651.78
609.272	7690.87
609.629	7656.3
609.986	7740.81
610.343	7683.87
610.7	7727.25
611.057	7742.17
611.414	7712.34
611.771	7764.54
612.127	7690.42
612.484	7743.07
612.841	7774.26
613.198	7649.06
613.554	7709.4
613.911	7694.94
614.267	7741.72
614.624	7720.02
614.98	7773.81
615.337	7730.19
615.693	7756.18
616.05	7767.93
616.406	7827.36
616.762	7787.82
617.118	7762.28
617.475	7686.58
617.831	7804.09
618.187	7775.84
618.543	7721.83
618.899	7811.32
619.255	7839.79
619.611	7744.66
619.967	7846.35
620.323	7808.16
620.678	7822.39
621.034	7765.9
621.39	7768.16
621.746	7784.88
622.101	7842.96
622.457	7783.98
622.812	7741.94
623.168	7852.22
623.523	7842.51
623.879	7849.29
624.234	7813.58
624.589	7774.71
624.945	7804.31
625.3	7801.15
625.655	7762.96
626.01	7860.13
626.365	7804.99
626.72	7812.22
627.075	7755.95
627.43	7768.16
627.785	7767.71
628.14	7823.98
628.495	7866.01
628.85	7817.65
629.205	7779.46
629.559	7762.06
629.914	7727.48
630.269	7756.63
630.623	7705.56
630.978	7692.68
631.332	7714.37
631.687	7716.63
632.041	7732.9
632.396	7690.19
632.75	7604.09
633.104	7660.59
633.459	7621.95
633.813	7617.2
634.167	7607.71
634.521	7644.09
634.875	7611.78
635.229	7655.62
635.583	7567.03
635.937	7596.41
636.291	7562.06
636.645	7606.81
636.999	7598.67
637.352	7564.55
637.706	7522.74
638.06	7562.06
638.413	7504.89
638.767	7495.4
639.121	7521.38
639.474	7475.28
639.828	7472.8
640.181	7480.71
640.534	7489.97
640.888	7425.34
641.241	7454.72
641.594	7430.31
641.947	7491.33
642.301	7407.71
642.654	7429.41
643.007	7496.75
643.36	7416.53
643.713	7372.46
644.066	7446.13
644.419	7364.78
644.771	7383.31
645.124	7271
645.477	7246.36
645.83	7288.4
646.182	7204.33
646.535	7210.88
646.888	7177.66
647.24	7152.13
647.593	7213.37
647.945	7144.67
648.298	7165.24
648.65	7092.24
649.002	7130.89
649.355	7190.32
649.707	7122.98
650.059	7233.71
650.411	7267.15
650.763	7237.78
651.115	7378.11
651.467	7301.05
651.819	7320.94
652.171	7337.89
652.523	7246.82
652.875	7357.32
653.227	7265.35
653.578	7323.2
653.93	7300.37
654.282	7309.86
654.633	7290.66
654.985	7299.02
655.337	7295.85
655.688	7279.81
656.039	7365.68
656.391	7328.17
656.742	7331.56
657.094	7364.55
657.445	7354.83
657.796	7310.77
658.147	7367.04
658.498	7353.48
658.849	7336.08
659.2	7263.99
659.551	7293.82
659.902	7315.51
660.253	7324.55
660.604	7388.05
660.955	7302.63
661.306	7347.15
661.656	7400.48
662.007	7331.56
662.358	7338.56
662.708	7385.57
663.059	7340.37
663.409	7353.93
663.76	7413.36
664.11	7370.88
664.461	7330.2
664.811	7360.03
665.161	7362.07
665.511	7405
665.862	7413.82
666.212	7400.03
666.562	7441.61
666.912	7390.54
667.262	7328.17
667.612	7365.46
667.962	7391.44
668.312	7378.11
668.662	7391.67
669.011	7405.45
669.361	7407.94
669.711	7374.72
670.06	7322.75
670.41	7396.87
670.76	7396.64
671.109	7331.78
671.459	7336.08
671.808	7339.24
672.157	7351.45
672.507	7289.75
672.856	7260.6
673.205	7289.53
673.554	7296.98
673.904	7294.72
674.253	7304.67
674.602	7325.23
674.951	7201.62
675.3	7169.75
675.649	7308.28
675.998	7302.18
676.346	7264.89
676.695	7268.06
677.044	7255.4
677.393	7253.82
677.741	7292.46
678.09	7264.22
678.438	7238.91
678.787	7210.21
679.135	7256.98
679.484	7183.54
679.832	7223.99
680.181	7070.77
680.529	7196.65
680.877	7182.18
681.225	7128.85
681.573	7181.51
681.922	7160.72
682.27	7107.84
682.618	7092.69
682.966	7068.97
683.314	7037.33
683.661	7052.7
684.009	6994.39
684.357	7024.9
684.705	6958.69
685.053	6999.36
685.4	6914.17
685.748	6954.62
686.095	6915.52
686.443	6915.07
686.79	6867.62
687.138	6932.93
687.485	6903.55
687.832	6859.48
688.18	6831.01
688.527	6837.11
688.874	6787.39
689.221	6785.13
689.568	6703.33
689.915	6795.98
690.262	6749.43
690.609	6716.66
690.956	6735.19
691.303	6713.27
691.65	6674.17
691.997	6643.22
692.344	6587.85
692.69	6598.24
693.037	6582.88
693.383	6534.07
693.73	6559.15
694.077	6495.65
694.423	6466.5
694.769	6451.13
695.116	6449.77
695.462	6385.82
695.808	6382.88
696.155	6365.03
696.501	6274.41
696.847	6345.37
697.193	6227.18
697.539	6274.64
697.885	6241.19
698.231	6245.49
698.577	6161.87
698.923	6241.64
699.269	6191.48
699.614	6137.47
699.96	6121.65
700.306	6115.09
700.651	6072.38
700.997	6053.17
701.342	6020.86
701.688	6023.8
702.033	5978.83
702.379	5959.62
702.724	5973.4
703.069	5970.24
703.415	5942.44
703.76	5916.45
704.105	5901.09
704.45	5858.38
704.795	5873.74
705.14	5843.69
705.485	5799.4
705.83	5781.77
706.175	5765.05
706.52	5728.21
706.865	5716.23
707.209	5710.58
707.554	5698.16
707.899	5682.11
708.243	5703.8
708.588	5657.03
708.932	5602.34
709.277	5643.02
709.621	5600.08
709.966	5631.26
710.31	5624.48
710.654	5545.16
710.998	5532.96
711.342	5521.66
711.687	5535.22
712.031	5498.16
712.375	5483.92
712.719	5472.4
713.063	5437.82
713.407	5461.78
713.75	5507.65
714.094	5398.95
714.438	5423.13
714.782	5417.48
715.125	5426.52
715.469	5337.03
715.812	5387.88
716.156	5344.04
716.499	5370.48
716.843	5356.92
717.186	5411.38
717.53	5372.51
717.873	5303.36
718.216	5332.52
718.559	5318.96
718.902	5304.95
719.246	5294.32
719.589	5274.89
719.932	5314.89
720.275	5303.82
720.617	5284.15
720.96	5283.48
721.303	5273.99
721.646	5260.43
721.989	5279.18
722.331	5298.17
722.674	5256.81
723.016	5227.66
723.359	5206.42
723.701	5268.34
724.044	5214.78
724.386	5170.71
724.729	5270.82
725.071	5172.97
725.413	5237.15
725.755	5206.87
726.097	5212.74
726.439	5174.33
726.782	5183.82
727.124	5180.65
727.465	5169.13
727.807	5173.65
728.149	5159.86
728.491	5172.97
728.833	5153.31
729.175	5187.89
729.516	5139.07
729.858	5173.42
730.199	5244.16
730.541	5169.13
730.882	5160.54
731.224	5153.99
731.565	5173.88
731.906	5176.81
732.248	5155.34
732.589	5120.54
732.93	5138.4
733.271	5168.45
733.612	5203.03
733.953	5195.8
734.294	5166.87
734.635	5157.38
734.976	5156.25
735.317	5164.84
735.658	5169.13
735.999	5190.15
736.339	5161.9
736.68	5160.54
737.021	5174.55
737.361	5213.2
737.702	5231.27
738.042	5251.16
738.383	5202.35
738.723	5198.28
739.063	5222.69
739.404	5236.02
739.744	5242.35
740.084	5293.87
740.424	5232.4
740.764	5244.16
741.104	5308.56
741.444	5298.84
741.784	5274.21
742.124	5255.46
742.464	5315.34
742.804	5327.54
743.143	5353.98
743.483	5355.79
743.823	5385.85
744.162	5396.47
744.502	5410.25
744.841	5431.5
745.181	5506.52
745.52	5474.88
745.86	5566.41
746.199	5565.5
746.538	5565.5
746.877	5674.65
747.216	5689.57
747.556	5680.53
747.895	5773.41
748.234	5773.41
748.573	5861.31
748.911	5888.66
749.25	5930.01
749.589	5963.46
749.928	6066.96
750.267	6109.22
750.605	6178.82
750.944	6254.52
751.283	6293.17
751.621	6379.04
751.96	6411.81
752.298	6550.34
752.636	6627.85
752.975	6685.47
753.313	6828.97
753.651	6923.43
753.989	7023.32
754.327	7051.79
754.666	7152.58
755.004	7263.76
755.342	7418.79
755.679	7603.64
756.017	7681.61
756.355	7808.61
756.693	7952.56
757.031	8082.95
757.368	8267.58
757.706	8330.85
758.044	8482.26
758.381	8655.59
758.719	8764.97
759.056	8952.98
759.394	9092.64
759.731	9237.72
760.068	9449.02
760.405	9514.1
760.743	9682.23
761.08	9924.26
761.417	10059.62
761.754	10199.51
762.091	10415.55
762.428	10481.53
762.765	10614.41
763.102	10822.77
763.438	10969.43
763.775	11128.07
764.112	11356.54
764.449	11555.4
764.785	11634.72
765.122	11821.61
765.458	12010.31
765.795	12192.45
766.131	12324.87
766.467	12495.72
766.804	12607.58
767.14	12724.19
767.476	12911.52
767.812	13031.75
768.148	13259.09
768.485	13302.48
768.821	13500.21
769.157	13607.55
769.492	13779.98
769.828	13886.87
770.164	14042.12
770.5	14055.22
770.836	14296.8
771.171	14332.05
771.507	14404.59
771.842	14487.08
772.178	14637.81
772.513	14771.14
772.849	14823.79
773.184	14912.6
773.519	15010.45
773.855	15160.28
774.19	15183.1
774.525	15226.04
774.86	15355.08
775.195	15513.94
775.53	15498.58
775.865	15507.39
776.2	15590.32
776.535	15533.15
776.87	15726.37
777.205	15659.48
777.539	15777.44
777.874	15930.43
778.209	15837.32
778.543	15908.51
778.878	15828.28
779.212	15948.51
779.547	16059.01
779.881	16101.72
780.215	16062.4
780.55	16136.52
780.884	16147.15
781.218	16150.76
781.552	16287.71
781.886	16242.74
782.22	16152.8
782.554	16122.06
782.888	16144.66
783.222	16204.32
783.556	16170.42
783.889	16176.52
784.223	16170.2
784.557	16150.54
784.89	16213.13
785.224	16096.07
785.557	16135.39
785.891	16150.99
786.224	16155.51
786.558	16141.5
786.891	16105.79
787.224	16096.3
787.557	16061.05
787.891	16057.66
788.224	16144.43
788.557	16108.73
788.89	16165.68
789.223	16045.45
789.556	16120.48
789.888	16068.05
790.221	16153.7
790.554	15959.35
790.887	15981.05
791.219	15890.88
791.552	15965.46
791.884	15864.89
792.217	15780.83
792.549	15777.66
792.882	15799.58
793.214	15666.25
793.546	15800.49
793.879	15628.74
794.211	15597.78
794.543	15765.01
794.875	15685.46
795.207	15723.2
795.539	15713.71
795.871	15694.28
796.203	15517.33
796.535	15539.03
796.867	15418.35
797.198	15365.47
797.53	15546.94
797.862	15414.96
798.193	15428.97
798.525	15330.9
798.856	15322.31
799.188	15301.29
799.519	15154.63
799.85	15075.08
800.182	15047.97
800.513	15151.01
800.844	15071.47
801.175	15176.55
801.506	15146.04
801.837	15065.59
802.168	14952.15
802.499	14964.35
802.83	14915.99
803.161	14877.57
803.491	14889.78
803.822	14821.08
804.153	14796.67
804.483	14773.4
804.814	14695.88
805.145	14672.38
805.475	14672.83
805.805	14649.56
806.136	14623.34
806.466	14616.34
806.796	14629.67
807.126	14557.81
807.457	14528.21
807.787	14500.86
808.117	14520.3
808.447	14404.37
808.777	14520.3
809.107	14291.15
809.436	14356.01
809.766	14278.95
810.096	14278.49
810.426	14185.39
810.755	14243.24
811.085	14123.92
811.414	14150.59
811.744	14092.96
812.073	14064.26
812.403	14076.01
812.732	13973.19
813.061	14009.35
813.39	13940.65
813.719	13963.02
814.049	13987.43
814.378	13947.66
814.707	13923.7
815.036	13849.13
815.365	13762.35
815.693	13648
816.022	13727.1
816.351	13784.5
816.68	13665.18
817.008	13665.63
817.337	13583.37
817.665	13580.43
817.994	13601
818.322	13578.85
818.651	13553.09
818.979	13542.92
819.307	13573.88
819.636	13538.63
819.964	13459.99
820.292	13506.76
820.62	13522.58
820.948	13467.89
821.276	13443.49
821.604	13483.71
821.932	13426.09
822.259	13500.66
822.587	13482.13
822.915	13462.7
823.243	13426.99
823.57	13494.79
823.898	13437.39
824.225	13403.04
824.553	13398.97
824.88	13440.78
825.207	13497.5
825.535	13405.3
825.862	13432.19
826.189	13458.4
826.516	13521.9
826.843	13556.25
827.17	13426.77
827.497	13466.54
827.824	13466.99
828.151	13548.34
828.478	13461.79
828.805	13535.46
829.131	13438.06
829.458	13463.83
829.785	13377.05
830.111	13416.6
830.438	13508.8
830.764	13424.73
831.09	13433.32
831.417	13389.03
831.743	13455.92
832.069	13424.05
832.395	13321.68
832.722	13424.28
833.048	13458.63
833.374	13422.7
833.7	13351.06
834.026	13386.99
834.351	13400.33
834.677	13325.53
835.003	13477.84
835.329	13346.09
835.654	13311.51
835.98	13317.84
836.306	13390.83
836.631	13281.23
836.956	13290.72
837.282	13377.5
837.607	13142.48
837.932	13147.9
838.258	13196.94
838.583	13264.28
838.908	13146.32
839.233	13147.9
839.558	13168.02
839.883	13090.73
840.208	13088.24
840.533	13071.97
840.858	13076.72
841.182	13048.47
841.507	12979.77
841.832	12964.4
842.156	12879.66
842.481	12880.57
842.805	12889.6
843.13	12817.29
843.454	12781.58
843.778	12820
844.103	12774.35
844.427	12736.61
844.751	12633.34
845.075	12737.74
845.399	12641.25
845.723	12543.62
846.047	12606
846.371	12539.56
846.695	12534.81
847.019	12452.55
847.343	12373.01
847.666	12204.2
847.99	12243.75
848.313	12212.11
848.637	12139.79
848.96	12184.76
849.284	12127.36
849.607	12063.64
849.931	11974.15
850.254	11860.03
850.577	11825.68
850.9	11769.18
851.223	11813.47
851.546	11745
851.869	11632.69
852.192	11754.27
852.515	11594.72
852.838	11538.45
853.161	11594.5
853.483	11494.84
853.806	11450.32
854.129	11461.62
854.451	11379.81
854.774	11333.26
855.096	11323.54
855.419	11244.45
855.741	11199.93
856.063	11164.68
856.385	11173.72
856.708	11152.48
857.03	11080.84
857.352	11132.14
857.674	11051.23
857.996	10988.86
858.318	10946.15
858.64	10898.47
858.961	10897.79
859.283	10877
859.605	10864.57
859.926	10819.38
860.248	10843.33
860.57	10772.15
860.891	10752.71
861.212	10765.37
861.534	10651.7
861.855	10665.48
862.176	10626.39
862.498	10629.1
862.819	10692.6
863.14	10629.1
863.461	10490.35
863.782	10511.36
864.103	10517.92
864.424	10485.15
864.745	10563.34
865.065	10502.1
865.386	10384.59
865.707	10418.71
866.027	10395.88
866.348	10350.91
866.668	10351.37
866.989	10344.36
867.309	10279.28
867.63	10300.07
867.95	10289.22
868.27	10255.32
868.59	10236.34
868.91	10217.58
869.23	10209.68
869.55	10143.01
869.87	10275.44
870.19	10190.01
870.51	10155.67
870.83	10197.7
871.15	10126.29
871.469	10138.72
871.789	10137.13
872.109	10137.59
872.428	10030.24
872.748	10063.01
873.067	10022.79
873.386	10034.31
873.706	10075.22
874.025	9940.53
874.344	9901.89
874.663	9996.8
874.982	9901.66
875.301	9931.94
875.62	9931.49
875.939	9838.16
876.258	9854.2
876.577	9858.95
876.896	9869.57
877.214	9787.09
877.533	9769.69
877.852	9804.04
878.17	9821.21
878.489	9786.64
878.807	9787.31
879.125	9681.1
879.444	9716.35
879.762	9710.93
880.08	9658.5
880.398	9631.39
880.716	9624.61
881.034	9584.83
881.352	9628.67
881.67	9537.15
881.988	9550.03
882.306	9527.66
882.624	9522.24
882.941	9501.45
883.259	9432.52
883.577	9424.61
883.894	9461.67
884.212	9411.96
884.529	9381.22
884.846	9370.15
885.164	9309.81
885.481	9341.45
885.798	9284.73
886.115	9284.28
886.432	9259.64
886.75	9271.17
887.067	9258.97
887.383	9167.22
887.7	9234.11
888.017	9155.47
888.334	9194.33
888.651	9126.77
888.967	9046.54
889.284	8989.37
889.6	8989.59
889.917	8992.53
890.233	8989.82
890.55	8886.55
890.866	8973.32
891.182	8969.93
891.498	8916.38
891.815	8880.44
892.131	8833.21
892.447	8791.63
892.763	8745.53
893.079	8776.04
893.395	8702.6
893.71	8724.74
894.026	8731.52
894.342	8624.63
894.657	8580.57
894.973	8663.28
895.289	8560.68
895.604	8565.88
895.92	8516.84
896.235	8439.78
896.55	8441.13
896.865	8459.66
897.181	8490.17
897.496	8433.22
897.811	8304.19
898.126	8320.69
898.441	8299.44
898.756	8261.25
899.071	8236.85
899.386	8237.07
899.7	8164.08
900.015	8112.1
900.33	8069.39
900.644	8053.57
900.959	8006.34
901.273	7959.34
901.588	7999.34
901.902	7996.17
902.216	7908.72
902.531	7937.19
902.845	7873.69
903.159	7824.2
903.473	7789.17
903.787	7736.97
904.101	7708.5
904.415	7769.06
904.729	7677.54
905.042	7638.22
905.356	7618.33
905.67	7571.78
905.984	7567.48
906.297	7544.21
906.611	7488.16
906.924	7445.23
907.237	7458.33
907.551	7421.05
907.864	7432.57
908.177	7359.13
908.491	7361.16
908.804	7291.79
909.117	7231.45
909.43	7198.68
909.743	7182.64
910.056	7192.58
910.368	7150.77
910.681	7113.71
910.994	7024
911.307	7092.47
911.619	6961.4
911.932	7012.92
912.244	6959.59
912.557	6997.33
912.869	6911.23
913.181	6878.92
913.494	6847.73
913.806	6828.07
914.118	6742.87
914.43	6701.97
914.742	6755.98
915.054	6706.04
915.366	6759.82
915.678	6659.03
915.99	6612.93
916.302	6597.57
916.613	6567.28
916.925	6521.86
917.236	6600.05
917.548	6482.32
917.859	6538.13
918.171	6449.55
918.482	6405.26
918.794	6437.57
919.105	6384.46
919.416	6352.15
919.727	6352.38
920.038	6297.01
920.349	6273.73
920.66	6247.52
920.971	6200.97
921.282	6185.37
921.593	6204.81
921.903	6170.46
922.214	6126.84
922.525	6094.53
922.835	6121.87
923.146	6000.75
923.456	6048.2
923.767	5933.18
924.077	6020.86
924.387	5970.92
924.697	5937.47
925.008	5894.08
925.318	5878.94
925.628	5897.92
925.938	5808.66
926.248	5865.83
926.558	5788.1
926.867	5752.84
927.177	5734.76
927.487	5679.4
927.796	5718.49
928.106	5711.71
928.416	5604.6
928.725	5636.69
929.034	5602.79
929.344	5603.02
929.653	5576.58
929.962	5548.78
930.271	5502
930.581	5478.05
930.89	5493.41
931.199	5463.36
931.508	5419.74
931.817	5397.6
932.125	5416.13
932.434	5374.1
932.743	5346.3
933.051	5333.19
933.36	5295.68
933.669	5269.24
933.977	5249.13
934.286	5220.88
934.594	5235.12
934.902	5231.5
935.21	5156.7
935.519	5151.5
935.827	5106.76
936.135	5094.33
936.443	5059.3
936.751	5069.47
937.059	5050.49
937.367	4996.03
937.674	5011.62
937.982	5003.03
938.29	4961.23
938.597	4972.07
938.905	4932.53
939.213	4943.6
939.52	4875.58
939.827	4904.05
940.135	4820.89
940.442	4796.94
940.749	4794
941.056	4841.68
941.363	4789.25
941.67	4772.3
941.977	4714.9
942.284	4716.26
942.591	4692.31
942.898	4643.49
943.205	4677.84
943.511	4678.07
943.818	4601.46
944.125	4574.79
944.431	4584.74
944.738	4536.83
945.044	4511.07
945.35	4476.49
945.657	4463.61
945.963	4427.91
946.269	4443.95
946.575	4451.41
946.881	4416.38
947.187	4370.96
947.493	4363.05
947.799	4370.05
948.105	4366.89
948.41	4307.68
948.716	4307.91
949.022	4301.58
949.327	4286.44
949.633	4202.38
949.938	4223.17
950.244	4260.9
950.549	4165.31
950.854	4202.83
951.16	4148.37
951.465	4113.79
951.77	4098.42
952.075	4061.14
952.38	4081.7
952.685	4082.6
952.99	4033.79
953.294	4024.75
953.599	4059.33
953.904	4029.5
954.209	3972.55
954.513	3954.47
954.818	3963.74
955.122	3925.09
955.426	3922.83
955.731	3912.44
956.035	3876.06
956.339	3880.8
956.643	3827.92
956.948	3836.96
957.252	3804.65
957.556	3826.79
957.86	3784.76
958.163	3811.43
958.467	3753.57
958.771	3768.49
959.075	3761.26
959.378	3693.46
959.682	3731.65
959.985	3640.58
960.289	3648.49
960.592	3649.4
960.896	3607.36
961.199	3609.85
961.502	3595.61
961.805	3584.54
962.108	3593.13
962.411	3551.32
962.714	3537.76
963.017	3526.23
963.32	3546.57
963.623	3477.65
963.926	3492.56
964.228	3482.62
964.531	3464.09
964.833	3429.06
965.136	3364.88
965.438	3373.92
965.741	3396.97
966.043	3359.01
966.345	3357.88
966.648	3327.82
966.95	3366.01
967.252	3309.29
967.554	3264.32
967.856	3315.39
968.158	3243.76
968.46	3267.03
968.761	3267.26
969.063	3236.07
969.365	3242.63
969.666	3223.42
969.968	3218.67
970.269	3168.28
970.571	3164.89
970.872	3148.17
971.174	3109.97
971.475	3120.6
971.776	3110.65
972.077	3101.61
972.378	3091.9
972.679	3112.69
972.98	3061.39
973.281	3066.59
973.582	3031.56
973.883	2993.14
974.183	3009.41
974.484	2984.78
974.785	2963.54
975.085	2990.66
975.386	2982.29
975.686	2949.08
975.986	2927.38
976.287	2911.11
976.587	2882.86
976.887	2876.99
977.187	2859.81
977.487	2871.79
977.787	2861.85
978.087	2834.28
978.387	2775.07
978.687	2793.37
978.987	2780.72
979.286	2793.37
979.586	2756.99
979.885	2775.07
980.185	2778.46
980.484	2758.35
980.784	2764
981.083	2712.02
981.382	2699.36
981.682	2698.91
981.981	2663.66
982.28	2662.08
982.579	2643.09
982.878	2653.26
983.177	2603.55
983.475	2639.25
983.774	2618.01
984.073	2643.32
984.372	2568.75
984.67	2583.66
984.969	2566.26
985.267	2559.25
985.566	2564.68
985.864	2502.31
986.162	2490.56
986.461	2491.91
986.759	2489.88
987.057	2443.33
987.355	2468.41
987.653	2479.48
987.951	2467.51
988.249	2422.54
988.547	2464.12
988.844	2427.73
989.142	2429.54
989.44	2379.6
989.737	2408.3
990.035	2369.43
990.332	2361.97
990.63	2351.58
990.927	2363.78
991.224	2361.07
991.521	2308.87
991.819	2342.99
992.116	2300.05
992.413	2285.36
992.71	2257.12
993.006	2270.22
993.303	2255.53
993.6	2260.96
993.897	2259.83
994.193	2236.78
994.49	2247.85
994.787	2198.13
995.083	2176.67
995.379	2208.76
995.676	2158.81
995.972	2184.35
996.268	2136.44
996.565	2174.41
996.861	2143.22
997.157	2159.27
997.453	2124.92
997.749	2092.15
998.044	2086.5
998.34	2122.43
998.636	2079.49
998.932	2046.95
999.227	2034.3
999.523	2038.82
999.818	2027.52
1000.114	2044.47
1000.409	2011.7
1000.704	1982.55
1001	1984.58
1001.295	2014.18
1001.59	1969.21
1001.885	1964.92
1002.18	1931.7
1002.475	1957.01
1002.77	1908.65
1003.065	1920.63
1003.359	1909.55
1003.654	1886.28
1003.949	1833.4
1004.243	1879.27
1004.538	1862.55
1004.832	1847.86
1005.127	1860.74
1005.421	1836.11
1005.715	1822.32
1006.009	1828.2
1006.304	1800.63
1006.598	1806.28
1006.892	1773.06
1007.186	1786.85
1007.48	1754.76
1007.773	1725.83
1008.067	1708.2
1008.361	1719.95
1008.655	1743.01
1008.948	1757.69
1009.242	1736.68
1009.535	1658.94
1009.829	1656
1010.122	1681.54
1010.415	1652.84
1010.708	1632.95
1011.001	1635.44
1011.295	1658.26
1011.588	1636.57
1011.881	1631.37
1012.173	1615.1
1012.466	1597.25
1012.759	1581.65
1013.052	1592.95
1013.344	1547.08
1013.637	1556.34
1013.93	1563.35
1014.222	1561.77
1014.514	1555.67
1014.807	1484.25
1015.099	1500.98
1015.391	1521.09
1015.683	1517.25
1015.976	1510.02
1016.268	1490.58
1016.56	1500.98
1016.851	1494.88
1017.143	1474.76
1017.435	1464.82
1017.727	1429.11
1018.018	1429.57
1018.31	1423.69
1018.602	1387.76
1018.893	1399.29
1019.185	1396.57
1019.476	1393.41
1019.767	1387.53
1020.058	1383.01
1020.35	1351.6
1020.641	1371.04
1020.932	1320.87
1021.223	1337.82
1021.514	1306.41
1021.804	1300.98
1022.095	1293.98
1022.386	1293.53
1022.677	1277.93
1022.967	1286.29
1023.258	1282.9
1023.548	1260.08
1023.839	1251.94
1024.129	1235.45
1024.419	1237.48
1024.709	1231.61
1025	1234.09
1025.29	1220.76
1025.58	1218.95
1025.87	1223.7
1026.16	1190.93
1026.449	1171.04
1026.739	1182.12
1027.029	1188.9
1027.319	1144.6
1027.608	1170.82
1027.898	1161.1
1028.187	1130.37
1028.477	1143.02
1028.766	1131.04
1029.055	1147.99
1029.344	1116.35
1029.634	1093.98
1029.923	1095.34
1030.212	1120.42
1030.501	1089.69
1030.79	1081.1
1031.078	1065.28
1031.367	1055.79
1031.656	1090.59
1031.945	1049.92
1032.233	1052.18
1032.522	1047.66
1032.81	1040.88
1033.099	1012.4
1033.387	1016.24
1033.675	1003.59
1033.963	1020.54
1034.251	1015.34
1034.54	985.96
1034.828	999.52
1035.116	1008.56
1035.403	968.56
1035.691	969.92
1035.979	952.29
1036.267	965.17
1036.554	950.48
1036.842	933.99
1037.129	948.9
1037.417	914.33
1037.704	917.04
1037.992	923.37
1038.279	924.72
1038.566	900.32
1038.853	900.32
1039.14	900.32
