Data from hue_40_FLMS001491_4.txt Node
Date: Mon Feb 06 15:07:21 GMT 2017
User: dcchb
Spectrometer: FLMS00149
Trigger mode: 0
Integration Time (sec): 2.000000E-2
Scans to average: 10
Electric dark correction enabled: true
Nonlinearity correction enabled: false
Boxcar width: 0
XAxis mode: Wavelengths
Number of Pixels in Spectrum: 2048
>>>>>Begin Spectral Data<<<<<
341.393	-9.55
341.776	-9.55
342.16	-9.55
342.543	-61.75
342.927	-75.76
343.31	-68.53
343.693	-68.3
344.077	-62.88
344.46	-69.66
344.843	-36.44
345.226	-49.55
345.61	-26.5
345.993	-7.29
346.376	-21.07
346.759	7.4
347.142	27.74
347.525	37.46
347.908	54.63
348.291	82.2
348.674	87.4
349.057	113.39
349.44	136.44
349.823	153.61
350.206	163.78
350.588	208.98
350.971	191.35
351.354	205.81
351.737	260.95
352.119	243.33
352.502	263.21
352.884	277.68
353.267	275.42
353.65	277.22
354.032	307.96
354.414	299.82
354.797	305.92
355.179	320.84
355.562	317.9
355.944	340.05
356.326	319.26
356.709	333.72
357.091	321.97
357.473	360.16
357.855	354.74
358.238	354.06
358.62	344.57
359.002	342.31
359.384	337.34
359.766	360.61
360.148	312.25
360.53	341.63
360.912	353.38
361.294	335.75
361.676	362.87
362.057	323.55
362.439	319.03
362.821	333.04
363.203	332.82
363.584	329.65
363.966	327.62
364.348	342.76
364.729	319.26
365.111	347.5
365.493	320.39
365.874	309.31
366.256	319.71
366.637	353.83
367.019	307.96
367.4	307.51
367.781	312.7
368.163	325.58
368.544	324.23
368.925	326.94
369.306	327.17
369.688	312.7
370.069	321.74
370.45	318.58
370.831	324.91
371.212	344.79
371.593	316.55
371.974	335.98
372.355	327.62
372.736	335.3
373.117	326.71
373.498	345.25
373.879	308.41
374.26	338.92
374.641	312.03
375.021	290.56
375.402	333.49
375.783	334.85
376.163	352.93
376.544	310.44
376.925	323.55
377.305	329.65
377.686	343.21
378.066	340.05
378.447	322.42
378.827	318.13
379.208	340.73
379.588	330.33
379.968	329.65
380.349	337.34
380.729	332.14
381.109	326.94
381.489	344.12
381.87	348.41
382.25	342.31
382.63	349.76
383.01	342.76
383.39	342.31
383.77	361.06
384.15	331.01
384.53	348.41
384.91	360.61
385.29	343.89
385.67	350.89
386.049	341.4
386.429	350.44
386.809	358.8
387.189	350.89
387.568	370.78
387.948	349.99
388.328	350.44
388.707	357.22
389.087	380.5
389.466	357
389.846	382.31
390.225	365.13
390.605	371.91
390.984	369.43
391.363	364.45
391.743	380.95
392.122	371.46
392.501	378.69
392.881	371.69
393.26	375.53
393.639	379.37
394.018	379.37
394.397	376.66
394.776	372.14
395.155	379.37
395.534	397.67
395.913	388.63
396.292	394.28
396.671	391.35
397.05	386.83
397.429	425.02
397.808	389.76
398.186	388.86
398.565	382.76
398.944	389.09
399.323	400.61
399.701	417.33
400.08	413.94
400.458	391.57
400.837	396.09
401.215	427.73
401.594	413.04
401.972	408.29
402.351	423.89
402.729	408.29
403.107	394.96
403.486	427.95
403.864	421.4
404.242	429.54
404.62	440.16
404.999	409.88
405.377	413.49
405.755	432.02
406.133	436.32
406.511	428.63
406.889	404.23
407.267	446.71
407.645	451.46
408.023	456.2
408.401	432.93
408.779	453.26
409.156	441.06
409.534	450.33
409.912	457.11
410.29	464.56
410.667	456.65
411.045	496.43
411.422	452.59
411.8	493.94
412.178	469.99
412.555	475.64
412.933	466.37
413.31	484.68
413.687	471.57
414.065	483.55
414.442	487.39
414.819	488.74
415.197	490.1
415.574	507.5
415.951	496.88
416.328	487.16
416.705	494.17
417.082	509.31
417.46	507.27
417.837	518.12
418.214	523.09
418.591	514.73
418.967	538.69
419.344	503.89
419.721	518.57
420.098	512.25
420.475	535.75
420.852	532.36
421.228	532.81
421.605	516.31
421.982	554.05
422.358	545.92
422.735	559.93
423.111	555.86
423.488	548.86
423.864	559.7
424.241	555.41
424.617	550.21
424.994	572.36
425.37	580.95
425.746	582.75
426.123	577.1
426.499	582.75
426.875	590.89
427.251	594.05
427.627	598.12
428.003	589.53
428.379	605.35
428.756	592.24
429.132	604
429.507	603.09
429.883	615.52
430.259	626.82
430.635	638.12
431.011	635.18
431.387	620.04
431.763	630.66
432.138	656.88
432.514	656.65
432.89	665.69
433.265	665.24
433.641	699.81
434.016	699.13
434.392	690.32
434.767	696.87
435.143	692.35
435.518	693.94
435.894	688.74
436.269	736.65
436.644	713.6
437.02	726.25
437.395	730.77
437.77	733.94
438.145	744.56
438.52	742.75
438.895	739.13
439.271	750.88
439.646	764.67
440.021	759.92
440.395	780.94
440.77	757.89
441.145	759.92
441.52	776.19
441.895	803.31
442.27	790.43
442.645	778.45
443.019	802.86
443.394	812.58
443.769	810.32
444.143	782.3
444.518	832.92
444.892	806.02
445.267	809.87
445.641	841.05
446.016	820.71
446.39	829.53
446.764	833.14
447.139	849.86
447.513	836.98
447.887	853.93
448.262	869.98
448.636	820.03
449.01	884.44
449.384	883.08
449.758	893.25
450.132	879.24
450.506	886.47
450.88	912.91
451.254	892.12
451.628	908.85
452.002	931.22
452.376	911.33
452.75	922.41
453.123	938
453.497	937.77
453.871	949.52
454.244	961.5
454.618	956.98
454.992	981.39
455.365	995.4
455.739	997.21
456.112	1014.61
456.486	1046.02
456.859	1032.01
457.232	1036.53
457.606	1024.55
457.979	1048.5
458.352	1073.59
458.725	1091.67
459.099	1111.1
459.472	1130.08
459.845	1116.98
460.218	1122.85
460.591	1130.54
460.964	1159.69
461.337	1170.99
461.71	1170.31
462.083	1197.2
462.456	1224.32
462.829	1225
463.201	1266.12
463.574	1236.52
463.947	1260.02
464.32	1286.92
464.692	1277.2
465.065	1313.36
465.438	1321.26
465.81	1347.48
466.183	1347.93
466.555	1368.04
466.928	1392.68
467.3	1387.25
467.672	1420.47
468.045	1469.74
468.417	1455.72
468.789	1453.01
469.161	1530.52
469.534	1535.95
469.906	1545.67
470.278	1583.18
470.65	1627.92
471.022	1597.64
471.394	1648.49
471.766	1670.86
472.138	1711.31
472.51	1750.86
472.882	1761.71
473.253	1800.57
473.625	1791.99
473.997	1888.48
474.369	1919.67
474.74	1906.11
475.112	1951.98
475.484	2019.78
475.855	2056.84
476.227	2097.74
476.598	2150.62
476.97	2157.17
477.341	2245.08
477.713	2286.21
478.084	2330.28
478.455	2393.78
478.827	2428.58
479.198	2490.27
479.569	2535.24
479.94	2627.22
480.311	2617.5
480.682	2737.72
481.053	2831.96
481.424	2863.37
481.795	3002.8
482.166	3010.71
482.537	3075.34
482.908	3190.59
483.279	3214.1
483.65	3332.96
484.021	3380.42
484.391	3458.16
484.762	3566.18
485.133	3624.25
485.503	3718.72
485.874	3799.17
486.244	3879.62
486.615	4007.52
486.985	4057.24
487.356	4161.19
487.726	4274.63
488.097	4383.33
488.467	4461.52
488.837	4535.42
489.207	4662.42
489.578	4768.18
489.948	4852.47
490.318	4946.48
490.688	5028.96
491.058	5171.11
491.428	5251.78
491.798	5306.02
492.168	5489.06
492.538	5549.63
492.908	5630.53
493.278	5770.87
493.648	5848.6
494.017	5978.32
494.387	6017.86
494.757	6158.88
495.126	6293.56
495.496	6352.77
495.866	6428.25
496.235	6573.56
496.605	6685.64
496.974	6755.02
497.344	6829.37
497.713	6926.99
498.082	7024.17
498.452	7150.72
498.821	7221
499.19	7242.69
499.559	7387.09
499.928	7463.7
500.298	7609.01
500.667	7637.26
501.036	7689.68
501.405	7823.24
501.774	7845.84
502.143	7999.96
502.512	8058.71
502.88	8161.31
503.249	8241.76
503.618	8315.21
503.987	8365.37
504.356	8468.2
504.724	8582.09
505.093	8652.37
505.462	8653.28
505.83	8836.32
506.199	8813.95
506.567	9010.78
506.936	9008.29
507.304	9187.72
507.672	9235.86
508.041	9212.81
508.409	9338.23
508.777	9453.48
509.145	9568.51
509.514	9528.28
509.882	9713.81
510.25	9748.61
510.618	9847.37
510.986	9863.19
511.354	9940.02
511.722	10061.83
512.09	10077.64
512.458	10136.63
512.826	10273.8
513.193	10307.47
513.561	10370.97
513.929	10480.35
514.297	10530.06
514.664	10648.25
515.032	10639.44
515.4	10767.12
515.767	10793.33
516.135	10924.63
516.502	10843.5
516.869	11095.02
517.237	11124.62
517.604	11053.89
517.972	11284.62
518.339	11280.32
518.706	11368.23
519.073	11377.05
519.44	11362.58
519.808	11620.2
520.175	11572.29
520.542	11775.45
520.909	11798.96
521.276	11802.8
521.643	11973.19
522.009	12022.23
522.376	12033.75
522.743	12154.88
523.11	12231.49
523.477	12431.48
523.843	12475.1
524.21	12503.57
524.577	12661.76
524.943	12663.79
525.31	12799.38
525.676	12920.96
526.043	12992.37
526.409	13094.97
526.776	13211.12
527.142	13146.49
527.508	13277.33
527.874	13433.49
528.241	13522.75
528.607	13580.83
528.973	13676.19
529.339	13608.17
529.705	13771.56
530.071	13848.17
530.437	13901.95
530.803	14006.81
531.169	14112.11
531.535	14148.27
531.901	14143.07
532.267	14145.56
532.632	14284.09
532.998	14330.64
533.364	14423.29
533.73	14443.18
534.095	14571.76
534.461	14593.91
534.826	14792.32
535.192	14825.77
535.557	14929.49
535.923	14964.97
536.288	14970.62
536.653	15045.2
537.019	15013.33
537.384	15157.96
537.749	15213.1
538.114	15260.33
538.479	15249.71
538.845	15422.59
539.21	15390.73
539.575	15427.79
539.94	15536.94
540.305	15614.45
540.67	15656.26
541.034	15661.9
541.399	15757.04
541.764	15781.68
542.129	15896.25
542.494	15884.5
542.858	15962.69
543.223	16014.89
543.587	16216.24
543.952	16100.31
544.316	16197.26
544.681	16185.28
545.045	16325.39
545.41	16510.02
545.774	16472.05
546.138	16543.92
546.503	16597.47
546.867	16645.16
547.231	16691.26
547.595	16790.91
547.959	16819.39
548.324	16931.02
548.688	16872.49
549.052	16947.97
549.416	17039.72
549.779	17115.65
550.143	17141.41
550.507	17201.75
550.871	17302.31
551.235	17277.91
551.599	17404.23
551.962	17470.44
552.326	17486.26
552.689	17601.97
553.053	17558.35
553.417	17626.6
553.78	17781.85
554.143	17767.39
554.507	17811.23
554.87	17902.3
555.234	18135.06
555.597	18015.74
555.96	18059.36
556.323	18187.26
556.686	18164.21
557.05	18296.19
557.413	18371.66
557.776	18476.75
558.139	18443.3
558.502	18503.19
558.865	18629.96
559.228	18793.57
559.59	18708.6
559.953	18881.25
560.316	19044.87
560.679	18971.42
561.041	19129.61
561.404	19179.78
561.767	19212.55
562.129	19077.18
562.492	19475.36
562.854	19470.84
563.217	19488.92
563.579	19527.79
563.941	19735.24
564.304	19775.47
564.666	19790.38
565.028	19854.34
565.39	20029.25
565.753	20057.95
566.115	20080.09
566.477	20228.56
566.839	20233.08
567.201	20344.27
567.563	20247.77
567.925	20466.75
568.287	20491.61
568.648	20502.23
569.01	20686.63
569.372	20792.39
569.734	20804.14
570.095	20917.81
570.457	21009.11
570.819	21028.32
571.18	21119.84
571.542	21251.81
571.903	21402.32
572.265	21344.02
572.626	21472.37
572.987	21553.05
573.349	21642.09
573.71	21772.03
574.071	21779.94
574.432	21883.66
574.794	22092.24
575.155	22001.4
575.516	22056.54
575.877	22263.31
576.238	22351.45
576.599	22565.68
576.96	22502.63
577.32	22688.84
577.681	22617.65
578.042	22927.02
578.403	22916.18
578.763	22972.45
579.124	23227.81
579.485	23482.26
579.845	23588.25
580.206	23735.82
580.566	23829.83
580.927	23878.41
581.287	24132.87
581.648	24207.67
582.008	24458.96
582.368	24500.77
582.728	24640.88
583.089	24744.6
583.449	24976.69
583.809	25015.56
584.169	25214.87
584.529	25376.68
584.889	25750
585.249	25699.83
585.609	25795.42
585.969	26108.64
586.329	26240.16
586.688	26521.73
587.048	26599.24
587.408	26738
587.768	26978.44
588.127	27060.93
588.487	27273.8
588.846	27703.62
589.206	27576.39
589.565	27860.91
589.925	28147.68
590.284	28241.91
590.643	28405.3
591.003	28625.63
591.362	28908.11
591.721	29127.31
592.08	29191.72
592.44	29405.72
592.799	29638.94
593.158	29696.79
593.517	29990.79
593.876	30103.33
594.235	30209.54
594.593	30508.97
594.952	30700.38
595.311	30845.91
595.67	30934.05
596.029	31249.07
596.387	31518.89
596.746	31784.64
597.104	31687.92
597.463	31855.83
597.822	32233.9
598.18	32288.13
598.538	32288.59
598.897	32698.07
599.255	32672.53
599.613	33222.35
599.972	33056.02
600.33	33409.23
600.688	33395.68
601.046	33674.76
601.404	33831.14
601.762	34114.07
602.12	34224.35
602.478	34464.8
602.836	34386.84
603.194	34441.98
603.552	34660.5
603.91	34712.25
604.268	35082.86
604.625	34954.96
604.983	35197.66
605.341	35220.94
605.698	35533.47
606.056	35630.19
606.413	35706.35
606.771	35985.89
607.128	36091.88
607.485	36012.56
607.843	36195.15
608.2	36351.08
608.557	36548.36
608.914	36536.84
609.272	36909.93
609.629	37008.01
609.986	37161.9
610.343	37063.38
610.7	37471.73
611.057	37474.89
611.414	37529.8
611.771	37662.68
612.127	37986.29
612.484	37926.86
612.841	38059.96
613.198	37955.33
613.554	38074.42
613.911	38350.57
614.267	38497.91
614.624	38475.77
614.98	38565.03
615.337	38754.4
615.693	38791.24
616.05	38816.78
616.406	39077.11
616.762	39027.17
617.118	38999.82
617.475	39216.54
617.831	39303.32
618.187	39438.23
618.543	39587.15
618.899	39817.88
619.255	39703.31
619.611	39789.41
619.967	39891.1
620.323	40068.72
620.678	39862.85
621.034	39918.22
621.39	39909.18
621.746	39977.65
622.101	40417.19
622.457	40154.37
622.812	40153.69
623.168	40348.49
623.523	40459.44
623.879	40576.5
624.234	40277.75
624.589	40485.21
624.945	40502.83
625.3	40564.07
625.655	40614.92
626.01	40751.41
626.365	40669.61
626.72	40841.13
627.075	40806.78
627.43	40716.39
627.785	40679.1
628.14	40849.72
628.495	40863.28
628.85	40882.03
629.205	40818.76
629.559	41044.29
629.914	40805.65
630.269	40987.11
630.623	40749.38
630.978	40766.33
631.332	40960.67
631.687	41074.34
632.041	40818.08
632.396	41035.7
632.75	40969.71
633.104	40971.3
633.459	40744.63
633.813	40899.21
634.167	40912.09
634.521	40909.38
634.875	40948.25
635.229	40810.4
635.583	40649.04
635.937	40761.81
636.291	40703.05
636.645	40722.04
636.999	40622.83
637.352	40900.79
637.706	40621.7
638.06	40803.62
638.413	40625.09
638.767	40421.03
639.121	40553.23
639.474	40370.86
639.828	40442.04
640.181	40468.94
640.534	40478.2
640.888	40348.26
641.241	40265.55
641.594	40289.05
641.947	40327.02
642.301	40386
642.654	40331.31
643.007	40410.18
643.36	40418.77
643.713	40317.3
644.066	40458.77
644.419	40214.25
644.771	39986.01
645.124	39678.67
645.477	39534.72
645.83	39348.97
646.182	39224.67
646.535	39315.07
646.888	39236.43
647.24	38923.89
647.593	39308.51
647.945	39125.92
648.298	38915.3
648.65	38854.29
649.002	38773.61
649.355	38911.24
649.707	38784.46
650.059	39054.96
650.411	39394.39
650.763	39593.48
651.115	39814.26
651.467	39734.94
651.819	39840.03
652.171	39670.99
652.523	39533.37
652.875	39676.19
653.227	39510.54
653.578	39649.3
653.93	39584.67
654.282	39476.87
654.633	39469.64
654.985	39508.74
655.337	39310.77
655.688	39542.63
656.039	39632.8
656.391	39245.01
656.742	39262.41
657.094	39298.8
657.445	39471.22
657.796	39352.81
658.147	39228.29
658.498	39285.69
658.849	39409.98
659.2	39241.17
659.551	39134.51
659.902	39316.88
660.253	39215.18
660.604	39398
660.955	39034.85
661.306	39180.16
661.656	39040.05
662.007	39117.79
662.358	39164.34
662.708	39139.71
663.059	39224.9
663.409	38920.73
663.76	39189.2
664.11	39234.39
664.461	39198.01
664.811	39167.28
665.161	39093.38
665.511	39129.31
665.862	39129.31
666.212	39204.56
666.562	39115.07
666.912	39176.09
667.262	39026.04
667.612	39107.62
667.962	39082.08
668.312	38993.27
668.662	39042.08
669.011	39088.86
669.361	39019.93
669.711	38926.6
670.06	38942.2
670.41	38849.32
670.76	38925.02
671.109	39075.07
671.459	38973.61
671.808	38901.97
672.157	38900.39
672.507	38741.3
672.856	38631.24
673.205	38752.37
673.554	38817.45
673.904	38582.88
674.253	38857.9
674.602	38584.92
674.951	38308.99
675.3	37984.71
675.649	38533.17
675.998	38564.58
676.346	38628.53
676.695	38751.92
677.044	38495.65
677.393	38637.35
677.741	38710.11
678.09	38508.54
678.438	38411.36
678.787	38515.54
679.135	38486.62
679.484	38171.6
679.832	38384.7
680.181	38118.72
680.529	38399.84
680.877	38131.6
681.225	38119.85
681.573	38258.82
681.922	38052.05
682.27	38004.59
682.618	37954.2
682.966	37857.48
683.314	37964.82
683.661	37840.53
684.009	37646.19
684.357	37580.88
684.705	37582.91
685.053	37621.33
685.4	37617.71
685.748	37435.12
686.095	37421.78
686.443	37277.38
686.79	37273.77
687.138	37269.25
687.485	37257.49
687.832	37092.3
688.18	37191.73
688.527	36993.77
688.874	36965.98
689.221	36921.46
689.568	36780.45
689.915	36792.65
690.262	36601.92
690.609	36624.74
690.956	36455.48
691.303	36348.59
691.65	36391.08
691.997	36286.67
692.344	36042.84
692.69	36027.47
693.037	36061.14
693.383	35839.91
693.73	35883.97
694.077	35672.68
694.423	35691.66
694.769	35605.11
695.116	35484.66
695.462	35470.42
695.808	35405.34
696.155	35330.31
696.501	35178
696.847	35175.52
697.193	34921.96
697.539	35115.18
697.885	34688.75
698.231	34628.41
698.577	34649.88
698.923	34561.97
699.269	34305.93
699.614	34077.47
699.96	34214.86
700.306	34267.74
700.651	34079.5
700.997	33937.58
701.342	33888.09
701.688	33937.81
702.033	33783.01
702.379	33709.34
702.724	33589.57
703.069	33743.92
703.415	33273.64
703.76	33321.33
704.105	33335.11
704.45	33364.72
704.795	33058.28
705.14	32938.74
705.485	32918.85
705.83	32860.32
706.175	32835.92
706.52	32759.08
706.865	32526.77
707.209	32557.96
707.554	32562.7
707.899	32541.23
708.243	32419.66
708.588	32319.77
708.932	32117.52
709.277	32191.41
709.621	32059.21
709.966	32065.32
710.31	32111.87
710.654	31719.11
710.998	31777.64
711.342	31797.3
711.687	31832.1
712.031	31694.25
712.375	31581.03
712.719	31515.5
713.063	31480.92
713.407	31619.9
713.75	31325.45
714.094	31393.24
714.438	31223.53
714.782	31285
715.125	31196.64
715.469	31198.67
715.812	30988.51
716.156	30843.65
716.499	30903.31
716.843	30872.35
717.186	30677.78
717.53	30878.45
717.873	30777.89
718.216	30645.69
718.559	30401.63
718.902	30368.86
719.246	30472.81
719.589	30316.66
719.932	30054.07
720.275	30179.71
720.617	30275.76
720.96	30052.49
721.303	30208.64
721.646	30075.99
721.989	29815.66
722.331	29993.96
722.674	29894.75
723.016	29932.72
723.359	29837.8
723.701	29849.55
724.044	29649.11
724.386	29579.73
724.729	29591.48
725.071	29512.39
725.413	29630.8
725.755	29413.41
726.097	29415.22
726.439	29325.73
726.782	29295.67
727.124	29391.26
727.465	29194.88
727.807	29182.23
728.149	29114.88
728.491	29159.18
728.833	29069.46
729.175	28922.57
729.516	28890.48
729.858	28863.37
730.199	28911.73
730.541	28734.1
730.882	28736.14
731.224	28880.99
731.565	28494.79
731.906	28604.84
732.248	28659.53
732.589	28512.41
732.93	28537.95
733.271	28458.86
733.612	28601.68
733.953	28454.79
734.294	28276.49
734.635	28273.1
734.976	28326.2
735.317	28135.7
735.658	28121.46
735.999	28158.3
736.339	27992.65
736.68	28227.68
737.021	28011.64
737.361	27870.4
737.702	28033.56
738.042	27949.04
738.383	27919.89
738.723	27895.26
739.063	27847.12
739.404	27729.16
739.744	27682.83
740.084	27639.44
740.424	27719.44
740.764	27615.04
741.104	27767.12
741.444	27462.72
741.784	27356.29
742.124	27425.21
742.464	27498.2
742.804	27343.18
743.143	27208.49
743.483	27324.65
743.823	27232.9
744.162	27142.73
744.502	27234.26
744.841	27126.24
745.181	27224.76
745.52	27088.27
745.86	27037.2
746.199	26871.1
746.538	26851.89
746.877	26954.26
747.216	26898.67
747.556	26850.08
747.895	26865.9
748.234	26606.25
748.573	26742.07
748.911	26634.27
749.25	26596.08
749.589	26535.97
749.928	26577.55
750.267	26603.09
750.605	26455.07
750.944	26516.76
751.283	26269.54
751.621	26400.38
751.96	26173.72
752.298	26166.94
752.636	26241.74
752.975	26027.28
753.313	25889.43
753.651	26162.65
753.989	25837.91
754.327	25782.99
754.666	25765.14
755.004	25709.1
755.342	25751.81
755.679	25635.88
756.017	25551.81
756.355	25603.11
756.693	25444.47
757.031	25506.17
757.368	25373.06
757.706	25303.91
758.044	25211.94
758.381	25345.49
758.719	25085.84
759.056	25183.91
759.394	25145.95
759.731	24959.29
760.068	24878.39
760.405	24779.4
760.743	24738.28
761.08	24772.63
761.417	24653.31
761.754	24575.79
762.091	24531.05
762.428	24353.65
762.765	24196.37
763.102	24401.11
763.438	24122.25
763.775	24158.86
764.112	24108.91
764.449	24077.95
764.785	24009.26
765.122	23800
765.458	23744.86
765.795	23723.16
766.131	23620.34
766.467	23504.86
766.804	23405.2
767.14	23335.38
767.476	23376.5
767.812	23263.51
768.148	23219.67
768.485	23187.58
768.821	22963.41
769.157	22946.91
769.492	22948.27
769.828	22897.42
770.164	22692.45
770.5	22577.2
770.836	22573.36
771.171	22489.3
771.507	22386.93
771.842	22389.86
772.178	22340.6
772.513	22307.83
772.849	22186.03
773.184	22099.7
773.519	21923.66
773.855	21919.82
774.19	21798.47
774.525	21811.12
774.86	21714.17
775.195	21703.55
775.53	21529.77
775.865	21451.58
776.2	21268.54
776.535	21111.48
776.87	21224.02
777.205	21114.42
777.539	20915.55
777.874	21057.92
778.209	20823.8
778.543	20777.02
778.878	20706.74
779.212	20846.4
779.547	20524.15
779.881	20600.53
780.215	20457.71
780.55	20442.34
780.884	20274.21
781.218	20356.92
781.552	20231.95
781.886	20125.97
782.22	19962.81
782.554	19943.37
782.888	19889.36
783.222	19851.17
783.556	19638.98
783.889	19623.16
784.223	19457.74
784.557	19428.59
784.89	19473.1
785.224	19391.75
785.557	19269.95
785.891	19270.62
786.224	19189.04
786.558	19123.96
786.891	19006.68
787.224	18915.15
787.557	18889.39
787.891	18796.74
788.224	18704.08
788.557	18749.73
788.89	18713.8
789.223	18628.61
789.556	18552.22
789.888	18495.95
790.221	18392.45
790.554	18274.27
790.887	18243.31
791.219	18140.03
791.552	18142.97
791.884	18083.76
792.217	17995.85
792.549	18005.35
792.882	17836.76
793.214	17788.4
793.546	17799.48
793.879	17747.73
794.211	17660.5
794.543	17628.41
794.875	17580.5
795.207	17587.96
795.539	17509.09
795.871	17499.14
796.203	17278.81
796.535	17268.64
796.867	17239.72
797.198	17115.43
797.53	17090.79
797.862	16936.45
798.193	17106.84
798.525	16978.71
798.856	17021.64
799.188	16694.19
799.519	16653.06
799.85	16616.23
800.182	16593.18
800.513	16670.24
800.844	16442.68
801.175	16507.53
801.506	16516.57
801.837	16377.14
802.168	16331.27
802.499	16217.6
802.83	16149.12
803.161	16205.62
803.491	16073.19
803.822	16203.81
804.153	16060.99
804.483	15889.02
804.814	15981.22
805.145	15818.74
805.475	15828.68
805.805	15790.26
806.136	15764.73
806.466	15706.2
806.796	15752.52
807.126	15557.95
807.457	15553.21
807.787	15545.75
808.117	15445.41
808.447	15361.12
808.777	15418.3
809.107	15361.8
809.436	15321.57
809.766	15319.09
810.096	15259.88
810.426	15176.49
810.755	15233.67
811.085	15115.93
811.414	15123.61
811.744	15016.27
812.073	15002.71
812.403	15011.98
812.732	14832.32
813.061	14822.38
813.39	14760.01
813.719	14726.79
814.049	14797.07
814.378	14782.15
814.707	14673.23
815.036	14625.32
815.365	14528.83
815.693	14397.76
816.022	14503.52
816.351	14479.11
816.68	14402.5
817.008	14388.49
817.337	14352.33
817.665	14295.16
817.994	14278.44
818.322	14252.45
818.651	14226.46
818.979	14125.67
819.307	14186.01
819.636	14124.32
819.964	13987.37
820.292	14146.92
820.62	14066.24
820.948	14069.86
821.276	14040.25
821.604	14041.16
821.932	14062.17
822.259	14002.29
822.587	13993.02
822.915	13932.91
823.243	13993.02
823.57	13944.44
823.898	13988.5
824.225	13906.7
824.553	13939.69
824.88	13874.15
825.207	13933.81
825.535	14000.93
825.862	13989.63
826.189	13829.18
826.516	13915.06
826.843	14009.52
827.17	14009.97
827.497	13934.27
827.824	13991.21
828.151	13980.82
828.478	13925.91
828.805	13961.38
829.131	13879.8
829.458	13906.02
829.785	13827.6
830.111	13847.71
830.438	13964.1
830.764	13857.88
831.09	14023.98
831.417	13809.75
831.743	13834.83
832.069	13917.77
832.395	13778.56
832.722	13846.59
833.048	13788.28
833.374	13841.61
833.7	13745.12
834.026	13843.2
834.351	13754.16
834.677	13771.56
835.003	13759.36
835.329	13720.94
835.654	13700.6
835.98	13658.34
836.306	13642.75
836.631	13541.73
836.956	13657.89
837.282	13667.83
837.607	13498.57
837.932	13602.3
838.258	13540.83
838.583	13517.55
838.908	13412.47
839.233	13476.65
839.558	13384.45
839.883	13388.97
840.208	13349.87
840.533	13380.16
840.858	13340.84
841.182	13371.12
841.507	13346.71
841.832	13247.73
842.156	13190.33
842.481	13224.68
842.805	13106.94
843.13	13169.54
843.454	13082.54
843.778	13016.32
844.103	13027.4
844.427	13011.8
844.751	12983.78
845.075	12938.36
845.399	12876.44
845.723	12889.55
846.047	12913.95
846.371	12820.4
846.695	12793.05
847.019	12619.27
847.343	12544.02
847.666	12598.71
847.99	12457.24
848.313	12468.77
848.637	12395.1
848.96	12398.71
849.284	12342.67
849.607	12200.75
849.931	12153.52
850.254	12165.05
850.577	12066.74
850.9	12033.3
851.223	11979.06
851.546	11935.22
851.869	11875.79
852.192	11918.73
852.515	11899.52
852.838	11788.33
853.161	11789.46
853.483	11679.64
853.806	11635.57
854.129	11624.95
854.451	11579.98
854.774	11575.68
855.096	11482.81
855.419	11428.57
855.741	11362.58
856.063	11379.31
856.385	11359.19
856.708	11271.51
857.03	11299.76
857.352	11297.27
857.674	11223.38
857.996	11173.44
858.318	11194.9
858.64	11123.72
858.961	11115.81
859.283	11115.36
859.605	10984.06
859.926	11089.14
860.248	10975.47
860.57	10993.33
860.891	10981.8
861.212	10857.06
861.534	10834.69
861.855	10900.22
862.176	10753.79
862.498	10841.24
862.819	10818.42
863.14	10734.12
863.461	10734.35
863.782	10615.94
864.103	10642.38
864.424	10612.55
864.745	10749.27
865.065	10567.58
865.386	10645.31
865.707	10623.62
866.027	10534.13
866.348	10586.78
866.668	10550.63
866.989	10476.96
867.309	10424.3
867.63	10464.98
867.95	10435.15
868.27	10367.13
868.59	10397.86
868.91	10382.72
869.23	10324.42
869.55	10300.46
869.87	10312.44
870.19	10289.16
870.51	10362.83
870.83	10342.27
871.15	10217.08
871.469	10317.19
871.789	10288.94
872.109	10147.25
872.428	10192.9
872.748	10197.19
873.067	10141.15
873.386	10206
873.706	10162.61
874.025	10115.16
874.344	10057.76
874.663	10054.14
874.982	10049.17
875.301	10078.55
875.62	10013.47
875.939	9977.99
876.258	9967.82
876.577	9953.35
876.896	9942.51
877.214	9913.81
877.533	9959
877.852	9886.69
878.17	9936.18
878.489	9893.02
878.807	9885.79
879.125	9828.61
879.444	9855.05
879.762	9818.44
880.08	9745.9
880.398	9807.14
880.716	9741.38
881.034	9702.51
881.352	9766.01
881.67	9667.49
881.988	9626.36
882.306	9765.56
882.624	9660.25
882.941	9606.7
883.259	9611.44
883.577	9523.31
883.894	9544.78
884.212	9591.78
884.529	9466.14
884.846	9514.04
885.164	9454.38
885.481	9492.58
885.798	9480.82
886.115	9407.61
886.432	9367.38
886.75	9361.05
887.067	9352.92
887.383	9286.48
887.7	9326.93
888.017	9245.8
888.334	9250.77
888.651	9185.46
888.967	9164.22
889.284	9174.84
889.6	9154.51
889.917	9079.25
890.233	9068.63
890.55	9040.16
890.866	9070.44
891.182	9037.67
891.498	9016.43
891.815	9030.21
892.131	8917.68
892.447	8959.48
892.763	8889.88
893.079	8850.11
893.395	8908.64
893.71	8765.81
894.026	8841.29
894.342	8839.94
894.657	8707.29
894.973	8698.92
895.289	8648.3
895.604	8666.83
895.92	8587.06
896.235	8603.56
896.55	8547.74
896.865	8512.26
897.181	8469.78
897.496	8524.01
897.811	8503.9
898.126	8431.13
898.441	8375.09
898.756	8403.79
899.071	8374.64
899.386	8322.89
899.7	8277.47
900.015	8177.13
900.33	8232.27
900.644	8199.28
900.959	8162.67
901.273	8179.62
901.588	8162.67
901.902	8029.56
902.216	8044.03
902.531	8046.51
902.845	8014.87
903.159	8003.35
903.473	7952.95
903.787	7812.85
904.101	7814.88
904.415	7807.87
904.729	7819.17
905.042	7808.78
905.356	7718.84
905.67	7712.51
905.984	7733.98
906.297	7670.48
906.611	7607.65
906.924	7685.62
907.237	7580.08
907.551	7496.24
907.864	7569.91
908.177	7506.41
908.491	7425.74
908.804	7430.03
909.117	7422.12
909.43	7370.15
909.743	7312.97
910.056	7357.49
910.368	7279.75
910.681	7245.85
910.994	7244.95
911.307	7201.56
911.619	7162.24
911.932	7161.11
912.244	7055.58
912.557	7072.3
912.869	7078.85
913.181	7015.8
913.494	7006.76
913.806	6899.2
914.118	6955.24
914.43	6928.8
914.742	6868.92
915.054	6842.25
915.366	6854.9
915.678	6837.5
915.99	6762.48
916.302	6753.21
916.613	6639.77
916.925	6647.45
917.236	6636.61
917.548	6689.71
917.859	6592.76
918.171	6556.61
918.482	6565.19
918.794	6496.27
919.105	6502.82
919.416	6458.53
919.727	6425.99
920.038	6422.83
920.349	6370.4
920.66	6346.22
920.971	6271.87
921.282	6321.36
921.593	6237.97
921.903	6277.29
922.214	6231.42
922.525	6213.34
922.835	6145.09
923.146	6137.64
923.456	6141.02
923.767	6098.09
924.077	6140.35
924.387	6045.66
924.697	6023.74
925.008	6036.85
925.318	5975.15
925.628	5948.04
925.938	5891.31
926.248	5875.04
926.558	5845.44
926.867	5866
927.177	5821.26
927.487	5792.11
927.796	5771.09
928.106	5721.6
928.416	5727.02
928.725	5730.87
929.034	5654.03
929.344	5656.07
929.653	5637.54
929.962	5602.73
930.271	5600.25
930.581	5490.42
930.89	5544.2
931.199	5496.3
931.508	5466.69
931.817	5486.8
932.125	5450.65
932.434	5454.49
932.743	5376.98
933.051	5380.37
933.36	5315.51
933.669	5317.77
933.977	5315.96
934.286	5270.31
934.594	5306.02
934.902	5184.67
935.21	5186.25
935.519	5236.42
935.827	5156.19
936.135	5110.32
936.443	5132.24
936.751	5035.52
937.059	5133.59
937.367	5076.65
937.674	5075.74
937.982	5061.51
938.29	5027.83
938.597	5021.73
938.905	4901.51
939.213	4930.44
939.52	4870.32
939.827	4901.74
940.135	4904.45
940.442	4878.46
940.749	4852.92
941.056	4796.2
941.363	4781.29
941.67	4725.47
941.977	4714.85
942.284	4663.32
942.591	4679.14
942.898	4705.81
943.205	4682.08
943.511	4638.47
943.818	4658.13
944.125	4595.53
944.431	4531.8
944.738	4545.59
945.044	4565.25
945.35	4499.03
945.657	4488.41
945.963	4483.67
946.269	4434.63
946.575	4463.78
946.881	4396.44
947.187	4421.52
947.493	4395.76
947.799	4358.92
948.105	4330.23
948.41	4339.26
948.716	4370.9
949.022	4314.41
949.327	4244.13
949.633	4304.01
949.938	4267.63
950.244	4227.63
950.549	4188.08
950.854	4184.47
951.16	4163.45
951.465	4124.58
951.77	4119.16
952.075	4131.13
952.38	4079.61
952.685	4087.75
952.99	4001.87
953.294	4044.36
953.599	3998.48
953.904	4002.1
954.209	3969.78
954.513	3982.66
954.818	3994.41
955.122	3918.03
955.426	3891.14
955.731	3888.2
956.035	3894.3
956.339	3879.16
956.643	3864.93
956.948	3826.51
957.252	3824.7
957.556	3818.15
957.86	3792.84
958.163	3770.01
958.467	3747.42
958.771	3762.78
959.075	3725.72
959.378	3681.88
959.682	3749
959.985	3684.82
960.289	3657.02
960.592	3661.99
960.896	3658.15
961.199	3641.43
961.502	3619.28
961.805	3568.44
962.108	3548.1
962.411	3533.86
962.714	3521.88
963.017	3546.74
963.32	3525.5
963.623	3474.65
963.926	3466.75
964.228	3460.42
964.531	3500.19
964.833	3450.25
965.136	3428.78
965.438	3437.37
965.741	3385.62
966.043	3373.41
966.345	3342.91
966.648	3329.8
966.95	3325.51
967.252	3332.96
967.554	3323.7
967.856	3261.55
968.158	3262
968.46	3273.76
968.761	3249.8
969.063	3228.79
969.365	3209.8
969.666	3211.61
969.968	3164.38
970.269	3202.8
970.571	3165.51
970.872	3137.04
971.174	3105.62
971.475	3102.46
971.776	3104.04
972.077	3096.36
972.378	3080.99
972.679	3079.86
972.98	3082.35
973.281	3059.07
973.582	3038.96
973.883	3007.32
974.183	3022.01
974.484	2984.05
974.785	2974.78
975.085	2951.05
975.386	2945.85
975.686	2950.15
975.986	2916.7
976.287	2899.98
976.587	2867.89
976.887	2867.89
977.187	2864.5
977.487	2861.56
977.787	2886.65
978.087	2845.29
978.387	2811.62
978.687	2799.19
978.987	2770.27
979.286	2786.99
979.586	2766.88
979.885	2745.41
980.185	2725.52
980.484	2744.73
980.784	2750.15
981.083	2731.85
981.382	2666.99
981.682	2672.87
981.981	2657.27
982.28	2656.82
982.579	2634
982.878	2661.79
983.177	2604.62
983.475	2662.02
983.774	2598.97
984.073	2600.55
984.372	2586.77
984.67	2580.44
984.969	2599.88
985.267	2549.26
985.566	2547.22
985.864	2520.78
986.162	2531.18
986.461	2511.06
986.759	2492.53
987.057	2483.95
987.355	2466.55
987.653	2485.75
987.951	2467.68
988.249	2413.44
988.547	2414.34
988.844	2385.64
989.142	2404.4
989.44	2406.66
989.737	2368.47
990.035	2348.36
990.332	2370.95
990.63	2341.58
990.927	2334.57
991.224	2355.14
991.521	2291.63
991.819	2304.97
992.116	2310.17
992.413	2298.19
992.71	2272.88
993.006	2270.17
993.303	2231.52
993.6	2233.78
993.897	2254.57
994.193	2234.91
994.49	2208.7
994.787	2184.07
995.083	2181.13
995.379	2179.1
995.676	2197.4
995.972	2180.68
996.268	2124.18
996.565	2135.93
996.861	2138.64
997.157	2118.53
997.453	2086.44
997.749	2113.79
998.044	2104.52
998.34	2114.92
998.636	2083.28
998.932	2053.45
999.227	2072.21
999.523	2044.41
999.818	2029.04
1000.114	2028.14
1000.409	1985.2
1000.704	2007.8
1001	1999.66
1001.295	1942.49
1001.59	1984.98
1001.885	1968.93
1002.18	1962.6
1002.475	1936.16
1002.77	1926.45
1003.065	1909.95
1003.359	1918.54
1003.654	1873.11
1003.949	1883.06
1004.243	1892.78
1004.538	1886.45
1004.832	1859.33
1005.127	1864.08
1005.421	1834.92
1005.715	1828.82
1006.009	1811.42
1006.304	1810.97
1006.598	1816.17
1006.892	1810.97
1007.186	1761.25
1007.48	1757.64
1007.773	1759.22
1008.067	1751.99
1008.361	1764.87
1008.655	1719.45
1008.948	1730.07
1009.242	1705.21
1009.535	1698.2
1009.829	1692.1
1010.122	1656.85
1010.415	1659.33
1010.708	1666.79
1011.001	1668.37
1011.295	1649.84
1011.588	1630.86
1011.881	1626.12
1012.173	1641.26
1012.466	1615.49
1012.759	1588.6
1013.052	1596.74
1013.344	1585.89
1013.637	1559.68
1013.93	1551.32
1014.222	1558.09
1014.514	1535.5
1014.807	1555.16
1015.099	1540.24
1015.391	1519.23
1015.683	1480.13
1015.976	1488.72
1016.268	1501.82
1016.56	1512.22
1016.851	1492.79
1017.143	1482.84
1017.435	1429.74
1017.727	1458.44
1018.018	1415.73
1018.31	1413.01
1018.602	1427.25
1018.893	1390.64
1019.185	1406.91
1019.476	1395.39
1019.767	1409.85
1020.058	1389.74
1020.35	1351.09
1020.641	1361.49
1020.932	1352
1021.223	1345.67
1021.514	1358.78
1021.804	1311.1
1022.095	1320.59
1022.386	1301.6
1022.677	1290.08
1022.967	1304.77
1023.258	1274.03
1023.548	1283.07
1023.839	1253.02
1024.129	1275.84
1024.419	1250.31
1024.709	1270.42
1025	1241.49
1025.29	1259.8
1025.58	1225.9
1025.87	1234.49
1026.16	1208.27
1026.449	1193.58
1026.739	1210.31
1027.029	1199.91
1027.319	1186.58
1027.608	1172.79
1027.898	1156.52
1028.187	1166.69
1028.477	1141.38
1028.766	1135.51
1029.055	1131.89
1029.344	1137.54
1029.634	1103.64
1029.923	1117.43
1030.212	1112.46
1030.501	1134.83
1030.79	1100.25
1031.078	1081.72
1031.367	1078.79
1031.656	1084.21
1031.945	1038.33
1032.233	1040.14
1032.522	1043.08
1032.81	1047.37
1033.099	1055.96
1033.387	1054.15
1033.675	1021.61
1033.963	1015.51
1034.251	1027.26
1034.54	1021.84
1034.828	1016.19
1035.116	1007.6
1035.403	992.91
1035.691	991.78
1035.979	992.23
1036.267	996.08
1036.554	974.16
1036.842	969.86
1037.129	961.73
1037.417	970.77
1037.704	956.75
1037.992	939.35
1038.279	939.13
1038.566	933.03
1038.853	933.03
1039.14	933.03
