Data from hue_260_FLMS001491_00030.txt Node
Date: Tue Feb 07 15:58:48 GMT 2017
User: dcchb
Spectrometer: FLMS00149
Trigger mode: 0
Integration Time (sec): 2.000000E-2
Scans to average: 10
Electric dark correction enabled: true
Nonlinearity correction enabled: false
Boxcar width: 0
XAxis mode: Wavelengths
Number of Pixels in Spectrum: 2048
>>>>>Begin Spectral Data<<<<<
341.393	-15.78
341.776	-15.78
342.16	-15.78
342.543	-69.33
342.927	-70.24
343.31	-77.24
343.693	-73.18
344.077	-85.38
344.46	-60.07
344.843	-58.26
345.226	-32.73
345.61	-49.45
345.993	4.79
346.376	2.53
346.759	18.35
347.142	24.45
347.525	31.45
347.908	63.09
348.291	92.24
348.674	91.11
349.057	108.29
349.44	119.59
349.823	162.98
350.206	158.46
350.588	186.25
350.971	192.35
351.354	214.27
351.737	223.99
352.119	264.67
352.502	255.63
352.884	246.82
353.267	262.63
353.65	277.32
354.032	285.01
354.414	299.47
354.797	283.88
355.179	290.66
355.562	319.36
355.944	317.77
356.326	332.24
356.709	325.46
357.091	327.72
357.473	323.2
357.855	327.94
358.238	320.94
358.62	342.63
359.002	340.15
359.384	323.2
359.766	331.56
360.148	335.63
360.53	328.17
360.912	336.53
361.294	337.43
361.676	313.03
362.057	322.75
362.439	318.9
362.821	304.44
363.203	318
363.584	327.04
363.966	314.16
364.348	325.01
364.729	303.31
365.111	308.51
365.493	307.38
365.874	323.65
366.256	275.06
366.637	303.31
367.019	301.96
367.4	293.82
367.781	325.01
368.163	324.78
368.544	291.56
368.925	312.8
369.306	306.47
369.688	299.7
370.069	312.12
370.45	294.5
370.831	300.6
371.212	305.57
371.593	308.51
371.974	309.64
372.355	280.04
372.736	321.62
373.117	308.51
373.498	287.72
373.879	315.51
374.26	308.28
374.641	292.92
375.021	312.35
375.402	317.32
375.783	323.42
376.163	308.28
376.544	307.15
376.925	302.86
377.305	307.38
377.686	326.14
378.066	312.8
378.447	325.68
378.827	304.89
379.208	320.94
379.588	330.2
379.968	325.91
380.349	324.1
380.729	346.93
381.109	333.14
381.489	300.83
381.87	326.81
382.25	330.66
382.63	337.43
383.01	329.3
383.39	326.81
383.77	320.94
384.15	341.5
384.53	337.21
384.91	364.1
385.29	341.05
385.67	339.92
386.049	358.45
386.429	344.44
386.809	358.23
387.189	351.22
387.568	347.6
387.948	336.3
388.328	353.25
388.707	336.76
389.087	338.56
389.466	359.81
389.846	341.95
390.225	341.5
390.605	360.48
390.984	367.49
391.363	366.81
391.743	369.07
392.122	357.32
392.501	359.81
392.881	373.37
393.26	369.98
393.639	377.43
394.018	370.65
394.397	366.36
394.776	377.21
395.155	373.14
395.534	377.89
395.913	373.37
396.292	384.44
396.671	394.38
397.05	387.38
397.429	387.83
397.808	393.93
398.186	403.42
398.565	416.98
398.944	400.26
399.323	415.17
399.701	394.61
400.08	408.62
400.458	400.71
400.837	420.6
401.215	422.86
401.594	429.41
401.972	407.72
402.351	421.27
402.729	441.16
403.107	433.25
403.486	432.35
403.864	432.8
404.242	439.13
404.62	432.12
404.999	430.54
405.377	469.18
405.755	445.91
406.133	434.38
406.511	430.54
406.889	468.05
407.267	496.75
407.645	468.28
408.023	447.71
408.401	470.76
408.779	485.45
409.156	502.85
409.534	501.95
409.912	503.76
410.29	511.89
410.667	534.04
411.045	513.93
411.422	520.93
411.8	515.96
412.178	545.79
412.555	554.6
412.933	534.49
413.31	584.89
413.687	570.65
414.065	558.9
414.442	573.81
414.819	590.54
415.197	604.77
415.574	587.6
415.951	614.04
416.328	622.4
416.705	599.12
417.082	637.31
417.46	628.27
417.837	640.48
418.214	631.21
418.591	663.98
418.967	663.98
419.344	649.74
419.721	666.24
420.098	670.31
420.475	678.22
420.852	686.35
421.228	715.96
421.605	715.28
421.982	722.06
422.358	740.36
422.735	755.5
423.111	719.12
423.488	770.42
423.864	756.41
424.241	764.77
424.617	799.12
424.994	804.77
425.37	816.97
425.746	824.43
426.123	859.45
426.499	835.5
426.875	873.69
427.251	874.14
427.627	894.03
428.003	895.39
428.379	887.7
428.756	896.29
429.132	934.48
429.507	927.93
429.883	951.43
430.259	955.95
430.635	969.96
431.011	994.82
431.387	1010.86
431.763	1015.38
432.138	1033.24
432.514	1030.07
432.89	1023.52
433.265	1079.34
433.641	1060.13
434.016	1095.15
434.392	1115.95
434.767	1111.43
435.143	1139
435.518	1165.89
435.894	1155.94
436.269	1195.49
436.644	1187.36
437.02	1236.62
437.395	1199.33
437.77	1266.45
438.145	1275.49
438.52	1264.42
438.895	1305.77
439.271	1315.26
439.646	1358.88
440.021	1357.97
440.395	1375.83
440.77	1378.31
441.145	1404.75
441.52	1405.66
441.895	1412.21
442.27	1432.1
442.645	1430.97
443.019	1486.78
443.394	1446.78
443.769	1487.69
444.143	1498.53
444.518	1554.8
444.892	1509.83
445.267	1522.94
445.641	1554.13
446.016	1545.76
446.39	1571.98
446.764	1571.53
447.139	1586.44
447.513	1573.33
447.887	1640.68
448.262	1620.11
448.636	1612.66
449.01	1637.51
449.384	1671.18
449.758	1673.67
450.132	1680.45
450.506	1701.92
450.88	1685.42
451.254	1704.4
451.628	1721.35
452.002	1766.55
452.376	1789.37
452.75	1781.24
453.123	1775.36
453.497	1827.34
453.871	1858.3
454.244	1870.95
454.618	1897.17
454.992	1886.32
455.365	1894.68
455.739	1929.48
456.112	1970.61
456.486	1963.15
456.859	1981.46
457.232	1996.37
457.606	2019.88
457.979	2043.38
458.352	2072.76
458.725	2092.19
459.099	2099.87
459.472	2129.7
459.845	2172.19
460.218	2179.65
460.591	2218.29
460.964	2182.36
461.337	2239.76
461.71	2272.52
462.083	2285.41
462.456	2308.46
462.829	2342.35
463.201	2359.75
463.574	2363.6
463.947	2398.85
464.32	2439.98
464.692	2436.81
465.065	2483.59
465.438	2503.03
465.81	2507.77
466.183	2549.58
466.555	2583.03
466.928	2606.53
467.3	2635
467.672	2658.96
468.045	2699.63
468.417	2718.84
468.789	2752.96
469.161	2766.3
469.534	2822.57
469.906	2906.18
470.278	2893.53
470.65	2901.21
471.022	2924.94
471.394	2993.64
471.766	3029.12
472.138	3063.92
472.51	3123.8
472.882	3144.82
473.253	3168.09
473.625	3226.85
473.997	3266.4
474.369	3292.16
474.74	3338.71
475.112	3442.44
475.484	3417.35
475.855	3460.74
476.227	3486.96
476.598	3598.82
476.97	3594.07
477.341	3719.49
477.713	3717.23
478.084	3717.46
478.455	3857.34
478.827	3859.83
479.198	3938.7
479.569	3958.13
479.94	4060.5
480.311	4038.13
480.682	4133.27
481.053	4250.78
481.424	4233.38
481.795	4291.91
482.166	4363.32
482.537	4439.47
482.908	4461.62
483.279	4556.08
483.65	4594.27
484.021	4627.72
484.391	4695.74
484.762	4717.88
485.133	4747.04
485.503	4838.56
485.874	4963.53
486.244	4967.6
486.615	5058.89
486.985	5041.49
487.356	5172.56
487.726	5252.33
488.097	5283.07
488.467	5322.84
488.837	5411.65
489.207	5395.15
489.578	5500.91
489.948	5566.9
490.318	5607.13
490.688	5643.74
491.058	5666.56
491.428	5764.18
491.798	5778.2
492.168	5906.1
492.538	5908.14
492.908	5969.38
493.278	5998.98
493.648	6053.22
494.017	6129.82
494.387	6126.89
494.757	6149.71
495.126	6264.96
495.496	6248.69
495.866	6328.46
496.235	6343.6
496.605	6363.94
496.974	6396.03
497.344	6497.95
497.713	6521.9
498.082	6550.15
498.452	6519.19
498.821	6570.72
499.19	6629.7
499.559	6678.51
499.928	6669.92
500.298	6672.86
500.667	6739.53
501.036	6714.89
501.405	6826.76
501.774	6756.47
502.143	6871.73
502.512	6836.47
502.88	6931.61
503.249	6930.48
503.618	6903.14
503.987	6922.57
504.356	6978.84
504.724	7019.97
505.093	7032.85
505.462	7014.77
505.83	7120.99
506.199	7103.13
506.567	7254.09
506.936	7156.92
507.304	7240.98
507.672	7238.95
508.041	7294.54
508.409	7299.96
508.777	7416.8
509.145	7371.37
509.514	7385.84
509.882	7399.4
510.25	7460.19
510.618	7453.63
510.986	7487.08
511.354	7490.92
511.722	7594.64
512.09	7590.8
512.458	7580.86
512.826	7594.64
513.193	7499.96
513.561	7600.52
513.929	7652.5
514.297	7698.15
514.664	7656.11
515.032	7721.2
515.4	7722.78
515.767	7787.63
516.135	7742.89
516.502	7689.11
516.869	7778.59
517.237	7853.4
517.604	7796
517.972	7842.77
518.339	7881.19
518.706	7838.93
519.073	7834.41
519.44	7901.76
519.808	7970.45
520.175	7958.48
520.542	8006.61
520.909	8007.97
521.276	8002.09
521.643	8042.99
522.009	8097.46
522.376	8111.69
522.743	8136.78
523.11	8158.47
523.477	8226.04
523.843	8238.47
524.21	8181.07
524.577	8229.66
524.943	8256.55
525.31	8295.19
525.676	8307.85
526.043	8318.02
526.409	8358.92
526.776	8370.44
527.142	8401.4
527.508	8393.27
527.874	8426.49
528.241	8462.42
528.607	8439.14
528.973	8447.73
529.339	8425.81
529.705	8480.5
530.071	8563.88
530.437	8495.86
530.803	8558.24
531.169	8546.26
531.535	8568.86
531.901	8505.58
532.267	8563.88
532.632	8576.09
532.998	8549.87
533.364	8640.04
533.73	8571.12
534.095	8671
534.461	8600.04
534.826	8616.99
535.192	8655.41
535.557	8613.6
535.923	8644.79
536.288	8618.57
536.653	8669.87
537.019	8600.04
537.384	8571.57
537.749	8607.95
538.114	8624.45
538.479	8621.28
538.845	8582.42
539.21	8572.47
539.575	8587.61
539.94	8583.09
540.305	8592.81
540.67	8551.68
541.034	8608.63
541.399	8533.38
541.764	8639.36
542.129	8593.71
542.494	8569.08
542.858	8596.65
543.223	8563.66
543.587	8571.57
543.952	8499.93
544.316	8613.83
544.681	8520.72
545.045	8494.73
545.41	8589.2
545.774	8517.33
546.138	8518.24
546.503	8544.45
546.867	8485.92
547.231	8560.27
547.595	8550.55
547.959	8467.39
548.324	8502.87
548.688	8483.21
549.052	8519.82
549.416	8460.61
549.779	8457.22
550.143	8482.98
550.507	8531.8
550.871	8493.15
551.235	8491.8
551.599	8495.86
551.962	8539.48
552.326	8435.98
552.689	8472.81
553.053	8463.77
553.417	8428.97
553.78	8521.17
554.143	8445.02
554.507	8531.34
554.87	8474.62
555.234	8533.15
555.597	8480.05
555.96	8453.15
556.323	8451.35
556.686	8465.81
557.05	8555.75
557.413	8435.3
557.776	8503.55
558.139	8493.6
558.502	8462.87
558.865	8472.36
559.228	8534.28
559.59	8574.05
559.953	8501.74
560.316	8534.73
560.679	8614.96
561.041	8619.7
561.404	8557.78
561.767	8682.3
562.129	8612.47
562.492	8675.75
562.854	8656.09
563.217	8681.85
563.579	8735.41
563.941	8758.91
564.304	8710.32
564.666	8810.88
565.028	8777.21
565.39	8802.75
565.753	8868.74
566.115	8849.75
566.477	8857.21
566.839	8843.65
567.201	8904.22
567.563	8906.02
567.925	8980.6
568.287	8910.09
568.648	8956.87
569.01	9008.17
569.372	9085.91
569.734	9000.03
570.095	9070.09
570.457	9110.31
570.819	9116.64
571.18	9122.74
571.542	9153.7
571.903	9068.5
572.265	9169.52
572.626	9187.6
572.987	9192.8
573.349	9274.15
573.71	9277.09
574.071	9228.95
574.432	9291.32
574.794	9354.15
575.155	9363.64
575.516	9287.48
575.877	9345.79
576.238	9407.25
576.599	9496.52
576.96	9419.46
577.32	9409.96
577.681	9476.63
578.042	9520.7
578.403	9458.78
578.763	9496.29
579.124	9529.06
579.485	9551.88
579.845	9610.86
580.206	9582.84
580.566	9646.34
580.927	9622.39
581.287	9633.91
581.648	9673.01
582.008	9744.42
582.368	9682.05
582.728	9771.76
583.089	9664.87
583.449	9766.79
583.809	9746.9
584.169	9741.48
584.529	9827.35
584.889	9861.48
585.249	9823.51
585.609	9779.22
585.969	9837.07
586.329	9840.24
586.688	9935.37
587.048	9904.19
587.408	9876.84
587.768	9926.34
588.127	9946
588.487	9908.48
588.846	10006.33
589.206	10077.07
589.565	9985.32
589.925	10047.24
590.284	10057.41
590.643	10041.13
591.003	10143.5
591.362	10075.94
591.721	10149.38
592.08	10099.89
592.44	10189.6
592.799	10131.53
593.158	10147.8
593.517	10162.71
593.876	10185.54
594.235	10163.84
594.593	10189.83
594.952	10191.64
595.311	10173.79
595.67	10236.16
596.029	10283.39
596.387	10240.23
596.746	10292.2
597.104	10293.56
597.463	10280.9
597.822	10301.47
598.18	10344.86
598.538	10275.7
598.897	10276.83
599.255	10230.73
599.613	10387.34
599.972	10337.17
600.33	10370.17
600.688	10267.57
601.046	10393.44
601.404	10371.97
601.762	10360.22
602.12	10442.93
602.478	10425.53
602.836	10375.59
603.194	10356.38
603.552	10446.55
603.91	10384.4
604.268	10442.25
604.625	10388.47
604.983	10401.35
605.341	10445.87
605.698	10437.51
606.056	10489.48
606.413	10476.83
606.771	10489.94
607.128	10469.15
607.485	10472.08
607.843	10500.33
608.2	10501.24
608.557	10578.75
608.914	10526.09
609.272	10591.85
609.629	10585.07
609.986	10610.61
610.343	10536.04
610.7	10617.16
611.057	10682.93
611.414	10632.31
611.771	10577.62
612.127	10677.73
612.484	10690.61
612.841	10740.78
613.198	10631.18
613.554	10686.99
613.911	10670.5
614.267	10677.95
614.624	10669.14
614.98	10710.27
615.337	10768.35
615.693	10721.12
616.05	10797.05
616.406	10797.95
616.762	10755.92
617.118	10736.71
617.475	10802.47
617.831	10811.06
618.187	10790.04
618.543	10812.87
618.899	10824.16
619.255	10840.44
619.611	10913.88
619.967	10886.31
620.323	10870.27
620.678	10897.83
621.034	10774.9
621.39	10796.14
621.746	10838.4
622.101	10926.99
622.457	10893.99
622.812	10842.7
623.168	10899.64
623.523	10855.8
623.879	10912.75
624.234	10781.91
624.589	10857.16
624.945	10850.15
625.3	10867.1
625.655	10853.99
626.01	10896.93
626.365	10887.89
626.72	10848.57
627.075	10861.9
627.43	10821.68
627.785	10822.58
628.14	10757.73
628.495	10834.79
628.85	10790.04
629.205	10743.71
629.559	10851.51
629.914	10776.03
630.269	10740.78
630.623	10769.25
630.978	10759.76
631.332	10761.12
631.687	10756.37
632.041	10690.61
632.396	10742.36
632.75	10696.48
633.104	10710.95
633.459	10704.39
633.813	10700.1
634.167	10634.79
634.521	10626.2
634.875	10616.94
635.229	10643.6
635.583	10588.92
635.937	10610.16
636.291	10568.8
636.645	10672.76
636.999	10595.02
637.352	10566.09
637.706	10508.69
638.06	10563.15
638.413	10506.88
638.767	10484.29
639.121	10563.38
639.474	10397.28
639.828	10493.78
640.181	10483.61
640.534	10503.95
640.888	10423.27
641.241	10384.85
641.594	10351.41
641.947	10386.89
642.301	10434.57
642.654	10358.19
643.007	10345.76
643.36	10388.7
643.713	10324.74
644.066	10333.1
644.419	10282.03
644.771	10296.95
645.124	10164.29
645.477	10200.45
645.83	10019.89
646.182	10097.4
646.535	10039.1
646.888	10047.01
647.24	9996.39
647.593	10030.97
647.945	10027.12
648.298	9908.03
648.65	9937.86
649.002	9890.63
649.355	10008.14
649.707	9949.39
650.059	9963.17
650.411	10173.33
650.763	10146.22
651.115	10223.73
651.467	10182.83
651.819	10198.19
652.171	10210.85
652.523	10144.63
652.875	10165.42
653.227	10141.47
653.578	10283.16
653.93	10186.89
654.282	10126.78
654.633	10134.01
654.985	10176.27
655.337	10200
655.688	10168.36
656.039	10273.44
656.391	10091.08
656.742	10190.96
657.094	10152.32
657.445	10224.63
657.796	10206.1
658.147	10161.81
658.498	10136.5
658.849	10226.44
659.2	10219.43
659.551	10210.85
659.902	10228.25
660.253	10198.42
660.604	10233.67
660.955	10167.68
661.306	10192.99
661.656	10120.68
662.007	10213.79
662.358	10166.1
662.708	10153.67
663.059	10256.5
663.409	10142.6
663.76	10228.93
664.11	10263.73
664.461	10234.8
664.811	10239.77
665.161	10171.3
665.511	10150.06
665.862	10227.57
666.212	10261.92
666.562	10232.09
666.912	10225.08
667.262	10245.42
667.612	10161.58
667.962	10223.73
668.312	10172.2
668.662	10251.07
669.011	10173.79
669.361	10205.42
669.711	10199.1
670.06	10161.36
670.41	10183.73
670.76	10096.73
671.109	10192.77
671.459	10193.9
671.808	10159.32
672.157	10140.79
672.507	10099.66
672.856	10148.7
673.205	10161.36
673.554	10068.48
673.904	10119.32
674.253	10183.5
674.602	10065.09
674.951	9992.32
675.3	9948.71
675.649	10029.61
675.998	10029.61
676.346	9990.74
676.695	10089.04
677.044	9985.54
677.393	9973.11
677.741	10022.15
678.09	9984.86
678.438	9957.97
678.787	9929.95
679.135	9960.68
679.484	9935.37
679.832	9908.48
680.181	9942.15
680.529	9930.4
680.877	9895.15
681.225	9879.1
681.573	9925.66
681.922	9820.35
682.27	9813.34
682.618	9841.59
682.966	9732.44
683.314	9788.49
683.661	9820.12
684.009	9747.58
684.357	9635.27
684.705	9670.07
685.053	9657.19
685.4	9699.22
685.748	9629.85
686.095	9631.65
686.443	9591.65
686.79	9510.53
687.138	9539.68
687.485	9527.7
687.832	9526.12
688.18	9476.4
688.527	9487.48
688.874	9390.76
689.221	9396.63
689.568	9349.63
689.915	9341.49
690.262	9358.44
690.609	9280.02
690.956	9258.56
691.303	9219.01
691.65	9158.45
691.997	9130.65
692.344	9042.06
692.69	9080.93
693.037	9023.31
693.383	9070.99
693.73	9062.18
694.077	8938.56
694.423	8974.72
694.769	8996.64
695.116	8878.68
695.462	8906.7
695.808	8943.54
696.155	8861.28
696.501	8815.4
696.847	8764.78
697.193	8790.32
697.539	8754.16
697.885	8695.63
698.231	8725.69
698.577	8706.48
698.923	8666.71
699.269	8625.8
699.614	8513.26
699.96	8522.98
700.306	8510.33
700.651	8424.91
700.997	8494.73
701.342	8442.08
701.688	8406.83
702.033	8374.96
702.379	8354.62
702.724	8325.93
703.069	8317.34
703.415	8225.59
703.76	8275.31
704.105	8181.52
704.45	8217.91
704.795	8124.12
705.14	8119.38
705.485	8139.94
705.83	8049.55
706.175	8031.7
706.52	7988.08
706.865	8034.63
707.209	7943.56
707.554	7974.52
707.899	7981.08
708.243	7931.81
708.588	7938.14
708.932	7780.18
709.277	7847.07
709.621	7829.89
709.966	7700.4
710.31	7828.54
710.654	7677.35
710.998	7754.19
711.342	7692.5
711.687	7751.93
712.031	7637.36
712.375	7627.19
712.719	7643.01
713.063	7641.65
713.407	7628.77
713.75	7574.08
714.094	7602.55
714.438	7560.07
714.782	7567.75
715.125	7508.55
715.469	7555.32
715.812	7490.92
716.156	7487.08
716.499	7454.54
716.843	7475.78
717.186	7433.29
717.53	7447.3
717.873	7436.23
718.216	7396.68
718.559	7341.77
718.902	7309.68
719.246	7321.88
719.589	7360.07
719.932	7286.4
720.275	7347.19
720.617	7351.04
720.96	7266.97
721.303	7342.45
721.646	7277.82
721.989	7253.18
722.331	7345.84
722.674	7258.61
723.016	7261.55
723.359	7262.22
723.701	7261.09
724.044	7228.78
724.386	7169.8
724.729	7212.51
725.071	7167.31
725.413	7179.29
725.755	7177.25
726.097	7151.27
726.439	7175.45
726.782	7135.9
727.124	7185.62
727.465	7133.64
727.807	7193.07
728.149	7128.44
728.491	7122.11
728.833	7156.24
729.175	7133.41
729.516	7092.96
729.858	7111.95
730.199	7141.78
730.541	7058.61
730.882	7132.51
731.224	7160.76
731.565	7102.91
731.906	7093.87
732.248	7100.65
732.589	7042.57
732.93	7096.8
733.271	7046.18
733.612	7098.84
733.953	7074.88
734.294	7033.3
734.635	7041.67
734.976	7043.7
735.317	7029.69
735.658	7055
735.999	7063.13
736.339	7078.05
736.68	7115.34
737.021	7085.73
737.361	7029.91
737.702	7082.57
738.042	7122.57
738.383	7040.08
738.723	7031.72
739.063	7049.8
739.404	7106.52
739.744	7102.23
740.084	7070.82
740.424	7092.96
740.764	7053.64
741.104	7116.47
741.444	7104.26
741.784	7142.23
742.124	7159.4
742.464	7138.39
742.804	7211.15
743.143	7155.33
743.483	7150.14
743.823	7169.57
744.162	7212.73
744.502	7217.03
744.841	7280.53
745.181	7275.11
745.52	7251.15
745.86	7333.86
746.199	7322.11
746.538	7331.38
746.877	7470.13
747.216	7480.98
747.556	7473.52
747.895	7464.25
748.234	7476.68
748.573	7646.39
748.911	7636.45
749.25	7753.51
749.589	7701.08
749.928	7790.8
750.267	7815.2
750.605	7819.95
750.944	7990.34
751.283	7963.67
751.621	8050.9
751.96	8084.35
752.298	8133.84
752.636	8265.59
752.975	8358.01
753.313	8370.9
753.651	8493.83
753.989	8568.63
754.327	8618.8
754.666	8649.53
755.004	8853.82
755.342	8943.99
755.679	8971.78
756.017	9059.01
756.355	9239.57
756.693	9254.71
757.031	9418.55
757.368	9504.65
757.706	9613.12
758.044	9683.86
758.381	9851.31
758.719	9981.02
759.056	10009.72
759.394	10168.81
759.731	10269.83
760.068	10406.1
760.405	10514.34
760.743	10613.32
761.08	10712.53
761.417	10853.54
761.754	10970.83
762.091	11094.67
762.428	11244.49
762.765	11353.19
763.102	11553.64
763.438	11640.87
763.775	11729.9
764.112	11866.85
764.449	12019.84
764.785	12091.7
765.122	12229.33
765.458	12314.75
765.795	12382.09
766.131	12587.28
766.467	12665.47
766.804	12704.12
767.14	12733.72
767.476	12995.86
767.812	12978.91
768.148	13131.9
768.485	13213.71
768.821	13265.91
769.157	13366.92
769.492	13501.38
769.828	13568.5
770.164	13507.03
770.5	13740.47
770.836	13822.05
771.171	13804.65
771.507	13863.63
771.842	13870.64
772.178	13976.85
772.513	14055.27
772.849	14193.34
773.184	14196.05
773.519	14254.13
773.855	14210.29
774.19	14267.46
774.525	14194.47
774.86	14364.41
775.195	14469.27
775.53	14509.04
775.865	14499.55
776.2	14442.15
776.535	14422.26
776.87	14543.16
777.205	14535.03
777.539	14611.18
777.874	14619.77
778.209	14579.55
778.543	14645.76
778.878	14629.94
779.212	14649.83
779.547	14607.57
779.881	14723.72
780.215	14609.38
780.55	14707.9
780.884	14669.04
781.218	14718.07
781.552	14718.75
781.886	14691.18
782.22	14636.95
782.554	14669.71
782.888	14582.71
783.222	14626.55
783.556	14575.48
783.889	14497.29
784.223	14521.92
784.557	14516.5
784.89	14606.21
785.224	14499.32
785.557	14538.19
785.891	14477.18
786.224	14461.36
786.558	14465.88
786.891	14401.25
787.224	14399.44
787.557	14408.48
787.891	14341.36
788.224	14363.51
788.557	14337.07
788.89	14377.97
789.223	14310.63
789.556	14201.93
789.888	14352.89
790.221	14202.61
790.554	14173.23
790.887	14130.07
791.219	14204.87
791.552	14089.84
791.884	13982.73
792.217	14042.16
792.549	13977.08
792.882	14008.71
793.214	13942.5
793.546	13954.93
793.879	13905.21
794.211	13735.27
794.543	13846.91
794.875	13854.14
795.207	13933.91
795.539	13845.78
795.871	13827.02
796.203	13702.73
796.535	13639.91
796.867	13626.35
797.198	13593.58
797.53	13680.13
797.862	13544.77
798.193	13507.48
798.525	13528.27
798.856	13496.41
799.188	13425.23
799.519	13394.04
799.85	13408.73
800.182	13440.82
800.513	13337.77
800.844	13196.98
801.175	13243.08
801.506	13257.77
801.837	13173.93
802.168	13164.44
802.499	13151.56
802.83	13049.87
803.161	13036.08
803.491	13081.51
803.822	13067.5
804.153	12956.54
804.483	12874.51
804.814	12818.24
805.145	12825.69
805.475	12820.27
805.805	12817.78
806.136	12824.11
806.466	12812.36
806.796	12760.38
807.126	12564.68
807.457	12715.41
807.787	12608.75
808.117	12553.16
808.447	12557.68
808.777	12505.02
809.107	12590.9
809.436	12563.78
809.766	12531.24
810.096	12389.55
810.426	12367.17
810.755	12389.77
811.085	12346.38
811.414	12353.62
811.744	12240.17
812.073	12374.18
812.403	12304.13
812.732	12262.32
813.061	12303.9
813.39	12141.87
813.719	12175.32
814.049	12238.82
814.378	12117.69
814.707	12117.92
815.036	12112.94
815.365	11945.27
815.693	11894.87
816.022	11975.09
816.351	11995.89
816.68	11949.33
817.008	11926.06
817.337	11817.36
817.665	11773.29
817.994	11838.83
818.322	11817.81
818.651	11740.75
818.979	11681.09
819.307	11787.53
819.636	11699.85
819.964	11598.83
820.292	11642
820.62	11679.28
820.948	11634.76
821.276	11661.66
821.604	11652.84
821.932	11631.83
822.259	11665.5
822.587	11713.41
822.915	11561.09
823.243	11660.3
823.57	11589.34
823.898	11638.83
824.225	11603.58
824.553	11549.57
824.88	11665.95
825.207	11680.64
825.535	11559.06
825.862	11594.31
826.189	11642.22
826.516	11691.03
826.843	11667.76
827.17	11705.95
827.497	11644.93
827.824	11652.39
828.151	11653.3
828.478	11679.06
828.805	11725.61
829.131	11606.74
829.458	11636.12
829.785	11610.13
830.111	11627.53
830.438	11626.18
830.764	11613.97
831.09	11681.54
831.417	11692.16
831.743	11626.86
832.069	11649.45
832.395	11585.95
832.722	11615.56
833.048	11564.26
833.374	11530.59
833.7	11605.61
834.026	11601.77
834.351	11582.11
834.677	11508.89
835.003	11578.95
835.329	11537.59
835.654	11505.05
835.98	11416.69
836.306	11456.01
836.631	11530.59
836.956	11489.23
837.282	11473.19
837.607	11428.44
837.932	11415.11
838.258	11452.62
838.583	11408.56
838.908	11320.2
839.233	11418.05
839.558	11331.72
839.883	11276.13
840.208	11236.58
840.533	11268.22
840.858	11321.33
841.182	11263.48
841.507	11295.56
841.832	11191.16
842.156	11175.57
842.481	11165.62
842.805	11166.53
843.13	11136.02
843.454	11106.42
843.778	11027.32
844.103	11028.68
844.427	10995.91
844.751	10986.42
845.075	10959.75
845.399	10970.83
845.723	10868.01
846.047	10911.39
846.371	10734
846.695	10756.37
847.019	10702.36
847.343	10678.41
847.666	10615.13
847.99	10570.16
848.313	10649.48
848.637	10568.58
848.96	10529.03
849.284	10440.22
849.607	10439.32
849.931	10379.66
850.254	10364.74
850.577	10278.64
850.9	10205.88
851.223	10238.64
851.546	10103.05
851.869	10084.52
852.192	10109.38
852.515	9951.65
852.838	9974.47
853.161	10065.77
853.483	10012.43
853.806	9917.97
854.129	9844.08
854.451	9809.05
854.774	9830.97
855.096	9734.25
855.419	9791.42
855.741	9748.94
856.063	9756.62
856.385	9677.53
856.708	9638.21
857.03	9607.25
857.352	9612.44
857.674	9601.82
857.996	9496.52
858.318	9485.44
858.64	9452.68
858.961	9474.37
859.283	9433.92
859.605	9355.73
859.926	9370.87
860.248	9335.16
860.57	9277.76
860.891	9333.13
861.212	9310.76
861.534	9296.97
861.855	9182.85
862.176	9179.91
862.498	9247.26
862.819	9278.67
863.14	9219.91
863.461	9195.73
863.782	9088.62
864.103	9080.71
864.424	9120.25
864.745	9087.94
865.065	9099.92
865.386	8982.86
865.707	9002.29
866.027	9024.89
866.348	9037.54
866.668	9024.21
866.989	8903.31
867.309	8976.76
867.63	8931.11
867.95	8994.83
868.27	8895.63
868.59	8861.96
868.91	8868.28
869.23	8856.53
869.55	8837.78
869.87	8892.46
870.19	8843.88
870.51	8861.73
870.83	8822.18
871.15	8770.43
871.469	8800.71
871.789	8820.38
872.109	8774.73
872.428	8691.34
872.748	8748.06
873.067	8748.29
873.386	8752.35
873.706	8720.04
874.025	8603.21
874.344	8661.28
874.663	8666.48
874.982	8658.12
875.301	8568.63
875.62	8570.21
875.939	8576.54
876.258	8600.72
876.577	8548.74
876.896	8536.99
877.214	8539.48
877.533	8481.63
877.852	8474.17
878.17	8513.94
878.489	8516.88
878.807	8505.58
879.125	8449.31
879.444	8421.52
879.762	8350.56
880.08	8362.08
880.398	8381.29
880.716	8404.34
881.034	8383.55
881.352	8359.37
881.67	8353.5
881.988	8360.73
882.306	8295.87
882.624	8278.69
882.941	8215.65
883.259	8229.43
883.577	8177.23
883.894	8165.48
884.212	8151.47
884.529	8154.63
884.846	8132.71
885.164	8165.48
885.481	8139.49
885.798	8108.98
886.115	7979.49
886.432	8062.66
886.75	8070.34
887.067	8032.83
887.383	7957.8
887.7	7961.41
888.017	7936.33
888.334	7962.54
888.651	7903.34
888.967	7829.22
889.284	7838.71
889.6	7847.75
889.917	7718.71
890.233	7790.12
890.55	7776.34
890.866	7764.36
891.182	7690.01
891.498	7738.14
891.815	7657.02
892.131	7652.27
892.447	7659.73
892.763	7550.35
893.079	7626.28
893.395	7614.31
893.71	7576.57
894.026	7520.75
894.342	7561.88
894.657	7437.59
894.973	7449.56
895.289	7429.23
895.604	7370.92
895.92	7328.66
896.235	7349
896.55	7330.92
896.865	7236.69
897.181	7316.69
897.496	7292.05
897.811	7208.89
898.126	7167.99
898.441	7189.23
898.756	7171.61
899.071	7141.78
899.386	7109.23
899.7	7040.76
900.015	7037.82
900.33	6956.02
900.644	6961.22
900.959	7026.98
901.273	6934.55
901.588	6932.06
901.902	6872.86
902.216	6857.49
902.531	6924.83
902.845	6872.4
903.159	6763.03
903.473	6747.66
903.787	6701.11
904.101	6714.22
904.415	6703.59
904.729	6678.51
905.042	6635.35
905.356	6656.36
905.67	6585.86
905.984	6613.2
906.297	6579.76
906.611	6482.36
906.924	6521.45
907.237	6492.98
907.551	6479.42
907.864	6441.91
908.177	6444.84
908.491	6354
908.804	6366.88
909.117	6286.2
909.43	6263.38
909.743	6243.95
910.056	6260.67
910.368	6190.16
910.681	6165.3
910.994	6174.8
911.307	6161.91
911.619	6153.55
911.932	6091.86
912.244	6056.15
912.557	6064.06
912.869	6026.55
913.181	6058.41
913.494	5960.56
913.806	5951.52
914.118	5953.78
914.43	5938.64
914.742	5846.67
915.054	5843.73
915.366	5890.28
915.678	5802.83
915.99	5819.1
916.302	5727.58
916.613	5744.52
916.925	5728.93
917.236	5691.19
917.548	5682.15
917.859	5656.39
918.171	5610.97
918.482	5573.68
918.794	5582.95
919.105	5594.92
919.416	5572.78
919.727	5519.67
920.038	5570.97
920.349	5527.13
920.66	5456.17
920.971	5435.61
921.282	5396.28
921.593	5381.6
921.903	5342.95
922.214	5381.14
922.525	5337.3
922.835	5303.18
923.146	5335.95
923.456	5306.57
923.767	5232.67
924.077	5231.77
924.387	5228.38
924.697	5185.22
925.008	5147.25
925.318	5137.08
925.628	5129.63
925.938	5074.03
926.248	5098.67
926.558	5014.6
926.867	5001.04
927.177	5060.7
927.487	4975.5
927.796	4962.4
928.106	4959.69
928.416	4931.44
928.725	4929.18
929.034	4914.94
929.344	4895.28
929.653	4858.22
929.962	4837.88
930.271	4832.01
930.581	4834.72
930.89	4763.98
931.199	4735.74
931.508	4747.04
931.817	4702.74
932.125	4718.56
932.434	4665.68
932.743	4630.43
933.051	4590.66
933.36	4610.77
933.669	4595.85
933.977	4559.47
934.286	4586.36
934.594	4525.35
934.902	4507.27
935.21	4469.3
935.519	4460.72
935.827	4488.96
936.135	4425.69
936.443	4411.68
936.751	4425.01
937.059	4441.06
937.367	4405.8
937.674	4376.65
937.982	4385.01
938.29	4344.79
938.597	4326.93
938.905	4287.39
939.213	4258.46
939.52	4261.17
939.827	4281.06
940.135	4211.23
940.442	4189.99
940.749	4212.81
941.056	4198.35
941.363	4111.57
941.67	4118.58
941.977	4115.64
942.284	4096.66
942.591	4121.29
942.898	4045.36
943.205	4041.29
943.511	4041.74
943.818	4007.62
944.125	3994.51
944.431	4002.65
944.738	3961.07
945.044	3936.66
945.35	3924.01
945.657	3919.04
945.963	3916.32
946.269	3886.27
946.575	3878.36
946.881	3825.7
947.187	3837.46
947.493	3834.52
947.799	3812.6
948.105	3778.7
948.41	3776.44
948.716	3748.64
949.022	3778.02
949.327	3733.28
949.633	3698.7
949.938	3720.4
950.244	3698.48
950.549	3642.21
950.854	3642.66
951.16	3640.4
951.465	3607.63
951.77	3601.3
952.075	3594.98
952.38	3544.81
952.685	3539.84
952.99	3554.98
953.294	3534.41
953.599	3505.71
953.904	3512.72
954.209	3463
954.513	3472.95
954.818	3400.63
955.122	3395.89
955.426	3416.22
955.731	3398.6
956.035	3403.57
956.339	3397.69
956.643	3382.33
956.948	3345.94
957.252	3329.67
957.556	3311.14
957.86	3342.55
958.163	3305.94
958.467	3288.32
958.771	3320.86
959.075	3265.04
959.378	3244.7
959.682	3216.45
959.985	3189.11
960.289	3202.44
960.592	3186.17
960.896	3155.21
961.199	3173.52
961.502	3092.39
961.805	3100.3
962.108	3110.7
962.411	3089.45
962.714	3079.28
963.017	3075.67
963.32	3050.81
963.623	3035.67
963.926	3046.06
964.228	3004.48
964.531	2994.99
964.833	3015.78
965.136	2980.08
965.438	2984.82
965.741	2960.19
966.043	2952.06
966.345	2921.55
966.648	2940.08
966.95	2961.09
967.252	2883.13
967.554	2879.06
967.856	2893.53
968.158	2877.48
968.46	2854.88
968.761	2865.05
969.063	2808.33
969.365	2820.53
969.666	2821.44
969.968	2827.31
970.269	2797.48
970.571	2787.54
970.872	2773.53
971.174	2744.83
971.475	2732.17
971.776	2751.16
972.077	2704.83
972.378	2705.06
972.679	2692.85
972.98	2682.46
973.281	2656.92
973.582	2643.14
973.883	2623.25
974.183	2661.67
974.484	2600.43
974.785	2607.21
975.085	2623.48
975.386	2591.16
975.686	2566.75
975.986	2567.21
976.287	2548.45
976.587	2546.87
976.887	2532.86
977.187	2527.43
977.487	2513.87
977.787	2498.73
978.087	2462.58
978.387	2478.4
978.687	2472.97
978.987	2450.6
979.286	2468.68
979.586	2437.27
979.885	2407.89
980.185	2421.67
980.484	2412.63
980.784	2381.67
981.083	2408.79
981.382	2388.45
981.682	2397.49
981.981	2345.52
982.28	2332.86
982.579	2326.08
982.878	2293.09
983.177	2319.08
983.475	2304.61
983.774	2273.65
984.073	2287.89
984.372	2263.71
984.67	2258.29
984.969	2284.05
985.267	2235.92
985.566	2256.48
985.864	2237.5
986.162	2221
986.461	2235.69
986.759	2197.5
987.057	2161.57
987.355	2183.49
987.653	2154.79
987.951	2154.79
988.249	2167.67
988.547	2105.3
988.844	2104.39
989.142	2133.77
989.44	2118.4
989.737	2092.42
990.035	2110.04
990.332	2073.21
990.63	2036.15
990.927	2029.59
991.224	2051.97
991.521	2038.18
991.819	2008.35
992.116	1993.66
992.413	1994.57
992.71	2011.74
993.006	1981.91
993.303	1994.79
993.6	2002.02
993.897	1956.38
994.193	1938.75
994.49	1947.11
994.787	1952.08
995.083	1957.73
995.379	1921.57
995.676	1914.57
995.972	1891.52
996.268	1894
996.565	1888.58
996.861	1891.97
997.157	1851.97
997.453	1855.81
997.749	1848.13
998.044	1846.55
998.34	1853.1
998.636	1813.78
998.932	1815.81
999.227	1801.35
999.523	1811.07
999.818	1799.54
1000.114	1764.29
1000.409	1774.23
1000.704	1769.04
1001	1748.47
1001.295	1728.13
1001.59	1720.22
1001.885	1716.83
1002.18	1723.84
1002.475	1740.79
1002.77	1714.35
1003.065	1709.6
1003.359	1689.94
1003.654	1680.9
1003.949	1665.76
1004.243	1647
1004.538	1638.42
1004.832	1634.35
1005.127	1598.19
1005.421	1612.66
1005.715	1640
1006.009	1630.28
1006.304	1614.46
1006.598	1615.82
1006.892	1582.6
1007.186	1558.19
1007.48	1556.61
1007.773	1580.57
1008.067	1540.79
1008.361	1518.65
1008.655	1503.51
1008.948	1501.25
1009.242	1528.82
1009.535	1487.23
1009.829	1502.15
1010.122	1467.57
1010.415	1478.42
1010.708	1455.82
1011.001	1463.05
1011.295	1459.21
1011.588	1464.41
1011.881	1442.26
1012.173	1434.35
1012.466	1434.13
1012.759	1430.06
1013.052	1382.38
1013.344	1404.53
1013.637	1400.46
1013.93	1368.59
1014.222	1368.37
1014.514	1355.26
1014.807	1347.35
1015.099	1376.5
1015.391	1374.24
1015.683	1345.32
1015.976	1320.23
1016.268	1319.78
1016.56	1294.25
1016.851	1299.67
1017.143	1295.6
1017.435	1291.31
1017.727	1263.06
1018.018	1268.71
1018.31	1294.02
1018.602	1259.67
1018.893	1232.1
1019.185	1236.62
1019.476	1217.19
1019.767	1202.04
1020.058	1217.86
1020.35	1218.32
1020.641	1194.14
1020.932	1216.28
1021.223	1180.12
1021.514	1170.63
1021.804	1178.77
1022.095	1164.98
1022.386	1169.5
1022.677	1180.8
1022.967	1131.31
1023.258	1163.18
1023.548	1149.62
1023.839	1144.65
1024.129	1122.72
1024.419	1104.87
1024.709	1114.14
1025	1089.96
1025.29	1092.89
1025.58	1087.92
1025.87	1056.29
1026.16	1056.51
1026.449	1064.2
1026.739	1052.44
1027.029	1038.89
1027.319	1050.64
1027.608	1009.06
1027.898	1006.12
1028.187	1029.62
1028.477	1050.64
1028.766	1023.97
1029.055	1004.54
1029.344	987.81
1029.634	1002.5
1029.923	998.43
1030.212	982.39
1030.501	995.95
1030.79	986.23
1031.078	975.61
1031.367	972.45
1031.656	957.98
1031.945	966.34
1032.233	928.15
1032.522	921.83
1032.81	938.55
1033.099	914.59
1033.387	940.13
1033.675	913.92
1033.963	927.93
1034.251	908.72
1034.54	908.72
1034.828	919.34
1035.116	893.8
1035.403	882.05
1035.691	885.44
1035.979	883.86
1036.267	865.33
1036.554	863.75
1036.842	867.59
1037.129	854.71
1037.417	847.48
1037.704	856.07
1037.992	810.64
1038.279	853.58
1038.566	833.01
1038.853	833.01
1039.14	833.01
