Data from hue_330_FLMS001491_91.txt Node
Date: Mon Feb 06 15:46:10 GMT 2017
User: dcchb
Spectrometer: FLMS00149
Trigger mode: 0
Integration Time (sec): 2.000000E-2
Scans to average: 10
Electric dark correction enabled: true
Nonlinearity correction enabled: false
Boxcar width: 0
XAxis mode: Wavelengths
Number of Pixels in Spectrum: 2048
>>>>>Begin Spectral Data<<<<<
341.393	-17.01
341.776	-17.01
342.16	-17.01
342.543	-61.3
342.927	-78.7
343.31	-71.47
343.693	-63.33
344.077	-52.71
344.46	-62.43
344.843	-57.68
345.226	-54.97
345.61	-40.73
345.993	-13.39
346.376	-16.33
346.759	17.12
347.142	33.84
347.525	48.3
347.908	47.4
348.291	81.3
348.674	105.48
349.057	99.6
349.44	120.62
349.823	135.99
350.206	163.56
350.588	187.96
350.971	196.32
351.354	197
351.737	229.09
352.119	229.54
352.502	259.37
352.884	270.9
353.267	273.83
353.65	270.9
354.032	267.28
354.414	296.21
354.797	310.9
355.179	335.53
355.562	313.16
355.944	321.07
356.326	321.07
356.709	317
357.091	310.9
357.473	345.7
357.855	342.76
358.238	338.47
358.62	318.13
359.002	318.35
359.384	341.63
359.766	333.27
360.148	313.38
360.53	338.47
360.912	335.53
361.294	331.69
361.676	321.97
362.057	343.44
362.439	331.91
362.821	321.29
363.203	315.87
363.584	307.51
363.966	308.64
364.348	337.56
364.729	305.25
365.111	317.22
365.493	305.92
365.874	309.54
366.256	300.27
366.637	307.05
367.019	311.12
367.4	302.08
367.781	290.33
368.163	291.46
368.544	317.9
368.925	312.93
369.306	327.39
369.688	297.79
370.069	310.44
370.45	319.48
370.831	314.51
371.212	310.44
371.593	285.81
371.974	314.29
372.355	304.79
372.736	304.34
373.117	321.07
373.498	310.22
373.879	315.64
374.26	310.9
374.641	309.54
375.021	305.92
375.402	306.83
375.783	316.55
376.163	310.67
376.544	317.68
376.925	313.38
377.305	325.13
377.686	312.25
378.066	305.02
378.447	313.61
378.827	333.95
379.208	312.48
379.588	334.17
379.968	326.71
380.349	335.3
380.729	325.36
381.109	343.66
381.489	331.46
381.87	337.79
382.25	324.68
382.63	338.47
383.01	326.26
383.39	333.49
383.77	309.77
384.15	335.3
384.53	336.66
384.91	354.51
385.29	322.87
385.67	349.54
386.049	332.36
386.429	346.6
386.809	353.83
387.189	344.57
387.568	340.73
387.948	333.04
388.328	355.87
388.707	333.49
389.087	342.53
389.466	342.53
389.846	334.85
390.225	342.08
390.605	345.02
390.984	347.5
391.363	348.41
391.743	365.58
392.122	355.64
392.501	367.17
392.881	350.89
393.26	352.25
393.639	363.32
394.018	379.59
394.397	364.45
394.776	367.39
395.155	348.86
395.534	377.11
395.913	357.22
396.292	366.26
396.671	345.47
397.05	366.26
397.429	383.44
397.808	392.25
398.186	376.2
398.565	374.4
398.944	416.2
399.323	388.41
399.701	388.86
400.08	389.09
400.458	401.06
400.837	390.89
401.215	418.46
401.594	402.19
401.972	417.11
402.351	398.13
402.729	373.49
403.107	392.48
403.486	435.86
403.864	420.5
404.242	393.61
404.62	407.62
404.999	425.02
405.377	409.2
405.755	415.98
406.133	435.64
406.511	420.95
406.889	413.72
407.267	437.67
407.645	441.29
408.023	444.9
408.401	432.7
408.779	426.82
409.156	443.32
409.534	471.12
409.912	465.47
410.29	479.25
410.667	478.8
411.045	483.09
411.422	492.13
411.8	483.09
412.178	473.83
412.555	484.9
412.933	507.5
413.31	496.43
413.687	507.95
414.065	512.92
414.442	525.13
414.819	527.16
415.197	529.42
415.574	544.56
415.951	542.98
416.328	546.6
416.705	547.5
417.082	558.8
417.46	568.52
417.837	580.49
418.214	587.95
418.591	581.17
418.967	593.15
419.344	589.53
419.721	587.5
420.098	606.48
420.475	613.71
420.852	590.89
421.228	615.75
421.605	620.27
421.982	641.06
422.358	639.25
422.735	630.44
423.111	639.93
423.488	633.15
423.864	649.19
424.241	679.02
424.617	661.4
424.994	675.18
425.37	669.98
425.746	691
426.123	709.76
426.499	705.01
426.875	710.66
427.251	724.67
427.627	726.25
428.003	724.67
428.379	749.3
428.756	726.7
429.132	748.4
429.507	744.78
429.883	796.31
430.259	776.19
430.635	767.15
431.011	805.35
431.387	809.41
431.763	797.66
432.138	791.34
432.514	821.62
432.89	816.19
433.265	845.12
433.641	857.55
434.016	836.53
434.392	875.4
434.767	874.95
435.143	894.84
435.518	917.21
435.894	884.67
436.269	925.34
436.644	918.34
437.02	927.6
437.395	926.47
437.77	972.35
438.145	970.99
438.52	982.06
438.895	963.53
439.271	970.99
439.646	988.39
440.021	984.78
440.395	989.52
440.77	1002.63
441.145	1006.7
441.52	1022.97
441.895	1015.51
442.27	1025.23
442.645	1021.16
443.019	1025
443.394	1010.76
443.769	1039.01
444.143	1045.34
444.518	1049.41
444.892	1030.42
445.267	1055.96
445.641	1077.88
446.016	1051.67
446.39	1079.01
446.764	1080.82
447.139	1067.03
447.513	1084.43
447.887	1089.86
448.262	1102.51
448.636	1104.77
449.01	1091.44
449.384	1121.27
449.758	1091.21
450.132	1155.17
450.506	1140.03
450.88	1129.18
451.254	1135.51
451.628	1133.25
452.002	1158.33
452.376	1169.4
452.75	1159.69
453.123	1153.59
453.497	1171.89
453.871	1177.99
454.244	1198.33
454.618	1208.27
454.992	1213.02
455.365	1204.21
455.739	1253.92
456.112	1237.2
456.486	1257.31
456.859	1253.02
457.232	1281.27
457.606	1269.51
457.979	1286.92
458.352	1283.75
458.725	1301.6
459.099	1301.83
459.472	1341.83
459.845	1349.74
460.218	1343.19
460.591	1375.5
460.964	1381.15
461.337	1399.23
461.71	1409.17
462.083	1410.08
462.456	1404.43
462.829	1404.65
463.201	1426.35
463.574	1457.31
463.947	1470.41
464.32	1457.98
464.692	1499.57
465.065	1498.44
465.438	1502.73
465.81	1539.56
466.183	1540.47
466.555	1568.72
466.928	1565.33
467.3	1554.03
467.672	1598.55
468.045	1608.49
468.417	1620.69
468.789	1630.64
469.161	1615.27
469.534	1672.89
469.906	1671.76
470.278	1682.39
470.65	1706.57
471.022	1727.13
471.394	1779.56
471.766	1774.59
472.138	1793.34
472.51	1813.91
472.882	1848.93
473.253	1865.88
473.625	1876.28
473.997	1863.85
474.369	1918.31
474.74	1924.64
475.112	1993.34
475.484	1989.72
475.855	1963.51
476.227	2035.14
476.598	2049.16
476.97	2082.83
477.341	2105.88
477.713	2137.29
478.084	2140.68
478.455	2215.93
478.827	2219.55
479.198	2249.38
479.569	2255.03
479.94	2317.17
480.311	2311.3
480.682	2355.81
481.053	2420.22
481.424	2425.64
481.795	2444.4
482.166	2493.21
482.537	2509.48
482.908	2531.18
483.279	2561.23
483.65	2606.65
484.021	2632.42
484.391	2671.51
484.762	2708.12
485.133	2723.26
485.503	2721.23
485.874	2794.67
486.244	2808.68
486.615	2835.58
486.985	2881.9
487.356	2929.13
487.726	2939.53
488.097	2994.89
488.467	2981.33
488.837	3045.51
489.207	3098.85
489.578	3153.53
489.948	3138.17
490.318	3210.71
490.688	3220.65
491.058	3240.31
491.428	3264.49
491.798	3293.19
492.168	3355.56
492.538	3397.59
492.908	3382.91
493.278	3424.26
493.648	3416.58
494.017	3457.03
494.387	3469
494.757	3530.92
495.126	3546.29
495.496	3571.83
495.866	3553.52
496.235	3616.35
496.605	3661.77
496.974	3659.96
497.344	3628.55
497.713	3730.69
498.082	3705.83
498.452	3776.57
498.821	3770.69
499.19	3746.96
499.559	3829.22
499.928	3810.92
500.298	3842.33
500.667	3848.43
501.036	3848.88
501.405	3902.89
501.774	3871.71
502.143	3916
502.512	3938.6
502.88	3985.15
503.249	3979.05
503.618	3976.79
503.987	4019.95
504.356	3993.74
504.724	4069.22
505.093	4035.09
505.462	4077.8
505.83	4056.33
506.199	4096.56
506.567	4139.95
506.936	4148.08
507.304	4159.16
507.672	4204.13
508.041	4156.44
508.409	4188.53
508.777	4229.89
509.145	4251.36
509.514	4257.23
509.882	4280.96
510.25	4258.36
510.618	4310.56
510.986	4286.16
511.354	4341.98
511.722	4380.85
512.09	4356.67
512.458	4382.2
512.826	4410.22
513.193	4408.87
513.561	4407.29
513.929	4479.37
514.297	4489.09
514.664	4491.12
515.032	4475.08
515.4	4494.74
515.767	4499.03
516.135	4500.16
516.502	4502.2
516.869	4574.06
517.237	4570.9
517.604	4547.85
517.972	4579.03
518.339	4595.98
518.706	4578.58
519.073	4628.97
519.44	4589.88
519.808	4693.61
520.175	4626.94
520.542	4700.61
520.909	4735.41
521.276	4696.32
521.643	4736.09
522.009	4794.17
522.376	4812.92
522.743	4840.95
523.11	4838.23
523.477	4888.85
523.843	4852.7
524.21	4872.58
524.577	4936.76
524.943	4945.12
525.31	4941.73
525.676	4963.2
526.043	4985.8
526.409	5039.81
526.776	5081.62
527.142	5088.17
527.508	5103.54
527.874	5086.82
528.241	5185.8
528.607	5146.25
528.973	5195.74
529.339	5222.86
529.705	5250.88
530.071	5274.61
530.437	5293.14
530.803	5297.21
531.169	5374.27
531.535	5315.28
531.901	5377.66
532.267	5357.77
532.632	5422.4
532.998	5405.9
533.364	5488.39
533.73	5476.41
534.095	5550.31
534.461	5527.26
534.826	5563.41
535.192	5607.93
535.557	5623.07
535.923	5599.8
536.288	5675.05
536.653	5633.69
537.019	5634.82
537.384	5695.84
537.749	5716.4
538.114	5790.98
538.479	5729.96
538.845	5752.11
539.21	5787.36
539.575	5805.21
539.94	5821.94
540.305	5878.21
540.67	5831.88
541.034	5906.68
541.399	5954.82
541.764	5936.06
542.129	6042.72
542.494	5990.52
542.858	6012.44
543.223	6066.22
543.587	6096.28
543.952	6088.82
544.316	6048.6
544.681	6124.08
545.045	6169.27
545.41	6244.53
545.774	6247.24
546.138	6223.96
546.503	6236.62
546.867	6241.81
547.231	6325.43
547.595	6315.71
547.959	6366.33
548.324	6355.26
548.688	6442.49
549.052	6417.4
549.416	6451.3
549.779	6483.39
550.143	6501.24
550.507	6557.74
550.871	6552.77
551.235	6541.01
551.599	6606.1
551.962	6611.97
552.326	6573.56
552.689	6682.25
553.053	6583.5
553.417	6630.28
553.78	6745.53
554.143	6720.44
554.507	6761.8
554.87	6674.8
555.234	6749.14
555.597	6785.53
555.96	6762.7
556.323	6794.57
556.686	6877.95
557.05	6887.67
557.413	6867.11
557.776	6899.2
558.139	6921.34
558.502	6901.46
558.865	6977.84
559.228	7067.1
559.59	6970.38
559.953	7088.34
560.316	7111.39
560.679	7161.79
561.041	7120.89
561.404	7139.19
561.767	7215.35
562.129	7148.46
562.492	7214.44
562.854	7244.95
563.217	7189.36
563.579	7259.87
563.941	7301.45
564.304	7315.46
564.666	7371.05
565.028	7357.94
565.39	7401.78
565.753	7450.37
566.115	7486.3
566.477	7441.78
566.839	7478.39
567.201	7551.38
567.563	7578.05
567.925	7572.17
568.287	7634.32
568.648	7627.31
569.01	7682.68
569.372	7702.79
569.734	7706.41
570.095	7749.12
570.457	7738.95
570.819	7817.59
571.18	7866.86
571.542	7884.03
571.903	7901.88
572.265	7955.67
572.626	8019.39
572.987	8040.64
573.349	8131.48
573.71	8132.61
574.071	8192.5
574.432	8295.32
574.794	8380.51
575.155	8342.55
575.516	8387.52
575.877	8481.53
576.238	8536.22
576.599	8604.69
576.96	8672.71
577.32	8679.94
577.681	8858.69
578.042	8925.13
578.403	8964
578.763	9017.79
579.124	9163.54
579.485	9292.13
579.845	9385.01
580.206	9483.08
580.566	9570.31
580.927	9704.32
581.287	9845.33
581.648	9936.41
582.008	10127.36
582.368	10236.51
582.728	10391.99
583.089	10454.58
583.449	10650.74
583.809	10870.62
584.169	11076.71
584.529	11180.67
584.889	11487.33
585.249	11624.72
585.609	11804.6
585.969	12080.08
586.329	12223.8
586.688	12427.87
587.048	12637.8
587.408	12850.45
587.768	13065.81
588.127	13270.78
588.487	13498.35
588.846	13885.23
589.206	13997.32
589.565	14260.59
589.925	14620.8
590.284	14861.47
590.643	15156.83
591.003	15380.56
591.362	15739.64
591.721	16032.74
592.08	16272.96
592.44	16617.81
592.799	16808.99
593.158	17112.26
593.517	17426.83
593.876	17690.78
594.235	17954.73
594.593	18296.19
594.952	18650.98
595.311	18801.71
595.67	19243.73
596.029	19639.65
596.387	19944.73
596.746	20117.15
597.104	20470.37
597.463	20753.3
597.822	21103.57
598.18	21357.35
598.538	21571.13
598.897	22013.15
599.255	22075.52
599.613	22820.81
599.972	22892
600.33	23214.47
600.688	23522.04
601.046	23723.84
601.404	24091.74
601.762	24246.76
602.12	24750.25
602.478	24918.16
602.836	25246.74
603.194	25303.91
603.552	25693.28
603.91	25970.79
604.268	26298.24
604.625	26455.29
604.983	26859.12
605.341	26809.86
605.698	27237.19
606.056	27480.35
606.413	27705.88
606.771	28105.42
607.128	28288.69
607.485	28453.66
607.843	28649.13
608.2	29129.35
608.557	29311.26
608.914	29410.7
609.272	29850.23
609.629	30088.19
609.986	30366.38
610.343	30335.87
610.7	30782.86
611.057	30889.3
611.414	31094.49
611.771	31337.65
612.127	31649.51
612.484	31730.86
612.841	31976.5
613.198	31997.07
613.554	32145.31
613.911	32584.4
614.267	32643.15
614.624	32857.16
614.98	33081.11
615.337	33338.73
615.693	33264.83
616.05	33443.81
616.406	33951.59
616.762	33865.04
617.118	33931.48
617.475	34098.71
617.831	34332.15
618.187	34531.46
618.543	34629.32
618.899	35045.58
619.255	35060.72
619.611	35059.81
619.967	35426.13
620.323	35410.76
620.678	35407.83
621.034	35490.31
621.39	35595.62
621.746	35633.13
622.101	36217.75
622.457	35924.65
622.812	36114.02
623.168	36222.95
623.523	36401.02
623.879	36482.15
624.234	36339.1
624.589	36636.04
624.945	36689.37
625.3	36668.36
625.655	36781.35
626.01	36991.97
626.365	36898.63
626.72	37091.85
627.075	37011.63
627.43	37088.69
627.785	37182.02
628.14	37203.03
628.495	37310.37
628.85	37318.51
629.205	37303.14
629.559	37585.85
629.914	37581.78
630.269	37571.61
630.623	37423.82
630.978	37424.04
631.332	37761.89
631.687	37905.84
632.041	37731.61
632.396	37824.26
632.75	37706.52
633.104	37829.91
633.459	37745.39
633.813	37763.02
634.167	37691.16
634.521	37815.67
634.875	37831.27
635.229	37878.72
635.583	37723.25
635.937	37827.65
636.291	37801.44
636.645	37789.46
636.999	37744.94
637.352	37799.18
637.706	37834.88
638.06	37974.31
638.413	37731.83
638.767	37732.51
639.121	37873.52
639.474	37771.15
639.828	37697.03
640.181	37863.58
640.534	37793.07
640.888	37714.21
641.241	37488.22
641.594	37645.28
641.947	37885.73
642.301	37668.56
642.654	37814.32
643.007	37910.59
643.36	37695.68
643.713	37672.4
644.066	37797.59
644.419	37509.92
644.771	37295.46
645.124	37026.09
645.477	37067.9
645.83	36834.68
646.182	36762.59
646.535	36678.75
646.888	36710.62
647.24	36529.38
647.593	36778.19
647.945	36632.43
648.298	36470.4
648.65	36381.13
649.002	36398.99
649.355	36542.94
649.707	36390.4
650.059	36567.34
650.411	36954.23
650.763	37120.55
651.115	37446.87
651.467	37273.31
651.819	37311.28
652.171	37294.1
652.523	37285.97
652.875	37143.15
653.227	37102.47
653.578	37260.88
653.93	37143.6
654.282	37173.43
654.633	37095.92
654.985	37089.36
655.337	37148.57
655.688	37223.15
656.039	37254.56
656.391	36825.19
656.742	36985.19
657.094	37123.49
657.445	37227.44
657.796	36963.94
658.147	36944.73
658.498	36907.9
658.849	37088.01
659.2	37048.23
659.551	36871.52
659.902	37120.1
660.253	36848.47
660.604	37015.69
660.955	36791.97
661.306	36913.32
661.656	36789.26
662.007	36899.54
662.358	36899.99
662.708	36850.27
663.059	36804.63
663.409	36762.37
663.76	37025.41
664.11	36969.82
664.461	36837.39
664.811	37000.33
665.161	36885.53
665.511	36884.17
665.862	36883.04
666.212	36962.81
666.562	36899.31
666.912	36786.55
667.262	36795.36
667.612	36865.19
667.962	36767.56
668.312	36795.59
668.662	36987.67
669.011	36895.24
669.361	36735.02
669.711	36602.6
670.06	36718.53
670.41	36732.76
670.76	36750.39
671.109	36745.19
671.459	36774.57
671.808	36675.59
672.157	36706.1
672.507	36605.08
672.856	36556.72
673.205	36587.91
673.554	36746.1
673.904	36692.99
674.253	36825.64
674.602	36709.94
674.951	36117.41
675.3	35954.7
675.649	36594.01
675.998	36478.53
676.346	36410.96
676.695	36606.44
677.044	36331.87
677.393	36429.49
677.741	36521.24
678.09	36336.39
678.438	36159.67
678.787	36371.64
679.135	36218.2
679.484	36114.7
679.832	36234.02
680.181	36072.89
680.529	36210.74
680.877	36107.47
681.225	35937.76
681.573	36285.09
681.922	35773.69
682.27	35786.35
682.618	35872.45
682.966	35699.12
683.314	35830.41
683.661	35727.59
684.009	35595.39
684.357	35579.12
684.705	35443.98
685.053	35449.63
685.4	35443.53
685.748	35246.25
686.095	35339.35
686.443	35110.21
686.79	35197.66
687.138	35189.53
687.485	35109.98
687.832	35047.61
688.18	35058
688.527	34900.49
688.874	34830.89
689.221	34820.27
689.568	34718.58
689.915	34736.88
690.262	34602.2
690.609	34462.54
690.956	34529.66
691.303	34315.88
691.65	34372.83
691.997	34173.28
692.344	34111.59
692.69	33992.27
693.037	34167.86
693.383	33816.91
693.73	33985.26
694.077	33648.78
694.423	33761.77
694.769	33633.41
695.116	33554.32
695.462	33482.68
695.808	33426.18
696.155	33467.99
696.501	33183.25
696.847	33213.76
697.193	32892.64
697.539	33084.5
697.885	32887.21
698.231	32669.37
698.577	32784.62
698.923	32702.36
699.269	32451.97
699.614	32432.09
699.96	32448.58
700.306	32392.99
700.651	32172.88
700.997	32203.62
701.342	32122.49
701.688	32093.56
702.033	31922.49
702.379	32015.37
702.724	31896.28
703.069	31896.51
703.415	31473.01
703.76	31594.37
704.105	31609.06
704.45	31623.74
704.795	31388.27
705.14	31301.72
705.485	31151.21
705.83	31014.04
706.175	31080.71
706.52	30962.52
706.865	30958.9
707.209	30995.06
707.554	30823.09
707.899	30825.35
708.243	30645.47
708.588	30624.9
708.932	30447.5
709.277	30445.7
709.621	30419.71
709.966	30138.59
710.31	30358.92
710.654	30061.98
710.998	30159.83
711.342	30096.55
711.687	30086.16
712.031	29839.61
712.375	29796.45
712.719	29774.3
713.063	29697.24
713.407	29772.04
713.75	29674.42
714.094	29740.63
714.438	29481.43
714.782	29564.82
715.125	29440.53
715.469	29499.73
715.812	29303.13
716.156	29083.92
716.499	29176.8
716.843	29222.9
717.186	29018.16
717.53	29120.08
717.873	29079.63
718.216	29055
718.559	28926.41
718.902	28710.15
719.246	28736.36
719.589	28647.78
719.932	28550.83
720.275	28616.82
720.617	28557.61
720.96	28600.55
721.303	28490.72
721.646	28471.29
721.989	28292.31
722.331	28468.8
722.674	28236.72
723.016	28326.43
723.359	28291.4
723.701	28265.64
724.044	28110.39
724.386	27829.72
724.729	28042.6
725.071	28022.26
725.413	27947.91
725.755	28038.98
726.097	27777.29
726.439	27769.61
726.782	27740.46
727.124	27727.58
727.465	27635.83
727.807	27602.83
728.149	27631.31
728.491	27509.5
728.833	27666.33
729.175	27565.55
729.516	27402.84
729.858	27427.47
730.199	27381.14
730.541	27375.04
730.882	27269.73
731.224	27429.05
731.565	27226.12
731.906	27139.12
732.248	27243.97
732.589	26984.32
732.93	26939.35
733.271	26896.19
733.612	26975.73
733.953	27018.44
734.294	26828.62
734.635	26871.33
734.976	26934.15
735.317	26709.75
735.658	26803.98
735.999	26679.02
736.339	26627.94
736.68	26764.89
737.021	26570.77
737.361	26505.91
737.702	26610.09
738.042	26472.02
738.383	26404.45
738.723	26539.13
739.063	26340.49
739.404	26352.02
739.744	26284.45
740.084	26207.39
740.424	26230.89
740.764	26099.6
741.104	26158.58
741.444	26004.01
741.784	26078.81
742.124	26069.09
742.464	25972.59
742.804	25961.97
743.143	25931.24
743.483	25864.12
743.823	25666.39
744.162	25672.49
744.502	25840.62
744.841	25638.37
745.181	25693.28
745.52	25618.7
745.86	25613.28
746.199	25589.1
746.538	25458.48
746.877	25469.78
747.216	25500.29
747.556	25400.86
747.895	25431.37
748.234	25241.09
748.573	25255.55
748.911	25144.37
749.25	25198.6
749.589	24941.89
749.928	25166.74
750.267	25108.44
750.605	25006.07
750.944	24957.25
751.283	24926.07
751.621	24973.75
751.96	24814.88
752.298	24862.79
752.636	24818.95
752.975	24772.85
753.313	24478.85
753.651	24726.52
753.989	24438.62
754.327	24453.99
754.666	24339.64
755.004	24405.18
755.342	24411.73
755.679	24368.57
756.017	24328.8
756.355	24301
756.693	24074.56
757.031	24140.1
757.368	24037.73
757.706	23989.82
758.044	23865.76
758.381	23921.12
758.719	23837.96
759.056	23865.08
759.394	23730.62
759.731	23708.02
760.068	23568.59
760.405	23472.09
760.743	23465.54
761.08	23510.74
761.417	23266.22
761.754	23381.7
762.091	23237.52
762.428	23124.53
762.765	22953.92
763.102	23075.72
763.438	22954.59
763.775	22799.12
764.112	22789.85
764.449	22960.7
764.785	22795.73
765.122	22491.1
765.458	22521.16
765.795	22428.96
766.131	22453.82
766.467	22367.72
766.804	22257.89
767.14	22176.99
767.476	22185.8
767.812	22032.13
768.148	21904.9
768.485	21840.05
768.821	21852.02
769.157	21801.4
769.492	21661.75
769.828	21673.95
770.164	21431.24
770.5	21495.2
770.836	21379.95
771.171	21308.31
771.507	21279.38
771.842	21129.33
772.178	21185.83
772.513	21089.78
772.849	20972.5
773.184	20754.65
773.519	20931.82
773.855	20751.94
774.19	20659.74
774.525	20581.55
774.86	20568.44
775.195	20591.94
775.53	20440.76
775.865	20314.21
776.2	20284.61
776.535	20018.63
776.87	20068.57
777.205	19996.03
777.539	19958.97
777.874	20001.68
778.209	19755.36
778.543	19726.2
778.878	19653.21
779.212	19584.51
779.547	19477.62
779.881	19506.78
780.215	19376.84
780.55	19336.16
780.884	19221.13
781.218	19227.23
781.552	19157.63
781.886	19116.5
782.22	19008.94
782.554	18985.88
782.888	18686.01
783.222	18752.9
783.556	18607.14
783.889	18666.35
784.223	18406.24
784.557	18426.13
784.89	18454.37
785.224	18353.13
785.557	18341.61
785.891	18211.22
786.224	18239.69
786.558	18172.35
786.891	18009.19
787.224	17963.54
787.557	17888.74
787.891	17844.67
788.224	17775.07
788.557	17761.96
788.89	17749.76
789.223	17700.27
789.556	17515.19
789.888	17554.51
790.221	17531.69
790.554	17345.48
790.887	17335.31
791.219	17136.67
791.552	17126.95
791.884	17099.61
792.217	16987.75
792.549	17081.98
792.882	16914.08
793.214	16823.68
793.546	16867.97
793.879	16771.48
794.211	16631.6
794.543	16691.71
794.875	16626.4
795.207	16737.36
795.539	16441.32
795.871	16548.66
796.203	16215.79
796.535	16187.09
796.867	16284.49
797.198	16222.57
797.53	16208.56
797.862	16062.35
798.193	16081.1
798.525	15969.47
798.856	15993.2
799.188	15863.93
799.519	15801.56
799.85	15691.73
800.182	15771.73
800.513	15672.53
800.844	15535.81
801.175	15643.83
801.506	15656.26
801.837	15462.81
802.168	15442.48
802.499	15424.4
802.83	15355.7
803.161	15270.73
803.491	15296.49
803.822	15211.75
804.153	15227.11
804.483	15077.74
804.814	15038.19
805.145	14989.38
805.475	15056.5
805.805	14943.96
806.136	14938.99
806.466	14920.68
806.796	14927.01
807.126	14792.1
807.457	14697.18
807.787	14656.73
808.117	14677.75
808.447	14499.22
808.777	14633.91
809.107	14522.05
809.436	14505.78
809.766	14459.45
810.096	14425.1
810.426	14367.25
810.755	14415.16
811.085	14391.43
811.414	14318.21
811.744	14247.93
812.073	14201.83
812.403	14185.11
812.732	14066.69
813.061	14081.38
813.39	13955.28
813.719	13979.69
814.049	14025.79
814.378	13984.89
814.707	13871.67
815.036	13877.32
815.365	13786.02
815.693	13696.53
816.022	13718.9
816.351	13680.94
816.68	13561.62
817.008	13689.75
817.337	13564.33
817.665	13558.01
817.994	13530.66
818.322	13492.47
818.651	13429.65
818.979	13436.65
819.307	13467.16
819.636	13304.9
819.964	13311.91
820.292	13407.05
820.62	13362.76
820.948	13314.85
821.276	13313.27
821.604	13258.8
821.932	13283.44
822.259	13304
822.587	13261.74
822.915	13255.19
823.243	13332.02
823.57	13223.55
823.898	13186.49
824.225	13222.19
824.553	13174.06
824.88	13191.24
825.207	13188.98
825.535	13159.6
825.862	13282.08
826.189	13155.53
826.516	13205.7
826.843	13266.26
827.17	13235.98
827.497	13215.64
827.824	13272.59
828.151	13254.28
828.478	13188.75
828.805	13181.29
829.131	13151.24
829.458	13103.78
829.785	13096.55
830.111	13151.69
830.438	13221.06
830.764	13209.99
831.09	13133.38
831.417	13028.53
831.743	13135.42
832.069	13025.14
832.395	13075.76
832.722	13036.66
833.048	13115.3
833.374	13112.14
833.7	13064.68
834.026	13047.96
834.351	13068.75
834.677	13040.73
835.003	12978.81
835.329	13080.73
835.654	13061.29
835.98	13006.38
836.306	12941.3
836.631	12846.39
836.956	12906.27
837.282	12872.15
837.607	12877.35
837.932	12833.73
838.258	12862.88
838.583	12792.6
838.908	12718.48
839.233	12837.12
839.558	12712.38
839.883	12714.64
840.208	12703.34
840.533	12666.73
840.858	12624.02
841.182	12657.92
841.507	12525.04
841.832	12518.71
842.156	12564.36
842.481	12551.48
842.805	12545.6
843.13	12511.03
843.454	12465.6
843.778	12414.98
844.103	12362.56
844.427	12330.24
844.751	12368.43
845.075	12297.93
845.399	12309.22
845.723	12193.52
846.047	12217.7
846.371	12080.76
846.695	12106.29
847.019	12000.98
847.343	11985.84
847.666	11900.42
847.99	11832.4
848.313	11846.86
848.637	11781.78
848.96	11713.76
849.284	11768
849.607	11579.3
849.931	11548.11
850.254	11519.41
850.577	11457.95
850.9	11365.29
851.223	11339.31
851.546	11338.85
851.869	11338.63
852.192	11310.15
852.515	11203.26
852.838	11113.1
853.161	11194.23
853.483	11137.73
853.806	11058.86
854.129	11017.96
854.451	10969.82
854.774	10997.17
855.096	10915.14
855.419	10771.19
855.741	10870.17
856.063	10773.9
856.385	10755.82
856.708	10714.92
857.03	10737.29
857.352	10660.23
857.674	10643.28
857.996	10592.21
858.318	10505.88
858.64	10588.14
858.961	10596.05
859.283	10443.51
859.605	10479.44
859.926	10537.29
860.248	10398.31
860.57	10367.81
860.891	10426.56
861.212	10374.13
861.534	10360.8
861.855	10260.01
862.176	10301.59
862.498	10284.42
862.819	10284.19
863.14	10267.7
863.461	10128.26
863.782	10132.56
864.103	10216.4
864.424	10134.37
864.745	10152.9
865.065	10110.19
865.386	10013.24
865.707	10102.05
866.027	10115.84
866.348	10020.7
866.668	10075.61
866.989	10002.62
867.309	9925.33
867.63	9884.66
867.95	9953.35
868.27	9906.12
868.59	9839.68
868.91	9883.07
869.23	9846.46
869.55	9860.25
869.87	9844.66
870.19	9780.25
870.51	9846.92
870.83	9826.58
871.15	9762.85
871.469	9761.49
871.789	9735.05
872.109	9746.35
872.428	9647.37
872.748	9715.85
873.067	9714.49
873.386	9765.56
873.706	9689.18
874.025	9625
874.344	9532.12
874.663	9632.68
874.982	9580.03
875.301	9564.44
875.62	9552.23
875.939	9468.17
876.258	9412.8
876.577	9512.91
876.896	9432.69
877.214	9379.58
877.533	9402.18
877.852	9417.32
878.17	9430.2
878.489	9483.76
878.807	9363.31
879.125	9363.77
879.444	9349.3
879.762	9288.74
880.08	9311.79
880.398	9230.89
880.716	9316.99
881.034	9275.86
881.352	9213.26
881.67	9170.1
881.988	9199.7
882.306	9215.07
882.624	9170.55
882.941	9113.83
883.259	9057.78
883.577	9050.33
883.894	9062.76
884.212	9063.21
884.529	9087.39
884.846	9086.94
885.164	9003.32
885.481	8933.04
885.798	9011.23
886.115	8885.81
886.432	8991.35
886.75	8907.05
887.067	8871.8
887.383	8798.58
887.7	8844.91
888.017	8833.61
888.334	8807.62
888.651	8741.18
888.967	8742.31
889.284	8710
889.6	8666.61
889.917	8600.62
890.233	8676.55
890.55	8601.53
890.866	8565.37
891.182	8555.88
891.498	8566.72
891.815	8517.69
892.131	8505.48
892.447	8510.91
892.763	8428.2
893.079	8454.18
893.395	8400.85
893.71	8361.76
894.026	8283.79
894.342	8357.24
894.657	8242.44
894.973	8203.12
895.289	8246.28
895.604	8262.33
895.92	8172.61
896.235	8131.93
896.55	8103.46
896.865	8057.58
897.181	8065.95
897.496	8059.17
897.811	8030.69
898.126	7953.41
898.441	7931.26
898.756	7931.03
899.071	7877.25
899.386	7911.6
899.7	7848.1
900.015	7838.38
900.33	7784.6
900.644	7731.94
900.959	7834.09
901.273	7778.27
901.588	7759.06
901.902	7593.42
902.216	7606.52
902.531	7585.96
902.845	7573.98
903.159	7563.36
903.473	7507.09
903.787	7497.6
904.101	7380.31
904.415	7438.62
904.729	7408.56
905.042	7366.3
905.356	7358.62
905.67	7358.39
905.984	7320.88
906.297	7284.27
906.611	7260.32
906.924	7269.13
907.237	7218.51
907.551	7223.03
907.864	7159.08
908.177	7138.06
908.491	7117.27
908.804	7105.29
909.117	6999.76
909.43	7024.17
909.743	6929.25
910.056	6959.76
910.368	6966.09
910.681	6927.9
910.994	6833.44
911.307	6841.8
911.619	6837.5
911.932	6825.75
912.244	6713.67
912.557	6745.3
912.869	6673.67
913.181	6623.95
913.494	6654.91
913.806	6647.45
914.118	6554.8
914.43	6531.3
914.742	6526.33
915.054	6488.59
915.366	6478.64
915.678	6454.69
915.99	6422.15
916.302	6371.98
916.613	6400.23
916.925	6378.98
917.236	6296.73
917.548	6270.74
917.859	6288.14
918.171	6238.2
918.482	6231.87
918.794	6163.62
919.105	6189.16
919.416	6107.58
919.727	6122.72
920.038	6087.47
920.349	6054.25
920.66	6059.22
920.971	6032.1
921.282	5946
921.593	5928.15
921.903	5910.3
922.214	5927.92
922.525	5922.95
922.835	5854.48
923.146	5822.84
923.456	5821.26
923.767	5768.38
924.077	5755.27
924.387	5753.46
924.697	5733.8
925.008	5692.45
925.318	5687.7
925.628	5661.72
925.938	5624.2
926.248	5542.17
926.558	5588.05
926.867	5551.66
927.177	5501.49
927.487	5464.66
927.796	5489.97
928.106	5507.14
928.416	5432.34
928.725	5415.39
929.034	5367.26
929.344	5380.59
929.653	5379.69
929.962	5381.95
930.271	5300.82
930.581	5322.29
930.89	5269.86
931.199	5244.33
931.508	5196.19
931.817	5212.69
932.125	5212.01
932.434	5139.24
932.743	5153.48
933.051	5059.47
933.36	5078.45
933.669	5084.1
933.977	5051.34
934.286	5048.17
934.594	4950.77
934.902	4926.37
935.21	4892.02
935.519	4917.55
935.827	4952.13
936.135	4878.01
936.443	4815.86
936.751	4821.51
937.059	4773.15
937.367	4758.91
937.674	4743.55
937.982	4804.56
938.29	4711.01
938.597	4740.16
938.905	4675.07
939.213	4671.23
939.52	4648.18
939.827	4661.97
940.135	4640.27
940.442	4666.49
940.749	4578.58
941.056	4609.31
941.363	4500.39
941.67	4553.95
941.977	4496.1
942.284	4493.38
942.591	4466.94
942.898	4429.43
943.205	4432.14
943.511	4426.72
943.818	4384.24
944.125	4380.17
944.431	4366.38
944.738	4337.91
945.044	4287.06
945.35	4266.05
945.657	4273.73
945.963	4244.58
946.269	4239.38
946.575	4265.82
946.881	4217.69
947.187	4139.95
947.493	4179.27
947.799	4105.15
948.105	4125.48
948.41	4116.9
948.716	4099.72
949.022	4074.41
949.327	4085.26
949.633	4083
949.938	4034.64
950.244	3997.8
950.549	3997.8
950.854	3995.54
951.16	3965.49
951.465	3934.3
951.77	3920.07
952.075	3916.45
952.38	3886.62
952.685	3846.4
952.99	3875.77
953.294	3845.72
953.599	3841.65
953.904	3839.16
954.209	3765.27
954.513	3766.85
954.818	3735.21
955.122	3733.86
955.426	3707.19
955.731	3703.57
956.035	3697.7
956.339	3679.17
956.643	3710.35
956.948	3651.82
957.252	3638.72
957.556	3628.32
957.86	3646.4
958.163	3610.7
958.467	3585.61
958.771	3560.08
959.075	3529.34
959.378	3551.26
959.682	3543.13
959.985	3489.12
960.289	3471.94
960.592	3481.21
960.896	3456.35
961.199	3465.62
961.502	3450.02
961.805	3431.72
962.108	3355.11
962.411	3366.41
962.714	3338.39
963.017	3316.69
963.32	3354.21
963.623	3343.58
963.926	3290.7
964.228	3228.79
964.531	3267.43
964.833	3257.94
965.136	3227.88
965.438	3253.42
965.741	3210.03
966.043	3214.1
966.345	3215.23
966.648	3162.57
966.95	3185.4
967.252	3109.69
967.554	3137.49
967.856	3143.59
968.158	3132.29
968.46	3130.26
968.761	3081.44
969.063	3044.16
969.365	3058.85
969.666	3066.76
969.968	2999.41
970.269	3000.54
970.571	3003.25
970.872	2965.74
971.174	2963.48
971.475	3011.84
971.776	2965.52
972.077	2922.13
972.378	2930.71
972.679	2878.06
972.98	2908.34
973.281	2925.29
973.582	2898.85
973.883	2888
974.183	2844.16
974.484	2854.11
974.785	2814.56
975.085	2826.31
975.386	2789.47
975.686	2802.36
975.986	2794.22
976.287	2800.77
976.587	2730.95
976.887	2743.6
977.187	2746.99
977.487	2727.56
977.787	2751.74
978.087	2682.13
978.387	2680.1
978.687	2703.15
978.987	2697.27
979.286	2638.07
979.586	2647.56
979.885	2628.8
980.185	2641.46
980.484	2603.94
980.784	2626.77
981.083	2566.43
981.382	2555.81
981.682	2578.86
981.981	2551.51
982.28	2539.76
982.579	2477.84
982.878	2522.14
983.177	2509.48
983.475	2501.35
983.774	2496.38
984.073	2476.26
984.372	2453.44
984.67	2458.64
984.969	2443.95
985.267	2441.91
985.566	2419.77
985.864	2409.6
986.162	2419.99
986.461	2374.57
986.759	2401.24
987.057	2385.42
987.355	2365.98
987.653	2362.59
987.951	2347
988.249	2300.22
988.547	2314.68
988.844	2300.9
989.142	2307.68
989.44	2254.12
989.737	2287.12
990.035	2229.72
990.332	2241.01
990.63	2234.91
990.927	2263.16
991.224	2242.6
991.521	2229.49
991.819	2213.67
992.116	2208.92
992.413	2199.89
992.71	2153.56
993.006	2184.97
993.303	2139.55
993.6	2159.43
993.897	2133.45
994.193	2159.43
994.49	2119.89
994.787	2149.49
995.083	2100.45
995.379	2084.18
995.676	2076.27
995.972	2055.26
996.268	2064.07
996.565	2066.33
996.861	2046.67
997.157	1985.43
997.453	2010.51
997.749	2001.7
998.044	1996.05
998.34	1979.1
998.636	1992.21
998.932	1977.74
999.227	1939.55
999.523	1929.61
999.818	1938.88
1000.114	1934.13
1000.409	1914.24
1000.704	1911.98
1001	1925.77
1001.295	1894.58
1001.59	1869.27
1001.885	1895.71
1002.18	1857.3
1002.475	1847.8
1002.77	1847.58
1003.065	1835.15
1003.359	1841.48
1003.654	1813.91
1003.949	1783.85
1004.243	1787.92
1004.538	1767.13
1004.832	1771.2
1005.127	1775.49
1005.421	1773
1005.715	1774.36
1006.009	1746.34
1006.304	1707.7
1006.598	1708.15
1006.892	1703.63
1007.186	1692.1
1007.48	1692.55
1007.773	1689.39
1008.067	1658.2
1008.361	1669.05
1008.655	1653.23
1008.948	1628.83
1009.242	1647.81
1009.535	1610.52
1009.829	1629.51
1010.122	1606.23
1010.415	1593.12
1010.708	1604.42
1011.001	1568.72
1011.295	1563.07
1011.588	1566
1011.881	1542.28
1012.173	1547.7
1012.466	1531.65
1012.759	1518.55
1013.052	1530.75
1013.344	1525.33
1013.637	1508.6
1013.93	1481.03
1014.222	1475.61
1014.514	1469.96
1014.807	1474.03
1015.099	1439.68
1015.391	1452.79
1015.683	1449.62
1015.976	1453.92
1016.268	1439.45
1016.56	1428.38
1016.851	1392.9
1017.143	1409.62
1017.435	1408.49
1017.727	1388.38
1018.018	1383.18
1018.31	1410.53
1018.602	1347.03
1018.893	1339.34
1019.185	1363.98
1019.476	1344.99
1019.767	1340.7
1020.058	1333.92
1020.35	1327.14
1020.641	1312.23
1020.932	1293.02
1021.223	1297.54
1021.514	1272.68
1021.804	1258.89
1022.095	1263.87
1022.386	1262.28
1022.677	1248.27
1022.967	1254.83
1023.258	1247.14
1023.548	1264.32
1023.839	1205.56
1024.129	1208.73
1024.419	1198.1
1024.709	1210.76
1025	1179.12
1025.29	1182.06
1025.58	1177.09
1025.87	1166.01
1026.16	1148.61
1026.449	1150.65
1026.739	1144.32
1027.029	1149.52
1027.319	1117.2
1027.608	1113.59
1027.898	1134.83
1028.187	1103.64
1028.477	1088.73
1028.766	1091.67
1029.055	1057.99
1029.344	1067.71
1029.634	1078.79
1029.923	1054.83
1030.212	1061.84
1030.501	1064.55
1030.79	1054.38
1031.078	1053.02
1031.367	1015.51
1031.656	1026.81
1031.945	999.69
1032.233	1008.05
1032.522	1005.34
1032.81	989.75
1033.099	977.77
1033.387	982.74
1033.675	954.27
1033.963	970.09
1034.251	956.3
1034.54	979.58
1034.828	940.71
1035.116	948.62
1035.403	933.48
1035.691	946.81
1035.979	953.14
1036.267	933.93
1036.554	947.49
1036.842	912.46
1037.129	927.6
1037.417	895.29
1037.704	898.45
1037.992	922.18
1038.279	878.79
1038.566	888.06
1038.853	888.06
1039.14	888.06
