Data from hue_10_FLMS001491_64.txt Node
Date: Mon Feb 06 15:32:19 GMT 2017
User: dcchb
Spectrometer: FLMS00149
Trigger mode: 0
Integration Time (sec): 2.000000E-2
Scans to average: 10
Electric dark correction enabled: true
Nonlinearity correction enabled: false
Boxcar width: 0
XAxis mode: Wavelengths
Number of Pixels in Spectrum: 2048
>>>>>Begin Spectral Data<<<<<
341.393	-9.7
341.776	-9.7
342.16	-9.7
342.543	-70.49
342.927	-59.87
343.31	-63.94
343.693	-68.68
344.077	-53.09
344.46	-69.14
344.843	-56.48
345.226	-38.63
345.61	-25.07
345.993	-20.1
346.376	0.47
346.759	5.89
347.142	20.58
347.525	20.13
347.908	50.18
348.291	82.27
348.674	100.58
349.057	115.04
349.44	107.36
349.823	169.28
350.206	177.64
350.588	197.3
350.971	207.92
351.354	244.75
351.737	232.1
352.119	246.56
352.502	251.53
352.884	281.14
353.267	289.5
353.65	288.14
354.032	299.67
354.414	286.11
354.797	322.27
355.179	324.07
355.562	321.14
355.944	336.28
356.326	348.25
356.709	324.53
357.091	345.09
357.473	348.48
357.855	331.76
358.238	346.45
358.62	323.17
359.002	330.17
359.384	343.06
359.766	358.87
360.148	335.15
360.53	329.95
360.912	340.12
361.294	309.16
361.676	337.41
362.057	320.68
362.439	329.27
362.821	323.17
363.203	314.13
363.584	321.14
363.966	334.47
364.348	328.82
364.729	331.3
365.111	308.25
365.493	322.27
365.874	328.14
366.256	307.12
366.637	312.1
367.019	319.33
367.4	315.94
367.781	311.87
368.163	303.06
368.544	329.27
368.925	308.48
369.306	326.79
369.688	312.77
370.069	323.62
370.45	315.71
370.831	310.97
371.212	296.96
371.593	311.87
371.974	310.74
372.355	309.84
372.736	304.64
373.117	315.94
373.498	335.6
373.879	320.91
374.26	327.92
374.641	310.51
375.021	319.1
375.402	309.16
375.783	333.11
376.163	328.14
376.544	309.38
376.925	317.75
377.305	337.18
377.686	317.75
378.066	343.51
378.447	310.97
378.827	316.39
379.208	308.48
379.588	331.08
379.968	332.66
380.349	323.17
380.729	334.47
381.109	336.95
381.489	318.65
381.87	317.07
382.25	334.69
382.63	343.96
383.01	332.66
383.39	345.09
383.77	334.92
384.15	335.6
384.53	323.85
384.91	334.47
385.29	330.63
385.67	336.05
386.049	349.38
386.429	364.07
386.809	348.71
387.189	354.13
387.568	339.89
387.948	337.18
388.328	357.29
388.707	353.45
389.087	344.41
389.466	357.52
389.846	344.64
390.225	364.3
390.605	355.94
390.984	356.39
391.363	338.08
391.743	348.71
392.122	351.87
392.501	376.05
392.881	355.49
393.26	344.64
393.639	346.9
394.018	363.17
394.397	362.72
394.776	360
395.155	373.56
395.534	363.39
395.913	382.83
396.292	384.18
396.671	361.36
397.05	378.08
397.429	369.5
397.808	374.24
398.186	390.96
398.565	355.03
398.944	377.86
399.323	376.28
399.701	371.76
400.08	385.31
400.458	367.69
400.837	401.13
401.215	399.33
401.594	392.55
401.972	392.77
402.351	389.38
402.729	390.74
403.107	373.56
403.486	398.42
403.864	397.29
404.242	365.65
404.62	391.87
404.999	399.1
405.377	388.25
405.755	397.74
406.133	401.36
406.511	384.18
406.889	405.2
407.267	405.2
407.645	408.14
408.023	407.01
408.401	384.64
408.779	402.94
409.156	407.46
409.534	413.34
409.912	411.53
410.29	416.27
410.667	427.35
411.045	428.25
411.422	420.34
411.8	449.95
412.178	449.27
412.555	421.25
412.933	428.48
413.31	449.49
413.687	425.99
414.065	465.31
414.442	427.8
414.819	415.6
415.197	444.3
415.574	464.63
415.951	448.14
416.328	468.48
416.705	443.84
417.082	488.14
417.46	462.15
417.837	484.52
418.214	459.44
418.591	446.56
418.967	476.16
419.344	446.33
419.721	474.35
420.098	483.84
420.475	473.67
420.852	482.94
421.228	469.61
421.605	501.7
421.982	496.72
422.358	487.68
422.735	482.49
423.111	490.17
423.488	500.34
423.864	496.27
424.241	507.8
424.617	498.53
424.994	520.9
425.37	531.98
425.746	517.74
426.123	525.88
426.499	520.68
426.875	508.93
427.251	515.25
427.627	552.09
428.003	538.76
428.379	548.93
428.756	543.73
429.132	544.86
429.507	534.24
429.883	545.31
430.259	567.68
430.635	557.06
431.011	559.55
431.387	583.05
431.763	578.3
432.138	592.09
432.514	590.96
432.89	586.44
433.265	580.34
433.641	607.46
434.016	588.93
434.392	595.03
434.767	612.2
435.143	609.26
435.518	604.74
435.894	639.55
436.269	627.12
436.644	611.98
437.02	630.51
437.395	624.18
437.77	632.77
438.145	654.91
438.52	654.91
438.895	648.13
439.271	658.08
439.646	656.95
440.021	665.99
440.395	648.81
440.77	673.89
441.145	695.36
441.52	677.28
441.895	668.47
442.27	674.35
442.645	673.44
443.019	700.56
443.394	668.25
443.769	706.44
444.143	701.01
444.518	693.33
444.892	684.97
445.267	713.89
445.641	734.46
446.016	726.55
446.39	680.9
446.764	704.4
447.139	723.38
447.513	724.74
447.887	738.98
448.262	746.21
448.636	706.44
449.01	716.83
449.384	722.93
449.758	755.47
450.132	751.41
450.506	764.74
450.88	761.58
451.254	748.24
451.628	745.76
452.002	787.11
452.376	775.36
452.75	797.73
453.123	797.73
453.497	795.02
453.871	819.65
454.244	824.17
454.618	805.19
454.992	805.42
455.365	805.64
455.739	828.24
456.112	814.91
456.486	852.42
456.859	852.87
457.232	838.64
457.606	860.1
457.979	872.31
458.352	902.59
458.725	893.1
459.099	895.36
459.472	897.84
459.845	906.88
460.218	898.97
460.591	933.55
460.964	929.48
461.337	945.98
461.71	965.41
462.083	965.86
462.456	975.36
462.829	966.77
463.201	999.31
463.574	997.73
463.947	1015.35
464.32	1014
464.692	1006.54
465.065	1044.05
465.438	1033.21
465.81	1077.27
466.183	1053.77
466.555	1074.79
466.928	1080.44
467.3	1112.98
467.672	1108.23
468.045	1138.06
468.417	1145.52
468.789	1140.55
469.161	1169.47
469.534	1190.27
469.906	1199.53
470.278	1184.16
470.65	1212.41
471.022	1263.94
471.394	1257.61
471.766	1269.13
472.138	1255.12
472.51	1326.08
472.882	1326.53
473.253	1336.02
473.625	1361.33
473.997	1387.1
474.369	1389.81
474.74	1385.06
475.112	1437.04
475.484	1432.07
475.855	1479.52
476.227	1520.88
476.598	1527.88
476.97	1538.5
477.341	1593.64
477.713	1617.37
478.084	1583.25
478.455	1643.81
478.827	1702.34
479.198	1726.97
479.569	1765.84
479.94	1786.63
480.311	1797.03
480.682	1844.94
481.053	1870.93
481.424	1921.55
481.795	1939.17
482.166	1966.29
482.537	2006.97
482.908	2034.76
483.279	2079.96
483.65	2127.42
484.021	2138.49
484.391	2165.83
484.762	2205.83
485.133	2232.72
485.503	2265.04
485.874	2326.05
486.244	2350.01
486.615	2398.37
486.985	2416.45
487.356	2448.54
487.726	2464.81
488.097	2510.23
488.467	2549.78
488.837	2639.72
489.207	2638.59
489.578	2695.08
489.948	2722.2
490.318	2788.87
490.688	2794.74
491.058	2822.99
491.428	2837.45
491.798	2897.57
492.168	2949.09
492.538	3025.25
492.908	2982.53
493.278	3054.4
493.648	3071.57
494.017	3117.9
494.387	3119.93
494.757	3182.08
495.126	3229.08
495.496	3198.35
495.866	3259.36
496.235	3275.41
496.605	3295.97
496.974	3335.29
497.344	3367.84
497.713	3369.42
498.082	3400.15
498.452	3450.32
498.821	3479.7
499.19	3542.29
499.559	3551.56
499.928	3563.76
500.298	3523.31
500.667	3635.17
501.036	3599.69
501.405	3661.61
501.774	3629.3
502.143	3715.62
502.512	3746.58
502.88	3732.35
503.249	3764.66
503.618	3770.76
503.987	3766.92
504.356	3834.04
504.724	3799.46
505.093	3825.22
505.462	3852.12
505.83	3869.74
506.199	3886.92
506.567	3937.99
506.936	3938.22
507.304	3967.37
507.672	3988.38
508.041	4018.21
508.409	4036.74
508.777	4040.36
509.145	4130.98
509.514	4097.31
509.882	4128.49
510.25	4084.43
510.618	4126.69
510.986	4169.62
511.354	4176.18
511.722	4219.56
512.09	4254.37
512.458	4234.03
512.826	4263.86
513.193	4288.49
513.561	4213.46
513.929	4286
514.297	4369.16
514.664	4344.53
515.032	4352.44
515.4	4388.37
515.767	4435.6
516.135	4393.8
516.502	4429.73
516.869	4487.81
517.237	4505.21
517.604	4458.43
517.972	4514.02
518.339	4510.4
518.706	4485.55
519.073	4545.21
519.44	4533.45
519.808	4609.61
520.175	4596.5
520.542	4669.5
520.909	4618.88
521.276	4634.02
521.643	4638.54
522.009	4754.01
522.376	4713.11
522.743	4742.26
523.11	4822.71
523.477	4819.32
523.843	4824.29
524.21	4885.76
524.577	4875.37
524.943	4905.2
525.31	4905.65
525.676	4972.99
526.043	4965.53
526.409	4952.2
526.776	5010.28
527.142	5048.69
527.508	5095.7
527.874	5083.72
528.241	5157.84
528.607	5137.28
528.973	5173.21
529.339	5174.34
529.705	5209.82
530.071	5304.96
530.437	5285.07
530.803	5306.09
531.169	5365.97
531.535	5366.88
531.901	5410.04
532.267	5416.37
532.632	5436.93
532.998	5455.46
533.364	5466.31
533.73	5503.37
534.095	5520.77
534.461	5507.89
534.826	5593.99
535.192	5613.65
535.557	5649.58
535.923	5554.22
536.288	5674.89
536.653	5688.68
537.019	5648.91
537.384	5730.94
537.749	5733.65
538.114	5729.58
538.479	5779.52
538.845	5737.94
539.21	5809.8
539.575	5826.98
539.94	5850.93
540.305	5827.21
540.67	5873.98
541.034	5890.48
541.399	5898.16
541.764	5974.32
542.129	5990.82
542.494	6041.66
542.858	6036.92
543.223	6069.01
543.587	6080.76
543.952	6029.91
544.316	6129.57
544.681	6103.36
545.045	6139.51
545.41	6169.57
545.774	6243.92
546.138	6217.25
546.503	6234.88
546.867	6285.95
547.231	6299.51
547.595	6302.9
547.959	6284.37
548.324	6377.25
548.688	6375.21
549.052	6411.6
549.416	6411.82
549.779	6477.81
550.143	6447.98
550.507	6472.61
550.871	6556.23
551.235	6526.17
551.599	6587.41
551.962	6615.89
552.326	6609.78
552.689	6623.79
553.053	6629.9
553.417	6653.85
553.78	6682.1
554.143	6716
554.507	6737.46
554.87	6734.98
555.234	6819.95
555.597	6694.98
555.96	6787.63
556.323	6836.22
556.686	6819.5
557.05	6850.91
557.413	6911.47
557.776	6957.35
558.139	6981.98
558.502	7012.71
558.865	6953.05
559.228	6982.2
559.59	7034.18
559.953	7059.94
560.316	7136.32
560.679	7154.18
561.041	7214.97
561.404	7207.51
561.767	7216.32
562.129	7171.8
562.492	7214.06
562.854	7201.86
563.217	7235.3
563.579	7285.02
563.941	7357.11
564.304	7372.7
564.666	7399.14
565.028	7400.72
565.39	7449.31
565.753	7452.7
566.115	7482.08
566.477	7492.92
566.839	7497.67
567.201	7540.15
567.563	7547.39
567.925	7588.97
568.287	7639.36
568.648	7687.5
569.01	7743.31
569.372	7749.41
569.734	7734.95
570.095	7827.6
570.457	7887.26
570.819	7908.73
571.18	7856.08
571.542	8022.18
571.903	7943.76
572.265	8007.71
572.626	8060.82
572.987	8115.96
573.349	8160.25
573.71	8185.11
574.071	8175.84
574.432	8305.33
574.794	8260.14
575.155	8352.34
575.516	8399.79
575.877	8438.89
576.238	8492.45
576.599	8578.09
576.96	8619.9
577.32	8688.15
577.681	8781.48
578.042	8785.32
578.403	8910.29
578.763	8961.59
579.124	9040.45
579.485	9200.68
579.845	9208.36
580.206	9289.71
580.566	9378.75
580.927	9503.27
581.287	9623.26
581.648	9777.61
582.008	9870.04
582.368	9921.34
582.728	10056.02
583.089	10246.98
583.449	10419.4
583.809	10497.82
584.169	10646.74
584.529	10713.4
584.889	10990.91
585.249	11095.99
585.609	11276.78
585.969	11500.05
586.329	11615.53
586.688	11891.68
587.048	12040.38
587.408	12193.59
587.768	12382.74
588.127	12585.9
588.487	12815.72
588.846	13034.25
589.206	13174.13
589.565	13465.42
589.925	13775.47
590.284	13939.53
590.643	14163.48
591.003	14486.19
591.362	14803.01
591.721	14942.45
592.08	15173.4
592.44	15475.77
592.799	15673.05
593.158	15954.62
593.517	16161.85
593.876	16528.85
594.235	16720.48
594.593	17068.04
594.952	17386.68
595.311	17543.28
595.67	17872.99
596.029	18260.1
596.387	18504.84
596.746	18709.13
597.104	19079.29
597.463	19232.05
597.822	19692.83
598.18	19766.73
598.538	20191.57
598.897	20512.92
599.255	20623.65
599.613	21220.25
599.972	21159.68
600.33	21578.66
600.688	21766.67
601.046	22167.57
601.404	22512.19
601.762	22781.79
602.12	23038.5
602.478	23229.01
602.836	23654.31
603.194	23611.14
603.552	24000.51
603.91	24180.62
604.268	24495.19
604.625	24761.17
604.983	25070.99
605.341	25179.24
605.698	25575.84
606.056	25971.08
606.413	26115.26
606.771	26395.7
607.128	26610.16
607.485	26616.04
607.843	26887.67
608.2	27281.33
608.557	27497.37
608.914	27593.64
609.272	27997.92
609.629	28206.5
609.986	28543.22
610.343	28553.61
610.7	29006.71
611.057	29042.19
611.414	29373.93
611.771	29415.74
612.127	29739.57
612.484	29805.56
612.841	30029.73
613.198	30278.54
613.554	30391.53
613.911	30616.16
614.267	30859.54
614.624	30971.18
614.98	31144.73
615.337	31406.87
615.693	31453.65
616.05	31561.44
616.406	31923.02
616.762	31900.42
617.118	32052.05
617.475	32217.7
617.831	32464.02
618.187	32619.27
618.543	32806.84
618.899	33141.97
619.255	33264.45
619.611	33145.13
619.967	33444.78
620.323	33641.84
620.678	33590.09
621.034	33700.37
621.39	33754.15
621.746	33841.38
622.101	34436.17
622.457	34161.83
622.812	34286.12
623.168	34392.1
623.523	34471.42
623.879	34649.72
624.234	34442.72
624.589	34669.84
624.945	34865.54
625.3	34972.88
625.655	35116.6
626.01	35126.55
626.365	35096.04
626.72	35148.24
627.075	35217.17
627.43	35200.9
627.785	35215.59
628.14	35472.75
628.495	35469.36
628.85	35462.13
629.205	35566.99
629.559	35720.88
629.914	35623.71
630.269	35752.97
630.623	35654.9
630.978	35587.78
631.332	35813.54
631.687	35974.21
632.041	35743.03
632.396	35997.94
632.75	35792.07
633.104	35891.27
633.459	35766.76
633.813	35920.43
634.167	35886.98
634.521	35887.66
634.875	35919.52
635.229	35893.53
635.583	35778.73
635.937	35886.98
636.291	35825.74
636.645	36018.05
636.999	35875.68
637.352	35973.31
637.706	35821.45
638.06	36139.63
638.413	35955.45
638.767	35954.32
639.121	36036.81
639.474	35742.35
639.828	35949.35
640.181	35907.09
640.534	36020.99
640.888	35866.42
641.241	35835.46
641.594	35892.18
641.947	35952.52
642.301	35911.84
642.654	35836.13
643.007	35934.44
643.36	35936.02
643.713	35978.96
644.066	35898.51
644.419	35769.47
644.771	35513.88
645.124	35273.21
645.477	35234.57
645.83	35152.76
646.182	34979.43
646.535	34916.38
646.888	34880.45
647.24	34823.96
647.593	34871.64
647.945	34875.26
648.298	34536.06
648.65	34649.5
649.002	34508.49
649.355	34851.3
649.707	34598.88
650.059	34841.36
650.411	35202.93
650.763	35324.51
651.115	35649.25
651.467	35526.09
651.819	35510.94
652.171	35495.58
652.523	35543.26
652.875	35449.48
653.227	35295.36
653.578	35575.8
653.93	35455.13
654.282	35381
654.633	35326.99
654.985	35340.78
655.337	35363.83
655.688	35279.99
656.039	35507.1
656.391	35061.24
656.742	35333.77
657.094	35212.65
657.445	35324.06
657.796	35306.66
658.147	35306.88
658.498	35204.51
658.849	35294.45
659.2	35193.44
659.551	35066.66
659.902	35335.81
660.253	35117.06
660.604	35193.89
660.955	35103.5
661.306	35344.85
661.656	35153.89
662.007	35150.28
662.358	35110.05
662.708	35200.22
663.059	35028.92
663.409	34900.11
663.76	35204.29
664.11	35142.14
664.461	35199.77
664.811	35092.42
665.161	35223.49
665.511	35022.6
665.862	35116.38
666.212	35209.48
666.562	35322.7
666.912	35056.04
667.262	35122.93
667.612	35035.03
667.962	35052.43
668.312	35010.17
668.662	35096.27
669.011	35080.45
669.361	34978.98
669.711	34901.7
670.06	34965.42
670.41	34883.16
670.76	34886.33
671.109	35034.57
671.459	34911.86
671.808	34891.3
672.157	34900.11
672.507	34836.61
672.856	34810.62
673.205	34714.81
673.554	35010.39
673.904	34831.41
674.253	34976.95
674.602	34863.73
674.951	34336.29
675.3	34192.56
675.649	34821.02
675.998	34742.15
676.346	34800.46
676.695	34907.34
677.044	34489.73
677.393	34576.73
677.741	34695.15
678.09	34552.1
678.438	34591.42
678.787	34563.4
679.135	34611.53
679.484	34295.84
679.832	34437.98
680.181	34267.14
680.529	34360.24
680.877	34237.08
681.225	34291.99
681.573	34460.35
681.922	34175.16
682.27	34032.11
682.618	34092.68
682.966	33928.16
683.314	34133.35
683.661	33951.89
684.009	33879.12
684.357	33899.46
684.705	33886.13
685.053	33786.02
685.4	33702.63
685.748	33654.04
686.095	33518.23
686.443	33455.86
686.79	33424.67
687.138	33494.5
687.485	33466.25
687.832	33242.76
688.18	33511.45
688.527	33129.54
688.874	33153.72
689.221	33061.29
689.568	33099.93
689.915	32884.8
690.262	33045.02
690.609	32922.99
690.956	32616.33
691.303	32620.17
691.65	32580.85
691.997	32654.97
692.344	32289.33
692.69	32348.32
693.037	32417.24
693.383	32131.15
693.73	32204.37
694.077	32064.48
694.423	32088.21
694.769	31956.69
695.116	31951.04
695.462	31934.54
695.808	31812.06
696.155	31747.65
696.501	31560.99
696.847	31520.77
697.193	31341.11
697.539	31382.47
697.885	31277.16
698.231	31109.7
698.577	31065.64
698.923	31071.06
699.269	30958.07
699.614	30858.86
699.96	30782.26
700.306	30797.4
700.651	30610.06
700.997	30511.08
701.342	30547.01
701.688	30528.02
702.033	30199.22
702.379	30322.61
702.724	30232.67
703.069	30261.59
703.415	29935.27
703.76	29986.8
704.105	29959.45
704.45	29847.36
704.795	29741.15
705.14	29571.89
705.485	29605.34
705.83	29489.63
706.175	29479.69
706.52	29471.1
706.865	29407.6
707.209	29328.51
707.554	29253.26
707.899	29230.88
708.243	29084.45
708.588	28973.94
708.932	28851.91
709.277	28962.87
709.621	28824.79
709.966	28707.96
710.31	28750.9
710.654	28474.07
710.998	28605.14
711.342	28545.03
711.687	28483.78
712.031	28378.03
712.375	28237.46
712.719	28328.76
713.063	28266.84
713.407	28294.86
713.75	28150.91
714.094	28119.73
714.438	28108.2
714.782	28054.42
715.125	27927.19
715.469	27927.64
715.812	27850.36
716.156	27747.76
716.499	27759.74
716.843	27780.75
717.186	27473.42
717.53	27750.7
717.873	27588.67
718.216	27559.29
718.559	27432.97
718.902	27253.53
719.246	27295.57
719.589	27243.59
719.932	27144.61
720.275	27102.8
720.617	27000.21
720.96	27060.77
721.303	26978.74
721.646	26990.49
721.989	26821.23
722.331	26950.72
722.674	26880.89
723.016	26951.62
723.359	26801.12
723.701	26824.39
724.044	26599.54
724.386	26522.03
724.729	26644.51
725.071	26484.52
725.413	26547.79
725.755	26595.7
726.097	26423.5
726.439	26348.7
726.782	26286.33
727.124	26319.1
727.465	26207.46
727.807	26179.66
728.149	26156.61
728.491	26029.61
728.833	26133.56
729.175	25973.12
729.516	25974.25
729.858	25790.75
730.199	26007.01
730.541	25903.51
730.882	25838.2
731.224	25865.32
731.565	25678.21
731.906	25701.94
732.248	25796.62
732.589	25621.49
732.93	25567.48
733.271	25515.95
733.612	25578.32
733.953	25421.27
734.294	25397.31
734.635	25374.04
734.976	25415.39
735.317	25242.51
735.658	25282.06
735.999	25273.93
736.339	25285.45
736.68	25264.21
737.021	25216.98
737.361	25161.39
737.702	25317.09
738.042	25255.85
738.383	25147.6
738.723	25149.64
739.063	25067.83
739.404	25111.67
739.744	25007.49
740.084	24796.65
740.424	24861.73
740.764	24826.71
741.104	24813.82
741.444	24822.41
741.784	24794.84
742.124	24742.64
742.464	24696.54
742.804	24711.68
743.143	24574.28
743.483	24690.21
743.823	24484.12
744.162	24534.06
744.502	24514.4
744.841	24489.31
745.181	24559.14
745.52	24346.72
745.86	24449.99
746.199	24350.11
746.538	24372.03
746.877	24443.21
747.216	24256.1
747.556	24272.6
747.895	24190.34
748.234	24110.34
748.573	24111.7
748.911	24110.34
749.25	24023.34
749.589	23894.98
749.928	24017.91
750.267	23941.31
750.605	23923.9
750.944	23845.49
751.283	23733.63
751.621	23897.01
751.96	23736.57
752.298	23759.84
752.636	23683.46
752.975	23559.39
753.313	23496.12
753.651	23576.8
753.989	23340.19
754.327	23446.4
754.666	23397.14
755.004	23330.25
755.342	23395.11
755.679	23264.94
756.017	23199.18
756.355	23284.15
756.693	23141.1
757.031	23162.34
757.368	23061.55
757.706	23084.6
758.044	22996.7
758.381	22952.18
758.719	22862.24
759.056	22762.35
759.394	22732.75
759.731	22563.26
760.068	22615.92
760.405	22511.74
760.743	22447.33
761.08	22467.9
761.417	22450.27
761.754	22226.1
762.091	22358.3
762.428	22212.09
762.765	22077.17
763.102	22171.18
763.438	22038.98
763.775	21983.62
764.112	21919.21
764.449	22013.9
764.785	21868.82
765.122	21675.15
765.458	21644.19
765.795	21637.64
766.131	21488.94
766.467	21558.32
766.804	21379.79
767.14	21296.18
767.476	21379.56
767.812	21230.42
768.148	21155.16
768.485	21097.31
768.821	20960.59
769.157	20919.69
769.492	20881.27
769.828	20852.12
770.164	20668.85
770.5	20719.24
770.836	20560.15
771.171	20509.08
771.507	20481.28
771.842	20307.73
772.178	20284
772.513	20190.44
772.849	20150.22
773.184	20123.78
773.519	20067.51
773.855	19953.61
774.19	19827.74
774.525	19815.54
774.86	19802.43
775.195	19727.86
775.53	19686.95
775.865	19547.52
776.2	19407.19
776.535	19393.18
776.87	19215.55
777.205	19241.32
777.539	19131.94
777.874	19202.22
778.209	19006.75
778.543	18966.75
778.878	18845.62
779.212	18946.86
779.547	18749.58
779.881	18813.53
780.215	18682.01
780.55	18766.98
780.884	18595.01
781.218	18461.68
781.552	18468
781.886	18430.26
782.22	18239.99
782.554	18310.72
782.888	18061.46
783.222	18039.09
783.556	17941.69
783.889	17950.5
784.223	17790.73
784.557	17688.81
784.89	17741.24
785.224	17645.2
785.557	17658.08
785.891	17571.53
786.224	17489.95
786.558	17493.34
786.891	17261.93
787.224	17233.69
787.557	17306
787.891	17133.57
788.224	17184.65
788.557	17108.72
788.89	17055.38
789.223	17123.18
789.556	16874.6
789.888	16885.67
790.221	16819.68
790.554	16631.44
790.887	16631.89
791.219	16621.95
791.552	16609.29
791.884	16425.8
792.217	16445.91
792.549	16360.94
792.882	16265.12
793.214	16121.17
793.546	16202.98
793.879	16066.48
794.211	16006.6
794.543	16087.05
794.875	16030.78
795.207	16044.56
795.539	15893.38
795.871	15873.04
796.203	15721.86
796.535	15716.89
796.867	15709.21
797.198	15636.67
797.53	15628.98
797.862	15442.55
798.193	15537.23
798.525	15386.73
798.856	15448.42
799.188	15234.64
799.519	15244.81
799.85	15148.09
800.182	15195.55
800.513	15156.68
800.844	14974.08
801.175	15099.73
801.506	15000.75
801.837	14891.37
802.168	14947.19
802.499	14790.36
802.83	14697.48
803.161	14805.27
803.491	14598.73
803.822	14718.27
804.153	14700.19
804.483	14486.86
804.814	14469.24
805.145	14515.11
805.475	14394.89
805.805	14359.64
806.136	14499.29
806.466	14420.43
806.796	14380.88
807.126	14193.09
807.457	14227.44
807.787	14250.26
808.117	14111.51
808.447	14043.71
808.777	14069.02
809.107	14028.8
809.436	14042.58
809.766	13939.99
810.096	13901.34
810.426	13927.11
810.755	13799.65
811.085	13835.81
811.414	13810.72
811.744	13724.85
812.073	13650.5
812.403	13656.6
812.732	13543.16
813.061	13654.8
813.39	13527.57
813.719	13532.77
814.049	13555.14
814.378	13467.23
814.707	13376.16
815.036	13343.17
815.365	13333
815.693	13273.79
816.022	13332.77
816.351	13202.6
816.68	13167.58
817.008	13146.79
817.337	12979.79
817.665	13059.56
817.994	13014.81
818.322	13047.58
818.651	13060.46
818.979	12932.56
819.307	12964.42
819.636	12997.41
819.964	12774.14
820.292	12854.82
820.62	12863.86
820.948	12818.43
821.276	12856.63
821.604	12708.83
821.932	12888.26
822.259	12829.73
822.587	12830.19
822.915	12783.41
823.243	12727.59
823.57	12757.19
823.898	12757.42
824.225	12744.99
824.553	12727.14
824.88	12705.44
825.207	12700.92
825.535	12712.67
825.862	12789.51
826.189	12641.26
826.516	12765.1
826.843	12777.53
827.17	12725.56
827.497	12738.66
827.824	12767.59
828.151	12771.43
828.478	12706.35
828.805	12847.81
829.131	12713.35
829.458	12655.05
829.785	12639.68
830.111	12693.69
830.438	12779.57
830.764	12632.9
831.09	12701.6
831.417	12647.82
831.743	12695.73
832.069	12688.72
832.395	12578.21
832.722	12610.98
833.048	12595.16
833.374	12679.68
833.7	12516.97
834.026	12578.21
834.351	12632.45
834.677	12563.75
835.003	12591.55
835.329	12511.32
835.654	12510.42
835.98	12491.89
836.306	12527.59
836.631	12440.36
836.956	12455.73
837.282	12406.92
837.607	12306.13
837.932	12353.81
838.258	12412.34
838.583	12377.99
838.908	12270.65
839.233	12321.5
839.558	12262.52
839.883	12205.34
840.208	12208.28
840.533	12187.72
840.858	12188.85
841.182	12169.19
841.507	12137.1
841.832	12112.69
842.156	12062.97
842.481	12016.2
842.805	12011.68
843.13	12083.76
843.454	11952.02
843.778	11842.64
844.103	11830.89
844.427	11862.98
844.751	11861.17
845.075	11899.36
845.399	11808.74
845.723	11740.5
846.047	11772.59
846.371	11598.13
846.695	11648.97
847.019	11568.98
847.343	11540.95
847.666	11408.53
847.99	11383.22
848.313	11343.9
848.637	11310.68
848.96	11309.55
849.284	11312.03
849.607	11234.07
849.931	11170.79
850.254	11140.29
850.577	11047.18
850.9	10965.38
851.223	10961.08
851.546	10862.33
851.869	10823.01
852.192	10863.01
852.515	10813.52
852.838	10732.61
853.161	10705.72
853.483	10634.54
853.806	10697.13
854.129	10674.08
854.451	10644.71
854.774	10504.82
855.096	10485.84
855.419	10522.45
855.741	10430.93
856.063	10388.22
856.385	10397.93
856.708	10314.77
857.03	10297.37
857.352	10354.32
857.674	10232.97
857.996	10197.71
858.318	10187.32
858.64	10202.46
858.961	10146.87
859.283	10114.32
859.605	10076.81
859.926	10065.96
860.248	9981.9
860.57	9950.26
860.891	10012.41
861.212	9915.91
861.534	9971.28
861.855	9977.15
862.176	9926.98
862.498	9879.98
862.819	9928.79
863.14	9798.4
863.461	9818.51
863.782	9791.17
864.103	9858.51
864.424	9804.5
864.745	9821.45
865.065	9719.08
865.386	9676.14
865.707	9714.56
866.027	9709.14
866.348	9666.2
866.668	9734.67
866.989	9611.74
867.309	9569.25
867.63	9571.51
867.95	9475.92
868.27	9547.11
868.59	9557.73
868.91	9481.12
869.23	9504.4
869.55	9505.98
869.87	9458.52
870.19	9481.8
870.51	9417.39
870.83	9440.67
871.15	9476.15
871.469	9379.43
871.789	9446.77
872.109	9363.38
872.428	9333.78
872.748	9394.12
873.067	9389.82
873.386	9343.27
873.706	9323.61
874.025	9274.8
874.344	9182.15
874.663	9230.73
874.982	9238.19
875.301	9246.55
875.62	9183.05
875.939	9158.64
876.258	9122.03
876.577	9055.6
876.896	9133.11
877.214	9091.98
877.533	9061.7
877.852	9080.91
878.17	9089.49
878.489	9097.4
878.807	9095.37
879.125	9023.51
879.444	9006.56
879.762	8946.67
880.08	8991.42
880.398	8981.25
880.716	9005.65
881.034	8915.49
881.352	8822.38
881.67	8883.85
881.988	8889.05
882.306	8908.25
882.624	8826.9
882.941	8817.18
883.259	8768.15
883.577	8740.8
883.894	8728.82
884.212	8713.01
884.529	8747.81
884.846	8700.35
885.164	8665.1
885.481	8621.93
885.798	8610.64
886.115	8636.85
886.432	8616.51
886.75	8542.39
887.067	8572.67
887.383	8520.24
887.7	8529.06
888.017	8497.64
888.334	8530.41
888.651	8415.61
888.967	8413.8
889.284	8376.97
889.6	8348.95
889.917	8283.86
890.233	8330.87
890.55	8368.61
890.866	8228.95
891.182	8232.79
891.498	8201.83
891.815	8170.42
892.131	8182.17
892.447	8149.86
892.763	8168.84
893.079	8046.36
893.395	7997.32
893.71	8085
894.026	8019.46
894.342	8099.01
894.657	7969.52
894.973	8005
895.289	7948.28
895.604	7914.61
895.92	7914.38
896.235	7873.25
896.55	7864.67
896.865	7847.94
897.181	7774.05
897.496	7815.4
897.811	7706.03
898.126	7749.19
898.441	7675.07
898.756	7648.17
899.071	7623.99
899.386	7606.82
899.7	7605.69
900.015	7515.3
900.33	7481.4
900.644	7564.56
900.959	7478.24
901.273	7471.23
901.588	7434.39
901.902	7354.17
902.216	7286.6
902.531	7338.13
902.845	7317.79
903.159	7250.22
903.473	7204.8
903.787	7179.26
904.101	7188.53
904.415	7167.51
904.729	7132.71
905.042	7090.68
905.356	7090.9
905.67	7017
905.984	7050.9
906.297	7002.09
906.611	7010.23
906.924	6936.33
907.237	6926.84
907.551	6919.38
907.864	6835.77
908.177	6856.78
908.491	6857.91
908.804	6814.3
909.117	6797.12
909.43	6762.55
909.743	6762.32
910.056	6731.59
910.368	6662.66
910.681	6651.59
910.994	6580.18
911.307	6574.76
911.619	6550.58
911.932	6555.32
912.244	6478.49
912.557	6474.19
912.869	6486.4
913.181	6421.09
913.494	6406.4
913.806	6359.62
914.118	6298.61
914.43	6325.95
914.742	6320.75
915.054	6331.37
915.366	6247.31
915.678	6202.79
915.99	6205.73
916.302	6200.76
916.613	6123.92
916.925	6155.11
917.236	6138.84
917.548	6097.25
917.859	6145.16
918.171	6015.68
918.482	5987.2
918.794	5962.57
919.105	5956.24
919.416	5932.74
919.727	5942
920.038	5846.87
920.349	5876.24
920.66	5857.49
920.971	5851.39
921.282	5781.78
921.593	5753.76
921.903	5717.38
922.214	5762.8
922.525	5695.01
922.835	5683.71
923.146	5584.27
923.456	5570.04
923.767	5577.49
924.077	5506.99
924.387	5560.77
924.697	5541.79
925.008	5528
925.318	5454.79
925.628	5511.06
925.938	5434.9
926.248	5425.41
926.558	5339.08
926.867	5359.65
927.177	5364.17
927.487	5306.32
927.796	5232.19
928.106	5281.01
928.416	5212.53
928.725	5269.93
929.034	5186.09
929.344	5216.37
929.653	5187.67
929.962	5158.97
930.271	5095.02
930.581	5148.13
930.89	5097.96
931.199	5035.81
931.508	4995.36
931.817	5074.23
932.125	5061.12
932.434	5026.1
932.743	4941.13
933.051	4905.42
933.36	4898.87
933.669	4888.02
933.977	4862.26
934.286	4887.57
934.594	4868.81
934.902	4814.58
935.21	4803.5
935.519	4769.61
935.827	4789.27
936.135	4746.1
936.443	4674.92
936.751	4661.81
937.059	4696.39
937.367	4615.49
937.674	4685.77
937.982	4630.17
938.29	4623.85
938.597	4573.91
938.905	4542.95
939.213	4515.38
939.52	4471.31
939.827	4514.25
940.135	4457.75
940.442	4462.27
940.749	4467.69
941.056	4427.69
941.363	4360.58
941.67	4370.97
941.977	4350.86
942.284	4323.52
942.591	4353.12
942.898	4342.72
943.205	4299.11
943.511	4288.49
943.818	4266.34
944.125	4243.07
944.431	4228.38
944.738	4226.34
945.044	4140.47
945.35	4183.86
945.657	4147.02
945.963	4112.67
946.269	4138.44
946.575	4079.91
946.881	4083.07
947.187	4058.44
947.493	4048.5
947.799	4009.85
948.105	3996.07
948.41	4016.86
948.716	4004.2
949.022	3949.06
949.327	3988.16
949.633	3909.29
949.938	3897.09
950.244	3933.24
950.549	3883.53
950.854	3881.72
951.16	3851.89
951.465	3833.13
951.77	3804.89
952.075	3805.11
952.38	3774.38
952.685	3789.29
952.99	3727.83
953.294	3710.65
953.599	3692.12
953.904	3659.35
954.209	3699.35
954.513	3612.8
954.818	3644.89
955.122	3628.17
955.426	3631.11
955.731	3583.42
956.035	3560.15
956.339	3535.97
956.643	3588.39
956.948	3548.85
957.252	3531.9
957.556	3543.65
957.86	3512.46
958.163	3465.69
958.467	3457.32
958.771	3451.22
959.075	3453.71
959.378	3407.83
959.682	3416.2
959.985	3398.12
960.289	3377.78
960.592	3365.8
960.896	3361.51
961.199	3338.23
961.502	3318.12
961.805	3297.1
962.108	3273.15
962.411	3260.72
962.714	3293.03
963.017	3237.9
963.32	3240.83
963.623	3188.4
963.926	3199.25
964.228	3201.06
964.531	3193.6
964.833	3158.35
965.136	3147.28
965.438	3137.11
965.741	3154.28
966.043	3122.19
966.345	3092.81
966.648	3081.29
966.95	3093.72
967.252	2995.64
967.554	3070.44
967.856	3027.28
968.158	3018.24
968.46	3012.36
968.761	3028.41
969.063	2980.05
969.365	2961.07
969.666	2966.49
969.968	2976.43
970.269	2921.52
970.571	2929.2
970.872	2901.86
971.174	2908.86
971.475	2881.75
971.776	2875.19
972.077	2867.51
972.378	2866.61
972.679	2832.93
972.98	2816.89
973.281	2791.81
973.582	2825.93
973.883	2789.32
974.183	2772.6
974.484	2767.62
974.785	2759.49
975.085	2768.75
975.386	2748.42
975.686	2712.26
975.986	2689.66
976.287	2686.27
976.587	2646.95
976.887	2644.46
977.187	2674.29
977.487	2657.35
977.787	2646.95
978.087	2635.65
978.387	2605.82
978.687	2591.13
978.987	2577.12
979.286	2556.33
979.586	2585.93
979.885	2583.45
980.185	2546.84
980.484	2550.23
980.784	2533.73
981.083	2522.66
981.382	2479.72
981.682	2478.14
981.981	2468.2
982.28	2484.02
982.579	2444.92
982.878	2477.24
983.177	2431.14
983.475	2384.81
983.774	2413.51
984.073	2425.94
984.372	2364.25
984.67	2387.3
984.969	2354.98
985.267	2361.99
985.566	2360.63
985.864	2306.85
986.162	2334.87
986.461	2338.26
986.759	2323.79
987.057	2245.6
987.355	2278.15
987.653	2278.82
987.951	2295.32
988.249	2252.84
988.547	2250.8
988.844	2231.82
989.142	2226.4
989.44	2233.4
989.737	2209
990.035	2237.47
990.332	2222.55
990.63	2203.35
990.927	2163.57
991.224	2182.33
991.521	2112.73
991.819	2135.33
992.116	2138.94
992.413	2120.18
992.71	2101.88
993.006	2121.99
993.303	2111.6
993.6	2107.08
993.897	2092.84
994.193	2098.04
994.49	2044.93
994.787	2086.51
995.083	2011.03
995.379	2058.27
995.676	2023.01
995.972	2016.23
996.268	1986.4
996.565	2001.32
996.861	1996.57
997.157	1975.1
997.453	1970.13
997.749	1964.48
998.044	1948.89
998.34	1963.8
998.636	1949.57
998.932	1927.65
999.227	1924.71
999.523	1895.11
999.818	1872.28
1000.114	1890.59
1000.409	1890.13
1000.704	1858.72
1001	1862.56
1001.295	1852.39
1001.59	1844.03
1001.885	1831.83
1002.18	1832.28
1002.475	1803.81
1002.77	1793.64
1003.065	1784.15
1003.359	1796.13
1003.654	1777.37
1003.949	1744.83
1004.243	1744.83
1004.538	1743.47
1004.832	1756.13
1005.127	1743.47
1005.421	1713.19
1005.715	1677.71
1006.009	1696.69
1006.304	1700.76
1006.598	1679.07
1006.892	1678.39
1007.186	1656.69
1007.48	1648.56
1007.773	1665.96
1008.067	1616.24
1008.361	1590.25
1008.655	1632.97
1008.948	1596.13
1009.242	1580.99
1009.535	1587.77
1009.829	1579.41
1010.122	1559.07
1010.415	1566.75
1010.708	1557.49
1011.001	1542.8
1011.295	1536.02
1011.588	1517.49
1011.881	1509.35
1012.173	1530.37
1012.466	1465.29
1012.759	1503.25
1013.052	1480.43
1013.344	1488.79
1013.637	1477.49
1013.93	1459.86
1014.222	1468.45
1014.514	1447.66
1014.807	1450.6
1015.099	1418.96
1015.391	1425.51
1015.683	1419.64
1015.976	1390.94
1016.268	1402.69
1016.56	1395.23
1016.851	1367.66
1017.143	1391.16
1017.435	1361.56
1017.727	1342.13
1018.018	1340.54
1018.31	1346.19
1018.602	1348.68
1018.893	1322.01
1019.185	1280.88
1019.476	1300.77
1019.767	1311.84
1020.058	1284.27
1020.35	1276.82
1020.641	1266.2
1020.932	1297.83
1021.223	1257.83
1021.514	1258.74
1021.804	1232.3
1022.095	1229.81
1022.386	1213.77
1022.677	1236.14
1022.967	1205.63
1023.258	1198.63
1023.548	1172.41
1023.839	1181
1024.129	1195.91
1024.419	1159.98
1024.709	1198.4
1025	1163.37
1025.29	1125.63
1025.58	1164.28
1025.87	1136.48
1026.16	1140.78
1026.449	1113.21
1026.739	1127.44
1027.029	1102.58
1027.319	1102.58
1027.608	1093.09
1027.898	1087.44
1028.187	1065.97
1028.477	1054.68
1028.766	1077.5
1029.055	1033.21
1029.344	1043.6
1029.634	1043.6
1029.923	1052.87
1030.212	1046.77
1030.501	1027.11
1030.79	1019.2
1031.078	1042.7
1031.367	992.3
1031.656	995.47
1031.945	994.79
1032.233	991.63
1032.522	1006.54
1032.81	995.02
1033.099	961.12
1033.387	973.1
1033.675	960.89
1033.963	965.64
1034.251	940.55
1034.54	946.2
1034.828	936.26
1035.116	925.41
1035.403	927.45
1035.691	938.75
1035.979	940.33
1036.267	901.69
1036.554	901.01
1036.842	892.19
1037.129	914.79
1037.417	875.7
1037.704	874.34
1037.992	888.13
1038.279	885.64
1038.566	874.12
1038.853	874.12
1039.14	874.12
