Data from hue_220_FLMS001491_00025.txt Node
Date: Tue Feb 07 16:39:11 GMT 2017
User: dcchb
Spectrometer: FLMS00149
Trigger mode: 0
Integration Time (sec): 2.000000E-2
Scans to average: 10
Electric dark correction enabled: true
Nonlinearity correction enabled: false
Boxcar width: 0
XAxis mode: Wavelengths
Number of Pixels in Spectrum: 2048
>>>>>Begin Spectral Data<<<<<
341.393	-9.82
341.776	-9.82
342.16	-9.82
342.543	-56.14
342.927	-67.67
343.31	-67.22
343.693	-48.23
344.077	-73.32
344.46	-60.66
344.843	-52.3
345.226	-45.75
345.61	-28.12
345.993	-8.23
346.376	-3.71
346.759	6.45
347.142	24.08
347.525	36.74
347.908	49.62
348.291	74.02
348.674	90.97
349.057	105.66
349.44	134.36
349.823	161.48
350.206	173.46
350.588	199.9
350.971	205.55
351.354	240.57
351.737	235.15
352.119	253.45
352.502	267.46
352.884	269.27
353.267	263.62
353.65	283.06
354.032	291.64
354.414	306.33
354.797	322.83
355.179	324.41
355.562	328.93
355.944	327.12
356.326	321.25
356.709	336.16
357.091	330.97
357.473	344.98
357.855	323.51
358.238	359.89
358.62	317.41
359.002	325.99
359.384	337.97
359.766	347.01
360.148	320.57
360.53	336.39
360.912	325.32
361.294	339.78
361.676	306.33
362.057	326.67
362.439	319.89
362.821	317.18
363.203	309.72
363.584	329.38
363.966	316.05
364.348	320.34
364.729	315.15
365.111	311.08
365.493	318.08
365.874	329.38
366.256	308.37
366.637	307.01
367.019	306.56
367.4	301.81
367.781	313.11
368.163	310.4
368.544	304.3
368.925	298.2
369.306	305.2
369.688	295.03
370.069	314.92
370.45	307.01
370.831	330.06
371.212	292.1
371.593	292.77
371.974	318.31
372.355	312.66
372.736	323.06
373.117	297.75
373.498	312.89
373.879	328.71
374.26	308.59
374.641	328.25
375.021	324.86
375.402	305.43
375.783	314.92
376.163	323.96
376.544	322.6
376.925	304.53
377.305	324.19
377.686	318.99
378.066	311.76
378.447	322.38
378.827	342.72
379.208	308.14
379.588	333.9
379.968	323.96
380.349	330.06
380.729	323.06
381.109	314.24
381.489	338.42
381.87	318.08
382.25	333
382.63	330.51
383.01	322.38
383.39	329.38
383.77	325.09
384.15	336.16
384.53	326.45
384.91	323.28
385.29	327.8
385.67	331.19
386.049	345.88
386.429	354.47
386.809	365.32
387.189	339.78
387.568	358.54
387.948	333
388.328	333.45
388.707	345.2
389.087	360.8
389.466	332.1
389.846	361.47
390.225	363.06
390.605	361.93
390.984	364.64
391.363	370.51
391.743	376.16
392.122	373
392.501	363.28
392.881	354.24
393.26	353.56
393.639	357.86
394.018	385.43
394.397	373.9
394.776	367.12
395.155	391.76
395.534	358.31
395.913	368.48
396.292	386.78
396.671	377.07
397.05	379.55
397.429	381.36
397.808	392.43
398.186	383.85
398.565	354.92
398.944	371.64
399.323	405.99
399.701	379.55
400.08	397.18
400.458	416.61
400.837	396.5
401.215	407.12
401.594	420.46
401.972	402.83
402.351	409.61
402.729	426.33
403.107	427.91
403.486	438.53
403.864	423.39
404.242	422.26
404.62	426.78
404.999	431.53
405.377	441.47
405.755	431.75
406.133	452.09
406.511	432.43
406.889	445.09
407.267	445.77
407.645	446.22
408.023	469.04
408.401	479.89
408.779	488.93
409.156	478.08
409.534	489.61
409.912	495.26
410.29	510.85
410.667	479.44
411.045	499.55
411.422	522.83
411.8	540.23
412.178	533.67
412.555	538.64
412.933	561.02
413.31	558.3
413.687	557.17
414.065	559.21
414.442	581.13
414.819	579.09
415.197	593.33
415.574	598.08
415.951	603.73
416.328	616.61
416.705	628.13
417.082	605.53
417.46	627.46
417.837	628.13
418.214	619.77
418.591	635.36
418.967	662.48
419.344	675.14
419.721	687.34
420.098	713.55
420.475	685.98
420.852	710.62
421.228	734.57
421.605	748.36
421.982	744.51
422.358	742.25
422.735	755.59
423.111	745.19
423.488	797.17
423.864	821.57
424.241	807.56
424.617	818.86
424.994	841.46
425.37	818.64
425.746	839.43
426.123	881.91
426.499	890.73
426.875	883.04
427.251	900.44
427.627	895.7
428.003	928.46
428.379	956.49
428.756	949.25
429.132	956.26
429.507	992.42
429.883	975.47
430.259	989.93
430.635	994.9
431.011	1020.67
431.387	1061.57
431.763	1081.91
432.138	1043.72
432.514	1078.52
432.89	1086.65
433.265	1130.49
433.641	1133.88
434.016	1137.95
434.392	1158.29
434.767	1197.61
435.143	1194.45
435.518	1244.84
435.894	1226.76
436.269	1249.59
436.644	1279.19
437.02	1306.53
437.395	1325.06
437.77	1343.59
438.145	1370.49
438.52	1387.89
438.895	1402.35
439.271	1417.04
439.646	1444.83
440.021	1457.04
440.395	1507.43
440.77	1469.24
441.145	1498.62
441.52	1543.14
441.895	1569.58
442.27	1573.19
442.645	1555.57
443.019	1584.72
443.394	1600.54
443.769	1627.88
444.143	1610.71
444.518	1684.6
444.892	1618.62
445.267	1670.37
445.641	1683.7
446.016	1711.49
446.39	1715.56
446.764	1722.12
447.139	1723.47
447.513	1729.35
447.887	1737.48
448.262	1760.08
448.636	1777.26
449.01	1805.73
449.384	1816.12
449.758	1827.88
450.132	1840.98
450.506	1850.47
450.88	1872.39
451.254	1883.69
451.628	1929.34
452.002	1900.64
452.376	1942.9
452.75	1930.92
453.123	1985.84
453.497	1995.55
453.871	2017.7
454.244	2078.49
454.618	2061.09
454.992	2072.39
455.365	2078.49
455.739	2130.01
456.112	2131.6
456.486	2136.12
456.859	2170.01
457.232	2204.36
457.606	2226.96
457.979	2219.28
458.352	2297.47
458.725	2321.42
459.099	2332.04
459.472	2323
459.845	2356.45
460.218	2417.92
460.591	2427.63
460.964	2423.79
461.337	2477.12
461.71	2496.56
462.083	2532.94
462.456	2532.04
462.829	2573.17
463.201	2576.78
463.574	2583.11
463.947	2645.71
464.32	2679.83
464.692	2719.83
465.065	2696.33
465.438	2760.73
465.81	2796.44
466.183	2791.92
466.555	2843.44
466.928	2872.37
467.3	2850.45
467.672	2944
468.045	2985.59
468.417	2990.78
468.789	3009.54
469.161	3050.89
469.534	3089.76
469.906	3151
470.278	3139.71
470.65	3181.29
471.022	3244.56
471.394	3299.48
471.766	3322.53
472.138	3340.38
472.51	3434.16
472.882	3427.16
473.253	3480.26
473.625	3534.5
473.997	3585.34
474.369	3619.69
474.74	3656.53
475.112	3710.31
475.484	3774.27
475.855	3819.91
476.227	3855.17
476.598	3940.14
476.97	3946.24
477.341	4012
477.713	4018.1
478.084	4121.15
478.455	4199.11
478.827	4194.59
479.198	4318.66
479.569	4357.3
479.94	4439.11
480.311	4415.38
480.682	4498.54
481.053	4658.31
481.424	4662.83
481.795	4715.94
482.166	4722.26
482.537	4766.78
482.908	4832.09
483.279	4941.24
483.65	5046.77
484.021	5056.94
484.391	5129.26
484.762	5143.49
485.133	5160.9
485.503	5268.69
485.874	5360.66
486.244	5353.21
486.615	5481.11
486.985	5485.41
487.356	5592.3
487.726	5630.26
488.097	5730.15
488.467	5737.38
488.837	5871.84
489.207	5863.02
489.578	5949.12
489.948	6029.35
490.318	6118.16
490.688	6074.09
491.058	6176.69
491.428	6247.42
491.798	6302.56
492.168	6355.44
492.538	6370.13
492.908	6395.44
493.278	6527.87
493.648	6484.7
494.017	6623
494.387	6632.5
494.757	6650.35
495.126	6707.3
495.496	6711.82
495.866	6745.71
496.235	6878.82
496.605	6859.16
496.974	6895.09
497.344	6955.88
497.713	6968.76
498.082	7018.02
498.452	7074.97
498.821	7079.49
499.19	7079.26
499.559	7150.22
499.928	7136.44
500.298	7203.78
500.667	7229.54
501.036	7209.66
501.405	7248.07
501.774	7286.94
502.143	7245.81
502.512	7267.05
502.88	7292.82
503.249	7348.41
503.618	7406.71
503.987	7378.46
504.356	7413.49
504.724	7418.24
505.093	7465.02
505.462	7479.03
505.83	7511.12
506.199	7545.24
506.567	7574.84
506.936	7605.8
507.304	7697.78
507.672	7610.55
508.041	7695.74
508.409	7694.61
508.777	7737.55
509.145	7757.21
509.514	7695.74
509.882	7779.36
510.25	7763.54
510.618	7783.43
510.986	7840.82
511.354	7823.65
511.722	7835.4
512.09	7917.43
512.458	7899.13
512.826	7886.7
513.193	7873.59
513.561	7869.3
513.929	7895.29
514.297	7975.28
514.664	7951.1
515.032	8040.37
515.4	8017.77
515.767	8036.53
516.135	8049.18
516.502	7942.07
516.869	8057.32
517.237	8083.98
517.604	7988.39
517.972	8009.18
518.339	8017.54
518.706	8041.5
519.073	8033.81
519.44	8048.28
519.808	8090.31
520.175	8057.54
520.542	8109.29
520.909	8095.96
521.276	8070.42
521.643	8153.59
522.009	8176.64
522.376	8154.49
522.743	8154.04
523.11	8088.5
523.477	8183.41
523.843	8189.74
524.21	8258.67
524.577	8199.91
524.943	8202.4
525.31	8225.9
525.676	8251.44
526.043	8239.23
526.409	8257.54
526.776	8256.41
527.142	8302.51
527.508	8243.07
527.874	8250.31
528.241	8297.08
528.607	8249.4
528.973	8288.95
529.339	8218.44
529.705	8290.08
530.071	8337.76
530.437	8302.28
530.803	8302.73
531.169	8273.81
531.535	8214.6
531.901	8176.64
532.267	8232.9
532.632	8210.76
532.998	8192
533.364	8213.47
533.73	8145.45
534.095	8186.35
534.461	8181.61
534.826	8267.93
535.192	8143.64
535.557	8179.35
535.923	8112.68
536.288	8174.83
536.653	8018.9
537.019	8100.48
537.384	8064.55
537.749	8026.58
538.114	7993.59
538.479	8027.26
538.845	8012.12
539.21	7941.39
539.575	7915.4
539.94	7978.22
540.305	7922.4
540.67	7873.59
541.034	7908.62
541.399	7857.1
541.764	7879.92
542.129	7844.21
542.494	7813.03
542.858	7745.46
543.223	7745.23
543.587	7803.76
543.952	7750.21
544.316	7762.63
544.681	7700.72
545.045	7670.89
545.41	7688.96
545.774	7623.88
546.138	7600.15
546.503	7627.27
546.867	7523.09
547.231	7542.3
547.595	7535.97
547.959	7505.01
548.324	7509.08
548.688	7505.69
549.052	7443.1
549.416	7419.82
549.779	7370.33
550.143	7357.45
550.507	7412.59
550.871	7321.29
551.235	7326.04
551.599	7318.58
551.962	7281.97
552.326	7225.47
552.689	7243.33
553.053	7250.33
553.417	7176.89
553.78	7240.61
554.143	7190.22
554.507	7181.63
554.87	7209.43
555.234	7178.7
555.597	7105.03
555.96	7147.06
556.323	7147.74
556.686	7083.33
557.05	7158.36
557.413	7098.47
557.776	7100.73
558.139	7131.01
558.502	7048.08
558.865	7041.07
559.228	7131.01
559.59	7082.88
559.953	7075.2
560.316	7075.87
560.679	7046.5
561.041	7095.08
561.404	7081.75
561.767	7055.31
562.129	7091.92
562.492	7098.92
562.854	7011.02
563.217	7041.98
563.579	6999.49
563.941	7053.95
564.304	7054.18
564.666	7095.08
565.028	7061.64
565.39	7096.89
565.753	7154.06
566.115	7163.55
566.477	7159.49
566.839	7101.86
567.201	7177.34
567.563	7107.74
567.925	7160.39
568.287	7089.21
568.648	7145.48
569.01	7162.42
569.372	7225.25
569.734	7159.03
570.095	7202.2
570.457	7199.03
570.819	7232.48
571.18	7215.08
571.542	7225.7
571.903	7192.25
572.265	7233.38
572.626	7277.9
572.987	7271.8
573.349	7268.86
573.71	7224.12
574.071	7251.24
574.432	7352.48
574.794	7391.35
575.155	7399.03
575.516	7325.36
575.877	7365.13
576.238	7370.33
576.599	7418.46
576.96	7432.93
577.32	7424.56
577.681	7401.06
578.042	7436.77
578.403	7453.04
578.763	7455.07
579.124	7435.64
579.485	7509.08
579.845	7570.1
580.206	7524.68
580.566	7554.96
580.927	7553.83
581.287	7582.98
581.648	7580.04
582.008	7657.1
582.368	7617.1
582.728	7678.57
583.089	7718.34
583.449	7604.45
583.809	7726.03
584.169	7664.33
584.529	7692.58
584.889	7758.57
585.249	7699.36
585.609	7650.32
585.969	7750.66
586.329	7721.51
586.688	7761.5
587.048	7756.53
587.408	7799.24
587.768	7767.38
588.127	7796.98
588.487	7785.46
588.846	7803.76
589.206	7892.35
589.565	7802.18
589.925	7805.8
590.284	7887.15
590.643	7886.02
591.003	7857.77
591.362	7909.98
591.721	7947.94
592.08	7925.57
592.44	7938.45
592.799	7956.53
593.158	7938.68
593.517	7982.97
593.876	7961.27
594.235	7934.38
594.593	7942.07
594.952	8015.74
595.311	7933.93
595.67	7999.92
596.029	8055.73
596.387	7999.69
596.746	8072.01
597.104	8020.71
597.463	8057.32
597.822	8072.46
598.18	8013.25
598.538	8004.66
598.897	8119.24
599.255	8058.45
599.613	8152.68
599.972	8115.62
600.33	8111.55
600.688	8046.02
601.046	8144.55
601.404	8213.92
601.762	8130.31
602.12	8196.3
602.478	8107.71
602.836	8170.08
603.194	8168.95
603.552	8194.71
603.91	8134.38
604.268	8220.25
604.625	8144.32
604.983	8140.7
605.341	8138.44
605.698	8163.08
606.056	8187.71
606.413	8227.03
606.771	8198.56
607.128	8203.75
607.485	8145.22
607.843	8131.44
608.2	8222.96
608.557	8200.14
608.914	8138.22
609.272	8272.23
609.629	8240.14
609.986	8315.16
610.343	8268.84
610.7	8342.05
611.057	8288.95
611.414	8264.99
611.771	8259.8
612.127	8352.22
612.484	8316.07
612.841	8430.19
613.198	8330.76
613.554	8348.61
613.911	8367.36
614.267	8339.79
614.624	8330.08
614.98	8327.82
615.337	8450.53
615.693	8377.99
616.05	8388.38
616.406	8439.91
616.762	8360.59
617.118	8375.5
617.475	8330.08
617.831	8459.34
618.187	8343.18
618.543	8453.46
618.899	8485.33
619.255	8480.58
619.611	8370.98
619.967	8448.72
620.323	8480.36
620.678	8425.22
621.034	8479.23
621.39	8474.48
621.746	8465.44
622.101	8449.62
622.457	8378.66
622.812	8416.85
623.168	8428.38
623.523	8525.55
623.879	8446.91
624.234	8462.05
624.589	8474.25
624.945	8442.17
625.3	8485.33
625.655	8472.9
626.01	8494.14
626.365	8480.36
626.72	8461.6
627.075	8441.04
627.43	8451.66
627.785	8453.69
628.14	8446.68
628.495	8444.2
628.85	8447.59
629.205	8380.47
629.559	8510.64
629.914	8415.5
630.269	8387.25
630.623	8415.05
630.978	8370.53
631.332	8432.9
631.687	8429.51
632.041	8348.16
632.396	8414.14
632.75	8402.39
633.104	8349.96
633.459	8282.85
633.813	8314.48
634.167	8357.87
634.521	8302.28
634.875	8269.51
635.229	8310.19
635.583	8286.24
635.937	8248.72
636.291	8253.7
636.645	8254.15
636.999	8264.54
637.352	8243.98
637.706	8207.82
638.06	8219.12
638.413	8232
638.767	8238.78
639.121	8203.75
639.474	8155.84
639.828	8174.6
640.181	8170.99
640.534	8191.1
640.888	8142.29
641.241	8120.37
641.594	8117.65
641.947	8096.86
642.301	8075.4
642.654	8106.35
643.007	8107.71
643.36	8137.99
643.713	8069.07
644.066	8108.39
644.419	8065.45
644.771	8004.44
645.124	7970.31
645.477	7971.22
645.83	7904.78
646.182	7900.71
646.535	7838.34
646.888	7874.72
647.24	7881.28
647.593	7883.76
647.945	7805.35
648.298	7791.56
648.65	7835.18
649.002	7760.38
649.355	7844.21
649.707	7817.1
650.059	7859.13
650.411	7992.23
650.763	8006.24
651.115	8058.9
651.467	8039.01
651.819	8005.11
652.171	8044.89
652.523	7960.6
652.875	7921.5
653.227	7973.93
653.578	7993.36
653.93	8031.55
654.282	7971.89
654.633	7999.24
654.985	8012.57
655.337	8006.92
655.688	7978
656.039	8034.49
656.391	7926.92
656.742	7977.09
657.094	7963.99
657.445	8001.72
657.796	7988.84
658.147	8015.06
658.498	8004.21
658.849	8045.57
659.2	8038.11
659.551	8023.19
659.902	8033.36
660.253	7996.08
660.604	8002.18
660.955	8060.93
661.306	8111.33
661.656	8013.25
662.007	8047.15
662.358	8047.37
662.708	8081.27
663.059	8114.49
663.409	8057.77
663.76	8081.04
664.11	8073.59
664.461	8125.11
664.811	8116.98
665.161	8035.85
665.511	8046.02
665.862	8073.14
666.212	8118.56
666.562	8079.69
666.912	8046.02
667.262	8074.04
667.612	8083.53
667.962	8079.01
668.312	8080.59
668.662	8139.12
669.011	8107.03
669.361	8043.98
669.711	8053.93
670.06	8018.22
670.41	8066.13
670.76	8003.08
671.109	8055.06
671.459	8057.54
671.808	8063.87
672.157	8032.46
672.507	7969.41
672.856	7940.03
673.205	8023.87
673.554	8030.65
673.904	8007.6
674.253	8017.32
674.602	8030.2
674.951	7846.02
675.3	7823.42
675.649	7950.65
675.998	7945.91
676.346	7913.14
676.695	8008.96
677.044	7957.43
677.393	7993.36
677.741	7980.71
678.09	7968.28
678.438	7874.5
678.787	7848.73
679.135	7914.04
679.484	7796.31
679.832	7833.59
680.181	7815.51
680.529	7818.68
680.877	7861.16
681.225	7775.52
681.573	7863.65
681.922	7780.49
682.27	7730.09
682.618	7720.38
682.966	7721.51
683.314	7722.86
683.661	7693.03
684.009	7731.68
684.357	7643.32
684.705	7616.42
685.053	7669.76
685.4	7657.1
685.748	7639.25
686.095	7616.2
686.443	7564.67
686.79	7538.46
687.138	7623.43
687.485	7546.82
687.832	7482.42
688.18	7505.24
688.527	7448.52
688.874	7465.92
689.221	7404.45
689.568	7400.84
689.915	7329.88
690.262	7393.83
690.609	7407.62
690.956	7295.3
691.303	7299.14
691.65	7258.92
691.997	7241.07
692.344	7188.86
692.69	7159.26
693.037	7154.52
693.383	7089.43
693.73	7175.76
694.077	7102.54
694.423	7098.25
694.769	7073.39
695.116	7037.91
695.462	7012.82
695.808	6983.67
696.155	6971.92
696.501	6923.56
696.847	6945.93
697.193	6927.63
697.539	6915.65
697.885	6884.24
698.231	6828.87
698.577	6792.49
698.923	6781.19
699.269	6743
699.614	6757.46
699.96	6677.47
700.306	6709.78
700.651	6686.28
700.997	6641.76
701.342	6583.68
701.688	6628.65
702.033	6583.23
702.379	6558.82
702.724	6497.58
703.069	6611.03
703.415	6456.23
703.76	6435.66
704.105	6458.49
704.45	6485.15
704.795	6387.76
705.14	6417.81
705.485	6351.37
705.83	6324.25
706.175	6270.02
706.52	6314.99
706.865	6316.35
707.209	6285.39
707.554	6241.54
707.899	6283.58
708.243	6200.87
708.588	6210.59
708.932	6152.28
709.277	6135.78
709.621	6125.39
709.966	6123.36
710.31	6114.77
710.654	6049.91
710.998	6063.7
711.342	6077.71
711.687	6057.59
712.031	6063.24
712.375	5980.08
712.719	6011.27
713.063	6005.39
713.407	5987.54
713.75	5900.08
714.094	5938.73
714.438	5937.37
714.782	5900.99
715.125	5953.64
715.469	5906.19
715.812	5882.01
716.156	5871.39
716.499	5922.91
716.843	5877.49
717.186	5851.05
717.53	5877.03
717.873	5864.61
718.216	5873.42
718.559	5797.94
718.902	5753.65
719.246	5795.23
719.589	5797.94
719.932	5825.96
720.275	5753.87
720.617	5764.04
720.96	5788.68
721.303	5768.11
721.646	5775.12
721.989	5709.36
722.331	5781.22
722.674	5738.73
723.016	5741.45
723.359	5715.68
723.701	5744.16
724.044	5733.76
724.386	5686.31
724.729	5688.11
725.071	5686.53
725.413	5713.2
725.755	5658.06
726.097	5642.01
726.439	5677.49
726.782	5700.32
727.124	5687.21
727.465	5665.97
727.807	5680.66
728.149	5674.55
728.491	5617.38
728.833	5692.41
729.175	5602.92
729.516	5582.13
729.858	5647.44
730.199	5632.3
730.541	5597.72
730.882	5628.91
731.224	5674.55
731.565	5657.38
731.906	5654.22
732.248	5661.9
732.589	5664.84
732.93	5632.3
733.271	5640.88
733.612	5622.35
733.953	5664.16
734.294	5620.09
734.635	5614.89
734.976	5635.91
735.317	5626.42
735.658	5646.08
735.999	5718.17
736.339	5642.92
736.68	5639.07
737.021	5656.93
737.361	5649.02
737.702	5684.5
738.042	5680.2
738.383	5691.28
738.723	5741.22
739.063	5706.19
739.404	5714.33
739.744	5699.41
740.084	5684.72
740.424	5735.8
740.764	5699.64
741.104	5790.26
741.444	5769.69
741.784	5791.16
742.124	5716.36
742.464	5827.09
742.804	5811.95
743.143	5855.34
743.483	5852.18
743.823	5817.6
744.162	5851.95
744.502	5904.83
744.841	5921.1
745.181	6010.14
745.52	5982.57
745.86	5985.73
746.199	6033.64
746.538	6019.18
746.877	6117.93
747.216	6191.38
747.556	6222.11
747.895	6246.52
748.234	6251.49
748.573	6296.68
748.911	6396.34
749.25	6420.52
749.589	6487.87
749.928	6557.69
750.267	6597.92
750.605	6650.12
750.944	6668.2
751.283	6779.38
751.621	6887.4
751.96	6931.7
752.298	6985.25
752.636	7067.96
752.975	7157.91
753.313	7302.08
753.651	7392.02
753.989	7422.3
754.327	7587.5
754.666	7612.58
755.004	7826.81
755.342	7880.37
755.679	8034.27
756.017	8176.18
756.355	8231.55
756.693	8352.9
757.031	8572.56
757.368	8653.01
757.706	8782.04
758.044	8927.8
758.381	9039.66
758.719	9224.97
759.056	9423.61
759.394	9538.86
759.731	9612.76
760.068	9845.97
760.405	9968.45
760.743	10150.82
761.08	10372.28
761.417	10449.57
761.754	10654.54
762.091	10797.58
762.428	10968.88
762.765	11117.12
763.102	11325.03
763.438	11483.67
763.775	11609.31
764.112	11750.78
764.449	11951.9
764.785	12084.56
765.122	12262.63
765.458	12360.03
765.795	12566.8
766.131	12677.31
766.467	12911.88
766.804	12971.31
767.14	13107.58
767.476	13315.71
767.812	13408.36
768.148	13547.12
768.485	13624.85
768.821	13777.62
769.157	13829.14
769.492	14052.19
769.828	14226.65
770.164	14312.75
770.5	14296.25
770.836	14540.76
771.171	14633.41
771.507	14719.29
771.842	14747.31
772.178	14865.5
772.513	15001.99
772.849	15038.83
773.184	15166.28
773.519	15367.18
773.855	15324.92
774.19	15388.65
774.525	15500.28
774.86	15650.11
775.195	15695.99
775.53	15758.13
775.865	15758.36
776.2	15714.52
776.535	15769.66
776.87	15929.88
777.205	15966.03
777.539	15932.82
777.874	16117.67
778.209	16065.24
778.543	16145.01
778.878	16127.16
779.212	16231.56
779.547	16185.69
779.881	16274.28
780.215	16300.72
780.55	16383.2
780.884	16322.41
781.218	16312.92
781.552	16472.01
781.886	16459.13
782.22	16334.39
782.554	16365.35
782.888	16331.68
783.222	16328.06
783.556	16260.49
783.889	16318.12
784.223	16239.02
784.557	16363.31
784.89	16421.39
785.224	16319.47
785.557	16243.09
785.891	16387.27
786.224	16452.12
786.558	16332.35
786.891	16280.83
787.224	16220.94
787.557	16255.07
787.891	16199.02
788.224	16322.18
788.557	16318.34
788.89	16290.55
789.223	16267.04
789.556	16230.43
789.888	16222.07
790.221	16155.63
790.554	16055.75
790.887	16159.7
791.219	16090.1
791.552	16095.52
791.884	16121.06
792.217	16070.44
792.549	16069.76
792.882	15974.85
793.214	15958.8
793.546	15908.18
793.879	15951.12
794.211	15723.33
794.543	15889.65
794.875	15809.88
795.207	15866.38
795.539	15761.52
795.871	15826.6
796.203	15771.24
796.535	15643.56
796.867	15693.95
797.198	15594.97
797.53	15608.98
797.862	15498.7
798.193	15650.34
798.525	15529.66
798.856	15497.12
799.188	15355.88
799.519	15327.41
799.85	15184.81
800.182	15308.43
800.513	15328.99
800.844	15161.54
801.175	15305.26
801.506	15223.23
801.837	15214.19
802.168	15101.42
802.499	15147.98
802.83	14959.96
803.161	14932.62
803.491	14986.17
803.822	15035.21
804.153	14953.63
804.483	14955.21
804.814	14864.14
805.145	14864.37
805.475	14849.68
805.805	14794.54
806.136	14860.98
806.466	14648.1
806.796	14723.13
807.126	14665.96
807.457	14612.62
807.787	14684.26
808.117	14562.23
808.447	14565.62
808.777	14539.86
809.107	14508.45
809.436	14478.39
809.766	14508.45
810.096	14314.55
810.426	14309.13
810.755	14372.63
811.085	14395
811.414	14279.75
811.744	14214.67
812.073	14243.59
812.403	14234.1
812.732	14170.83
813.061	14190.94
813.39	13981.91
813.719	14021.91
814.049	14137.16
814.378	14067.78
814.707	14005.41
815.036	13953.66
815.365	13973.77
815.693	13915.24
816.022	13812.87
816.351	13877.73
816.68	13711.86
817.008	13877.95
817.337	13675.7
817.665	13656.94
817.994	13641.58
818.322	13670.28
818.651	13644.06
818.979	13565.65
819.307	13629.15
819.636	13646.32
819.964	13641.8
820.292	13562.03
820.62	13589.37
820.948	13472.99
821.276	13555.48
821.604	13531.97
821.932	13561.58
822.259	13543.27
822.587	13573.1
822.915	13492.43
823.243	13586.44
823.57	13526.78
823.898	13593.44
824.225	13476.83
824.553	13515.7
824.88	13515.93
825.207	13552.77
825.535	13475.03
825.862	13534.01
826.189	13484.52
826.516	13552.31
826.843	13566.78
827.17	13584.63
827.497	13637.96
827.824	13498.98
828.151	13651.52
828.478	13557.51
828.805	13650.39
829.131	13690.16
829.458	13536.95
829.785	13503.95
830.111	13618.3
830.438	13572.88
830.764	13553.9
831.09	13664.17
831.417	13531.75
831.743	13534.01
832.069	13539.43
832.395	13546.89
832.722	13561.8
833.048	13489.49
833.374	13604.29
833.7	13511.18
834.026	13531.3
834.351	13605.87
834.677	13527.68
835.003	13532.43
835.329	13511.64
835.654	13446.55
835.98	13343.05
836.306	13476.16
836.631	13423.73
836.956	13453.78
837.282	13412.66
837.607	13276.39
837.932	13350.06
838.258	13306.22
838.583	13260.34
838.908	13234.13
839.233	13143.28
839.558	13207.24
839.883	13135.83
840.208	13232.55
840.533	13138.31
840.858	13107.58
841.182	13127.69
841.507	13161.14
841.832	13069.39
842.156	13093.79
842.481	13017.86
842.805	12949.17
843.13	13004.53
843.454	13019.67
843.778	12894.93
844.103	12927.24
844.427	12867.81
844.751	12912.33
845.075	12810.86
845.399	12794.59
845.723	12731.32
846.047	12728.15
846.371	12608.38
846.695	12628.27
847.019	12567.25
847.343	12494.94
847.666	12452
847.99	12349.86
848.313	12342.4
848.637	12287.04
848.96	12237.32
849.284	12214.95
849.607	12057.21
849.931	12030.09
850.254	12007.72
850.577	11903.54
850.9	11864.67
851.223	11896.76
851.546	11816.77
851.869	11752.81
852.192	11814.28
852.515	11647.28
852.838	11615.87
853.161	11617
853.483	11565.02
853.806	11516.21
854.129	11553.72
854.451	11508.07
854.774	11363.9
855.096	11369.32
855.419	11426.95
855.741	11321.86
856.063	11256.33
856.385	11212.04
856.708	11235.76
857.03	11256.55
857.352	11190.12
857.674	11109.89
857.996	11071.47
858.318	11067.18
858.64	11050.68
858.961	11126.84
859.283	10985.37
859.605	10950.8
859.926	10896.56
860.248	10949.22
860.57	10924.59
860.891	10913.06
861.212	10861.31
861.534	10816.57
861.855	10737.02
862.176	10797.13
862.498	10726.4
862.819	10750.13
863.14	10703.57
863.461	10650.47
863.782	10649.56
864.103	10615.22
864.424	10503.58
864.745	10528.89
865.065	10486.86
865.386	10523.24
865.707	10460.42
866.027	10452.96
866.348	10436.46
866.668	10502.9
866.989	10466.52
867.309	10409.34
867.63	10433.75
867.95	10313.3
868.27	10305.62
868.59	10357.37
868.91	10391.04
869.23	10270.59
869.55	10242.34
869.87	10294.55
870.19	10238.95
870.51	10259.29
870.83	10229.24
871.15	10145.17
871.469	10222.68
871.789	10207.32
872.109	10215.9
872.428	10107.21
872.748	10134.78
873.067	10130.48
873.386	10171.16
873.706	10089.35
874.025	10057.26
874.344	10031.05
874.663	10055
874.982	10008.9
875.301	10033.08
875.62	10026.08
875.939	9973.2
876.258	9987.89
876.577	9939.07
876.896	9930.49
877.214	9912.63
877.533	9949.02
877.852	9835.12
878.17	9855.01
878.489	9912.63
878.807	9877.16
879.125	9839.64
879.444	9834.67
879.762	9812.98
880.08	9744.96
880.398	9779.53
880.716	9780.89
881.034	9749.02
881.352	9778.85
881.67	9693.88
881.988	9633.32
882.306	9639.87
882.624	9604.39
882.941	9597.16
883.259	9585.86
883.577	9526.88
883.894	9561.68
884.212	9531.4
884.529	9502.25
884.846	9485.98
885.164	9444.17
885.481	9398.98
885.798	9441.23
886.115	9325.53
886.432	9382.25
886.75	9319.2
887.067	9294.12
887.383	9321.01
887.7	9273.56
888.017	9190.39
888.334	9282.82
888.651	9204.18
888.967	9178.19
889.284	9132.77
889.6	9113.56
889.917	9068.36
890.233	9061.36
890.55	9003.51
890.866	9034.69
891.182	8997.63
891.498	8980.46
891.815	8926.67
892.131	8855.04
892.447	8846.67
892.763	8867.69
893.079	8844.87
893.395	8778.65
893.71	8769.61
894.026	8778.43
894.342	8750.41
894.657	8689.62
894.973	8627.47
895.289	8621.6
895.604	8652.78
895.92	8579.79
896.235	8580.69
896.55	8538.43
896.865	8475.84
897.181	8436.06
897.496	8472.9
897.811	8442.62
898.126	8397.19
898.441	8319.46
898.756	8333.47
899.071	8257.76
899.386	8286.01
899.7	8214.83
900.015	8208.95
900.33	8150.65
900.644	8120.59
900.959	8109.29
901.273	8024.1
901.588	8014.83
901.902	8024.32
902.216	7991.78
902.531	7996.08
902.845	7865.46
903.159	7899.81
903.473	7882.41
903.787	7828.62
904.101	7780.26
904.415	7769.41
904.729	7741.62
905.042	7710.21
905.356	7631.34
905.67	7736.65
905.984	7623.2
906.297	7630.21
906.611	7573.04
906.924	7535.3
907.237	7520.61
907.551	7554.96
907.864	7438.8
908.177	7436.32
908.491	7427.73
908.804	7422.76
909.117	7331.23
909.43	7313.16
909.743	7225.02
910.056	7267.51
910.368	7191.12
910.681	7193.38
910.994	7156.32
911.307	7130.79
911.619	7092.14
911.932	7110.45
912.244	6993.62
912.557	7058.47
912.869	6982.77
913.181	6922.66
913.494	6911.58
913.806	6897.8
914.118	6861.64
914.43	6813.96
914.742	6789.33
915.054	6762.21
915.366	6761.76
915.678	6749.55
915.99	6700.74
916.302	6700.74
916.613	6632.5
916.925	6630.46
917.236	6592.95
917.548	6628.2
917.859	6599.28
918.171	6505.49
918.482	6541.42
918.794	6408.77
919.105	6440.41
919.416	6361.32
919.727	6432.73
920.038	6356.12
920.349	6340.3
920.66	6314.54
920.971	6308.21
921.282	6258.49
921.593	6216.01
921.903	6168.1
922.214	6213.98
922.525	6181.21
922.835	6132.85
923.146	6148.67
923.456	6078.61
923.767	6063.02
924.077	5999.74
924.387	6007.43
924.697	6003.13
925.008	5956.81
925.318	5940.31
925.628	5934.21
925.938	5925.85
926.248	5800.43
926.558	5845.85
926.867	5797.71
927.177	5799.07
927.487	5819.41
927.796	5719.3
928.106	5711.62
928.416	5693.54
928.725	5691.28
929.034	5662.13
929.344	5684.05
929.653	5606.31
929.962	5555.46
930.271	5580.55
930.581	5535.57
930.89	5515.24
931.199	5455.12
931.508	5479.08
931.817	5452.64
932.125	5433.88
932.434	5433.88
932.743	5383.71
933.051	5408.57
933.36	5342.13
933.669	5299.2
933.977	5270.5
934.286	5270.27
934.594	5272.98
934.902	5202.93
935.21	5172.19
935.519	5233.89
935.827	5211.52
936.135	5145.75
936.443	5112.31
936.751	5081.58
937.059	5160.22
937.367	5015.81
937.674	5107.79
937.982	5035.25
938.29	4994.8
938.597	5032.99
938.905	4959.54
939.213	4944.63
939.52	4901.92
939.827	4915.25
940.135	4893.11
940.442	4817.18
940.749	4838.19
941.056	4830.73
941.363	4752.54
941.67	4774.92
941.977	4748.93
942.284	4683.62
942.591	4710.96
942.898	4713
943.205	4725.43
943.511	4670.96
943.818	4662.15
944.125	4574.24
944.431	4621.02
944.738	4581.02
945.044	4571.98
945.35	4555.26
945.657	4496.51
945.963	4458.77
946.269	4454.25
946.575	4508.94
946.881	4427.13
947.187	4438.2
947.493	4401.59
947.799	4430.29
948.105	4384.64
948.41	4323.18
948.716	4336.74
949.022	4327.02
949.327	4299.9
949.633	4230.3
949.938	4237.08
950.244	4218.55
950.549	4189.62
950.854	4181.94
951.16	4175.61
951.465	4191.43
951.77	4161.83
952.075	4091.54
952.38	4149.17
952.685	4111.88
952.99	4059.46
953.294	4077.99
953.599	4028.5
953.904	3993.02
954.209	3995.73
954.513	4026.69
954.818	3960.02
955.122	3996.63
955.426	3987.37
955.731	3896.75
956.035	3917.54
956.339	3888.16
956.643	3867.14
956.948	3843.64
957.252	3853.13
957.556	3855.39
957.86	3798.9
958.163	3800.25
958.467	3782.4
958.771	3743.31
959.075	3782.85
959.378	3694.72
959.682	3748.28
959.985	3684.32
960.289	3686.13
960.592	3652.46
960.896	3642.52
961.199	3620.37
961.502	3614.04
961.805	3608.62
962.108	3581.05
962.411	3548.51
962.714	3527.72
963.017	3552.35
963.32	3569.07
963.623	3507.15
963.926	3525.23
964.228	3473.03
964.531	3472.58
964.833	3450.43
965.136	3458.79
965.438	3393.94
965.741	3426.25
966.043	3372.69
966.345	3378.12
966.648	3333.82
966.95	3358.68
967.252	3284.56
967.554	3325.92
967.856	3279.81
968.158	3310.32
968.46	3252.47
968.761	3253.83
969.063	3251.57
969.365	3204.56
969.666	3240.04
969.968	3199.82
970.269	3170.44
970.571	3165.69
970.872	3159.14
971.174	3182.64
971.475	3130.21
971.776	3143.77
972.077	3098.8
972.378	3122.53
972.679	3081.4
972.98	3066.26
973.281	3057
973.582	3059.03
973.883	3055.87
974.183	3027.17
974.484	3028.97
974.785	2984.46
975.085	3009.99
975.386	2994.17
975.686	2978.58
975.986	2948.3
976.287	2952.59
976.587	2897.45
976.887	2901.07
977.187	2886.6
977.487	2898.13
977.787	2888.64
978.087	2867.17
978.387	2842.99
978.687	2861.29
978.987	2828.98
979.286	2801.86
979.586	2784.69
979.885	2800.05
980.185	2770.45
980.484	2781.52
980.784	2758.02
981.083	2714.41
981.382	2692.49
981.682	2709.21
981.981	2666.72
982.28	2682.54
982.579	2639.38
982.878	2676.67
983.177	2663.33
983.475	2685.93
983.774	2616.1
984.073	2598.7
984.372	2653.39
984.67	2591.25
984.969	2581.75
985.267	2545.82
985.566	2551.7
985.864	2555.99
986.162	2547.18
986.461	2553.73
986.759	2523.68
987.057	2506.73
987.355	2512.6
987.653	2489.55
987.951	2441.19
988.249	2470.12
988.547	2446.39
988.844	2415.88
989.142	2419.27
989.44	2430.8
989.737	2400.74
990.035	2422.66
990.332	2357.13
990.63	2382.44
990.927	2364.81
991.224	2357.13
991.521	2316.22
991.819	2334.53
992.116	2329.78
992.413	2316.9
992.71	2305.15
993.006	2289.56
993.303	2278.71
993.6	2285.04
993.897	2253.63
994.193	2240.75
994.49	2257.24
994.787	2201.2
995.083	2198.26
995.379	2193.52
995.676	2195.1
995.972	2196.45
996.268	2144.93
996.565	2163.01
996.861	2131.6
997.157	2117.81
997.453	2116.68
997.749	2119.39
998.044	2106.06
998.34	2114.42
998.636	2100.18
998.932	2092.5
999.227	2041.2
999.523	2037.14
999.818	2059.96
1000.114	2036.46
1000.409	2020.64
1000.704	2004.59
1001	2016.12
1001.295	1992.39
1001.59	1977.02
1001.885	1952.17
1002.18	1939.74
1002.475	1956.69
1002.77	1948.78
1003.065	1896.57
1003.359	1923.47
1003.654	1902.45
1003.949	1879.63
1004.243	1888.44
1004.538	1874.88
1004.832	1865.39
1005.127	1848.44
1005.421	1839.63
1005.715	1805.28
1006.009	1834.43
1006.304	1789.91
1006.598	1809.57
1006.892	1777.48
1007.186	1767.99
1007.48	1780.42
1007.773	1732.74
1008.067	1760.08
1008.361	1708.78
1008.655	1732.74
1008.948	1736.58
1009.242	1692.51
1009.535	1661.33
1009.829	1688.44
1010.122	1676.24
1010.415	1677.6
1010.708	1634.66
1011.001	1670.59
1011.295	1663.59
1011.588	1627.43
1011.881	1626.75
1012.173	1627.2
1012.466	1630.82
1012.759	1601.44
1013.052	1579.52
1013.344	1574.77
1013.637	1571.84
1013.93	1556.02
1014.222	1532.29
1014.514	1535.68
1014.807	1514.89
1015.099	1508.34
1015.391	1513.31
1015.683	1522.35
1015.976	1518.28
1016.268	1494.55
1016.56	1497.04
1016.851	1467.66
1017.143	1486.64
1017.435	1448.45
1017.727	1460.43
1018.018	1422.46
1018.31	1439.64
1018.602	1433.54
1018.893	1418.17
1019.185	1419.3
1019.476	1423.59
1019.767	1387.66
1020.058	1382.46
1020.35	1377.27
1020.641	1353.76
1020.932	1356.48
1021.223	1351.5
1021.514	1330.71
1021.804	1317.38
1022.095	1319.64
1022.386	1313.09
1022.677	1286.19
1022.967	1309.92
1023.258	1260.66
1023.548	1277.16
1023.839	1261.34
1024.129	1280.55
1024.419	1256.59
1024.709	1246.42
1025	1235.57
1025.29	1240.09
1025.58	1242.13
1025.87	1200.1
1026.16	1210.72
1026.449	1187.67
1026.739	1196.25
1027.029	1180.66
1027.319	1165.07
1027.608	1158.06
1027.898	1154
1028.187	1171.4
1028.477	1145.63
1028.766	1153.09
1029.055	1127.78
1029.344	1110.38
1029.634	1123.71
1029.923	1097.5
1030.212	1108.12
1030.501	1099.31
1030.79	1078.74
1031.078	1072.19
1031.367	1100.89
1031.656	1077.84
1031.945	1077.84
1032.233	1073.32
1032.522	1062.7
1032.81	1057.95
1033.099	1024.51
1033.387	1043.94
1033.675	1046.88
1033.963	1009.14
1034.251	999.87
1034.54	1023.38
1034.828	977.95
1035.116	1002.59
1035.403	993.32
1035.691	959.2
1035.979	977.28
1036.267	976.82
1036.554	964.62
1036.842	917.62
1037.129	963.04
1037.417	943.15
1037.704	927.33
1037.992	952.42
1038.279	913.78
1038.566	889.6
1038.853	889.6
1039.14	889.6
