Data from hue_340_FLMS001491_80.txt Node
Date: Mon Feb 06 15:43:36 GMT 2017
User: dcchb
Spectrometer: FLMS00149
Trigger mode: 0
Integration Time (sec): 2.000000E-2
Scans to average: 10
Electric dark correction enabled: true
Nonlinearity correction enabled: false
Boxcar width: 0
XAxis mode: Wavelengths
Number of Pixels in Spectrum: 2048
>>>>>Begin Spectral Data<<<<<
341.393	-25.01
341.776	-25.01
342.16	-25.01
342.543	-53.04
342.927	-58.01
343.31	-55.3
343.693	-72.7
344.077	-72.24
344.46	-67.5
344.843	-66.82
345.226	-37.44
345.61	-30.44
345.993	-24.56
346.376	0.97
346.759	15.66
347.142	19.28
347.525	33.74
347.908	71.03
348.291	68.54
348.674	100.41
349.057	117.36
349.44	133.4
349.823	139.05
350.206	161.65
350.588	196.45
350.971	199.84
351.354	244.81
351.737	232.15
352.119	266.96
352.502	290.01
352.884	289.78
353.267	284.81
353.65	296.56
354.032	283
354.414	293.17
354.797	310.57
355.179	297.92
355.562	329.55
355.944	333.4
356.326	346.5
356.709	343.56
357.091	338.82
357.473	331.59
357.855	323.45
358.238	332.04
358.62	357.12
359.002	328.88
359.384	331.59
359.766	336.33
360.148	328.2
360.53	326.62
360.912	340.85
361.294	331.14
361.676	316.67
362.057	327.97
362.439	352.6
362.821	328.88
363.203	317.35
363.584	301.53
363.966	345.6
364.348	337.46
364.729	310.34
365.111	335.88
365.493	316.9
365.874	308.76
366.256	313.51
366.637	308.31
367.019	319.38
367.4	305.6
367.781	306.05
368.163	321.87
368.544	300.85
368.925	319.16
369.306	336.78
369.688	326.16
370.069	322.77
370.45	327.07
370.831	301.76
371.212	296.56
371.593	300.4
371.974	317.35
372.355	308.76
372.736	303.11
373.117	303.11
373.498	329.33
373.879	300.85
374.26	318.48
374.641	311.7
375.021	296.56
375.402	316.22
375.783	324.36
376.163	326.84
376.544	315.32
376.925	314.86
377.305	311.02
377.686	347.18
378.066	320.06
378.447	340.4
378.827	322.1
379.208	333.62
379.588	332.27
379.968	342.66
380.349	325.26
380.729	316.45
381.109	324.58
381.489	325.71
381.87	346.95
382.25	344.02
382.63	338.14
383.01	323.68
383.39	337.46
383.77	332.72
384.15	328.2
384.53	332.27
384.91	345.37
385.29	346.73
385.67	342.21
386.049	339.27
386.429	344.24
386.809	345.37
387.189	342.43
387.568	372.04
387.948	351.7
388.328	349.21
388.707	350.57
389.087	345.82
389.466	343.11
389.846	332.72
390.225	354.19
390.605	362.09
390.984	350.57
391.363	353.73
391.743	386.28
392.122	358.03
392.501	362.55
392.881	355.54
393.26	374.75
393.639	376.56
394.018	377.01
394.397	381.76
394.776	372.26
395.155	388.31
395.534	395.54
395.913	375.43
396.292	391.92
396.671	388.76
397.05	374.98
397.429	397.35
397.808	382.66
398.186	395.77
398.565	397.57
398.944	401.87
399.323	411.59
399.701	381.53
400.08	394.41
400.458	404.81
400.837	403
401.215	405.94
401.594	394.64
401.972	396.9
402.351	396.22
402.729	396.22
403.107	404.35
403.486	414.52
403.864	397.12
404.242	428.08
404.62	417.69
404.999	407.74
405.377	423.56
405.755	452.49
406.133	413.85
406.511	447.52
406.889	430.12
407.267	419.27
407.645	422.66
408.023	436.9
408.401	463.56
408.779	457.01
409.156	445.03
409.534	482.09
409.912	477.57
410.29	485.26
410.667	473.5
411.045	476.22
411.422	477.12
411.8	488.42
412.178	485.93
412.555	491.13
412.933	492.26
413.31	497.91
413.687	498.14
414.065	479.61
414.442	490.68
414.819	516.67
415.197	500.17
415.574	533.84
415.951	532.03
416.328	527.51
416.705	502.66
417.082	532.94
417.46	538.36
417.837	537.46
418.214	558.47
418.591	589.43
418.967	582.2
419.344	587.17
419.721	593.5
420.098	577.68
420.475	572.94
420.852	570.9
421.228	590.56
421.605	607.74
421.982	614.07
422.358	609.32
422.735	617.91
423.111	607.06
423.488	624.46
423.864	633.05
424.241	615.65
424.617	637.57
424.994	648.19
425.37	638.25
425.746	624.23
426.123	638.25
426.499	661.52
426.875	660.39
427.251	674.4
427.627	692.26
428.003	688.41
428.379	704.68
428.756	691.8
429.132	683.89
429.507	719.83
429.883	711.01
430.259	721.63
430.635	728.87
431.011	731.12
431.387	735.64
431.763	733.84
432.138	753.27
432.514	767.96
432.89	774.29
433.265	799.37
433.641	782.87
434.016	797.56
434.392	809.54
434.767	827.85
435.143	809.09
435.518	823.1
435.894	829.43
436.269	826.26
436.644	845.25
437.02	844.34
437.395	832.14
437.77	878.47
438.145	876.66
438.52	889.76
438.895	873.27
439.271	881.18
439.646	894.51
440.021	926.15
440.395	911.69
440.77	915.07
441.145	915.53
441.52	938.35
441.895	935.19
442.27	919.59
442.645	952.14
443.019	926.83
443.394	940.84
443.769	951.01
444.143	966.6
444.518	987.62
444.892	961.85
445.267	975.41
445.641	949.65
446.016	969.76
446.39	988.29
446.764	985.58
447.139	991.46
447.513	1010.21
447.887	1014.51
448.262	1000.72
448.636	1021.74
449.01	1020.38
449.384	1009.99
449.758	1046.82
450.132	1046.14
450.506	1065.81
450.88	1046.6
451.254	1046.14
451.628	1029.65
452.002	1034.39
452.376	1076.65
452.75	1075.52
453.123	1084.34
453.497	1104
453.871	1106.03
454.244	1108.06
454.618	1129.76
454.992	1131.57
455.365	1124.56
455.739	1141.96
456.112	1165.24
456.486	1154.62
456.859	1155.97
457.232	1168.85
457.606	1193.03
457.979	1194.39
458.352	1211.34
458.725	1235.97
459.099	1231
459.472	1263.77
459.845	1232.58
460.218	1255.63
460.591	1279.81
460.964	1245.46
461.337	1301.05
461.71	1306.48
462.083	1334.95
462.456	1348.06
462.829	1334.27
463.201	1372.92
463.574	1353.48
463.947	1365.01
464.32	1402.75
464.692	1390.99
465.065	1419.69
465.438	1425.12
465.81	1463.08
466.183	1453.59
466.555	1482.07
466.928	1472.12
467.3	1485.68
467.672	1533.14
468.045	1555.51
468.417	1543.31
468.789	1576.3
469.161	1567.71
469.534	1610.2
469.906	1611.33
470.278	1634.38
470.65	1695.39
471.022	1669.41
471.394	1684.55
471.766	1717.54
472.138	1741.95
472.51	1749.18
472.882	1782.17
473.253	1788.95
473.625	1825.33
473.997	1841.15
474.369	1867.59
474.74	1876.18
475.112	1920.92
475.484	1935.39
475.855	1980.58
476.227	1966.8
476.598	2022.84
476.97	2034.14
477.341	2075.95
477.713	2099.9
478.084	2143.52
478.455	2190.97
478.827	2184.19
479.198	2225.77
479.569	2247.24
479.94	2308.71
480.311	2308.48
480.682	2390.97
481.053	2408.14
481.424	2451.53
481.795	2467.58
482.166	2518.2
482.537	2498.54
482.908	2611.75
483.279	2608.14
483.65	2644.52
484.021	2677.97
484.391	2712.99
484.762	2752.77
485.133	2772.2
485.503	2814.23
485.874	2867.11
486.244	2891.29
486.615	2970.16
486.985	2971.97
487.356	3010.16
487.726	3061.91
488.097	3069.59
488.467	3113.66
488.837	3176.03
489.207	3178.29
489.578	3269.82
489.948	3265.75
490.318	3281.11
490.688	3271.85
491.058	3336.48
491.428	3415.12
491.798	3449.47
492.168	3500.77
492.538	3560.65
492.908	3543.71
493.278	3611.05
493.648	3628
494.017	3612.18
494.387	3657.6
494.757	3698.5
495.126	3753.64
495.496	3723.81
495.866	3795.68
496.235	3791.61
496.605	3824.6
496.974	3860.53
497.344	3931.04
497.713	3925.17
498.082	3959.06
498.452	3944.6
498.821	4016.01
499.19	3989.34
499.559	4041.77
499.928	4093.07
500.298	4057.59
500.667	4127.87
501.036	4129
501.405	4166.74
501.774	4140.53
502.143	4219.39
502.512	4229.11
502.88	4281.09
503.249	4230.92
503.618	4249.68
503.987	4258.04
504.356	4300.07
504.724	4307.3
505.093	4326.96
505.462	4388.43
505.83	4405.6
506.199	4465.49
506.567	4504.36
506.936	4424.81
507.304	4472.72
507.672	4521.53
508.041	4548.43
508.409	4553.62
508.777	4593.17
509.145	4585.49
509.514	4578.26
509.882	4642.21
510.25	4631.36
510.618	4665.71
510.986	4705.94
511.354	4684.92
511.722	4729.21
512.09	4753.39
512.458	4732.15
512.826	4822.32
513.193	4819.6
513.561	4797.91
513.929	4880.17
514.297	4889.66
514.664	4905.03
515.032	4951.13
515.4	4957.23
515.767	4945.48
516.135	4975.53
516.502	4947.29
516.869	5004.01
517.237	5000.17
517.604	5032.03
517.972	5024.8
518.339	5027.96
518.706	5049.2
519.073	5057.11
519.44	5074.06
519.808	5117.45
520.175	5109.09
520.542	5102.99
520.909	5164.68
521.276	5158.13
521.643	5243.55
522.009	5245.13
522.376	5300.27
522.743	5326.94
523.11	5358.57
523.477	5411.68
523.843	5407.61
524.21	5459.81
524.577	5451.23
524.943	5473.15
525.31	5513.37
525.676	5509.76
526.043	5589.98
526.409	5621.39
526.776	5663.2
527.142	5654.39
527.508	5695.29
527.874	5750.43
528.241	5750.88
528.607	5753.59
528.973	5824.32
529.339	5813.93
529.705	5863.42
530.071	5931.21
530.437	5968.95
530.803	5966.24
531.169	6008.5
531.535	6010.08
531.901	6030.87
532.267	5998.1
532.632	6038.1
532.998	6083.53
533.364	6134.82
533.73	6124.43
534.095	6264.09
534.461	6199.23
534.826	6278.55
535.192	6239.68
535.557	6255.95
535.923	6295.95
536.288	6345.44
536.653	6347.93
537.019	6353.12
537.384	6432.67
537.749	6430.18
538.114	6443.07
538.479	6503.4
538.845	6504.08
539.21	6531.42
539.575	6562.16
539.94	6502.95
540.305	6617.3
540.67	6591.99
541.034	6630.63
541.399	6696.62
541.764	6642.16
542.129	6745.88
542.494	6756.73
542.858	6741.14
543.223	6765.99
543.587	6875.6
543.952	6827.69
544.316	6863.62
544.681	6896.39
545.045	6957.85
545.41	6921.02
545.774	6991.53
546.138	6998.76
546.503	7034.24
546.867	6987.68
547.231	7127.79
547.595	7102.71
547.959	7125.08
548.324	7161.92
548.688	7141.58
549.052	7194.68
549.416	7201.46
549.779	7188.13
550.143	7223.38
550.507	7265.42
550.871	7359.43
551.235	7319.88
551.599	7376.15
551.962	7391.74
552.326	7428.12
552.689	7463.38
553.053	7429.48
553.417	7451.17
553.78	7500.66
554.143	7469.48
554.507	7568.46
554.87	7626.76
555.234	7655.69
555.597	7549.48
555.96	7670.83
556.323	7658.85
556.686	7698.85
557.05	7738.62
557.413	7713.54
557.776	7760.32
558.139	7857.27
558.502	7831.05
558.865	7869.24
559.228	7879.86
559.59	7920.77
559.953	7927.77
560.316	8030.82
560.679	8026.98
561.041	8066.07
561.404	8069.91
561.767	8180.42
562.129	8113.53
562.492	8185.39
562.854	8177.93
563.217	8210.93
563.579	8243.92
563.941	8268.55
564.304	8297.71
564.666	8367.99
565.028	8360.98
565.39	8390.36
565.753	8439.62
566.115	8405.05
566.477	8427.87
566.839	8487.53
567.201	8511.94
567.563	8525.27
567.925	8625.15
568.287	8600.52
568.648	8593.29
569.01	8583.35
569.372	8734.08
569.734	8729.11
570.095	8805.26
570.457	8802.78
570.819	8881.87
571.18	8908.08
571.542	8947.41
571.903	8937.91
572.265	9000.51
572.626	8996.67
572.987	9166.16
573.349	9173.16
573.71	9190.11
574.071	9232.6
574.432	9348.53
574.794	9397.34
575.155	9343.33
575.516	9467.17
575.877	9515.53
576.238	9681.62
576.599	9631.23
576.96	9675.07
577.32	9752.81
577.681	9851.34
578.042	9968.62
578.403	10041.39
578.763	10109.18
579.124	10203.42
579.485	10337.43
579.845	10462.17
580.206	10526.12
580.566	10581.04
580.927	10712.56
581.287	10913.68
581.648	10862.16
582.008	11158.2
582.368	11194.8
582.728	11378.08
583.089	11532.87
583.449	11699.88
583.809	11861.68
584.169	12024.84
584.529	12151.16
584.889	12462.57
585.249	12557.25
585.609	12618.04
585.969	12930.13
586.329	13012.38
586.688	13298.93
587.048	13391.58
587.408	13741.18
587.768	13831.57
588.127	14049.87
588.487	14332.8
588.846	14640.59
589.206	14855.05
589.565	15017.53
589.925	15352.89
590.284	15539.55
590.643	15843.5
591.003	16045.75
591.362	16379.98
591.721	16652.74
592.08	16986.52
592.44	17278.94
592.799	17527.07
593.158	17757.8
593.517	18050.67
593.876	18299.48
594.235	18530.2
594.593	18841.84
594.952	19202.28
595.311	19284.76
595.67	19669.38
596.029	20151.63
596.387	20316.82
596.746	20526.99
597.104	20872.06
597.463	21145.73
597.822	21453.52
598.18	21702.32
598.538	22051.69
598.897	22395.41
599.255	22492.36
599.613	22986.36
599.972	23090.76
600.33	23497.31
600.688	23643.06
601.046	23990.63
601.404	24390.62
601.762	24594.23
602.12	24963.03
602.478	25069.92
602.836	25450.02
603.194	25600.08
603.552	25853.85
603.91	26052.94
604.268	26414.97
604.625	26543.78
604.983	26994.62
605.341	26992.81
605.698	27466.92
606.056	27663.07
606.413	27855.84
606.771	28266.9
607.128	28335.14
607.485	28536.72
607.843	28794.12
608.2	29132.64
608.557	29491.72
608.914	29546.41
609.272	29923.13
609.629	30105.27
609.986	30307.75
610.343	30291.7
610.7	30788.19
611.057	30913.38
611.414	31157.9
611.771	31390.88
612.127	31465.01
612.484	31752.23
612.841	31964.2
613.198	31903.64
613.554	32122.84
613.911	32467.92
614.267	32644.41
614.624	32658.65
614.98	32794.24
615.337	33160.55
615.693	33264.05
616.05	33393.77
616.406	33589.7
616.762	33735
617.118	33834.66
617.475	33942.91
617.831	34229
618.187	34242.11
618.543	34451.59
618.899	34750.34
619.255	34872.15
619.611	34949.43
619.967	35149.2
620.323	35320.27
620.678	35283.89
621.034	35250.9
621.39	35492.92
621.746	35431.68
622.101	35967.49
622.457	35835.74
622.812	35840.03
623.168	36158.22
623.523	36170.64
623.879	36234.82
624.234	36094.71
624.589	36514.36
624.945	36388.49
625.3	36508.72
625.655	36693.34
626.01	36789.84
626.365	36809.72
626.72	36853.11
627.075	36943.73
627.43	36925.88
627.785	36921.81
628.14	36929.95
628.495	37151.18
628.85	37105.54
629.205	37170.17
629.559	37472.53
629.914	37347.56
630.269	37365.64
630.623	37372.87
630.978	37291.75
631.332	37474.79
631.687	37630.49
632.041	37493.1
632.396	37621
632.75	37465.3
633.104	37488.8
633.459	37433.66
633.813	37430.5
634.167	37594.56
634.521	37500.78
634.875	37635.92
635.229	37496.94
635.583	37397.51
635.937	37471.4
636.291	37484.51
636.645	37525.19
636.999	37449.26
637.352	37701.23
637.706	37408.58
638.06	37540.1
638.413	37545.52
638.767	37636.37
639.121	37465.98
639.474	37327.9
639.828	37319.99
640.181	37568.57
640.534	37535.58
640.888	37415.36
641.241	37212.43
641.594	37504.62
641.947	37430.05
642.301	37382.82
642.654	37511.63
643.007	37418.75
643.36	37409.93
643.713	37344.17
644.066	37574.9
644.419	37342.59
644.771	37068.47
645.124	36769.05
645.477	36776.5
645.83	36583.97
646.182	36393.92
646.535	36377.87
646.888	36419.45
647.24	36250.64
647.593	36462.84
647.945	36360.7
648.298	36186.01
648.65	36147.82
649.002	36066.01
649.355	36275.5
649.707	36161.61
650.059	36386.46
650.411	36761.36
650.763	36806.33
651.115	37197.28
651.467	37011.3
651.819	36985.99
652.171	36935.14
652.523	36993
652.875	36946.44
653.227	36826.45
653.578	37106.44
653.93	36969.04
654.282	36804.07
654.633	36745.77
654.985	36918.42
655.337	36864.64
655.688	36802.27
656.039	37081.13
656.391	36561.37
656.742	36804.98
657.094	36758.88
657.445	36822.83
657.796	36784.64
658.147	36634.59
658.498	36779.89
658.849	36717.75
659.2	36663.51
659.551	36642.5
659.902	36624.19
660.253	36773.12
660.604	36894.69
660.955	36648.37
661.306	36729.95
661.656	36627.81
662.007	36568.83
662.358	36609.28
662.708	36544.19
663.059	36633.23
663.409	36370.19
663.76	36666.23
664.11	36661.71
664.461	36711.42
664.811	36706.45
665.161	36595.94
665.511	36566.34
665.862	36564.08
666.212	36699.67
666.562	36764.75
666.912	36491.31
667.262	36449.28
667.612	36675.72
667.962	36610.86
668.312	36469.62
668.662	36643.85
669.011	36553.01
669.361	36450.86
669.711	36523.4
670.06	36393.24
670.41	36446.12
670.76	36328.38
671.109	36519.79
671.459	36357.53
671.808	36374.26
672.157	36516.62
672.507	36218.78
672.856	36205.45
673.205	36364.31
673.554	36394.14
673.904	36314.82
674.253	36461.94
674.602	36449.73
674.951	35719.81
675.3	35711.67
675.649	36200.93
675.998	36122.06
676.346	36051.78
676.695	36174.94
677.044	35986.7
677.393	36047.26
677.741	36188.72
678.09	36024.21
678.438	35968.62
678.787	36059.24
679.135	36093.13
679.484	35775.18
679.832	35896.08
680.181	35799.36
680.529	35907.15
680.877	35797.1
681.225	35692.69
681.573	35928.17
681.922	35709.87
682.27	35640.26
682.618	35567.72
682.966	35513.71
683.314	35552.36
683.661	35445.47
684.009	35350.78
684.357	35300.61
684.705	35166.83
685.053	35173.38
685.4	35253.61
685.748	35078.02
686.095	35047.28
686.443	34898.36
686.79	34844.13
687.138	34937.46
687.485	34891.36
687.832	34669.44
688.18	34824.01
688.527	34637.8
688.874	34673.96
689.221	34564.81
689.568	34457.92
689.915	34398.26
690.262	34386.74
690.609	34282.11
690.956	34242.56
691.303	34024.71
691.65	34026.07
691.997	33935.45
692.344	33789.24
692.69	33758.51
693.037	33717.15
693.383	33518.06
693.73	33704.04
694.077	33395.8
694.423	33415.01
694.769	33329.82
695.116	33256.37
695.462	33189.03
695.808	33092.53
696.155	33116.04
696.501	32815.48
696.847	32986.55
697.193	32628.37
697.539	32814.58
697.885	32542.49
698.231	32597.18
698.577	32517.41
698.923	32520.35
699.269	32374.59
699.614	32220.47
699.96	32160.58
700.306	32313.8
700.651	32046.23
700.997	31918.78
701.342	31928.04
701.688	31866.8
702.033	31644.89
702.379	31630.88
702.724	31575.06
703.069	31567.15
703.415	31253.49
703.76	31174.17
704.105	31289.87
704.45	31176.43
704.795	31103.43
705.14	30968.3
705.485	30921.07
705.83	30838.58
706.175	30795.42
706.52	30764.46
706.865	30636.78
707.209	30608.08
707.554	30442.66
707.899	30590.23
708.243	30478.59
708.588	30458.03
708.932	30225.04
709.277	30212.16
709.621	30193.18
709.966	29906.4
710.31	30192.95
710.654	29826.63
710.998	29924.71
711.342	29863.24
711.687	29739.63
712.031	29642.46
712.375	29657.37
712.719	29665.96
713.063	29626.86
713.407	29611.04
713.75	29499.63
714.094	29417.83
714.438	29250.6
714.782	29347.77
715.125	29065.07
715.469	29259.87
715.812	28971.29
716.156	28903.72
716.499	28922.25
716.843	28934.68
717.186	28871.18
717.53	28999.53
717.873	28883.6
718.216	28795.7
718.559	28665.76
718.902	28460.57
719.246	28517.06
719.589	28454.24
719.932	28346.22
720.275	28303.96
720.617	28286.56
720.96	28143.74
721.303	28307.57
721.646	28337.18
721.989	28066.45
722.331	28175.6
722.674	27974.7
723.016	28061.93
723.359	27971.76
723.701	28000.24
724.044	27755.27
724.386	27715.05
724.729	27822.62
725.071	27827.14
725.413	27754.82
725.755	27722.73
726.097	27553.47
726.439	27462.4
726.782	27571.1
727.124	27571.78
727.465	27461.5
727.807	27499.23
728.149	27339.46
728.491	27279.35
728.833	27420.82
729.175	27242.74
729.516	27198.45
729.858	27099.47
730.199	27089.98
730.541	27105.8
730.882	26998.68
731.224	27218.11
731.565	26894.96
731.906	27044.78
732.248	27030.77
732.589	26802.98
732.93	26741.06
733.271	26654.74
733.612	26764.79
733.953	26848.63
734.294	26587.62
734.635	26534.29
734.976	26634.85
735.317	26529.99
735.658	26479.37
735.999	26533.61
736.339	26384.24
736.68	26579.26
737.021	26345.59
737.361	26212.26
737.702	26434.63
738.042	26292.26
738.383	26257.46
738.723	26219.72
739.063	26167.74
739.404	26288.19
739.744	26124.36
740.084	25996.9
740.424	26080.29
740.764	25876.9
741.104	25945.38
741.444	25796
741.784	25902.89
742.124	25913.06
742.464	25813.18
742.804	25844.59
743.143	25708.1
743.483	25616.12
743.823	25617.25
744.162	25543.35
744.502	25590.81
744.841	25491.15
745.181	25668.1
745.52	25476.91
745.86	25417.26
746.199	25358.27
746.538	25411.15
746.877	25465.16
747.216	25288.9
747.556	25241.44
747.895	25269.91
748.234	25135.91
748.573	25121.67
748.911	25072.86
749.25	25178.39
749.589	25032.86
749.928	25092.29
750.267	25015.91
750.605	24938.4
750.944	24923.71
751.283	24862.69
751.621	24830.83
751.96	24784.96
752.298	24749.25
752.636	24748.35
752.975	24612.3
753.313	24579.99
753.651	24625.19
753.989	24512.19
754.327	24467.68
754.666	24314.69
755.004	24339.09
755.342	24365.98
755.679	24354.91
756.017	24134.58
756.355	24197.4
756.693	24105.2
757.031	24053.45
757.368	23989.95
757.706	23905.2
758.044	23818.2
758.381	23863.4
758.719	23780.69
759.056	23778.43
759.394	23663.63
759.731	23477.87
760.068	23427.03
760.405	23397.87
760.743	23330.3
761.08	23408.49
761.417	23163.08
761.754	23201.49
762.091	23117.65
762.428	23049.86
762.765	22914.27
763.102	22990.65
763.438	22876.98
763.775	22724.9
764.112	22751.79
764.449	22843.99
764.785	22678.34
765.122	22553.38
765.458	22434.51
765.795	22376.43
766.131	22402.42
766.467	22319.03
766.804	22243.1
767.14	22121.97
767.476	22163.78
767.812	21985.93
768.148	21992.94
768.485	21867.97
768.821	21740.29
769.157	21673.17
769.492	21774.64
769.828	21658.03
770.164	21425.72
770.5	21425.04
770.836	21385.5
771.171	21270.47
771.507	21171.27
771.842	21027.31
772.178	21034.55
772.513	21017.37
772.849	20925.17
773.184	20895.79
773.519	20791.39
773.855	20632.07
774.19	20686.98
774.525	20534.9
774.86	20563.37
775.195	20465.52
775.53	20415.58
775.865	20336.49
776.2	20170.16
776.535	20096.49
776.87	19973.1
777.205	19971.97
777.539	19824.41
777.874	19899.89
778.209	19755.48
778.543	19723.62
778.878	19691.08
779.212	19484.98
779.547	19413.8
779.881	19444.76
780.215	19327.47
780.55	19330.64
780.884	19200.47
781.218	19090.42
781.552	19244.76
781.886	19154.14
782.22	18972.23
782.554	18824.89
782.888	18779.24
783.222	18672.57
783.556	18597.32
783.889	18508.96
784.223	18465.57
784.557	18414.28
784.89	18474.16
785.224	18266.26
785.557	18240.95
785.891	18212.47
786.224	18190.33
786.558	18131.35
786.891	17938.36
787.224	17906.04
787.557	17877.34
787.891	17857.23
788.224	17739.49
788.557	17692.03
788.89	17681.87
789.223	17632.38
789.556	17466.96
789.888	17474.87
790.221	17396.9
790.554	17332.04
790.887	17289.33
791.219	17150.35
791.552	17202.78
791.884	17059.51
792.217	17072.62
792.549	16967.76
792.882	16817.48
793.214	16828.1
793.546	16716.47
793.879	16715.34
794.211	16590.59
794.543	16711.95
794.875	16607.09
795.207	16627.66
795.539	16577.49
795.871	16495
796.203	16357.15
796.535	16254.11
796.867	16217.05
797.198	16239.19
797.53	16175.46
797.862	16014.34
798.193	16103.38
798.525	15928.92
798.856	16001.01
799.188	15901.8
799.519	15752.88
799.85	15652.54
800.182	15765.31
800.513	15795.36
800.844	15535.03
801.175	15637.17
801.506	15629.26
801.837	15448.25
802.168	15464.75
802.499	15365.09
802.83	15304.3
803.161	15339.78
803.491	15326.9
803.822	15268.14
804.153	15093.46
804.483	15144.98
804.814	14998.09
805.145	15048.94
805.475	14882.62
805.805	14994.25
806.136	14937.76
806.466	14996.74
806.796	14888.49
807.126	14660.02
807.457	14839
807.787	14754.03
808.117	14610.76
808.447	14619.57
808.777	14644.43
809.107	14486.92
809.436	14448.28
809.766	14555.85
810.096	14429.75
810.426	14449.18
810.755	14410.77
811.085	14301.62
811.414	14336.42
811.744	14119.25
812.073	14215.97
812.403	14151.79
812.732	14056.42
813.061	14064.11
813.39	14010.1
813.719	14006.71
814.049	14018.23
814.378	13998.57
814.707	13937.33
815.036	13872.02
815.365	13844.23
815.693	13761.29
816.022	13687.17
816.351	13674.74
816.68	13664.34
817.008	13657.56
817.337	13497.34
817.665	13493.05
817.994	13564.46
818.322	13529.43
818.651	13395.2
818.979	13337.57
819.307	13430
819.636	13383
819.964	13320.4
820.292	13367.85
820.62	13375.31
820.948	13346.16
821.276	13265.03
821.604	13314.3
821.932	13288.08
822.259	13331.92
822.587	13219.84
822.915	13227.07
823.243	13239.04
823.57	13280.63
823.898	13253.73
824.225	13180.06
824.553	13104.13
824.88	13239.04
825.207	13191.14
825.535	13210.57
825.862	13247.86
826.189	13192.04
826.516	13201.08
826.843	13254.86
827.17	13195.2
827.497	13264.13
827.824	13146.84
828.151	13240.4
828.478	13215.32
828.805	13199.72
829.131	13246.05
829.458	13108.43
829.785	13098.48
830.111	13138.26
830.438	13205.37
830.764	13185.03
831.09	13227.29
831.417	13064.36
831.743	13155.66
832.069	13157.01
832.395	13087.41
832.722	13074.76
833.048	13102.32
833.374	13050.57
833.7	13036.11
834.026	13022.78
834.351	13038.37
834.677	13044.47
835.003	12981.88
835.329	12975.55
835.654	12928.54
835.98	12925.38
836.306	12981.2
836.631	12956.34
836.956	12837.25
837.282	12938.71
837.607	12854.2
837.932	12878.6
838.258	12813.29
838.583	12765.38
838.908	12748.66
839.233	12731.26
839.558	12679.06
839.883	12627.08
840.208	12649.23
840.533	12640.87
840.858	12722.67
841.182	12623.47
841.507	12638.83
841.832	12562.68
842.156	12452.85
842.481	12535.79
842.805	12462.34
843.13	12418.28
843.454	12443.36
843.778	12393.19
844.103	12369.46
844.427	12351.84
844.751	12358.16
845.075	12212.4
845.399	12209.69
845.723	12235.91
846.047	12189.35
846.371	12049.25
846.695	12099.64
847.019	11958.63
847.343	11952.07
847.666	11881.11
847.99	11817.84
848.313	11898.51
848.637	11714.79
848.96	11788.69
849.284	11796.6
849.607	11598.41
849.931	11659.88
850.254	11563.38
850.577	11417.85
850.9	11360.68
851.223	11367.46
851.546	11253.79
851.869	11233
852.192	11287.23
852.515	11116.39
852.838	11161.59
853.161	11132.89
853.483	11018.54
853.806	11065.32
854.129	11008.37
854.451	11022.15
854.774	10911.2
855.096	10888.6
855.419	10810.86
855.741	10876.17
856.063	10747.58
856.385	10715.95
856.708	10706.91
857.03	10728.83
857.352	10712.11
857.674	10629.62
857.996	10579.23
858.318	10557.31
858.64	10562.05
858.961	10560.47
859.283	10445.22
859.605	10424.2
859.926	10497.42
860.248	10386.92
860.57	10379.68
860.891	10381.72
861.212	10347.14
861.534	10322.06
861.855	10273.25
862.176	10218.56
862.498	10193.02
862.819	10259.46
863.14	10200.48
863.461	10149.86
863.782	10130.65
864.103	10133.36
864.424	10097.66
864.745	10097.43
865.065	10113.25
865.386	10028.51
865.707	10066.92
866.027	10013.14
866.348	9995.74
866.668	10006.14
866.989	9919.58
867.309	9830.32
867.63	9930.88
867.95	9921.17
868.27	9921.17
868.59	9869.42
868.91	9861.05
869.23	9800.72
869.55	9773.6
869.87	9822.86
870.19	9862.86
870.51	9763.2
870.83	9789.19
871.15	9788.97
871.469	9744.22
871.789	9844.56
872.109	9725.24
872.428	9697.44
872.748	9701.28
873.067	9654.28
873.386	9671.91
873.706	9689.53
874.025	9551.01
874.344	9605.69
874.663	9605.47
874.982	9592.81
875.301	9618.35
875.62	9514.4
875.939	9471.91
876.258	9507.39
876.577	9470.56
876.896	9425.13
877.214	9437.79
877.533	9445.7
877.852	9431.01
878.17	9376.32
878.489	9371.58
878.807	9354.63
879.125	9393.72
879.444	9349.2
879.762	9313.27
880.08	9351.69
880.398	9291.35
880.716	9281.63
881.034	9207.29
881.352	9218.13
881.67	9282.54
881.988	9274.18
882.306	9173.61
882.624	9209.09
882.941	9092.03
883.259	9109.66
883.577	9046.61
883.894	9091.13
884.212	9011.36
884.529	9121.64
884.846	9047.52
885.164	9011.81
885.481	8982.89
885.798	9020.85
886.115	8927.07
886.432	8887.29
886.75	8900.4
887.067	8862.66
887.383	8792.16
887.7	8851.82
888.017	8786.96
888.334	8767.3
888.651	8787.18
888.967	8767.75
889.284	8689.79
889.6	8678.49
889.917	8640.3
890.233	8645.04
890.55	8662.22
890.866	8661.54
891.182	8591.26
891.498	8549.9
891.815	8529.34
892.131	8493.86
892.447	8476.68
892.763	8438.72
893.079	8423.58
893.395	8367.99
893.71	8391.04
894.026	8302.45
894.342	8306.07
894.657	8263.58
894.973	8280.76
895.289	8247.99
895.604	8260.64
895.92	8223.36
896.235	8172.29
896.55	8128.9
896.865	8173.42
897.181	8112.85
897.496	8149.46
897.811	8050.93
898.126	8003.02
898.441	8009.58
898.756	7953.53
899.071	7897.49
899.386	7953.76
899.7	7831.05
900.015	7825.18
900.33	7805.74
900.644	7761.9
900.959	7761.22
901.273	7716.03
901.588	7673.09
901.902	7668.12
902.216	7646.65
902.531	7570.27
902.845	7519.87
903.159	7521.91
903.473	7523.26
903.787	7455.02
904.101	7430.16
904.415	7485.3
904.729	7437.62
905.042	7396.94
905.356	7322.59
905.67	7307.22
905.984	7295.47
906.297	7326.21
906.611	7230.61
906.924	7194.91
907.237	7236.26
907.551	7172.76
907.864	7160.79
908.177	7114.23
908.491	7102.93
908.804	7020.9
909.117	7024.29
909.43	6961.47
909.743	6969.38
910.056	6934.13
910.368	6958.98
910.681	6911.3
910.994	6921.92
911.307	6826.11
911.619	6784.75
911.932	6801.93
912.244	6780.46
912.557	6694.36
912.869	6674.92
913.181	6650.29
913.494	6677.64
913.806	6675.38
914.118	6673.34
914.43	6602.38
914.742	6500.01
915.054	6461.37
915.366	6459.79
915.678	6463.4
915.99	6392.22
916.302	6434.25
916.613	6343.86
916.925	6387.47
917.236	6335.95
917.548	6301.15
917.859	6303.63
918.171	6250.75
918.482	6174.82
918.794	6174.15
919.105	6226.8
919.416	6183.41
919.727	6143.19
920.038	6156.74
920.349	6081.27
920.66	6054.15
920.971	6045.56
921.282	6008.27
921.593	5965.56
921.903	5973.25
922.214	5904.77
922.525	5934.83
922.835	5858
923.146	5849.18
923.456	5819.8
923.767	5768.28
924.077	5779.13
924.387	5733.03
924.697	5719.92
925.008	5678.34
925.318	5716.3
925.628	5684.67
925.938	5647.83
926.248	5589.08
926.558	5567.61
926.867	5585.01
927.177	5541.62
927.487	5490.1
927.796	5450.77
928.106	5412.58
928.416	5470.21
928.725	5476.99
929.034	5408.29
929.344	5377.56
929.653	5320.61
929.962	5326.94
930.271	5320.83
930.581	5337.56
930.89	5250.55
931.199	5223.89
931.508	5231.12
931.817	5192.25
932.125	5212.14
932.434	5139.82
932.743	5167.62
933.051	5066.83
933.36	5094.63
933.669	5068.41
933.977	5065.25
934.286	5027.51
934.594	5027.28
934.902	4948.42
935.21	4947.74
935.519	4960.84
935.827	4965.14
936.135	4950.45
936.443	4856.44
936.751	4841.98
937.059	4827.29
937.367	4824.12
937.674	4837.91
937.982	4784.35
938.29	4797.91
938.597	4767.4
938.905	4733.96
939.213	4651.7
939.52	4688.53
939.827	4680.4
940.135	4646.73
940.442	4655.09
940.749	4587.75
941.056	4585.03
941.363	4564.02
941.67	4524.47
941.977	4528.99
942.284	4525.6
942.591	4517.92
942.898	4448.32
943.205	4466.85
943.511	4426.39
943.818	4441.31
944.125	4342.33
944.431	4386.85
944.738	4360.18
945.044	4352.05
945.35	4302.78
945.657	4275.89
945.963	4237.47
946.269	4229.34
946.575	4227.53
946.881	4199.28
947.187	4245.83
947.493	4226.85
947.799	4134.88
948.105	4129.91
948.41	4136.01
948.716	4127.42
949.022	4078.16
949.327	4076.12
949.633	4085.61
949.938	4056.01
950.244	4049
950.549	3984.82
950.854	3976.69
951.16	3969.91
951.465	3902.11
951.77	3928.78
952.075	3924.04
952.38	3910.25
952.685	3924.26
952.99	3854.21
953.294	3871.61
953.599	3847.88
953.904	3827.99
954.209	3851.49
954.513	3826.18
954.818	3730.82
955.122	3750.03
955.426	3716.81
955.731	3691.05
956.035	3728.11
956.339	3690.14
956.643	3664.16
956.948	3701.22
957.252	3635.68
957.556	3634.1
957.86	3567.43
958.163	3604.95
958.467	3616.7
958.771	3568.56
959.075	3537.6
959.378	3507.77
959.682	3536.93
959.985	3506.65
960.289	3507.32
960.592	3462.13
960.896	3396.37
961.199	3507.77
961.502	3414.67
961.805	3464.16
962.108	3418.74
962.411	3375.8
962.714	3433.88
963.017	3361.34
963.32	3366.08
963.623	3365.18
963.926	3322.7
964.228	3279.76
964.531	3287.22
964.833	3301.23
965.136	3283.37
965.438	3270.27
965.741	3213.09
966.043	3220.78
966.345	3238.4
966.648	3232.3
966.95	3190.04
967.252	3158.18
967.554	3188.69
967.856	3124.51
968.158	3111.85
968.46	3097.39
968.761	3109.59
969.063	3076.15
969.365	3099.2
969.666	3091.06
969.968	3018.97
970.269	3055.36
970.571	3013.1
970.872	3000.22
971.174	3022.14
971.475	3018.97
971.776	2983.49
972.077	2948.02
972.378	2934.68
972.679	2974.23
972.98	2949.82
973.281	2911.86
973.582	2884.06
973.883	2896.94
974.183	2909.15
974.484	2837.51
974.785	2850.39
975.085	2831.63
975.386	2823.05
975.686	2829.37
975.986	2752.54
976.287	2807.23
976.587	2777.17
976.887	2752.54
977.187	2755.48
977.487	2727.46
977.787	2739.21
978.087	2710.96
978.387	2702.37
978.687	2690.62
978.987	2655.14
979.286	2642.94
979.586	2654.46
979.885	2613.56
980.185	2589.16
980.484	2594.35
980.784	2577.63
981.083	2587.12
981.382	2616.05
981.682	2571.98
981.981	2569.04
982.28	2583.73
982.579	2538.76
982.878	2531.53
983.177	2522.72
983.475	2525.2
983.774	2490.17
984.073	2463.73
984.372	2458.09
984.67	2473.45
984.969	2431.42
985.267	2463.06
985.566	2452.21
985.864	2411.08
986.162	2439.33
986.461	2399.56
986.759	2391.87
987.057	2382.83
987.355	2378.54
987.653	2364.08
987.951	2348.03
988.249	2360.01
988.547	2348.94
988.844	2299.45
989.142	2284.08
989.44	2302.83
989.737	2275.27
990.035	2245.44
990.332	2262.38
990.63	2242.05
990.927	2202.72
991.224	2232.33
991.521	2228.49
991.819	2238.2
992.116	2214.25
992.413	2182.61
992.71	2199.11
993.006	2152.56
993.303	2156.62
993.6	2160.47
993.897	2162.95
994.193	2122.73
994.49	2113.01
994.787	2095.38
995.083	2076.63
995.379	2098.77
995.676	2110.75
995.972	2085.89
996.268	2089.73
996.565	2035.5
996.861	2034.14
997.157	2022.84
997.453	2037.76
997.749	2016.97
998.044	2029.85
998.34	2005.67
998.636	1987.36
998.932	1960.47
999.227	1963.63
999.523	1971.32
999.818	1912.11
1000.114	1913.92
1000.409	1903.75
1000.704	1899.23
1001	1897.87
1001.295	1884.09
1001.59	1911.43
1001.885	1880.93
1002.18	1862.62
1002.475	1881.38
1002.77	1848.61
1003.065	1842.96
1003.359	1847.93
1003.654	1823.75
1003.949	1827.37
1004.243	1816.97
1004.538	1786.01
1004.832	1801.15
1005.127	1753.02
1005.421	1745.79
1005.715	1782.62
1006.009	1741.27
1006.304	1741.95
1006.598	1723.42
1006.892	1720.03
1007.186	1706.01
1007.48	1712.34
1007.773	1686.13
1008.067	1688.16
1008.361	1678.9
1008.655	1669.86
1008.948	1645
1009.242	1662.63
1009.535	1639.12
1009.829	1613.14
1010.122	1621.72
1010.415	1598.45
1010.708	1588.5
1011.001	1597.09
1011.295	1570.65
1011.588	1548.28
1011.881	1551.67
1012.173	1563.42
1012.466	1548.96
1012.759	1522.52
1013.052	1544.44
1013.344	1506.02
1013.637	1486.81
1013.93	1480.48
1014.222	1501.05
1014.514	1479.58
1014.807	1459.92
1015.099	1448.62
1015.391	1482.29
1015.683	1452.24
1015.976	1445
1016.268	1440.71
1016.56	1414.04
1016.851	1408.85
1017.143	1434.84
1017.435	1388.73
1017.727	1369.75
1018.018	1369.98
1018.31	1350.77
1018.602	1341.96
1018.893	1362.97
1019.185	1365.23
1019.476	1329.3
1019.767	1321.17
1020.058	1319.81
1020.35	1319.58
1020.641	1303.09
1020.932	1320.26
1021.223	1297.89
1021.514	1285.46
1021.804	1291.34
1022.095	1252.47
1022.386	1264.67
1022.677	1261.05
1022.967	1263.09
1023.258	1227.61
1023.548	1225.35
1023.839	1239.36
1024.129	1232.81
1024.419	1200.27
1024.709	1227.61
1025	1174.95
1025.29	1167.27
1025.58	1188.29
1025.87	1166.59
1026.16	1175.41
1026.449	1177.21
1026.739	1133.37
1027.029	1138.12
1027.319	1135.86
1027.608	1128.18
1027.898	1148.51
1028.187	1103.32
1028.477	1124.79
1028.766	1104.67
1029.055	1082.08
1029.344	1075.07
1029.634	1075.75
1029.923	1069.87
1030.212	1068.74
1030.501	1071
1030.79	1060.61
1031.078	1049.99
1031.367	1035.52
1031.656	1016.99
1031.945	1022.87
1032.233	1019.03
1032.522	1032.36
1032.81	1032.13
1033.099	989.65
1033.387	983.32
1033.675	983.32
1033.963	1000.95
1034.251	1005.24
1034.54	969.54
1034.828	965.24
1035.116	952.36
1035.403	980.84
1035.691	940.16
1035.979	943.77
1036.267	935.64
1036.554	941.51
1036.842	913.27
1037.129	916.88
1037.417	916.43
1037.704	915.98
1037.992	915.53
1038.279	891.35
1038.566	888.41
1038.853	888.41
1039.14	888.41
