Data from hue_200_FLMS001491_00018.txt Node
Date: Tue Feb 07 16:42:53 GMT 2017
User: dcchb
Spectrometer: FLMS00149
Trigger mode: 0
Integration Time (sec): 2.000000E-2
Scans to average: 10
Electric dark correction enabled: true
Nonlinearity correction enabled: false
Boxcar width: 0
XAxis mode: Wavelengths
Number of Pixels in Spectrum: 2048
>>>>>Begin Spectral Data<<<<<
341.393	-8.62
341.776	-8.62
342.16	-8.62
342.543	-60.14
342.927	-70.99
343.31	-64.43
343.693	-66.24
344.077	-63.98
344.46	-72.34
344.843	-42.74
345.226	-28.95
345.61	-51.1
345.993	-13.14
346.376	-15.4
346.759	-1.84
347.142	39.52
347.525	40.65
347.908	56.47
348.291	70.93
348.674	89.23
349.057	123.36
349.44	136.69
349.823	150.7
350.206	151.61
350.588	198.84
350.971	201.1
351.354	239.06
351.737	222.79
352.119	254.65
352.502	274.09
352.884	283.13
353.267	279.29
353.65	297.14
354.032	263.92
354.414	304.37
354.797	324.03
355.179	329.91
355.562	310.7
355.944	342.11
356.326	332.62
356.709	337.82
357.091	348.21
357.473	321.77
357.855	329.68
358.238	338.49
358.62	351.83
359.002	342.34
359.384	332.39
359.766	323.81
360.148	349.79
360.53	324.71
360.912	325.61
361.294	325.16
361.676	340.98
362.057	333.52
362.439	333.75
362.821	336.46
363.203	330.13
363.584	321.77
363.966	292.39
364.348	311.38
364.729	327.19
365.111	316.35
365.493	321.55
365.874	323.13
366.256	318.16
366.637	314.77
367.019	307.53
367.4	317.25
367.781	307.53
368.163	316.8
368.544	317.93
368.925	296.46
369.306	317.7
369.688	297.59
370.069	327.65
370.45	327.87
370.831	318.61
371.212	312.28
371.593	333.3
371.974	313.41
372.355	315.67
372.736	312.96
373.117	325.84
373.498	340.75
373.879	308.44
374.26	322.68
374.641	310.92
375.021	323.13
375.402	322.45
375.783	319.96
376.163	341.21
376.544	317.93
376.925	325.61
377.305	324.71
377.686	339.4
378.066	320.42
378.447	327.19
378.827	346.4
379.208	322.9
379.588	338.04
379.968	339.4
380.349	336.46
380.729	323.81
381.109	337.59
381.489	349.57
381.87	342.79
382.25	339.4
382.63	329
383.01	342.56
383.39	320.19
383.77	337.36
384.15	338.04
384.53	346.63
384.91	345.27
385.29	337.82
385.67	365.39
386.049	354.99
386.429	373.97
386.809	370.36
387.189	336.91
387.568	364.48
387.948	338.04
388.328	348.21
388.707	365.61
389.087	345.95
389.466	371.94
389.846	375.56
390.225	377.81
390.605	368.32
390.984	364.93
391.363	366.29
391.743	375.33
392.122	374.88
392.501	367.87
392.881	370.81
393.26	357.25
393.639	392.5
394.018	377.14
394.397	381.66
394.776	386.85
395.155	386.85
395.534	396.8
395.913	379.62
396.292	409.23
396.671	397.25
397.05	414.65
397.429	393.41
397.808	399.74
398.186	396.8
398.565	391.15
398.944	408.55
399.323	406.06
399.701	410.58
400.08	402.45
400.458	409
400.837	435.89
401.215	435.21
401.594	435.67
401.972	420.98
402.351	446.51
402.729	397.25
403.107	437.7
403.486	441.77
403.864	435.89
404.242	448.32
404.62	454.88
404.999	455.55
405.377	462.56
405.755	432.95
406.133	473.41
406.511	459.85
406.889	474.99
407.267	494.2
407.645	493.74
408.023	497.59
408.401	518.15
408.779	491.48
409.156	501.2
409.534	518.6
409.912	549.56
410.29	535.1
410.667	546.4
411.045	569.45
411.422	558.15
411.8	570.13
412.178	557.92
412.555	572.39
412.933	600.18
413.31	609
413.687	600.86
414.065	601.31
414.442	625.27
414.819	633.18
415.197	654.42
415.574	648.99
415.951	681.08
416.328	685.15
416.705	663.46
417.082	681.99
417.46	708.65
417.837	703.23
418.214	698.03
418.591	722.21
418.967	721.99
419.344	711.82
419.721	764.25
420.098	755.43
420.475	779.39
420.852	773.51
421.228	809.22
421.605	828.42
421.982	807.18
422.358	841.31
422.735	851.47
423.111	872.49
423.488	888.76
423.864	915.88
424.241	949.1
424.617	944.13
424.994	950
425.37	954.07
425.746	986.61
426.123	978.03
426.499	1020.74
426.875	1022.32
427.251	1043.79
427.627	1074.07
428.003	1092.37
428.379	1076.55
428.756	1098.47
429.132	1084.01
429.507	1128.98
429.883	1128.76
430.259	1165.36
430.635	1151.13
431.011	1164.69
431.387	1186.16
431.763	1208.08
432.138	1215.53
432.514	1233.61
432.89	1269.77
433.265	1309.54
433.641	1303.89
434.016	1324.68
434.392	1392.48
434.767	1419.82
435.143	1415.08
435.518	1432.93
435.894	1442.65
436.269	1486.94
436.644	1517.45
437.02	1540.72
437.395	1560.38
437.77	1571.91
438.145	1622.08
438.52	1654.17
438.895	1669.08
439.271	1696.88
439.646	1735.07
440.021	1733.26
440.395	1766.48
440.77	1744.11
441.145	1782.3
441.52	1861.62
441.895	1862.3
442.27	1901.16
442.645	1891.22
443.019	1909.75
443.394	1961.5
443.769	1951.33
444.143	1969.41
444.518	2019.35
444.892	2001.73
445.267	2001.28
445.641	2062.06
446.016	2043.53
446.39	2075.4
446.764	2123.98
447.139	2062.29
447.513	2127.6
447.887	2145.9
448.262	2148.62
448.636	2159.91
449.01	2182.97
449.384	2238.78
449.758	2255.96
450.132	2279.46
450.506	2309.52
450.88	2284.88
451.254	2319.91
451.628	2353.13
452.002	2392.23
452.376	2381.83
452.75	2411.66
453.123	2419.12
453.497	2450.3
453.871	2507.7
454.244	2548.83
454.618	2527.36
454.992	2587.47
455.365	2610.3
455.739	2636.96
456.112	2702.05
456.486	2709.51
456.859	2738.2
457.232	2797.19
457.606	2782.5
457.979	2785.66
458.352	2872.44
458.725	2919.89
459.099	2932.32
459.472	2993.11
459.845	2981.36
460.218	2971.87
460.591	3048.48
460.964	3010.29
461.337	3079.89
461.71	3154.01
462.083	3216.84
462.456	3216.61
462.829	3230.4
463.201	3283.28
463.574	3322.82
463.947	3345.65
464.32	3416.15
464.692	3438.3
465.065	3475.13
465.438	3529.14
465.81	3550.84
466.183	3612.08
466.555	3698.18
466.928	3631.97
467.3	3702.7
467.672	3772.08
468.045	3867.44
468.417	3835.58
468.789	3887.1
469.161	3944.73
469.534	3992.18
469.906	4112.63
470.278	4076.7
470.65	4110.37
471.022	4199.64
471.394	4268.33
471.766	4353.3
472.138	4346.98
472.51	4478.95
472.882	4556.46
473.253	4525.73
473.625	4586.07
473.997	4667.42
474.369	4742.45
474.74	4778.15
475.112	4886.85
475.484	4902.67
475.855	5037.35
476.227	5030.35
476.598	5147.86
476.97	5220.85
477.341	5335.42
477.713	5361.41
478.084	5388.3
478.455	5529.32
478.827	5615.87
479.198	5746.04
479.569	5734.96
479.94	5915.07
480.311	5951
480.682	6115.97
481.053	6182.18
481.424	6257.21
481.795	6298.56
482.166	6425.79
482.537	6464.66
482.908	6562.06
483.279	6654.49
483.65	6721.83
484.021	6866.01
484.391	6924.31
484.762	6944.65
485.133	6994.14
485.503	7150.97
485.874	7235.26
486.244	7345.54
486.615	7438.42
486.985	7505.76
487.356	7661.47
487.726	7676.61
488.097	7824.4
488.467	7834.12
488.837	8016.94
489.207	8046.31
489.578	8198.4
489.948	8229.81
490.318	8312.52
490.688	8314.33
491.058	8468.45
491.428	8515
491.798	8649.69
492.168	8776.01
492.538	8769.01
492.908	8929.45
493.278	8987.53
493.648	8947.76
494.017	9102.56
494.387	9090.58
494.757	9202.44
495.126	9261.42
495.496	9271.14
495.866	9346.62
496.235	9376.45
496.605	9463.68
496.974	9475.88
497.344	9634.07
497.713	9582.54
498.082	9609.66
498.452	9727.17
498.821	9726.04
499.19	9727.17
499.559	9811.24
499.928	9817.11
500.298	9926.72
500.667	9928.75
501.036	9978.47
501.405	10026.37
501.774	9997.22
502.143	10097.79
502.512	10081.97
502.88	10166.71
503.249	10239.93
503.618	10209.65
503.987	10270.89
504.356	10289.64
504.724	10324.67
505.093	10358.12
505.462	10328.74
505.83	10417.32
506.199	10434.5
506.567	10593.59
506.936	10534.16
507.304	10595.4
507.672	10569.19
508.041	10615.06
508.409	10720.37
508.777	10752.68
509.145	10790.65
509.514	10771.89
509.882	10767.82
510.25	10764.89
510.618	10801.04
510.986	10777.09
511.354	10845.11
511.722	10893.92
512.09	10994.26
512.458	10916.29
512.826	10989.74
513.193	10902.28
513.561	11030.42
513.929	11034.26
514.297	11065.44
514.664	11159.45
515.032	11086.01
515.4	11194.25
515.767	11124.65
516.135	11209.17
516.502	11119
516.869	11273.35
517.237	11175.95
517.604	11159.9
517.972	11283.06
518.339	11240.81
518.706	11235.16
519.073	11192.67
519.44	11253.69
519.808	11332.78
520.175	11282.61
520.542	11393.34
520.909	11421.14
521.276	11299.79
521.643	11396.96
522.009	11365.32
522.376	11412.1
522.743	11419.56
523.11	11434.93
523.477	11479.44
523.843	11488.03
524.21	11556.05
524.577	11561.48
524.943	11536.84
525.31	11527.58
525.676	11629.27
526.043	11617.52
526.409	11575.49
526.776	11666.33
527.142	11639.44
527.508	11677.18
527.874	11628.59
528.241	11667.91
528.607	11542.27
528.973	11728.25
529.339	11605.54
529.705	11603.73
530.071	11631.98
530.437	11664.98
530.803	11653.45
531.169	11522.83
531.535	11506.11
531.901	11568.26
532.267	11476.28
532.632	11494.58
532.998	11501.59
533.364	11465.88
533.73	11390.86
534.095	11448.94
534.461	11392.67
534.826	11509.27
535.192	11376.17
535.557	11415.26
535.923	11301.14
536.288	11312.67
536.653	11266.79
537.019	11211.65
537.384	11247.13
537.749	11215.95
538.114	11184.76
538.479	11142.96
538.845	11099.79
539.21	11029.96
539.575	11019.12
539.94	11007.37
540.305	10978.21
540.67	10790.42
541.034	10848.73
541.399	10876.97
541.764	10788.61
542.129	10747.49
542.494	10727.37
542.858	10680.37
543.223	10641.05
543.587	10636.53
543.952	10555.4
544.316	10561.28
544.681	10460.94
545.045	10463.88
545.41	10359.47
545.774	10383.2
546.138	10367.38
546.503	10278.35
546.867	10229.76
547.231	10314.5
547.595	10233.83
547.959	10225.92
548.324	10061.4
548.688	10062.53
549.052	9987.96
549.416	10002.42
549.779	10013.27
550.143	9892.14
550.507	9923.33
550.871	9943.89
551.235	9817.34
551.599	9846.04
551.962	9796.55
552.326	9689.89
552.689	9804.69
553.053	9670.45
553.417	9626.16
553.78	9682.88
554.143	9583.22
554.507	9636.1
554.87	9590.45
555.234	9609.66
555.597	9452.6
555.96	9486.95
556.323	9445.6
556.686	9378.26
557.05	9472.49
557.413	9384.81
557.776	9348.88
558.139	9386.84
558.502	9352.95
558.865	9326.96
559.228	9315.21
559.59	9315.88
559.953	9242.21
560.316	9329.44
560.679	9295.32
561.041	9272.95
561.404	9277.92
561.767	9252.84
562.129	9181.2
562.492	9202.44
562.854	9241.54
563.217	9155.21
563.579	9210.58
563.941	9179.84
564.304	9178.04
564.666	9245.6
565.028	9236.79
565.39	9193.63
565.753	9193.85
566.115	9159.73
566.477	9219.39
566.839	9127.64
567.201	9198.15
567.563	9237.69
567.925	9222.55
568.287	9206.28
568.648	9175.55
569.01	9234.08
569.372	9283.8
569.734	9236.79
570.095	9200.18
570.457	9146.4
570.819	9252.16
571.18	9172.84
571.542	9186.17
571.903	9241.08
572.265	9182.33
572.626	9262.78
572.987	9282.89
573.349	9232.95
573.71	9277.69
574.071	9261.42
574.432	9272.04
574.794	9280.41
575.155	9274.3
575.516	9238.37
575.877	9239.95
576.238	9228.66
576.599	9295.77
576.96	9306.17
577.32	9204.93
577.681	9316.11
578.042	9310.01
578.403	9255.32
578.763	9216.9
579.124	9281.31
579.485	9282.44
579.845	9318.82
580.206	9254.42
580.566	9256.45
580.927	9306.62
581.287	9289.67
581.648	9263.91
582.008	9225.72
582.368	9240.18
582.728	9252.61
583.089	9231.14
583.449	9269.11
583.809	9243.34
584.169	9307.3
584.529	9185.72
584.889	9259.62
585.249	9240.63
585.609	9176.23
585.969	9270.01
586.329	9145.27
586.688	9194.08
587.048	9252.84
587.408	9132.84
587.768	9151.14
588.127	9209.9
588.487	9051.71
588.846	9158.6
589.206	9127.42
589.565	9095.55
589.925	9142.78
590.284	9179.62
590.643	9157.7
591.003	9145.95
591.362	9144.59
591.721	9169.67
592.08	9128.09
592.44	9122.67
592.799	9132.39
593.158	9100.07
593.517	9101.65
593.876	9103.91
594.235	9053.29
594.593	9039.06
594.952	9094.42
595.311	9029.56
595.67	9095.33
596.029	9137.36
596.387	9100.07
596.746	9067.98
597.104	9029.11
597.463	9038.83
597.822	9076.34
598.18	9077.47
598.538	9075.67
598.897	9108.88
599.255	8918.38
599.613	9105.04
599.972	9038.15
600.33	9016.46
600.688	9039.51
601.046	9065.04
601.404	9036.8
601.762	9009.9
602.12	9133.97
602.478	9003.8
602.836	9089.45
603.194	8985.27
603.552	8995.67
603.91	8974.2
604.268	8981.43
604.625	8998.83
604.983	8992.05
605.341	8953.18
605.698	8989.79
606.056	9030.69
606.413	8967.65
606.771	8966.97
607.128	9035.21
607.485	9026.18
607.843	8956.8
608.2	9038.83
608.557	9018.94
608.914	9013.29
609.272	9071.37
609.629	9049.45
609.986	9091.94
610.343	9062.33
610.7	9074.99
611.057	9014.88
611.414	9084.48
611.771	9027.98
612.127	9134.42
612.484	9128.77
612.841	9122.22
613.198	9095.55
613.554	9107.08
613.911	9127.64
614.267	9119.28
614.624	9086.51
614.98	9121.99
615.337	9101.43
615.693	9151.6
616.05	9106.62
616.406	9151.82
616.762	9132.84
617.118	9157.25
617.475	9152.5
617.831	9121.09
618.187	9184.36
618.543	9161.09
618.899	9275.43
619.255	9117.92
619.611	9208.32
619.967	9238.37
620.323	9217.81
620.678	9194.98
621.034	9236.79
621.39	9217.81
621.746	9189.33
622.101	9256.45
622.457	9139.84
622.812	9184.59
623.168	9240.63
623.523	9170.8
623.879	9205.15
624.234	9144.82
624.589	9171.93
624.945	9225.04
625.3	9169.67
625.655	9172.61
626.01	9161.76
626.365	9209.67
626.72	9137.13
627.075	9141.88
627.43	9175.55
627.785	9154.53
628.14	9174.87
628.495	9114.99
628.85	9114.99
629.205	9086.29
629.559	9106.4
629.914	9141.65
630.269	9114.08
630.623	9079.28
630.978	9093.97
631.332	9136.23
631.687	9136.68
632.041	9033.86
632.396	9153.86
632.75	9007.19
633.104	9078.15
633.459	9015.55
633.813	8980.98
634.167	8990.24
634.521	9014.2
634.875	8967.42
635.229	8926.06
635.583	8911.6
635.937	8905.5
636.291	8927.19
636.645	8941.43
636.999	8858.04
637.352	8877.48
637.706	8900.08
638.06	8948.66
638.413	8902.34
638.767	8807.2
639.121	8818.27
639.474	8802
639.828	8817.82
640.181	8815.11
640.534	8854.2
640.888	8776.69
641.241	8785.28
641.594	8709.35
641.947	8769.23
642.301	8742.34
642.654	8698.05
643.007	8796.12
643.36	8711.16
643.713	8717.93
644.066	8704.6
644.419	8655.56
644.771	8652.4
645.124	8562.01
645.477	8568.56
645.83	8494.44
646.182	8529.46
646.535	8423.03
646.888	8459.18
647.24	8463.48
647.593	8432.07
647.945	8477.94
648.298	8409.02
648.65	8412.86
649.002	8422.8
649.355	8474.55
649.707	8463.25
650.059	8471.16
650.411	8613.53
650.763	8588.9
651.115	8658.73
651.467	8579.18
651.819	8599.75
652.171	8645.17
652.523	8571.5
652.875	8592.97
653.227	8557.71
653.578	8645.85
653.93	8608.56
654.282	8600.88
654.633	8594.1
654.985	8636.13
655.337	8581.44
655.688	8598.84
656.039	8648.56
656.391	8570.82
656.742	8625.28
657.094	8600.88
657.445	8651.27
657.796	8656.92
658.147	8638.61
658.498	8612.17
658.849	8577.37
659.2	8616.69
659.551	8605.85
659.902	8672.74
660.253	8689.91
660.604	8682.23
660.955	8677.94
661.306	8706.86
661.656	8697.37
662.007	8701.44
662.358	8712.74
662.708	8667.77
663.059	8676.81
663.409	8644.49
663.76	8763.81
664.11	8741.21
664.461	8697.37
664.811	8769.68
665.161	8716.58
665.511	8735.56
665.862	8719.06
666.212	8727.2
666.562	8741.89
666.912	8715
667.262	8717.03
667.612	8695.34
667.962	8735.11
668.312	8703.92
668.662	8782.79
669.011	8713.64
669.361	8706.86
669.711	8739.18
670.06	8720.19
670.41	8675.68
670.76	8695.11
671.109	8665.51
671.459	8715.9
671.808	8668.44
672.157	8659.63
672.507	8628.9
672.856	8608.78
673.205	8644.94
673.554	8634.32
673.904	8578.05
674.253	8645.62
674.602	8604.49
674.951	8530.14
675.3	8464.38
675.649	8584.83
675.998	8614.43
676.346	8591.16
676.695	8615.56
677.044	8553.65
677.393	8617.82
677.741	8558.62
678.09	8538.05
678.438	8516.58
678.787	8525.4
679.135	8465.29
679.484	8431.84
679.832	8530.82
680.181	8406.3
680.529	8486.08
680.877	8442.46
681.225	8441.33
681.573	8395.23
681.922	8365.18
682.27	8318.85
682.618	8353.65
682.966	8351.39
683.314	8339.87
683.661	8295.57
684.009	8268.91
684.357	8256.03
684.705	8241.79
685.053	8251.05
685.4	8214.45
685.748	8196.14
686.095	8150.72
686.443	8114.79
686.79	8129.02
687.138	8112.53
687.485	8124.5
687.832	8038.4
688.18	8074.34
688.527	8041.12
688.874	8018.07
689.221	8021.46
689.568	7935.58
689.915	7947.33
690.262	7975.81
690.609	7929.03
690.956	7913.66
691.303	7858.52
691.65	7769.03
691.997	7778.98
692.344	7752.08
692.69	7705.76
693.037	7740.79
693.383	7651.75
693.73	7695.14
694.077	7600
694.423	7600.45
694.769	7621.24
695.116	7534.01
695.462	7520
695.808	7496.5
696.155	7544.41
696.501	7429.83
696.847	7470.51
697.193	7387.57
697.539	7424.64
697.885	7382.83
698.231	7344.19
698.577	7297.63
698.923	7317.97
699.269	7216.05
699.614	7189.39
699.96	7159.33
700.306	7153.68
700.651	7179.22
700.997	7093.12
701.342	7108.26
701.688	7058.54
702.033	7071.2
702.379	7076.62
702.724	7030.75
703.069	6945.33
703.415	6860.36
703.76	6922.73
704.105	6914.82
704.45	6942.84
704.795	6837.76
705.14	6804.54
705.485	6844.09
705.83	6779.91
706.175	6763.64
706.52	6747.14
706.865	6735.84
707.209	6668.95
707.554	6652.9
707.899	6682.28
708.243	6678.89
708.588	6651.32
708.932	6598.89
709.277	6549.4
709.621	6570.87
709.966	6494.72
710.31	6593.47
710.654	6490.42
710.998	6496.3
711.342	6492.46
711.687	6452.91
712.031	6437.99
712.375	6406.58
712.719	6450.42
713.063	6362.06
713.407	6412.91
713.75	6385.57
714.094	6412.23
714.438	6331.78
714.782	6366.13
715.125	6296.98
715.469	6376.53
715.812	6273.71
716.156	6293.37
716.499	6279.35
716.843	6271.67
717.186	6272.35
717.53	6255.4
717.873	6240.94
718.216	6176.98
718.559	6238.23
718.902	6186.7
719.246	6163.43
719.589	6132.24
719.932	6162.52
720.275	6201.16
720.617	6221.73
720.96	6160.71
721.303	6197.1
721.646	6129.08
721.989	6129.75
722.331	6185.12
722.674	6092.01
723.016	6139.92
723.359	6127.49
723.701	6134.95
724.044	6079.36
724.386	6089.53
724.729	6097.66
725.071	6040.04
725.413	6132.69
725.755	6053.15
726.097	6057.67
726.439	6078.91
726.782	6067.16
727.124	6086.82
727.465	6041.62
727.807	5986.03
728.149	6032.81
728.491	6054.05
728.833	6114.16
729.175	5988.51
729.516	6028.06
729.858	6066.03
730.199	5995.75
730.541	6029.42
730.882	5999.59
731.224	6036.88
731.565	6045.01
731.906	6001.62
732.248	6052.47
732.589	6027.84
732.93	5964.33
733.271	6015.86
733.612	6027.38
733.953	6018.34
734.294	6038.68
734.635	5999.14
734.976	6016.76
735.317	6021.28
735.658	6038.01
735.999	6014.05
736.339	6027.16
736.68	6054.5
737.021	6052.47
737.361	6046.14
737.702	6077.55
738.042	6087.5
738.383	6067.61
738.723	6085.24
739.063	6095.4
739.404	6079.13
739.744	6091.79
740.084	6045.46
740.424	6119.36
740.764	6108.29
741.104	6102.86
741.444	6151.45
741.784	6132.01
742.124	6162.3
742.464	6226.93
742.804	6210.2
743.143	6226.7
743.483	6221.28
743.823	6266.47
744.162	6237.77
744.502	6346.02
744.841	6313.93
745.181	6400.26
745.52	6419.01
745.86	6438.45
746.199	6472.57
746.538	6523.42
746.877	6532.46
747.216	6605.22
747.556	6621.04
747.895	6674.15
748.234	6756.18
748.573	6752.34
748.911	6790.3
749.25	6912.11
749.589	6969.51
749.928	7042.5
750.267	7108.49
750.605	7091.54
750.944	7153.91
751.283	7265.09
751.621	7377.63
751.96	7502.6
752.298	7543.28
752.636	7645.65
752.975	7687.68
753.313	7790.73
753.651	7926.99
753.989	7996.6
754.327	8095.58
754.666	8180.77
755.004	8308.91
755.342	8421.67
755.679	8516.36
756.017	8679.74
756.355	8864.37
756.693	8945.73
757.031	9054.87
757.368	9273.4
757.706	9369.44
758.044	9570.79
758.381	9722.43
758.719	9787.96
759.056	9981.18
759.394	10161.74
759.731	10272.02
760.068	10455.74
760.405	10590.65
760.743	10747.49
761.08	10932.34
761.417	11030.42
761.754	11191.77
762.091	11451.2
762.428	11607.35
762.765	11730.51
763.102	11935.7
763.438	12066.32
763.775	12300.89
764.112	12459.31
764.449	12643.71
764.785	12786.98
765.122	12821.56
765.458	13034.88
765.795	13177.7
766.131	13424.25
766.467	13559.39
766.804	13571.14
767.14	13809.78
767.476	13968.42
767.812	14089.54
768.148	14260.84
768.485	14323.44
768.821	14507.61
769.157	14621.51
769.492	14791.45
769.828	14945.79
770.164	14944.66
770.5	15050.88
770.836	15232.34
771.171	15302.62
771.507	15347.14
771.842	15408.61
772.178	15649.96
772.513	15675.72
772.849	15705.55
773.184	15853.79
773.519	16063.05
773.855	16041.36
774.19	16110.51
774.525	16075.93
774.86	16293.78
775.195	16390.95
775.53	16396.83
775.865	16458.97
776.2	16439.77
776.535	16425.75
776.87	16535.81
777.205	16529.48
777.539	16625.98
777.874	16714.56
778.209	16643.15
778.543	16773.77
778.878	16717.5
779.212	16755.69
779.547	16790.26
779.881	16904.84
780.215	16901.67
780.55	16951.84
780.884	16921.56
781.218	16930.15
781.552	17062.57
781.886	17005.4
782.22	16942.13
782.554	17013.99
782.888	16856.48
783.222	16977.83
783.556	16950.94
783.889	16946.42
784.223	16807.21
784.557	16927.66
784.89	17083.82
785.224	16887.89
785.557	16872.07
785.891	16893.09
786.224	16949.81
786.558	16960.43
786.891	16810.15
787.224	16790.26
787.557	16863.71
787.891	16847.21
788.224	16825.29
788.557	16951.39
788.89	16855.12
789.223	16948.9
789.556	16761.34
789.888	16701.23
790.221	16706.2
790.554	16678.86
790.887	16696.71
791.219	16697.84
791.552	16669.59
791.884	16649.25
792.217	16536.49
792.549	16524.96
792.882	16543.72
793.214	16435.7
793.546	16477.28
793.879	16428.24
794.211	16324.74
794.543	16408.58
794.875	16353.44
795.207	16422.14
795.539	16316.15
795.871	16373.78
796.203	16287.68
796.535	16133.11
796.867	16137.63
797.198	16125.42
797.53	16138.76
797.862	16016.5
798.193	16091.3
798.525	15929.27
798.856	16006.56
799.188	15772.66
799.519	15880.68
799.85	15824.64
800.182	15770.63
800.513	15745.55
800.844	15651.76
801.175	15740.8
801.506	15720.01
801.837	15584.65
802.168	15631.43
802.499	15576.29
802.83	15499.45
803.161	15550.3
803.491	15493.12
803.822	15479.79
804.153	15482.28
804.483	15306.24
804.814	15289.74
805.145	15338.78
805.475	15345.33
805.805	15165
806.136	15250.19
806.466	15204.54
806.796	15154.6
807.126	15086.35
807.457	15103.53
807.787	15078.45
808.117	15030.76
808.447	14924.78
808.777	14979.69
809.107	14901.05
809.436	14892.69
809.766	14958.22
810.096	14832.8
810.426	14795.74
810.755	14819.47
811.085	14762.3
811.414	14741.05
811.744	14642.07
812.073	14595.07
812.403	14665.57
812.732	14624.9
813.061	14629.19
813.39	14501.74
813.719	14445.92
814.049	14585.8
814.378	14537.67
814.707	14427.84
815.036	14421.97
815.365	14355.3
815.693	14261.97
816.022	14320.73
816.351	14180.84
816.68	14214.29
817.008	14286.38
817.337	14150.11
817.665	13989.89
817.994	14172.25
818.322	14119.37
818.651	13977.91
818.979	14013.39
819.307	14096.78
819.636	14033.95
819.964	13920.51
820.292	13977.23
820.62	14050.45
820.948	13928.19
821.276	13951.7
821.604	13973.62
821.932	13991.02
822.259	13918.48
822.587	13964.12
822.915	13896.1
823.243	13965.25
823.57	13879.83
823.898	13994.41
824.225	13846.84
824.553	13907.4
824.88	13942.43
825.207	14021.07
825.535	13874.41
825.862	13960.96
826.189	13901.75
826.516	13937.23
826.843	14009.55
827.17	13984.01
827.497	14001.64
827.824	14005.71
828.151	14108.53
828.478	13918.02
828.805	14053.39
829.131	13950.34
829.458	13937.01
829.785	13944.01
830.111	13949.44
830.438	13998.47
830.764	13982.2
831.09	14022.43
831.417	13871.25
831.743	13999.6
832.069	13971.13
832.395	13829.89
832.722	13934.07
833.048	13992.37
833.374	13911.47
833.7	13900.62
834.026	13915.76
834.351	13849.1
834.677	13888.19
835.003	13889.55
835.329	13909.44
835.654	13865.37
835.98	13803.68
836.306	13861.75
836.631	13757.35
836.956	13793.06
837.282	13802.09
837.607	13675.09
837.932	13743.57
838.258	13731.36
838.583	13712.38
838.908	13622.89
839.233	13635.55
839.558	13584.02
839.883	13552.16
840.208	13509.22
840.533	13461.09
840.858	13517.81
841.182	13535.21
841.507	13518.26
841.832	13386.51
842.156	13443.23
842.481	13453.4
842.805	13345.84
843.13	13259.74
843.454	13338.15
843.778	13314.88
844.103	13178.16
844.427	13290.02
844.751	13161.21
845.075	13097.25
845.399	13142.9
845.723	13113.98
846.047	13078.5
846.371	12970.93
846.695	12949.24
847.019	12902.46
847.343	12839.18
847.666	12797.38
847.99	12727.32
848.313	12756.92
848.637	12678.28
848.96	12606.87
849.284	12600.09
849.607	12453.66
849.931	12429.93
850.254	12332.3
850.577	12358.52
850.9	12193.32
851.223	12209.14
851.546	12140.44
851.869	12101.35
852.192	12178.63
852.515	11965.98
852.838	12007.57
853.161	11980
853.483	11932.99
853.806	11862.03
854.129	11829.94
854.451	11825.88
854.774	11731.64
855.096	11711.98
855.419	11615.94
855.741	11625.2
856.063	11595.37
856.385	11504.75
856.708	11493.91
857.03	11508.14
857.352	11500.01
857.674	11368.94
857.996	11377.07
858.318	11287.13
858.64	11388.82
858.961	11348.15
859.283	11227.93
859.605	11276.96
859.926	11203.97
860.248	11222.5
860.57	11149.96
860.891	11203.29
861.212	11165.78
861.534	11093.47
861.855	11057.08
862.176	11036.07
862.498	11034.48
862.819	11011.89
863.14	10981.38
863.461	10894.15
863.782	10907.93
864.103	10883.3
864.424	10937.31
864.745	10938.67
865.065	10889.63
865.386	10786.58
865.707	10762.17
866.027	10808.73
866.348	10778.9
866.668	10731.67
866.989	10744.1
867.309	10622.52
867.63	10694.83
867.95	10761.5
868.27	10663.87
868.59	10660.48
868.91	10644.89
869.23	10640.6
869.55	10511.56
869.87	10612.12
870.19	10601.73
870.51	10564.89
870.83	10553.37
871.15	10490.54
871.469	10509.3
871.789	10495.97
872.109	10486.02
872.428	10435.18
872.748	10465.46
873.067	10417.32
873.386	10478.79
873.706	10393.6
874.025	10407.38
874.344	10391.56
874.663	10302.75
874.982	10320.83
875.301	10384.11
875.62	10341.85
875.939	10293.94
876.258	10309.98
876.577	10211
876.896	10243.09
877.214	10133.49
877.533	10193.6
877.852	10133.04
878.17	10101.4
878.489	10138.01
878.807	10164.22
879.125	10085.58
879.444	10153.83
879.762	10066.83
880.08	10121.74
880.398	9965.59
880.716	9926.04
881.034	9963.55
881.352	10002.42
881.67	9981.18
881.988	9893.27
882.306	9939.37
882.624	9890.56
882.941	9841.29
883.259	9811.24
883.577	9760.85
883.894	9786.61
884.212	9784.8
884.529	9756.33
884.846	9650.57
885.164	9671.58
885.481	9669.77
885.798	9722.2
886.115	9551.36
886.432	9687.85
886.75	9614.41
887.067	9545.94
887.383	9563.34
887.7	9600.85
888.017	9451.47
888.334	9455.77
888.651	9413.06
888.967	9424.58
889.284	9425.49
889.6	9411.02
889.917	9322.66
890.233	9311.59
890.55	9230.01
890.866	9299.16
891.182	9319.73
891.498	9166.74
891.815	9138.26
892.131	9137.13
892.447	9133.06
892.763	9046.74
893.079	9136.45
893.395	9084.03
893.71	9067.53
894.026	8994.99
894.342	9039.96
894.657	8871.15
894.973	8861.66
895.289	8882.45
895.604	8858.72
895.92	8839.74
896.235	8805.16
896.55	8753.41
896.865	8735.34
897.181	8706.64
897.496	8624.15
897.811	8651.5
898.126	8639.74
898.441	8557.03
898.756	8502.35
899.071	8465.29
899.386	8502.12
899.7	8428.9
900.015	8422.12
900.33	8369.7
900.644	8331.96
900.959	8369.02
901.273	8283.82
901.588	8309.58
901.902	8214.45
902.216	8178.97
902.531	8182.13
902.845	8191.62
903.159	8140.32
903.473	8073.88
903.787	8002.93
904.101	7957.28
904.415	7978.52
904.729	7934.9
905.042	7919.31
905.356	7901.46
905.67	7910.72
905.984	7833.89
906.297	7823.27
906.611	7792.54
906.924	7726.1
907.237	7746.66
907.551	7678.64
907.864	7643.39
908.177	7687.91
908.491	7642.03
908.804	7496.27
909.117	7526.1
909.43	7494.01
909.743	7488.81
910.056	7416.95
910.368	7448.14
910.681	7399.33
910.994	7374.24
911.307	7388.25
911.619	7292.21
911.932	7288.82
912.244	7220.8
912.557	7206.34
912.869	7200.69
913.181	7131.99
913.494	7151.2
913.806	7110.52
914.118	7074.36
914.43	6967.47
914.742	7010.86
915.054	7000.92
915.366	6951.2
915.678	6948.26
915.99	6887.02
916.302	6795.95
916.613	6804.09
916.925	6767.93
917.236	6798.21
917.548	6720.7
917.859	6732.22
918.171	6694.26
918.482	6694.94
918.794	6629.85
919.105	6580.82
919.416	6564.32
919.727	6583.3
920.038	6538.33
920.349	6519.57
920.66	6442.97
920.971	6448.39
921.282	6465.11
921.593	6430.76
921.903	6338.56
922.214	6357.32
922.525	6342.18
922.835	6307.15
923.146	6213.37
923.456	6225.34
923.767	6211.56
924.077	6188.28
924.387	6229.64
924.697	6189.64
925.008	6124.1
925.318	6040.94
925.628	6051.56
925.938	6111.45
926.248	6005.69
926.558	6046.82
926.867	6002.07
927.177	5968.18
927.487	5950.78
927.796	5867.84
928.106	5909.19
928.416	5800.05
928.725	5847.95
929.034	5771.8
929.344	5798.24
929.653	5798.01
929.962	5734.28
930.271	5697.68
930.581	5700.39
930.89	5694.51
931.199	5669.65
931.508	5601.41
931.817	5587.17
932.125	5605.02
932.434	5548.53
932.743	5483.22
933.051	5479.6
933.36	5462.2
933.669	5442.99
933.977	5464.69
934.286	5416.1
934.594	5406.84
934.902	5381.75
935.21	5350.11
935.519	5314.63
935.827	5344.92
936.135	5289.32
936.443	5280.06
936.751	5194.41
937.059	5243
937.367	5251.36
937.674	5241.42
937.982	5176.33
938.29	5089.1
938.597	5126.84
938.905	5060.18
939.213	5060.18
939.52	5044.36
939.827	5012.95
940.135	5009.11
940.442	4969.33
940.749	4941.31
941.056	4949.9
941.363	4926.4
941.67	4933.4
941.977	4888.43
942.284	4878.04
942.591	4824.03
942.898	4826.29
943.205	4849.34
943.511	4783.12
943.818	4774.76
944.125	4758.49
944.431	4727.53
944.738	4756.68
945.044	4701.77
945.35	4698.38
945.657	4641.21
945.963	4617.7
946.269	4587.2
946.575	4546.52
946.881	4523.24
947.187	4522.79
947.493	4494.54
947.799	4475.33
948.105	4514.2
948.41	4416.35
948.716	4440.08
949.022	4394.88
949.327	4414.32
949.633	4382.91
949.938	4371.61
950.244	4378.84
950.549	4347.88
950.854	4287.77
951.16	4308.11
951.465	4261.1
951.77	4239.63
952.075	4248.67
952.38	4203.93
952.685	4205.06
952.99	4140.43
953.294	4170.48
953.599	4163.03
953.904	4105.4
954.209	4073.99
954.513	4122.8
954.818	4092.07
955.122	4062.24
955.426	4071.28
955.731	4011.62
956.035	3960.32
956.339	4048.45
956.643	3986.53
956.948	3963.94
957.252	3976.14
957.556	3934.11
957.86	3901.56
958.163	3904.95
958.467	3887.1
958.771	3854.11
959.075	3837.38
959.378	3815.24
959.682	3815.24
959.985	3781.12
960.289	3736.37
960.592	3738.86
960.896	3775.01
961.199	3712.42
961.502	3651.18
961.805	3682.59
962.108	3648.69
962.411	3612.53
962.714	3698.63
963.017	3626.77
963.32	3645.3
963.623	3589.03
963.926	3610.27
964.228	3583.15
964.531	3556.94
964.833	3544.96
965.136	3485.53
965.438	3515.81
965.741	3517.85
966.043	3499.54
966.345	3476.94
966.648	3459.54
966.95	3464.06
967.252	3406.89
967.554	3403.5
967.856	3395.14
968.158	3413.67
968.46	3355.14
968.761	3341.35
969.063	3391.3
969.365	3302.71
969.666	3279.21
969.968	3315.82
970.269	3295.03
970.571	3266.55
970.872	3291.86
971.174	3255.03
971.475	3272.43
971.776	3200.79
972.077	3196.72
972.378	3154.24
972.679	3174.58
972.98	3164.63
973.281	3141.13
973.582	3158.53
973.883	3149.72
974.183	3073.79
974.484	3086.22
974.785	3076.95
975.085	3047.58
975.386	3076.95
975.686	3069.5
975.986	3031.76
976.287	3005.32
976.587	2975.71
976.887	2966.22
977.187	2979.33
977.487	2960.35
977.787	2986.33
978.087	2950.4
978.387	2918.54
978.687	2910.63
978.987	2857.52
979.286	2864.08
979.586	2846.45
979.885	2873.12
980.185	2834.93
980.484	2831.08
980.784	2838.32
981.083	2815.26
981.382	2761.48
981.682	2783.18
981.981	2745.89
982.28	2754.48
982.579	2732.1
982.878	2737.75
983.177	2726.91
983.475	2711.76
983.774	2726.91
984.073	2654.37
984.372	2666.34
984.67	2643.07
984.969	2607.13
985.267	2622.95
985.566	2621.6
985.864	2636.96
986.162	2613.24
986.461	2560.58
986.759	2580.47
987.057	2561.71
987.355	2555.38
987.653	2568.27
987.951	2523.75
988.249	2557.19
988.547	2497.76
988.844	2496.4
989.142	2489.4
989.44	2454.14
989.737	2463.18
990.035	2453.24
990.332	2465.44
990.63	2407.37
990.927	2402.39
991.224	2380.7
991.521	2368.05
991.819	2374.6
992.116	2389.29
992.413	2354.71
992.71	2351.32
993.006	2308.61
993.303	2333.02
993.6	2319.46
993.897	2273.58
994.193	2303.64
994.49	2280.59
994.787	2255.28
995.083	2248.5
995.379	2255.05
995.676	2232.68
995.972	2215.73
996.268	2220.7
996.565	2194.72
996.861	2184.32
997.157	2198.56
997.453	2189.97
997.749	2197.65
998.044	2163.98
998.34	2125.79
998.636	2136.86
998.932	2129.41
999.227	2089.18
999.523	2098.22
999.818	2081.27
1000.114	2072.46
1000.409	2063.42
1000.704	2074.04
1001	2060.93
1001.295	2061.61
1001.59	2010.77
1001.885	2010.54
1002.18	2008.96
1002.475	1984.78
1002.77	1978.68
1003.065	1975.96
1003.359	1946.81
1003.654	1929.86
1003.949	1916.08
1004.243	1901.16
1004.538	1914.27
1004.832	1893.71
1005.127	1902.52
1005.421	1888.96
1005.715	1870.21
1006.009	1854.61
1006.304	1827.49
1006.598	1852.13
1006.892	1817.78
1007.186	1810.55
1007.48	1822.52
1007.773	1819.58
1008.067	1758.57
1008.361	1757.89
1008.655	1765.58
1008.948	1726.71
1009.242	1726.71
1009.535	1731
1009.829	1745.91
1010.122	1721.51
1010.415	1704.11
1010.708	1696.65
1011.001	1663.43
1011.295	1652.13
1011.588	1667.27
1011.881	1657.33
1012.173	1666.37
1012.466	1645.58
1012.759	1684.9
1013.052	1641.06
1013.344	1600.16
1013.637	1593.83
1013.93	1592.92
1014.222	1594.05
1014.514	1572.36
1014.807	1552.02
1015.099	1561.29
1015.391	1549.99
1015.683	1520.38
1015.976	1515.19
1016.268	1515.64
1016.56	1489.42
1016.851	1497.11
1017.143	1476.09
1017.435	1459.59
1017.727	1484.68
1018.018	1461.18
1018.31	1452.81
1018.602	1457.79
1018.893	1421.86
1019.185	1439.93
1019.476	1448.52
1019.767	1422.08
1020.058	1409.43
1020.35	1402.19
1020.641	1405.81
1020.932	1377.34
1021.223	1357.9
1021.514	1372.82
1021.804	1338.92
1022.095	1355.42
1022.386	1361.29
1022.677	1344.12
1022.967	1319.03
1023.258	1315.64
1023.548	1314.97
1023.839	1312.93
1024.129	1263.89
1024.419	1272.25
1024.709	1274.97
1025	1259.37
1025.29	1262.31
1025.58	1230.9
1025.87	1230.9
1026.16	1208.3
1026.449	1235.87
1026.739	1217.34
1027.029	1222.99
1027.319	1186.38
1027.608	1209.88
1027.898	1196.32
1028.187	1203.1
1028.477	1167.17
1028.766	1184.35
1029.055	1153.61
1029.344	1148.64
1029.634	1131.69
1029.923	1139.6
1030.212	1150.9
1030.501	1130.56
1030.79	1107.97
1031.078	1101.86
1031.367	1091.47
1031.656	1066.16
1031.945	1074.97
1032.233	1062.54
1032.522	1066.38
1032.81	1053.05
1033.099	1057.57
1033.387	1060.06
1033.675	1031.13
1033.963	1039.72
1034.251	1037.23
1034.54	1035.88
1034.828	1042.88
1035.116	1011.7
1035.403	1002.66
1035.691	988.87
1035.979	1007.18
1036.267	987.52
1036.554	957.23
1036.842	970.57
1037.129	978.03
1037.417	957.01
1037.704	955.2
1037.992	932.6
1038.279	939.38
1038.566	945.48
1038.853	945.48
1039.14	945.48
