Data from hue_240_FLMS001491_00049.txt Node
Date: Tue Feb 07 16:35:33 GMT 2017
User: dcchb
Spectrometer: FLMS00149
Trigger mode: 0
Integration Time (sec): 2.000000E-2
Scans to average: 10
Electric dark correction enabled: true
Nonlinearity correction enabled: false
Boxcar width: 0
XAxis mode: Wavelengths
Number of Pixels in Spectrum: 2048
>>>>>Begin Spectral Data<<<<<
341.393	-4.83
341.776	-4.83
342.16	-4.83
342.543	-61.78
342.927	-57.26
343.31	-84.83
343.693	-79.18
344.077	-70.82
344.46	-60.2
344.843	-48.9
345.226	-59.52
345.61	2.4
345.993	-26.07
346.376	1.72
346.759	32.46
347.142	33.13
347.525	20.93
347.908	47.37
348.291	75.85
348.674	85.34
349.057	130.31
349.44	141.15
349.823	152.45
350.206	168.05
350.588	195.84
350.971	200.81
351.354	236.07
351.737	224.77
352.119	240.81
352.502	267.7
352.884	248.5
353.267	270.87
353.65	280.81
354.032	300.02
354.414	296.4
354.797	290.53
355.179	304.99
355.562	297.08
355.944	304.09
356.326	330.53
356.709	344.76
357.091	343.41
357.473	309.96
357.855	325.78
358.238	338.44
358.62	352
359.002	318.78
359.384	351.77
359.766	334.82
360.148	348.15
360.53	322.17
360.912	324.65
361.294	317.2
361.676	316.29
362.057	305.22
362.439	322.39
362.821	323.07
363.203	317.65
363.584	332.79
363.966	330.75
364.348	332.79
364.729	332.56
365.111	306.35
365.493	310.64
365.874	311.32
366.256	315.61
366.637	286.69
367.019	290.76
367.4	320.36
367.781	295.5
368.163	327.36
368.544	299.34
368.925	290.08
369.306	325.33
369.688	294.14
370.069	307.93
370.45	318.78
370.831	304.54
371.212	324.65
371.593	318.1
371.974	295.27
372.355	316.97
372.736	296.86
373.117	308.61
373.498	293.92
373.879	277.65
374.26	296.63
374.641	305.44
375.021	306.57
375.402	308.16
375.783	300.02
376.163	322.62
376.544	318.32
376.925	327.14
377.305	326.91
377.686	297.76
378.066	341.6
378.447	320.36
378.827	319
379.208	307.93
379.588	311.55
379.968	309.06
380.349	310.87
380.729	325.1
381.109	333.69
381.489	333.92
381.87	318.78
382.25	321.26
382.63	345.67
383.01	307.25
383.39	330.08
383.77	343.86
384.15	317.42
384.53	352.45
384.91	347.93
385.29	344.09
385.67	351.54
386.049	340.25
386.429	339.57
386.809	365.1
387.189	352.22
387.568	357.42
387.948	333.47
388.328	343.64
388.707	342.96
389.087	340.47
389.466	328.04
389.846	375.27
390.225	345.89
390.605	345.67
390.984	380.24
391.363	361.94
391.743	365.56
392.122	355.39
392.501	376.85
392.881	368.72
393.26	337.31
393.639	370.3
394.018	372.11
394.397	369.4
394.776	371.66
395.155	394.71
395.534	393.58
395.913	373.69
396.292	379.34
396.671	376.18
397.05	379.79
397.429	382.73
397.808	395.84
398.186	387.25
398.565	386.12
398.944	388.83
399.323	386.57
399.701	402.62
400.08	391.09
400.458	393.35
400.837	393.35
401.215	381.15
401.594	401.49
401.972	415.27
402.351	401.26
402.729	422.28
403.107	429.06
403.486	418.21
403.864	414.37
404.242	435.16
404.62	398.77
404.999	443.29
405.377	429.28
405.755	445.1
406.133	418.89
406.511	416.63
406.889	450.52
407.267	467.25
407.645	468.15
408.023	429.73
408.401	448.49
408.779	463.41
409.156	462.73
409.534	474.25
409.912	492.78
410.29	493.01
410.667	481.26
411.045	469.28
411.422	496.17
411.8	490.75
412.178	491.2
412.555	516.06
412.933	506.34
413.31	526.23
413.687	567.81
414.065	531.43
414.442	547.92
414.819	560.13
415.197	548.83
415.574	583.18
415.951	556.06
416.328	595.83
416.705	590.18
417.082	582.5
417.46	603.06
417.837	599.9
418.214	609.39
418.591	612.1
418.967	614.14
419.344	625.21
419.721	622.5
420.098	626.11
420.475	619.11
420.852	663.63
421.228	651.2
421.605	674.7
421.982	659.78
422.358	704.53
422.735	702.5
423.111	706.56
423.488	704.53
423.864	722.38
424.241	716.96
424.617	733.23
424.994	736.17
425.37	741.59
425.746	759.44
426.123	771.42
426.499	768.26
426.875	796.05
427.251	793.57
427.627	801.02
428.003	802.83
428.379	819.78
428.756	829.27
429.132	859.78
429.507	869.5
429.883	858.88
430.259	875.82
430.635	876.05
431.011	890.29
431.387	920.12
431.763	917.18
432.138	951.98
432.514	933.45
432.89	922.38
433.265	969.38
433.641	992.43
434.016	968.7
434.392	989.04
434.767	1024.3
435.143	1028.81
435.518	1039.66
435.894	1035.37
436.269	1051.86
436.644	1079.89
437.02	1091.86
437.395	1116.04
437.77	1097.51
438.145	1143.84
438.52	1157.4
438.895	1151.07
439.271	1175.48
439.646	1205.99
440.021	1170.73
440.395	1184.06
440.77	1215.7
441.145	1233.33
441.52	1279.43
441.895	1236.94
442.27	1281.24
442.645	1288.92
443.019	1315.13
443.394	1326.66
443.769	1299.09
444.143	1342.25
444.518	1317.62
444.892	1353.78
445.267	1361.91
445.641	1343.38
446.016	1383.61
446.39	1379.09
446.764	1387.45
447.139	1400.1
447.513	1403.04
447.887	1422.7
448.262	1422.25
448.636	1411.63
449.01	1473.32
449.384	1466.54
449.758	1460.89
450.132	1511.97
450.506	1505.19
450.88	1508.35
451.254	1514.68
451.628	1536.15
452.002	1553.32
452.376	1549.03
452.75	1565.3
453.123	1566.2
453.497	1592.64
453.871	1591.06
454.244	1634
454.618	1646.65
454.992	1684.39
455.365	1655.46
455.739	1716.25
456.112	1733.88
456.486	1727.55
456.859	1751.51
457.232	1776.82
457.606	1759.19
457.979	1760.09
458.352	1808.23
458.725	1815.46
459.099	1843.26
459.472	1867.66
459.845	1890.94
460.218	1913.54
460.591	1913.76
460.964	1909.92
461.337	1967.77
461.71	1984.04
462.083	2015.91
462.456	2010.48
462.829	2044.61
463.201	2064.04
463.574	2071.73
463.947	2083.7
464.32	2156.69
464.692	2128.67
465.065	2167.32
465.438	2214.77
465.81	2223.36
466.183	2230.59
466.555	2252.96
466.928	2282.34
467.3	2281.66
467.672	2318.05
468.045	2350.81
468.417	2412.96
468.789	2383.36
469.161	2434.88
469.534	2480.08
469.906	2490.25
470.278	2542.22
470.65	2539.06
471.022	2579.06
471.394	2653.4
471.766	2621.77
472.138	2626.29
472.51	2726.85
472.882	2779.73
473.253	2811.37
473.625	2830.58
473.997	2878.94
474.369	2879.61
474.74	2885.72
475.112	2967.52
475.484	3003.9
475.855	3025.6
476.227	3050.23
476.598	3146.05
476.97	3225.14
477.341	3229.89
477.713	3231.47
478.084	3267.63
478.455	3362.54
478.827	3410.45
479.198	3456.1
479.569	3440.05
479.94	3525.92
480.311	3590.33
480.682	3650.89
481.053	3691.12
481.424	3734.05
481.795	3779.7
482.166	3868.29
482.537	3887.95
482.908	3941.28
483.279	3980.15
483.65	4012.69
484.021	4162.07
484.391	4138.79
484.762	4173.82
485.133	4190.54
485.503	4295.85
485.874	4351.21
486.244	4347.6
486.615	4459.46
486.985	4521.15
487.356	4548.27
487.726	4609.06
488.097	4630.75
488.467	4648.15
488.837	4729.28
489.207	4821.03
489.578	4798.21
489.948	4937.86
490.318	4949.62
490.688	4973.8
491.058	5061.03
491.428	5134.7
491.798	5135.83
492.168	5217.86
492.538	5211.76
492.908	5291.53
493.278	5331.53
493.648	5280.68
494.017	5375.59
494.387	5396.84
494.757	5453.56
495.126	5487
495.496	5571.52
495.866	5581.92
496.235	5609.26
496.605	5648.81
496.974	5707.11
497.344	5704.4
497.713	5716.15
498.082	5793.21
498.452	5815.36
498.821	5850.61
499.19	5833.89
499.559	5914.34
499.928	5892.19
500.298	5977.39
500.667	6023.26
501.036	6007.89
501.405	6070.72
501.774	6106.87
502.143	6064.61
502.512	6097.83
502.88	6135.35
503.249	6135.8
503.618	6199.98
503.987	6166.31
504.356	6224.38
504.724	6220.99
505.093	6271.61
505.462	6306.19
505.83	6311.84
506.199	6317.04
506.567	6401.55
506.936	6401.1
507.304	6454.66
507.672	6441.1
508.041	6459.63
508.409	6500.08
508.777	6578.95
509.145	6598.84
509.514	6554.32
509.882	6614.2
510.25	6651.94
510.618	6671.6
510.986	6604.26
511.354	6681.77
511.722	6780.08
512.09	6760.87
512.458	6768.78
512.826	6795.22
513.193	6818.04
513.561	6875.89
513.929	6836.12
514.297	6913.18
514.664	6897.59
515.032	6879.73
515.4	6982.33
515.767	6934.87
516.135	6965.61
516.502	6908.21
516.869	7033.18
517.237	6969
517.604	6954.53
517.972	7067.53
518.339	7001.77
518.706	7072.72
519.073	7055.32
519.44	7126.28
519.808	7166.51
520.175	7095.32
520.542	7139.16
520.909	7133.74
521.276	7182.1
521.643	7231.14
522.009	7204.25
522.376	7239.5
522.743	7270.91
523.11	7276.56
523.477	7344.58
523.843	7375.54
524.21	7379.38
524.577	7432.71
524.943	7438.36
525.31	7428.42
525.676	7481.3
526.043	7514.52
526.409	7538.7
526.776	7593.84
527.142	7602.65
527.508	7526.05
527.874	7581.18
528.241	7614.63
528.607	7611.01
528.973	7595.65
529.339	7608.53
529.705	7669.32
530.071	7694.4
530.437	7681.75
530.803	7697.57
531.169	7780.28
531.535	7684.68
531.901	7730.79
532.267	7714.51
532.632	7781.63
532.998	7716.1
533.364	7776.43
533.73	7768.3
534.095	7756.55
534.461	7755.87
534.826	7797.9
535.192	7752.71
535.557	7801.97
535.923	7771.69
536.288	7774.17
536.653	7750.45
537.019	7655.53
537.384	7729.43
537.749	7758.58
538.114	7764.68
538.479	7765.81
538.845	7692.37
539.21	7740.05
539.575	7720.84
539.94	7732.59
540.305	7716.77
540.67	7796.32
541.034	7734.85
541.399	7745.93
541.764	7674.29
542.129	7719.94
542.494	7715.87
542.858	7737.11
543.223	7695.08
543.587	7666.83
543.952	7647.85
544.316	7726.72
544.681	7623.9
545.045	7666.83
545.41	7654.18
545.774	7634.74
546.138	7665.25
546.503	7670.22
546.867	7611.92
547.231	7647.62
547.595	7622.31
547.959	7658.24
548.324	7648.53
548.688	7635.19
549.052	7655.08
549.416	7640.84
549.779	7588.19
550.143	7535.31
550.507	7650.79
550.871	7613.5
551.235	7597.68
551.599	7625.93
551.962	7620.05
552.326	7536.67
552.689	7622.99
553.053	7538.93
553.417	7600.17
553.78	7651.47
554.143	7573.5
554.507	7587.96
554.87	7633.61
555.234	7683.1
555.597	7646.49
555.96	7647.17
556.323	7562.43
556.686	7643.1
557.05	7597.23
557.413	7602.65
557.776	7608.08
558.139	7662.31
558.502	7666.83
558.865	7690.33
559.228	7648.3
559.59	7659.15
559.953	7668.41
560.316	7711.58
560.679	7645.36
561.041	7714.06
561.404	7761.97
561.767	7825.47
562.129	7767.39
562.492	7804.23
562.854	7783.21
563.217	7774.17
563.579	7798.58
563.941	7870.22
564.304	7872.93
564.666	7863.21
565.028	7826.6
565.39	7910.89
565.753	7999.7
566.115	7975.98
566.477	7949.76
566.839	7926.71
567.201	7992.7
567.563	8006.71
567.925	8042.64
568.287	8052.36
568.648	8031.34
569.01	8050.55
569.372	8098.23
569.734	8024.56
570.095	8082.64
570.457	8123.54
570.819	8128.52
571.18	8143.2
571.542	8182.3
571.903	8174.62
572.265	8234.73
572.626	8253.94
572.987	8312.01
573.349	8264.33
573.71	8338.45
574.071	8357.21
574.432	8270.66
574.794	8388.4
575.155	8329.41
575.516	8319.02
575.877	8400.6
576.238	8357.89
576.599	8325.12
576.96	8429.07
577.32	8434.04
577.681	8461.84
578.042	8451.9
578.403	8409.86
578.763	8474.04
579.124	8505.68
579.485	8586.13
579.845	8517.88
580.206	8593.14
580.566	8541.16
580.927	8584.77
581.287	8603.08
581.648	8553.59
582.008	8616.86
582.368	8665.22
582.728	8707.93
583.089	8641.04
583.449	8657.09
583.809	8707.71
584.169	8667.03
584.529	8709.74
584.889	8693.25
585.249	8719.23
585.609	8690.31
585.969	8734.6
586.329	8742.74
586.688	8782.74
587.048	8755.62
587.408	8776.86
587.768	8808.5
588.127	8814.15
588.487	8833.58
588.846	8864.54
589.206	8754.26
589.565	8825.9
589.925	8869.51
590.284	8832.23
590.643	8810.08
591.003	8930.75
591.362	8887.59
591.721	8876.07
592.08	8849.85
592.44	8905.44
592.799	8912.9
593.158	8878.78
593.517	8883.52
593.876	8895.95
594.235	8917.87
594.593	8874.26
594.952	8940.7
595.311	8930.3
595.67	8953.13
596.029	8979.57
596.387	9013.46
596.746	8984.76
597.104	8943.41
597.463	8972.11
597.822	9024.99
598.18	9019.79
598.538	8977.98
598.897	9054.59
599.255	8954.26
599.613	9117.19
599.972	8992.9
600.33	9070.86
600.688	9093.46
601.046	9053.91
601.404	9045.55
601.762	9019.34
602.12	9060.02
602.478	9108.38
602.836	9132.1
603.194	9074.93
603.552	9075.38
603.91	9090.07
604.268	9102.73
604.625	9082.84
604.983	9137.53
605.341	9098.43
605.698	9095.5
606.056	9180.01
606.413	9159.67
606.771	9112.9
607.128	9203.06
607.485	9106.34
607.843	9154.48
608.2	9200.35
608.557	9175.72
608.914	9170.52
609.272	9149.73
609.629	9158.32
609.986	9270.18
610.343	9208.94
610.7	9218.2
611.057	9224.76
611.414	9208.03
611.771	9195.83
612.127	9308.15
612.484	9312.66
612.841	9316.51
613.198	9268.37
613.554	9265.89
613.911	9327.35
614.267	9271.99
614.624	9243.06
614.98	9366.67
615.337	9347.24
615.693	9307.92
616.05	9332.33
616.406	9397.18
616.762	9354.25
617.118	9357.64
617.475	9312.21
617.831	9386.79
618.187	9346.79
618.543	9400.35
618.899	9417.07
619.255	9423.17
619.611	9463.17
619.967	9434.7
620.323	9488.03
620.678	9442.6
621.034	9413.68
621.39	9502.49
621.746	9449.84
622.101	9467.01
622.457	9387.24
622.812	9457.07
623.168	9473.56
623.523	9436.96
623.879	9462.49
624.234	9423.4
624.589	9430.63
624.945	9499.1
625.3	9463.4
625.655	9495.03
626.01	9428.14
626.365	9457.07
626.72	9445.77
627.075	9458.42
627.43	9408.26
627.785	9461.59
628.14	9395.37
628.495	9493.45
628.85	9416.16
629.205	9377.52
629.559	9421.36
629.914	9390.18
630.269	9346.79
630.623	9352.66
630.978	9290.07
631.332	9400.57
631.687	9405.09
632.041	9326.45
632.396	9436.73
632.75	9349.95
633.104	9335.26
633.459	9299.11
633.813	9329.61
634.167	9227.47
634.521	9266.34
634.875	9281.71
635.229	9251.88
635.583	9171.88
635.937	9203.74
636.291	9244.87
636.645	9194.25
636.999	9227.24
637.352	9163.52
637.706	9128.26
638.06	9180.92
638.413	9187.7
638.767	9140.92
639.121	9192.22
639.474	9088.72
639.828	9113.35
640.181	9048.94
640.534	9139.34
640.888	9102.95
641.241	9050.98
641.594	9063.86
641.947	9139.56
642.301	9062.73
642.654	9060.24
643.007	9020.92
643.36	9026.8
643.713	9038.77
644.066	9035.16
644.419	9034.25
644.771	8922.84
645.124	8884.43
645.477	8916.52
645.83	8784.77
646.182	8728.27
646.535	8770.53
646.888	8677.43
647.24	8710.42
647.593	8759.68
647.945	8677.43
648.298	8671.55
648.65	8676.52
649.002	8564.66
649.355	8644.43
649.707	8664.32
650.059	8710.87
650.411	8836.07
650.763	8848.5
651.115	8923.97
651.467	8908.16
651.819	8879.68
652.171	8853.92
652.523	8884.2
652.875	8868.83
653.227	8779.8
653.578	8913.58
653.93	8843.52
654.282	8814.82
654.633	8734.6
654.985	8799.68
655.337	8817.54
655.688	8861.83
656.039	8866.8
656.391	8837.87
656.742	8847.14
657.094	8875.84
657.445	8867.25
657.796	8817.76
658.147	8805.33
658.498	8837.65
658.849	8779.35
659.2	8800.14
659.551	8842.39
659.902	8812.11
660.253	8841.94
660.604	8874.03
660.955	8772.79
661.306	8840.13
661.656	8789.97
662.007	8882.39
662.358	8880.81
662.708	8820.25
663.059	8868.16
663.409	8850.76
663.76	8909.51
664.11	8830.64
664.461	8859.34
664.811	8844.2
665.161	8826.12
665.511	8753.81
665.862	8827.93
666.212	8855.28
666.562	8817.54
666.912	8817.76
667.262	8820.93
667.612	8824.54
667.962	8811.89
668.312	8826.58
668.662	8842.85
669.011	8812.11
669.361	8814.82
669.711	8798.33
670.06	8822.06
670.41	8749.74
670.76	8726.92
671.109	8807.37
671.459	8800.14
671.808	8838.33
672.157	8766.46
672.507	8709.74
672.856	8768.27
673.205	8803.3
673.554	8734.83
673.904	8802.85
674.253	8806.24
674.602	8786.58
674.951	8669.74
675.3	8637.88
675.649	8649.41
675.998	8719.23
676.346	8756.75
676.695	8681.27
677.044	8710.87
677.393	8650.08
677.741	8685.56
678.09	8658.9
678.438	8691.89
678.787	8650.99
679.135	8639.69
679.484	8576.41
679.832	8642.4
680.181	8519.24
680.529	8549.52
680.877	8500.93
681.225	8504.1
681.573	8551.1
681.922	8547.49
682.27	8554.27
682.618	8528.5
682.966	8467.94
683.314	8508.62
683.661	8483.31
684.009	8400.37
684.357	8347.27
684.705	8391.11
685.053	8354.27
685.4	8416.87
685.748	8371.45
686.095	8359.92
686.443	8232.92
686.79	8233.82
687.138	8379.36
687.485	8323.54
687.832	8304.78
688.18	8304.33
688.527	8245.8
688.874	8184.56
689.221	8192.69
689.568	8137.78
689.915	8131.9
690.262	8110.21
690.609	8147.72
690.956	7993.15
691.303	8017.56
691.65	8023.66
691.997	8051.91
692.344	7971.46
692.69	7996.77
693.037	7982.3
693.383	7922.87
693.73	7896.2
694.077	7794.74
694.423	7812.59
694.769	7779.82
695.116	7797.22
695.462	7740.95
695.808	7674.52
696.155	7705.25
696.501	7591.35
696.847	7700.73
697.193	7598.13
697.539	7628.64
697.885	7534.18
698.231	7513.62
698.577	7524.01
698.923	7523.56
699.269	7527.85
699.614	7380.29
699.96	7435.43
700.306	7444.69
700.651	7390.23
700.997	7313.17
701.342	7361.08
701.688	7280.4
702.033	7268.2
702.379	7345.26
702.724	7287.86
703.069	7240.85
703.415	7203.57
703.76	7195.21
704.105	7230.23
704.45	7155.21
704.795	7135.77
705.14	7034.76
705.485	7100.29
705.83	7038.15
706.175	6987.75
706.52	7002.22
706.865	6928.09
707.209	6964.93
707.554	6994.31
707.899	6921.54
708.243	6907.53
708.588	6931.26
708.932	6894.42
709.277	6839.28
709.621	6875.21
709.966	6823.92
710.31	6851.26
710.654	6762.22
710.998	6740.53
711.342	6782.34
711.687	6743.24
712.031	6664.37
712.375	6701.21
712.719	6715.67
713.063	6689.91
713.407	6690.59
713.75	6646.29
714.094	6648.55
714.438	6673.64
714.782	6669.12
715.125	6618.95
715.469	6622.57
715.812	6573.98
716.156	6513.19
716.499	6520.2
716.843	6555.9
717.186	6568.56
717.53	6529.69
717.873	6517.26
718.216	6520.65
718.559	6494.21
718.902	6421.44
719.246	6464.6
719.589	6469.8
719.932	6441.33
720.275	6469.58
720.617	6408.33
720.96	6477.49
721.303	6399.75
721.646	6398.39
721.989	6431.84
722.331	6437.71
722.674	6375.79
723.016	6374.66
723.359	6388.45
723.701	6375.11
724.044	6346.87
724.386	6298.73
724.729	6334.21
725.071	6427.99
725.413	6284.95
725.755	6349.35
726.097	6331.95
726.439	6308.22
726.782	6234.55
727.124	6260.77
727.465	6286.98
727.807	6284.72
728.149	6320.43
728.491	6259.41
728.833	6261.9
729.175	6260.32
729.516	6278.85
729.858	6212.41
730.199	6289.24
730.541	6224.84
730.882	6242.24
731.224	6237.04
731.565	6270.94
731.906	6280.43
732.248	6190.03
732.589	6228
732.93	6217.15
733.271	6250.15
733.612	6212.18
733.953	6213.09
734.294	6266.19
734.635	6225.74
734.976	6232.29
735.317	6227.77
735.658	6191.62
735.999	6206.53
736.339	6209.92
736.68	6223.25
737.021	6238.62
737.361	6224.38
737.702	6190.71
738.042	6237.04
738.383	6225.06
738.723	6247.43
739.063	6170.83
739.404	6216.25
739.744	6230.03
740.084	6265.74
740.424	6281.56
740.764	6243.14
741.104	6299.64
741.444	6216.02
741.784	6247.43
742.124	6235.46
742.464	6311.16
742.804	6308.22
743.143	6303.03
743.483	6309.58
743.823	6339.64
744.162	6335.79
744.502	6409.46
744.841	6399.07
745.181	6425.28
745.52	6427.77
745.86	6408.79
746.199	6444.04
746.538	6444.49
746.877	6517.71
747.216	6519.52
747.556	6569.91
747.895	6566.97
748.234	6597.03
748.573	6647.65
748.911	6627.76
749.25	6705.28
749.589	6663.92
749.928	6771.26
750.267	6827.76
750.605	6891.03
750.944	6890.58
751.283	6904.14
751.621	6993.18
751.96	7023.69
752.298	6996.79
752.636	7127.19
752.975	7165.38
753.313	7250.8
753.651	7295.99
753.989	7350
754.327	7366.73
754.666	7436.78
755.004	7497.57
755.342	7612.14
755.679	7677
756.017	7745.47
756.355	7831.12
756.693	7902.08
757.031	7983.21
757.368	8045.35
757.706	8188.4
758.044	8207.16
758.381	8368.73
758.719	8374.61
759.056	8540.93
759.394	8566.02
759.731	8668.39
760.068	8755.39
760.405	8848.5
760.743	8847.82
761.08	9069.96
761.417	9088.94
761.754	9160.8
762.091	9295.04
762.428	9373.68
762.765	9446.22
763.102	9616.39
763.438	9580.68
763.775	9644.41
764.112	9844.4
764.449	9933.89
764.785	10022.48
765.122	10007.34
765.458	10137.5
765.795	10206.2
766.131	10245.3
766.467	10296.14
766.804	10368
767.14	10453.65
767.476	10591.73
767.812	10616.81
768.148	10712.18
768.485	10709.46
768.821	10766.86
769.157	10864.26
769.492	10881.66
769.828	10938.16
770.164	10965.5
770.5	10986.97
770.836	11100.41
771.171	11053.64
771.507	11131.83
771.842	11165.27
772.178	11232.61
772.513	11214.99
772.849	11345.15
773.184	11306.74
773.519	11347.87
773.855	11362.55
774.19	11379.73
774.525	11328.2
774.86	11506.28
775.195	11548.09
775.53	11511.25
775.865	11529.1
776.2	11503.12
776.535	11467.18
776.87	11592.6
777.205	11559.61
777.539	11557.35
777.874	11603.45
778.209	11608.88
778.543	11575.43
778.878	11538.59
779.212	11612.72
779.547	11585.37
779.881	11622.89
780.215	11554.19
780.55	11601.19
780.884	11521.19
781.218	11566.16
781.552	11623.11
781.886	11634.86
782.22	11571.81
782.554	11580.18
782.888	11475.55
783.222	11396.68
783.556	11425.6
783.889	11471.25
784.223	11379.96
784.557	11376.57
784.89	11421.99
785.224	11367.98
785.557	11317.36
785.891	11391.93
786.224	11412.95
786.558	11355.55
786.891	11269.45
787.224	11297.7
787.557	11276
787.891	11256.34
788.224	11230.58
788.557	11304.48
788.89	11238.94
789.223	11264.25
789.556	11157.14
789.888	11105.84
790.221	11170.69
790.554	11068.55
790.887	11054.31
791.219	11060.42
791.552	11054.31
791.884	11041.88
792.217	10967.99
792.549	10973.64
792.882	10898.39
793.214	10919.85
793.546	10886.86
793.879	10854.32
794.211	10814.32
794.543	10902.45
794.875	10804.38
795.207	10908.78
795.539	10741.78
795.871	10844.15
796.203	10685.74
796.535	10586.3
796.867	10573.87
797.198	10638.28
797.53	10618.17
797.862	10556.25
798.193	10598.28
798.525	10497.04
798.856	10555.12
799.188	10431.28
799.519	10411.84
799.85	10303.37
800.182	10359.87
800.513	10409.13
800.844	10312.64
801.175	10365.29
801.506	10320.1
801.837	10223.38
802.168	10292.07
802.499	10229.93
802.83	10182.25
803.161	10135.47
803.491	10099.08
803.822	10148.12
804.153	10084.4
804.483	10079.42
804.814	9979.77
805.145	10046.88
805.475	10042.59
805.805	9961.91
806.136	9963.95
806.466	9949.48
806.796	9953.55
807.126	9897.28
807.457	9802.37
807.787	9889.6
808.117	9757.4
808.447	9751.75
808.777	9751.3
809.107	9727.12
809.436	9716.95
809.766	9779.55
810.096	9714.24
810.426	9644.86
810.755	9660.23
811.085	9641.7
811.414	9642.37
811.744	9573.45
812.073	9538.2
812.403	9555.6
812.732	9478.08
813.061	9463.62
813.39	9421.59
813.719	9461.59
814.049	9471.3
814.378	9383.17
814.707	9351.99
815.036	9348.82
815.365	9393.11
815.693	9284.87
816.022	9342.27
816.351	9236.96
816.68	9233.34
817.008	9270.63
817.337	9173.01
817.665	9140.01
817.994	9159.67
818.322	9204.64
818.651	9146.79
818.979	9094.14
819.307	9167.36
819.636	9141.6
819.964	9047.13
820.292	9109.96
820.62	9141.37
820.948	9046.91
821.276	9121.71
821.604	9079.68
821.932	9040.13
822.259	9048.94
822.587	9086
822.915	9025.67
823.243	9038.77
823.57	8997.64
823.898	8996.51
824.225	8995.84
824.553	9006.68
824.88	8999.45
825.207	9016.63
825.535	9050.75
825.862	9081.03
826.189	9019.11
826.516	9077.19
826.843	9047.81
827.17	9103.18
827.497	9029.51
827.824	9034.71
828.151	9079
828.478	9099.56
828.805	9073.57
829.131	9092.78
829.458	9018.66
829.785	8985.22
830.111	9078.77
830.438	9129.17
830.764	9099.79
831.09	8994.93
831.417	9043.52
831.743	9041.71
832.069	9063.63
832.395	9015.95
832.722	9008.49
833.048	9020.24
833.374	9007.59
833.7	8952.9
834.026	8953.8
834.351	8977.98
834.677	8977.31
835.003	9009.17
835.329	8999.45
835.654	8937.31
835.98	8928.72
836.306	8916.29
836.631	8848.72
836.956	8928.04
837.282	8973.01
837.607	8955.61
837.932	8923.07
838.258	8909.96
838.583	8869.29
838.908	8859.34
839.233	8848.72
839.558	8835.16
839.883	8809.63
840.208	8728.95
840.533	8791.1
840.858	8759.23
841.182	8766.01
841.507	8768.5
841.832	8658.9
842.156	8712
842.481	8727.37
842.805	8685.34
843.13	8672.46
843.454	8620.03
843.778	8612.34
844.103	8647.82
844.427	8547.94
844.751	8625.68
845.075	8563.98
845.399	8516.75
845.723	8445.57
846.047	8424.78
846.371	8401.95
846.695	8388.85
847.019	8366.47
847.343	8330.32
847.666	8276.76
847.99	8222.52
848.313	8284.22
848.637	8183.88
848.96	8178.91
849.284	8167.84
849.607	8096.65
849.931	8124.45
850.254	8032.25
850.577	8025.01
850.9	7970.33
851.223	7949.99
851.546	7957.22
851.869	7875.87
852.192	7869.09
852.515	7813.27
852.838	7799.03
853.161	7786.6
853.483	7702.09
853.806	7662.09
854.129	7663.67
854.451	7680.17
854.774	7584.12
855.096	7602.88
855.419	7595.42
855.741	7586.16
856.063	7471.36
856.385	7533.73
856.708	7488.31
857.03	7456.44
857.352	7488.31
857.674	7426.16
857.996	7406.95
858.318	7401.08
858.64	7347.74
858.961	7343.68
859.283	7333.73
859.605	7244.47
859.926	7354.98
860.248	7260.74
860.57	7277.24
860.891	7313.4
861.212	7291.25
861.534	7219.61
861.855	7178.03
862.176	7216.9
862.498	7129.67
862.819	7210.12
863.14	7131.25
863.461	7191.59
863.782	7181.65
864.103	7147.52
864.424	7103.01
864.745	7104.81
865.065	7052.39
865.386	7053.97
865.707	7059.16
866.027	6997.92
866.348	7014.19
866.668	7062.78
866.989	6978.04
867.309	6991.37
867.63	6997.25
867.95	6973.07
868.27	6875.67
868.59	6913.63
868.91	6938.94
869.23	6938.04
869.55	6876.34
869.87	6933.29
870.19	6839.51
870.51	6878.15
870.83	6851.94
871.15	6842
871.469	6853.75
871.789	6861.43
872.109	6843.13
872.428	6799.74
872.748	6745.73
873.067	6810.13
873.386	6784.6
873.706	6681.1
874.025	6743.01
874.344	6718.38
874.663	6729.91
874.982	6705.5
875.301	6736.24
875.62	6670.7
875.939	6653.75
876.258	6684.71
876.577	6612.17
876.896	6602.23
877.214	6646.29
877.533	6601.55
877.852	6592.96
878.17	6595
878.489	6620.53
878.807	6620.98
879.125	6618.05
879.444	6584.15
879.762	6596.58
880.08	6603.36
880.398	6551.16
880.716	6553.19
881.034	6480.65
881.352	6483.36
881.67	6493.98
881.988	6490.37
882.306	6497.82
882.624	6405.85
882.941	6423.7
883.259	6416.24
883.577	6431.84
883.894	6382.35
884.212	6355.23
884.529	6416.92
884.846	6397.04
885.164	6304.38
885.481	6300.99
885.798	6324.95
886.115	6279.3
886.432	6290.37
886.75	6298.73
887.067	6281.78
887.383	6278.85
887.7	6276.59
888.017	6202.24
888.334	6227.32
888.651	6205.18
888.967	6142.58
889.284	6117.95
889.6	6192.07
889.917	6127.66
890.233	6030.04
890.55	6069.36
890.866	6061.22
891.182	6064.61
891.498	6037.04
891.815	5970.83
892.131	6019.19
892.447	6035.01
892.763	5978.52
893.079	5948.69
893.395	5996.59
893.71	5970.61
894.026	5936.48
894.342	5931.96
894.657	5847.67
894.973	5819.2
895.289	5862.13
895.604	5855.35
895.92	5802.02
896.235	5824.62
896.55	5817.84
896.865	5741.46
897.181	5721.8
897.496	5730.39
897.811	5676.38
898.126	5684.29
898.441	5682.93
898.756	5675.47
899.071	5560.9
899.386	5591.63
899.7	5561.12
900.015	5530.84
900.33	5470.28
900.644	5498.98
900.959	5503.27
901.273	5480.22
901.588	5421.92
901.902	5417.63
902.216	5417.17
902.531	5407.46
902.845	5375.37
903.159	5324.75
903.473	5345.54
903.787	5285.88
904.101	5363.84
904.415	5275.71
904.729	5310.74
905.042	5264.18
905.356	5186.9
905.67	5168.37
905.984	5207.69
906.297	5226.22
906.611	5169.27
906.924	5104.87
907.237	5146.45
907.551	5102.15
907.864	5097.41
908.177	5061.7
908.491	5023.51
908.804	5025.32
909.117	4986.45
909.43	4940.58
909.743	4958.88
910.056	4919.56
910.368	4947.81
910.681	4888.15
910.994	4909.62
911.307	4879.33
911.619	4863.74
911.932	4859.9
912.244	4796.17
912.557	4789.62
912.869	4807.7
913.181	4743.07
913.494	4739.45
913.806	4681.83
914.118	4708.49
914.43	4684.09
914.742	4683.63
915.054	4646.57
915.366	4647.25
915.678	4566.57
915.99	4552.56
916.302	4563.41
916.613	4526.12
916.925	4537.42
917.236	4526.58
917.548	4537.65
917.859	4494.49
918.171	4482.06
918.482	4461.94
918.794	4430.31
919.105	4419.01
919.416	4369.29
919.727	4379.91
920.038	4358.22
920.349	4400.48
920.66	4320.71
920.971	4307.6
921.282	4293.59
921.593	4313.25
921.903	4265.79
922.214	4238.9
922.525	4221.5
922.835	4203.42
923.146	4181.05
923.456	4187.38
923.767	4186.02
924.077	4141.28
924.387	4161.16
924.697	4086.81
925.008	4089.3
925.318	4109.19
925.628	4089.98
925.938	4064.89
926.248	4057.89
926.558	4027.38
926.867	4018.34
927.177	3983.31
927.487	3986.03
927.796	3997.78
928.106	3927.04
928.416	3907.61
928.725	3927.04
929.034	3860.83
929.344	3901.51
929.653	3850.89
929.962	3848.63
930.271	3859.25
930.581	3838.91
930.89	3819.25
931.199	3715.75
931.508	3758.01
931.817	3768.63
932.125	3780.38
932.434	3728.4
932.743	3702.64
933.051	3671.68
933.36	3657.67
933.669	3701.74
933.977	3659.25
934.286	3605.7
934.594	3593.04
934.902	3596.66
935.21	3584
935.519	3609.76
935.827	3542.87
936.135	3559.14
936.443	3530.67
936.751	3524.57
937.059	3504.91
937.367	3525.25
937.674	3502.42
937.982	3475.98
938.29	3453.16
938.597	3436.44
938.905	3426.94
939.213	3423.1
939.52	3388.98
939.827	3389.66
940.135	3344.46
940.442	3348.3
940.749	3351.24
941.056	3300.85
941.363	3301.98
941.67	3304.69
941.977	3273.73
942.284	3282.31
942.591	3266.04
942.898	3261.98
943.205	3247.51
943.511	3226.05
943.818	3203.67
944.125	3171.13
944.431	3186.95
944.738	3132.71
945.044	3188.53
945.35	3145.82
945.657	3103.56
945.963	3121.64
946.269	3109.66
946.575	3127.52
946.881	3098.36
947.187	3082.09
947.493	3056.78
947.799	3111.7
948.105	3043.45
948.41	3030.57
948.716	2993.96
949.022	3022.21
949.327	3034.86
949.633	2983.57
949.938	2954.19
950.244	2943.11
950.549	2963.68
950.854	2910.35
951.16	2911.48
951.465	2927.52
951.77	2864.47
952.075	2888.65
952.38	2859.95
952.685	2865.15
952.99	2848.43
953.294	2831.71
953.599	2849.11
953.904	2809.56
954.209	2809.33
954.513	2802.55
954.818	2761.88
955.122	2750.35
955.426	2726.17
955.731	2730.46
956.035	2744.25
956.339	2740.86
956.643	2698.6
956.948	2687.98
957.252	2682.56
957.556	2681.2
957.86	2662.22
958.163	2658.15
958.467	2657.47
958.771	2639.39
959.075	2642.11
959.378	2585.16
959.682	2639.17
959.985	2573.41
960.289	2578.38
960.592	2578.6
960.896	2567.98
961.199	2569.57
961.502	2525.05
961.805	2549
962.108	2515.78
962.411	2507.42
962.714	2487.08
963.017	2491.15
963.32	2485.73
963.623	2436.46
963.926	2470.58
964.228	2432.39
964.531	2406.41
964.833	2450.7
965.136	2400.3
965.438	2411.6
965.741	2359.63
966.043	2383.81
966.345	2389.46
966.648	2383.36
966.95	2342.23
967.252	2378.84
967.554	2358.05
967.856	2326.63
968.158	2282.79
968.46	2316.92
968.761	2289.8
969.063	2291.61
969.365	2302
969.666	2294.54
969.968	2250.93
970.269	2262.23
970.571	2230.37
970.872	2256.35
971.174	2219.97
971.475	2206.64
971.776	2211.61
972.077	2200.99
972.378	2182.46
972.679	2179.74
972.98	2170.48
973.281	2163.93
973.582	2147.43
973.883	2163.47
974.183	2098.62
974.484	2109.69
974.785	2102.01
975.085	2150.14
975.386	2107.88
975.686	2103.81
975.986	2082.8
976.287	2079.41
976.587	2049.8
976.887	2048.45
977.187	2083.25
977.487	2037.15
977.787	2019.3
978.087	2013.42
978.387	1986.98
978.687	2024.04
978.987	2017.49
979.286	2010.26
979.586	1979.52
979.885	1974.33
980.185	1988.56
980.484	1946.08
980.784	1948.34
981.083	1967.32
981.382	1925.97
981.682	1929.13
981.981	1938.17
982.28	1927.32
982.579	1888
982.878	1875.8
983.177	1860.21
983.475	1921.9
983.774	1868.79
984.073	1854.1
984.372	1845.74
984.67	1861.56
984.969	1848.23
985.267	1829.92
985.566	1808.91
985.864	1834.9
986.162	1856.59
986.461	1816.82
986.759	1826.53
987.057	1783.15
987.355	1784.28
987.653	1782.24
987.951	1755.35
988.249	1795.57
988.547	1781.11
988.844	1756.93
989.142	1760.55
989.44	1713.09
989.737	1726.88
990.035	1741.56
990.332	1694.79
990.63	1718.29
990.927	1709.25
991.224	1705.86
991.521	1700.44
991.819	1694.11
992.116	1665.86
992.413	1664.96
992.71	1662.02
993.006	1648.23
993.303	1664.96
993.6	1635.13
993.897	1656.14
994.193	1656.59
994.49	1622.02
994.787	1608.23
995.083	1614.79
995.379	1585.86
995.676	1561.46
995.972	1596.71
996.268	1597.61
996.565	1568.91
996.861	1555.13
997.157	1566.65
997.453	1522.59
997.749	1571.85
998.044	1526.2
998.34	1528.01
998.636	1525.75
998.932	1495.47
999.227	1485.75
999.523	1509.25
999.818	1484.85
1000.114	1489.14
1000.409	1468.8
1000.704	1445.3
1001	1442.82
1001.295	1476.26
1001.59	1435.81
1001.885	1458.18
1002.18	1428.58
1002.475	1419.31
1002.77	1431.52
1003.065	1415.92
1003.359	1411.18
1003.654	1388.81
1003.949	1388.35
1004.243	1380.44
1004.538	1362.59
1004.832	1376.38
1005.127	1363.72
1005.421	1359.2
1005.715	1342.7
1006.009	1340.44
1006.304	1332.76
1006.598	1350.84
1006.892	1298.86
1007.186	1315.13
1007.48	1296.15
1007.773	1294.8
1008.067	1306.77
1008.361	1277.4
1008.655	1274.46
1008.948	1287.57
1009.242	1274.68
1009.535	1260.67
1009.829	1252.54
1010.122	1248.7
1010.415	1251.63
1010.708	1224.06
1011.001	1234.01
1011.295	1221.58
1011.588	1225.87
1011.881	1209.37
1012.173	1220.22
1012.466	1194.46
1012.759	1191.75
1013.052	1187
1013.344	1182.03
1013.637	1190.17
1013.93	1181.13
1014.222	1153.11
1014.514	1178.64
1014.807	1136.61
1015.099	1127.8
1015.391	1160.11
1015.683	1169.83
1015.976	1113.56
1016.268	1120.34
1016.56	1128.02
1016.851	1126.44
1017.143	1091.64
1017.435	1110.85
1017.727	1095.03
1018.018	1092.99
1018.31	1072.43
1018.602	1056.84
1018.893	1052.09
1019.185	1058.64
1019.476	1022.26
1019.767	1023.17
1020.058	1031.75
1020.35	1032.88
1020.641	1025.2
1020.932	1025.43
1021.223	1024.07
1021.514	1008.02
1021.804	1000.34
1022.095	987.01
1022.386	1008.25
1022.677	995.82
1022.967	986.1
1023.258	989.72
1023.548	955.37
1023.839	960.57
1024.129	967.12
1024.419	966.44
1024.709	909.04
1025	970.29
1025.29	939.1
1025.58	961.25
1025.87	918.76
1026.16	930.74
1026.449	907.46
1026.739	915.6
1027.029	905.2
1027.319	912.66
1027.608	905.2
1027.898	887.8
1028.187	895.71
1028.477	876.5
1028.766	890.74
1029.055	872.89
1029.344	874.69
1029.634	873.34
1029.923	871.76
1030.212	867.69
1030.501	834.47
1030.79	850.51
1031.078	855.71
1031.367	820.46
1031.656	818.88
1031.945	828.37
1032.233	831.76
1032.522	835.6
1032.81	815.04
1033.099	831.76
1033.387	793.11
1033.675	800.8
1033.963	806
1034.251	814.36
1034.54	783.17
1034.828	778.2
1035.116	775.04
1035.403	770.06
1035.691	759.9
1035.979	773.23
1036.267	754.7
1036.554	747.47
1036.842	757.64
1037.129	730.97
1037.417	733.91
1037.704	738.65
1037.992	729.61
1038.279	719.9
1038.566	718.77
1038.853	718.77
1039.14	718.77
