Data from hue_24_FLMS001491_00072.txt Node
Date: Tue Feb 07 17:12:43 GMT 2017
User: dcchb
Spectrometer: FLMS00149
Trigger mode: 0
Integration Time (sec): 2.000000E-2
Scans to average: 10
Electric dark correction enabled: true
Nonlinearity correction enabled: false
Boxcar width: 0
XAxis mode: Wavelengths
Number of Pixels in Spectrum: 2048
>>>>>Begin Spectral Data<<<<<
341.393	-3.45
341.776	-3.45
342.16	-3.45
342.543	-30.79
342.927	-49.77
343.31	-58.13
343.693	-61.3
344.077	-56.78
344.46	-74.4
344.843	-52.94
345.226	-37.34
345.61	-30.34
345.993	-17.91
346.376	2.88
346.759	25.93
347.142	20.73
347.525	48.3
347.908	38.81
348.291	59.38
348.674	95.99
349.057	97.12
349.44	145.25
349.823	155.65
350.206	167.62
350.588	200.84
350.971	212.82
351.354	222.08
351.737	230.22
352.119	227.28
352.502	278.81
352.884	282.2
353.267	299.14
353.65	295.75
354.032	300.5
354.414	303.66
354.797	305.25
355.179	324.91
355.562	316.77
355.944	322.19
356.326	329.88
356.709	326.71
357.091	339.37
357.473	335.53
357.855	350.89
358.238	345.47
358.62	352.7
359.002	340.95
359.384	323.55
359.766	352.93
360.148	345.02
360.53	354.06
360.912	352.02
361.294	331.91
361.676	344.12
362.057	324
362.439	350.22
362.821	335.98
363.203	327.84
363.584	320.61
363.966	320.61
364.348	337.11
364.729	332.82
365.111	325.58
365.493	331.46
365.874	330.78
366.256	324.91
366.637	320.84
367.019	314.29
367.4	318.81
367.781	314.06
368.163	308.64
368.544	329.2
368.925	309.54
369.306	317.9
369.688	289.88
370.069	312.93
370.45	299.37
370.831	299.6
371.212	306.6
371.593	320.84
371.974	309.99
372.355	331.01
372.736	303.66
373.117	333.27
373.498	334.17
373.879	330.33
374.26	313.61
374.641	312.7
375.021	319.48
375.402	338.47
375.783	339.82
376.163	341.86
376.544	335.3
376.925	317
377.305	328.75
377.686	321.29
378.066	323.78
378.447	340.73
378.827	339.14
379.208	327.17
379.588	341.4
379.968	342.99
380.349	339.6
380.729	331.46
381.109	352.25
381.489	333.95
381.87	342.76
382.25	326.49
382.63	350.67
383.01	352.93
383.39	322.42
383.77	344.12
384.15	335.08
384.53	341.18
384.91	350.44
385.29	347.96
385.67	339.6
386.049	349.99
386.429	362.19
386.809	360.16
387.189	353.38
387.568	372.36
387.948	354.74
388.328	367.39
388.707	380.05
389.087	347.28
389.466	357
389.846	363.32
390.225	379.37
390.605	371.23
390.984	368.97
391.363	374.17
391.743	377.56
392.122	367.39
392.501	389.99
392.881	366.49
393.26	364
393.639	369.2
394.018	357.45
394.397	368.97
394.776	388.63
395.155	402.19
395.534	378.24
395.913	399.03
396.292	390.22
396.671	396.09
397.05	376.66
397.429	413.49
397.808	404.68
398.186	386.6
398.565	379.82
398.944	410.33
399.323	428.86
399.701	412.59
400.08	411.46
400.458	404.9
400.837	408.29
401.215	423.89
401.594	388.63
401.972	408.29
402.351	418.24
402.729	385.7
403.107	417.33
403.486	414.17
403.864	411.68
404.242	390.67
404.62	433.83
404.999	441.06
405.377	445.13
405.755	427.5
406.133	426.37
406.511	442.64
406.889	452.36
407.267	431.57
407.645	426.15
408.023	456.43
408.401	474.06
408.779	453.94
409.156	428.86
409.534	454.17
409.912	453.94
410.29	452.14
410.667	463.21
411.045	468.63
411.422	457.11
411.8	472.02
412.178	473.6
412.555	476.54
412.933	455.98
413.31	478.35
413.687	497.11
414.065	479.25
414.442	476.77
414.819	495.3
415.197	489.65
415.574	498.91
415.951	496.2
416.328	496.88
416.705	493.26
417.082	505.24
417.46	527.16
417.837	509.99
418.214	507.27
418.591	488.07
418.967	503.66
419.344	511.57
419.721	510.89
420.098	506.6
420.475	554.28
420.852	553.38
421.228	535.07
421.605	548.63
421.982	558.57
422.358	537.78
422.735	549.08
423.111	531.68
423.488	548.4
423.864	553.38
424.241	547.95
424.617	563.32
424.994	572.58
425.37	569.19
425.746	564.22
426.123	571
426.499	579.82
426.875	586.14
427.251	587.27
427.627	588.85
428.003	575.75
428.379	611.9
428.756	609.19
429.132	624.79
429.507	622.98
429.883	615.52
430.259	657.1
430.635	625.24
431.011	612.58
431.387	647.16
431.763	654.39
432.138	641.28
432.514	662.3
432.89	651.45
433.265	687.38
433.641	683.09
434.016	678.57
434.392	697.78
434.767	717.66
435.143	695.52
435.518	690.32
435.894	701.62
436.269	698.46
436.644	712.69
437.02	707.5
437.395	713.15
437.77	721.28
438.145	729.19
438.52	733.03
438.895	746.36
439.271	755.63
439.646	771.67
440.021	753.82
440.395	767.38
440.77	769.64
441.145	768.74
441.52	788.85
441.895	758.12
442.27	794.72
442.645	788.85
443.019	808.51
443.394	793.14
443.769	794.95
444.143	808.06
444.518	813.93
444.892	796.76
445.267	825.01
445.641	823.88
446.016	820.49
446.39	829.98
446.764	829.98
447.139	845.57
447.513	848.28
447.887	849.19
448.262	838.34
448.636	850.32
449.01	876.3
449.384	856.19
449.758	901.16
450.132	881.73
450.506	887.15
450.88	911.78
451.254	895.74
451.628	879.47
452.002	907.49
452.376	950.2
452.75	930.77
453.123	921.73
453.497	944.1
453.871	919.02
454.244	956.75
454.618	978.22
454.992	972.12
455.365	1002.85
455.739	1012.35
456.112	980.26
456.486	1015.74
456.859	1022.29
457.232	1028.39
457.606	1020.48
457.979	1040.37
458.352	1057.77
458.725	1061.16
459.099	1082.4
459.472	1104.77
459.845	1100.25
460.218	1098.67
460.591	1112.23
460.964	1137.09
461.337	1144.32
461.71	1136.64
462.083	1158.56
462.456	1152
462.829	1184.55
463.201	1227.03
463.574	1205.11
463.947	1245.11
464.32	1266.58
464.692	1259.57
465.065	1271.1
465.438	1279.46
465.81	1281.72
466.183	1324.43
466.555	1340.25
466.928	1347.48
467.3	1343.41
467.672	1380.02
468.045	1398.32
468.417	1411.21
468.789	1424.09
469.161	1412.34
469.534	1447.36
469.906	1490.75
470.278	1498.21
470.65	1522.84
471.022	1535.04
471.394	1553.35
471.766	1577.76
472.138	1603.29
472.51	1636.96
472.882	1650.97
473.253	1675.38
473.625	1707.47
473.997	1725.77
474.369	1729.39
474.74	1774.36
475.112	1768.94
475.484	1815.71
475.855	1875.37
476.227	1876.05
476.598	1916.5
476.97	1937.52
477.341	2034.47
477.713	2051.19
478.084	2043.28
478.455	2100.91
478.827	2107.23
479.198	2164.18
479.569	2227
479.94	2247.12
480.311	2249.15
480.682	2317.85
481.053	2382.03
481.424	2435.13
481.795	2479.2
482.166	2510.61
482.537	2514.68
482.908	2607.11
483.279	2643.04
483.65	2681.23
484.021	2761.9
484.391	2764.39
484.762	2804.62
485.133	2873.99
485.503	2946.31
485.874	2954.22
486.244	2980.88
486.615	3062.24
486.985	3098.85
487.356	3144.27
487.726	3221.33
488.097	3267.65
488.467	3305.39
488.837	3351.49
489.207	3377.93
489.578	3498.16
489.948	3488.44
490.318	3573.18
490.688	3572.5
491.058	3629
491.428	3723.91
491.798	3771.14
492.168	3850.69
492.538	3853.85
492.908	3906.96
493.278	3952.16
493.648	3927.98
494.017	4012.72
494.387	4070.8
494.757	4078.93
495.126	4114.86
495.496	4102.43
495.866	4203
496.235	4234.86
496.605	4270.11
496.974	4326.84
497.344	4364.8
497.713	4392.6
498.082	4365.7
498.452	4475.08
498.821	4440.96
499.19	4498.13
499.559	4582.42
499.928	4566.6
500.298	4643.44
500.667	4626.26
501.036	4687.28
501.405	4712.59
501.774	4740.38
502.143	4777.45
502.512	4830.1
502.88	4835.3
503.249	4832.13
503.618	4844.34
503.987	4894.28
504.356	4950.32
504.724	4918.91
505.093	5001.17
505.462	5023.54
505.83	5022.41
506.199	5073.93
506.567	5099.7
506.936	5123.2
507.304	5194.61
507.672	5174.95
508.041	5236.19
508.409	5241.39
508.777	5253.36
509.145	5387.6
509.514	5364.55
509.882	5393.25
510.25	5360.71
510.618	5416.98
510.986	5432.34
511.354	5450.42
511.722	5491.32
512.09	5555.5
512.458	5540.59
512.826	5599.57
513.193	5635.05
513.561	5616.74
513.929	5682.28
514.297	5703.52
514.664	5692
515.032	5778.1
515.4	5821.49
515.767	5792.33
516.135	5781.71
516.502	5779.68
516.869	5930.64
517.237	5910.52
517.604	5895.38
517.972	5912.1
518.339	5943.29
518.706	5995.04
519.073	5988.49
519.44	6061.71
519.808	6080.69
520.175	6015.6
520.542	6174.24
520.909	6147.58
521.276	6144.64
521.643	6132.21
522.009	6215.15
522.376	6276.39
522.743	6336.05
523.11	6350.29
523.477	6348.48
523.843	6414.92
524.21	6429.83
524.577	6543.5
524.943	6545.99
525.31	6550.51
525.676	6577.17
526.043	6694.68
526.409	6675.47
526.776	6722.03
527.142	6744.85
527.508	6767.45
527.874	6798.86
528.241	6839.76
528.607	6865.98
528.973	6962.7
529.339	6933.55
529.705	7024.62
530.071	7057.39
530.437	7062.36
530.803	7090.15
531.169	7162.47
531.535	7160.89
531.901	7164.95
532.267	7231.62
532.632	7234.1
532.998	7277.27
533.364	7340.54
533.73	7285.18
534.095	7373.53
534.461	7360.65
534.826	7439.75
535.192	7440.43
535.557	7524.72
535.923	7604.94
536.288	7486.98
536.653	7664.6
537.019	7602.91
537.384	7614.21
537.749	7716.58
538.114	7661.66
538.479	7713.86
538.845	7778.5
539.21	7750.25
539.575	7776.24
539.94	7834.31
540.305	7825.95
540.67	7882.45
541.034	7924.71
541.399	7985.95
541.764	8064.14
542.129	8044.25
542.494	8059.39
542.858	8152.72
543.223	8150.01
543.587	8245.38
543.952	8150.24
544.316	8203.8
544.681	8248.77
545.045	8260.07
545.41	8288.54
545.774	8388.65
546.138	8299.61
546.503	8415.99
546.867	8341.65
547.231	8470.91
547.595	8464.58
547.959	8510.45
548.324	8495.09
548.688	8505.71
549.052	8569.89
549.416	8612.37
549.779	8616.44
550.143	8668.64
550.507	8754.06
550.871	8729.43
551.235	8743.44
551.599	8806.49
551.962	8841.74
552.326	8909.31
552.689	8941.18
553.053	8892.14
553.417	8906.38
553.78	9022.98
554.143	8989.09
554.507	9021.4
554.87	9046.71
555.234	9110.44
555.597	9104.79
555.96	9199.25
556.323	9192.47
556.686	9186.37
557.05	9268.4
557.413	9263.88
557.776	9322.86
558.139	9330.32
558.502	9387.72
558.865	9344.56
559.228	9453.25
559.59	9481.5
559.953	9493.03
560.316	9572.8
560.679	9569.18
561.041	9641.72
561.404	9635.4
561.767	9616.19
562.129	9700.03
562.492	9776.86
562.854	9743.87
563.217	9782.29
563.579	9845.11
563.941	9902.96
564.304	9926.01
564.666	10048.49
565.028	9964.2
565.39	10040.13
565.753	10079.45
566.115	10081.26
566.477	10111.54
566.839	10157.64
567.201	10219.56
567.563	10256.4
567.925	10309.28
568.287	10301.14
568.648	10329.39
569.01	10391.76
569.372	10462.95
569.734	10439.67
570.095	10540.46
570.457	10517.41
570.819	10606.22
571.18	10613.22
571.542	10644.41
571.903	10703.62
572.265	10770.06
572.626	10776.84
572.987	10852.54
573.349	10928.92
573.71	10937.96
574.071	11035.81
574.432	11084.17
574.794	11160.1
575.155	11196.71
575.516	11210.5
575.877	11342.02
576.238	11338.85
576.599	11410.26
576.96	11492.97
577.32	11575.91
577.681	11625.63
578.042	11791.05
578.403	11795.34
578.763	11980.19
579.124	11998.95
579.485	12178.38
579.845	12249.56
580.206	12356.45
580.566	12477.13
580.927	12597.13
581.287	12743.11
581.648	12783.79
582.008	12926.16
582.368	13078.02
582.728	13252.48
583.089	13386.03
583.449	13552.13
583.809	13697.66
584.169	13894.72
584.529	14085.22
584.889	14303.52
585.249	14367.93
585.609	14554.14
585.969	14834.36
586.329	14969.04
586.688	15129.49
587.048	15433.44
587.408	15524.51
587.768	15788.23
588.127	15946.42
588.487	16176.47
588.846	16589.56
589.206	16757.92
589.565	17057.57
589.925	17387.28
590.284	17543.66
590.643	17733.04
591.003	18072.24
591.362	18334.6
591.721	18664.09
592.08	18937.75
592.44	19156.5
592.799	19568.69
593.158	19723.49
593.517	20001.68
593.876	20483.92
594.235	20656.8
594.593	20945.16
594.952	21188.09
595.311	21460.4
595.67	21838.92
596.029	22358.45
596.387	22617.2
596.746	22843.86
597.104	23061.03
597.463	23459.67
597.822	23776.27
598.18	23912.08
598.538	24300.32
598.897	24723.81
599.255	24784.6
599.613	25479.27
599.972	25470.23
600.33	25798.14
600.688	26027.73
601.046	26483.77
601.404	26808.96
601.762	27121.72
602.12	27495.04
602.478	27789.5
602.836	28024.74
603.194	28232.65
603.552	28398.74
603.91	28646.87
604.268	29061.78
604.625	29337.03
604.983	29659.73
605.341	29763
605.698	30258.36
606.056	30476.66
606.413	30694.96
606.771	30983.08
607.128	31270.08
607.485	31407.48
607.843	31633.01
608.2	32039.33
608.557	32282.48
608.914	32432.09
609.272	32761.12
609.629	33126.76
609.986	33363.13
610.343	33390.25
610.7	33907.53
611.057	33904.81
611.414	34202.21
611.771	34326.72
612.127	34689.65
612.484	34822.76
612.841	35153.14
613.198	35201.73
613.554	35320.6
613.911	35760.36
614.267	35936.4
614.624	36060.01
614.98	36134.13
615.337	36580.22
615.693	36514.46
616.05	36735.93
616.406	37104.73
616.762	37035.58
617.118	37151.74
617.475	37383.14
617.831	37695
618.187	37759.63
618.543	37888.21
618.899	38140.86
619.255	38148.09
619.611	38388.54
619.967	38658.36
620.323	38736.33
620.678	38695.88
621.034	38730.9
621.39	38954.85
621.746	39046.6
622.101	39501.73
622.457	39355.52
622.812	39494.27
623.168	39697.43
623.523	39816.3
623.879	40001.15
624.234	39894.94
624.589	39959.34
624.945	40255.83
625.3	40261.71
625.655	40395.94
626.01	40386
626.365	40426.9
626.72	40543.51
627.075	40591.87
627.43	40572.21
627.785	40625.54
628.14	40786.22
628.495	40933.78
628.85	40789.38
629.205	40789.38
629.559	41077.51
629.914	40972.88
630.269	40891.52
630.623	40963.39
630.978	40935.59
631.332	41143.27
631.687	41216.49
632.041	41099.65
632.396	41297.84
632.75	41181.23
633.104	41212.87
633.459	41201.35
633.813	41141.69
634.167	41322.25
634.521	41263.49
634.875	41442.92
635.229	41495.35
635.583	41264.85
635.937	41242.47
636.291	41230.72
636.645	41443.37
636.999	41105.98
637.352	41370.38
637.706	41192.31
638.06	41358.63
638.413	41272.53
638.767	41255.36
639.121	41358.18
639.474	41138.97
639.828	41105.98
640.181	41328.8
640.534	41234.34
640.888	41123.38
641.241	40998.64
641.594	41181.23
641.947	41218.07
642.301	41091.74
642.654	41122.03
643.007	41157.51
643.36	41289.48
643.713	41072.31
644.066	41344.85
644.419	41036.38
644.771	40842.94
645.124	40607.01
645.477	40304.87
645.83	40069.17
646.182	40132.22
646.535	40039.12
646.888	40180.81
647.24	39955.96
647.593	40139.45
647.945	40097.65
648.298	39690.43
648.65	39868.73
649.002	39658.56
649.355	39949.63
649.707	39879.12
650.059	40075.5
650.411	40515.26
650.763	40477.75
651.115	41062.82
651.467	40757.06
651.819	40800.68
652.171	40718.65
652.523	40740.12
652.875	40601.81
653.227	40506
653.578	40841.58
653.93	40623.06
654.282	40470.97
654.633	40442.5
654.985	40566.33
655.337	40629.61
655.688	40456.96
656.039	40770.85
656.391	40427.13
656.742	40577.41
657.094	40511.87
657.445	40732.66
657.796	40596.84
658.147	40477.52
658.498	40478.88
658.849	40656.5
659.2	40467.35
659.551	40471.65
659.902	40578.31
660.253	40606.33
660.604	40649.04
660.955	40401.59
661.306	40502.38
661.656	40455.15
662.007	40519.1
662.358	40551.42
662.708	40558.43
663.059	40491.76
663.409	40197.98
663.76	40418.32
664.11	40344.87
664.461	40415.6
664.811	40424.87
665.161	40321.37
665.511	40312.78
665.862	40244.08
666.212	40411.08
666.562	40525.66
666.912	40429.16
667.262	40298.77
667.612	40219.22
667.962	40346
668.312	40361.37
668.662	40584.41
669.011	40414.47
669.361	40207.02
669.711	40297.42
670.06	40271.43
670.41	40107.82
670.76	40097.42
671.109	40310.52
671.459	40248.6
671.808	40028.5
672.157	40194.14
672.507	40073.47
672.856	40112.11
673.205	40200.47
673.554	40182.62
673.904	40073.01
674.253	40188.04
674.602	40045.44
674.951	39549.64
675.3	39290.44
675.649	40038.44
675.998	40012.9
676.346	39981.94
676.695	40088.83
677.044	39835.28
677.393	39870.31
677.741	39912.57
678.09	39821.72
678.438	39783.76
678.787	39780.59
679.135	39845.68
679.484	39765.23
679.832	39800.93
680.181	39468.74
680.529	39685.45
680.877	39504.67
681.225	39541.95
681.573	39687.94
681.922	39492.69
682.27	39149.65
682.618	39398.91
682.966	39374.05
683.314	39410.88
683.661	39241.17
684.009	39044.11
684.357	38886.15
684.705	38962.76
685.053	39041.85
685.4	38860.62
685.748	38769.77
686.095	38798.47
686.443	38614.3
686.79	38673.05
687.138	38700.17
687.485	38683.45
687.832	38600.74
688.18	38665.59
688.527	38282.78
688.874	38395.09
689.221	38305.83
689.568	38191.93
689.915	38046.63
690.262	38121.43
690.609	38011.6
690.956	37627.2
691.303	37869.91
691.65	37706.75
691.997	37530.03
692.344	37466.75
692.69	37397.6
693.037	37402.35
693.383	37043.72
693.73	37119.87
694.077	36975.47
694.423	37017.5
694.769	36973.89
695.116	36895.02
695.462	36853.89
695.808	36584.74
696.155	36743.38
696.501	36554.24
696.847	36514.01
697.193	36325.54
697.539	36299.33
697.885	36126.23
698.231	35956.74
698.577	35962.16
698.923	36022.05
699.269	35739.12
699.614	35579.35
699.96	35575.73
700.306	35667.48
700.651	35488.28
700.997	35299.13
701.342	35292.57
701.688	35274.95
702.033	35160.37
702.379	35074.05
702.724	35033.82
703.069	35047.84
703.415	34618.92
703.76	34588.41
704.105	34692.59
704.45	34559.49
704.795	34297.8
705.14	34297.57
705.485	34373.05
705.83	34064.81
706.175	34175.54
706.52	34117.01
706.865	34051.48
707.209	33947.75
707.554	33826.4
707.899	33821.88
708.243	33730.13
708.588	33647.19
708.932	33388.9
709.277	33338.5
709.621	33451.49
709.966	33309.8
710.31	33351.83
710.654	33079.98
710.998	33176.7
711.342	32972.18
711.687	32955.69
712.031	32823.49
712.375	32805.18
712.719	32802.47
713.063	32761.57
713.407	32869.14
713.75	32742.36
714.094	32617.39
714.438	32448.36
714.782	32548.92
715.125	32378.08
715.469	32381.24
715.812	32237.74
716.156	32010.85
716.499	32176.05
716.843	32181.24
717.186	31912.1
717.53	32063.51
717.873	32037.97
718.216	31942.38
718.559	31864.87
718.902	31799.56
719.246	31754.36
719.589	31636.17
719.932	31429.17
720.275	31464.65
720.617	31489.06
720.96	31344.66
721.303	31353.47
721.646	31490.87
721.989	31202.51
722.331	31350.31
722.674	31091.1
723.016	31161.16
723.359	31118.67
723.701	31101.05
724.044	30889.3
724.386	30742.41
724.729	30917.1
725.071	30778.12
725.413	30826.93
725.755	30701.74
726.097	30673.49
726.439	30463.78
726.782	30503.32
727.124	30622.64
727.465	30461.97
727.807	30469.88
728.149	30389.65
728.491	30272.82
728.833	30322.54
729.175	30271.92
729.516	30244.57
729.858	30158.47
730.199	30178.13
730.541	30088.19
730.882	30074.18
731.224	30162.09
731.565	29865.37
731.906	29916.45
732.248	29988.53
732.589	29702.44
732.93	29701.08
733.271	29700.86
733.612	29751.03
733.953	29716.22
734.294	29563.69
734.635	29536.34
734.976	29611.59
735.317	29406.85
735.658	29353.75
735.999	29518.72
736.339	29390.13
736.68	29499.73
737.021	29289.57
737.361	29137.93
737.702	29219.51
738.042	29145.17
738.383	29112.85
738.723	29206.86
739.063	29001.44
739.404	29152.85
739.744	28917.83
740.084	28903.59
740.424	28939.75
740.764	28822.69
741.104	28979.97
741.444	28865.17
741.784	28738.62
742.124	28728
742.464	28676.7
742.804	28691.39
743.143	28627.21
743.483	28652.3
743.823	28380.89
744.162	28455.92
744.502	28586.08
744.841	28372.3
745.181	28524.62
745.52	28393.32
745.86	28398.74
746.199	28290.5
746.538	28249.37
746.877	28338.63
747.216	28296.15
747.556	28315.13
747.895	28223.83
748.234	28138.86
748.573	28020.68
748.911	28140.45
749.25	28023.84
749.589	27797.63
749.928	27903.16
750.267	28031.3
750.605	27860.68
750.944	27860.68
751.283	27782.04
751.621	27768.93
751.96	27662.49
752.298	27652.32
752.636	27765.32
752.975	27636.28
753.313	27440.58
753.651	27680.35
753.989	27449.62
754.327	27375.27
754.666	27210.08
755.004	27220.02
755.342	27307.02
755.679	27296.63
756.017	27206.46
756.355	27192.45
756.693	27019.35
757.031	27053.7
757.368	26966.24
757.706	26948.39
758.044	26857.54
758.381	26779.58
758.719	26681.73
759.056	26765.12
759.394	26687.15
759.731	26500.72
760.068	26503.88
760.405	26388.63
760.743	26204.9
761.08	26378.23
761.417	26197.45
761.754	26199.48
762.091	26196.77
762.428	26015.76
762.765	25946.15
763.102	26007.4
763.438	25812.37
763.775	25703.67
764.112	25834.74
764.449	25666.84
764.785	25565.82
765.122	25501.87
765.458	25406.96
765.795	25369.9
766.131	25265.49
766.467	25264.82
766.804	25067.76
767.14	25012.17
767.476	25007.87
767.812	24864.37
768.148	24903.24
768.485	24664.83
768.821	24488.11
769.157	24531.95
769.492	24525.4
769.828	24430.71
770.164	24237.5
770.5	24219.19
770.836	24233.66
771.171	24066.2
771.507	23979.2
771.842	23961.12
772.178	23891.97
772.513	23781.92
772.849	23736.04
773.184	23584.86
773.519	23471.19
773.855	23392.77
774.19	23358.88
774.525	23346.67
774.86	23398.65
775.195	23225.32
775.53	23128.15
775.865	23001.15
776.2	22824.2
776.535	22675.05
776.87	22742.4
777.205	22682.06
777.539	22580.14
777.874	22583.76
778.209	22383.31
778.543	22334.95
778.878	22155.97
779.212	22234.61
779.547	22097.44
779.881	22083.88
780.215	22006.82
780.55	21994.39
780.884	21760.28
781.218	21759.82
781.552	21685.48
781.886	21621.07
782.22	21493.84
782.554	21496.78
782.888	21316.9
783.222	21184.47
783.556	21186.73
783.889	21027.19
784.223	20944.03
784.557	20771.83
784.89	20856.57
785.224	20718.72
785.557	20631.94
785.891	20632.62
786.224	20638.5
786.558	20540.65
786.891	20362.35
787.224	20335.23
787.557	20322.8
787.891	20222.01
788.224	20138.4
788.557	20203.71
788.89	20073.54
789.223	20103.14
789.556	19848.01
789.888	19839.42
790.221	19685.98
790.554	19561.92
790.887	19541.35
791.219	19515.59
791.552	19525.53
791.884	19339.32
792.217	19379.77
792.549	19242.83
792.882	19170.96
793.214	19084.64
793.546	19126.67
793.879	18942.95
794.211	18914.02
794.543	18886
794.875	18829.5
795.207	18851.43
795.539	18695.5
795.871	18712.67
796.203	18538.21
796.535	18495.5
796.867	18493.69
797.198	18495.5
797.53	18397.88
797.862	18189.07
798.193	18208.73
798.525	18213.48
798.856	18116.08
799.188	17960.38
799.519	17907.72
799.85	17798.35
800.182	17805.58
800.513	17863.65
800.844	17604.68
801.175	17728.74
801.506	17665.02
801.837	17650.1
802.168	17510.67
802.499	17470.22
802.83	17403.78
803.161	17375.31
803.491	17382.76
803.822	17359.49
804.153	17203.56
804.483	17102.77
804.814	17149.55
805.145	17074.97
805.475	17063
805.805	17007.18
806.136	16985.71
806.466	16806.73
806.796	16879.5
807.126	16729.67
807.457	16724.02
807.787	16686.06
808.117	16624.14
808.447	16556.57
808.777	16642.22
809.107	16450.13
809.436	16375.56
809.766	16390.7
810.096	16388.44
810.426	16281.55
810.755	16313.19
811.085	16293.07
811.414	16227.99
811.744	16148.22
812.073	16087.2
812.403	16074.55
812.732	15962.24
813.061	16084.27
813.39	15926.3
813.719	15890.83
814.049	15946.19
814.378	15837.27
814.707	15775.57
815.036	15767.44
815.365	15653.32
815.693	15568.8
816.022	15480.89
816.351	15494
816.68	15459.88
817.008	15519.99
817.337	15377.17
817.665	15346.66
817.994	15385.3
818.322	15265.76
818.651	15231.63
818.979	15208.81
819.307	15346.43
819.636	15169.71
819.964	15096.95
820.292	15084.29
820.62	15125.65
820.948	15064.63
821.276	15169.71
821.604	15088.59
821.932	15108.92
822.259	15038.19
822.587	15014.92
822.915	15105.99
823.243	14963.39
823.57	14998.87
823.898	15004.97
824.225	14990.28
824.553	14946.44
824.88	14962.71
825.207	15026.67
825.535	14960.91
825.862	14960
826.189	14938.76
826.516	15088.81
826.843	15046.55
827.17	15021.92
827.497	15028.02
827.824	14927.46
828.151	15075.25
828.478	14983.28
828.805	15097.17
829.131	14939.89
829.458	14969.27
829.785	14926.78
830.111	14943.28
830.438	14983.96
830.764	14951.87
831.09	15001.58
831.417	14866.45
831.743	14904.64
832.069	14926.56
832.395	14863.73
832.722	14941.7
833.048	14772.66
833.374	14878.2
833.7	14759.56
834.026	14849.27
834.351	14834.58
834.677	14821.7
835.003	14850.17
835.329	14831.42
835.654	14740.12
835.98	14622.38
836.306	14790.06
836.631	14571.99
836.956	14703.06
837.282	14689.73
837.607	14525.21
837.932	14592.55
838.258	14554.36
838.583	14515.04
838.908	14464.2
839.233	14433.69
839.558	14403.86
839.883	14342.84
840.208	14315.05
840.533	14435.5
840.858	14428.72
841.182	14382.39
841.507	14292
841.832	14240.92
842.156	14227.14
842.481	14153.47
842.805	14229.17
843.13	14133.13
843.454	14129.74
843.778	14080.25
844.103	14061.49
844.427	14039.57
844.751	14050.2
845.075	13928.62
845.399	13960.71
845.723	13823.31
846.047	13841.61
846.371	13734.5
846.695	13675.74
847.019	13611.34
847.343	13646.14
847.666	13451.57
847.99	13405.01
848.313	13454.28
848.637	13336.09
848.96	13346.49
849.284	13275.98
849.607	13130.9
849.931	13161.86
850.254	13077.34
850.577	13009.77
850.9	12951.47
851.223	12973.61
851.546	12903.56
851.869	12733.17
852.192	12822.43
852.515	12734.98
852.838	12661.53
853.161	12672.6
853.483	12583.57
853.806	12560.52
854.129	12549.67
854.451	12471.03
854.774	12477.13
855.096	12378.83
855.419	12378.38
855.741	12349.45
856.063	12290.24
856.385	12199.85
856.708	12215.89
857.03	12123.47
857.352	12097.25
857.674	12094.31
857.996	12069.68
858.318	12026.75
858.64	11970.93
858.961	12013.41
859.283	11869.46
859.605	11852.97
859.926	11890.25
860.248	11823.81
860.57	11744.04
860.891	11769.13
861.212	11703.82
861.534	11692.97
861.855	11638.06
862.176	11632.41
862.498	11599.41
862.819	11629.47
863.14	11533.88
863.461	11476.03
863.782	11534.56
864.103	11541.11
864.424	11426.76
864.745	11521.67
865.065	11437.16
865.386	11375.24
865.707	11368.46
866.027	11439.64
866.348	11446.2
866.668	11304.73
866.989	11217.73
867.309	11245.98
867.63	11241.91
867.95	11270.38
868.27	11230.83
868.59	11136.15
868.91	11125.75
869.23	11213.89
869.55	11029.03
869.87	11136.15
870.19	11100.44
870.51	11103.15
870.83	11154.23
871.15	11027.68
871.469	11045.3
871.789	11069.48
872.109	10978.41
872.428	11008.24
872.748	10994.68
873.067	10944.29
873.386	11020.44
873.706	10933.67
874.025	10881.24
874.344	10845.08
874.663	10845.53
874.982	10841.69
875.301	10779.77
875.62	10817.06
875.939	10803.05
876.258	10748.14
876.577	10762.37
876.896	10755.59
877.214	10674.24
877.533	10747.46
877.852	10684.18
878.17	10648.93
878.489	10625.43
878.807	10610.74
879.125	10575.71
879.444	10600.57
879.762	10602.15
880.08	10579.1
880.398	10556.28
880.716	10518.76
881.034	10486
881.352	10407.58
881.67	10462.72
881.988	10492.32
882.306	10356.28
882.624	10335.26
882.941	10319.22
883.259	10330.75
883.577	10253.91
883.894	10278.77
884.212	10208.49
884.529	10286.9
884.846	10216.4
885.164	10199.68
885.481	10190.64
885.798	10199.9
886.115	10048.27
886.432	10117.42
886.75	10131.88
887.067	10077.87
887.383	10020.25
887.7	10025.44
888.017	10054.59
888.334	10019.34
888.651	10003.52
888.967	9902.73
889.284	9871.32
889.6	9910.42
889.917	9766.69
890.233	9862.28
890.55	9731.44
890.866	9709.97
891.182	9718.56
891.498	9679.01
891.815	9597.66
892.131	9587.94
892.447	9595.85
892.763	9540.48
893.079	9560.6
893.395	9514.5
893.71	9517.89
894.026	9485.8
894.342	9407.83
894.657	9326.25
894.973	9326.25
895.289	9364.9
895.604	9366.48
895.92	9181.4
896.235	9221.4
896.55	9214.84
896.865	9211.23
897.181	9158.8
897.496	9128.07
897.811	9115.18
898.126	9061.17
898.441	9018.69
898.756	9050.55
899.071	8992.48
899.386	8954.96
899.7	8892.37
900.015	8822.76
900.33	8832.48
900.644	8779.15
900.959	8820.95
901.273	8781.86
901.588	8710.45
901.902	8617.8
902.216	8652.6
902.531	8624.58
902.845	8579.6
903.159	8545.26
903.473	8509.1
903.787	8581.64
904.101	8478.82
904.415	8399.95
904.729	8384.36
905.042	8390.01
905.356	8350.68
905.67	8350.68
905.984	8310.46
906.297	8231.37
906.611	8193.4
906.924	8232.5
907.237	8211.93
907.551	8184.14
907.864	8129.22
908.177	8142.33
908.491	8038.83
908.804	8044.93
909.117	7987.3
909.43	7983.69
909.743	7954.99
910.056	7898.94
910.368	7865.95
910.681	7756.58
910.994	7802
911.307	7737.59
911.619	7708.22
911.932	7673.87
912.244	7680.87
912.557	7611.49
912.869	7601.33
913.181	7554.77
913.494	7551.16
913.806	7439.3
914.118	7427.32
914.43	7407.66
914.742	7446.08
915.054	7371.28
915.366	7342.58
915.678	7334.89
915.99	7254.22
916.302	7232.07
916.613	7253.31
916.925	7125.63
917.236	7201.56
917.548	7124.5
917.859	7093.09
918.171	7016.48
918.482	6990.27
918.794	6997.73
919.105	6976.48
919.416	6937.84
919.727	6920.44
920.038	6897.62
920.349	6844.96
920.66	6817.84
920.971	6836.6
921.282	6789.82
921.593	6750.73
921.903	6726.32
922.214	6678.41
922.525	6683.84
922.835	6585.76
923.146	6610.84
923.456	6620.33
923.767	6543.05
924.077	6543.05
924.387	6491.75
924.697	6411.3
925.008	6443.16
925.318	6432.99
925.628	6381.02
925.938	6367.69
926.248	6361.13
926.558	6346.22
926.867	6267.35
927.177	6289.5
927.487	6217.41
927.796	6221.02
928.106	6178.54
928.416	6148.93
928.725	6107.58
929.034	6102.38
929.344	6066
929.653	6117.07
929.962	6020.58
930.271	5983.06
930.581	5955.95
930.89	5904.65
931.199	5894.93
931.508	5917.98
931.817	5874.82
932.125	5800.69
932.434	5845.89
932.743	5768.61
933.051	5762.28
933.36	5736.52
933.669	5689.96
933.977	5664.88
934.286	5697.65
934.594	5665.33
934.902	5579.91
935.21	5644.54
935.519	5604.09
935.827	5486.8
936.135	5530.65
936.443	5487.03
936.751	5501.95
937.059	5456.98
937.367	5452.46
937.674	5439.35
937.982	5427.82
938.29	5386.24
938.597	5336.53
938.905	5279.8
939.213	5278.45
939.52	5272.35
939.827	5282.29
940.135	5231.22
940.442	5202.29
940.749	5129.3
941.056	5122.29
941.363	5106.7
941.67	5128.62
941.977	5039.81
942.284	5052.47
942.591	5042.75
942.898	4997.55
943.205	5035.52
943.511	4944.45
943.818	4945.58
944.125	4939.93
944.431	4903.77
944.738	4898.8
945.044	4840.95
945.35	4807.5
945.657	4786.71
945.963	4823.77
946.269	4779.7
946.575	4752.81
946.881	4724.79
947.187	4715.07
947.493	4709.42
947.799	4716.88
948.105	4680.95
948.41	4639.37
948.716	4647.96
949.022	4574.51
949.327	4589.88
949.633	4564.8
949.938	4570.67
950.244	4520.95
950.549	4492.25
950.854	4456.78
951.16	4437.11
951.465	4424.69
951.77	4440.73
952.075	4359.83
952.38	4413.16
952.685	4372.48
952.99	4338.36
953.294	4301.07
953.599	4294.29
953.904	4261.3
954.209	4239.15
954.513	4314.41
954.818	4254.75
955.122	4242.77
955.426	4211.36
955.731	4213.17
956.035	4152.6
956.339	4183.56
956.643	4092.04
956.948	4094.75
957.252	4045.94
957.556	4088.2
957.86	4041.42
958.163	4058.14
958.467	4017.01
958.771	4009.56
959.075	4013.85
959.378	3991.03
959.682	3949.67
959.985	3922.78
960.289	3954.42
960.592	3891.37
960.896	3889.78
961.199	3880.07
961.502	3836.23
961.805	3858.6
962.108	3855.89
962.411	3781.76
962.714	3777.02
963.017	3764.36
963.32	3757.36
963.623	3766.4
963.926	3758.49
964.228	3718.72
964.531	3674.65
964.833	3714.42
965.136	3681.2
965.438	3641.43
965.741	3614.09
966.043	3636.01
966.345	3579.96
966.648	3546.52
966.95	3549
967.252	3560.3
967.554	3563.92
967.856	3488.67
968.158	3489.34
968.46	3507.42
968.761	3463.36
969.063	3476.91
969.365	3442.56
969.666	3475.11
969.968	3351.95
970.269	3393.3
970.571	3352.4
970.872	3447.54
971.174	3376.8
971.475	3340.42
971.776	3312.62
972.077	3315.11
972.378	3310.36
972.679	3277.37
972.98	3255.23
973.281	3237.37
973.582	3286.18
973.883	3214.77
974.183	3203.48
974.484	3208.45
974.785	3163.93
975.085	3156.7
975.386	3174.32
975.686	3174.55
975.986	3152.4
976.287	3146.3
976.587	3071.5
976.887	3079.86
977.187	3076.47
977.487	3070.6
977.787	3051.61
978.087	3026.3
978.387	3007.77
978.687	3020.88
978.987	3000.54
979.286	2943.37
979.586	2982.92
979.885	2938.17
980.185	2926.42
980.484	2899.75
980.784	2900.43
981.083	2903.14
981.382	2862.24
981.682	2878.96
981.981	2893.43
982.28	2830.15
982.579	2835.58
982.878	2854.33
983.177	2807.78
983.475	2810.27
983.774	2789.93
984.073	2739.53
984.372	2752.41
984.67	2770.27
984.969	2752.64
985.267	2709.7
985.566	2731.4
985.864	2712.19
986.162	2659.53
986.461	2706.99
986.759	2663.83
987.057	2640.1
987.355	2643.04
987.653	2644.85
987.951	2619.31
988.249	2601.91
988.547	2624.96
988.844	2572.76
989.142	2532.08
989.44	2532.31
989.737	2539.09
990.035	2513.55
990.332	2508.8
990.63	2489.14
990.927	2493.66
991.224	2488.01
991.521	2464.74
991.819	2438.75
992.116	2452.08
992.413	2467.68
992.71	2421.35
993.006	2430.39
993.303	2403.27
993.6	2415.02
993.897	2419.77
994.193	2371.18
994.49	2357.62
994.787	2347.68
995.083	2318.75
995.379	2341.8
995.676	2345.19
995.972	2323.27
996.268	2290.96
996.565	2279.88
996.861	2297.51
997.157	2260.68
997.453	2264.52
997.749	2227.91
998.044	2233.78
998.34	2203.28
998.636	2227.68
998.932	2214.57
999.227	2189.72
999.523	2138.87
999.818	2145.88
1000.114	2161.92
1000.409	2121.47
1000.704	2117.63
1001	2111.75
1001.295	2106.55
1001.59	2087.35
1001.885	2085.54
1002.18	2075.82
1002.475	2080.57
1002.77	2042.38
1003.065	2033.79
1003.359	2028.14
1003.654	1987.01
1003.949	2018.65
1004.243	2020
1004.538	1980
1004.832	1974.13
1005.127	1975.48
1005.421	1914.02
1005.715	1937.29
1006.009	1923.96
1006.304	1909.72
1006.598	1902.72
1006.892	1892.32
1007.186	1856.17
1007.48	1895.26
1007.773	1883.51
1008.067	1844.19
1008.361	1868.14
1008.655	1840.12
1008.948	1794.02
1009.242	1806.9
1009.535	1807.58
1009.829	1786.34
1010.122	1756.73
1010.415	1780.24
1010.708	1781.37
1011.001	1755.83
1011.295	1756.28
1011.588	1775.26
1011.881	1735.27
1012.173	1713.34
1012.466	1733.01
1012.759	1703.85
1013.052	1697.98
1013.344	1662.5
1013.637	1697.53
1013.93	1679.45
1014.222	1646.91
1014.514	1646.45
1014.807	1650.75
1015.099	1638.54
1015.391	1596.96
1015.683	1589.51
1015.976	1600.13
1016.268	1601.94
1016.56	1568.04
1016.851	1555.61
1017.143	1588.83
1017.435	1540.47
1017.727	1534.14
1018.018	1540.24
1018.31	1522.16
1018.602	1486.68
1018.893	1513.58
1019.185	1481.94
1019.476	1471.77
1019.767	1455.95
1020.058	1456.85
1020.35	1466.8
1020.641	1428.61
1020.932	1416.63
1021.223	1431.32
1021.514	1389.74
1021.804	1382.96
1022.095	1378.89
1022.386	1377.31
1022.677	1373.24
1022.967	1352.68
1023.258	1361.72
1023.548	1348.83
1023.839	1328.95
1024.129	1328.72
1024.419	1324.65
1024.709	1321.04
1025	1269.74
1025.29	1278.33
1025.58	1285.11
1025.87	1270.19
1026.16	1274.03
1026.449	1248.72
1026.739	1251.66
1027.029	1263.19
1027.319	1234.49
1027.608	1224.32
1027.898	1205.56
1028.187	1215.28
1028.477	1213.7
1028.766	1211.21
1029.055	1196.75
1029.344	1186.13
1029.634	1158.33
1029.923	1175.73
1030.212	1163.75
1030.501	1173.47
1030.79	1148.84
1031.078	1124.43
1031.367	1132.12
1031.656	1133.02
1031.945	1110.87
1032.233	1116.98
1032.522	1112.68
1032.81	1097.32
1033.099	1088.5
1033.387	1095.28
1033.675	1073.81
1033.963	1094.15
1034.251	1083.76
1034.54	1060.25
1034.828	1053.02
1035.116	1052.57
1035.403	1067.26
1035.691	1018.45
1035.979	1028.39
1036.267	1019.58
1036.554	989.3
1036.842	1011.89
1037.129	986.58
1037.417	992.69
1037.704	981.61
1037.992	988.17
1038.279	976.87
1038.566	968.96
1038.853	968.96
1039.14	968.96
