Data from hue_110_FLMS001491_00076.txt Node
Date: Tue Feb 07 17:01:48 GMT 2017
User: dcchb
Spectrometer: FLMS00149
Trigger mode: 0
Integration Time (sec): 2.000000E-2
Scans to average: 10
Electric dark correction enabled: true
Nonlinearity correction enabled: false
Boxcar width: 0
XAxis mode: Wavelengths
Number of Pixels in Spectrum: 2048
>>>>>Begin Spectral Data<<<<<
341.393	4.43
341.776	4.43
342.16	4.43
342.543	-73.76
342.927	-65.62
343.31	-66.75
343.693	-66.07
344.077	-58.16
344.46	-44.15
344.843	-59.74
345.226	-25.39
345.61	-38.5
345.993	-4.38
346.376	-12.74
346.759	25
347.142	20.71
347.525	13.25
347.908	43.98
348.291	81.27
348.674	89.4
349.057	102.29
349.44	125.56
349.823	142.74
350.206	170.31
350.588	176.86
350.971	227.25
351.354	228.16
351.737	249.17
352.119	243.98
352.502	290.76
352.884	279.23
353.267	302.28
353.65	313.81
354.032	299.79
354.414	308.83
354.797	311.77
355.179	309.29
355.562	345.44
355.944	326.46
356.326	317.65
356.709	343.41
357.091	344.09
357.473	340.7
357.855	333.47
358.238	346.12
358.62	338.66
359.002	357.19
359.384	337.99
359.766	340.25
360.148	342.96
360.53	331.66
360.912	339.57
361.294	335.5
361.676	347.02
362.057	359.68
362.439	329.17
362.821	322.84
363.203	340.47
363.584	352
363.966	317.65
364.348	319.23
364.729	340.02
365.111	342.28
365.493	338.89
365.874	324.43
366.256	325.78
366.637	330.53
367.019	320.58
367.4	308.38
367.781	331.21
368.163	315.61
368.544	336.4
368.925	331.66
369.306	328.72
369.688	332.34
370.069	318.1
370.45	331.43
370.831	313.58
371.212	325.1
371.593	327.82
371.974	333.24
372.355	328.27
372.736	328.49
373.117	318.78
373.498	326.91
373.879	326.01
374.26	335.05
374.641	313.81
375.021	321.04
375.402	320.58
375.783	337.31
376.163	335.95
376.544	329.4
376.925	334.37
377.305	327.14
377.686	326.69
378.066	336.63
378.447	356.06
378.827	362.84
379.208	358.1
379.588	344.99
379.968	363.3
380.349	333.69
380.729	344.76
381.109	347.25
381.489	382.73
381.87	358.78
382.25	363.97
382.63	361.04
383.01	345.67
383.39	352.9
383.77	336.18
384.15	368.72
384.53	351.09
384.91	366.23
385.29	367.59
385.67	346.35
386.049	373.24
386.429	357.42
386.809	381.83
387.189	365.1
387.568	359
387.948	365.78
388.328	392.67
388.707	385.44
389.087	379.79
389.466	408.27
389.846	371.2
390.225	397.64
390.605	378.66
390.984	376.4
391.363	398.1
391.743	375.72
392.122	380.47
392.501	401.26
392.881	402.62
393.26	403.29
393.639	422.73
394.018	382.5
394.397	399.68
394.776	396.06
395.155	392
395.534	404.88
395.913	403.75
396.292	411.88
396.671	402.62
397.05	422.28
397.429	413.92
397.808	401.94
398.186	416.85
398.565	407.81
398.944	439.9
399.323	407.36
399.701	430.19
400.08	445.78
400.458	430.19
400.837	439.68
401.215	450.3
401.594	431.77
401.972	408.72
402.351	428.6
402.729	449.62
403.107	458.21
403.486	429.28
403.864	453.91
404.242	457.3
404.62	442.39
404.999	455.5
405.377	434.71
405.755	451.2
406.133	470.19
406.511	451.88
406.889	489.62
407.267	483.97
407.645	476.74
408.023	471.09
408.401	485.78
408.779	481.03
409.156	503.86
409.534	478.55
409.912	476.96
410.29	524.87
410.667	495.72
411.045	518.09
411.422	504.99
411.8	517.19
412.178	507.7
412.555	488.04
412.933	511.99
413.31	522.16
413.687	533.23
414.065	529.39
414.442	529.84
414.819	561.71
415.197	547.25
415.574	550.18
415.951	564.87
416.328	536.4
416.705	563.97
417.082	548.83
417.46	546.57
417.837	564.42
418.214	546.79
418.591	566
418.967	558.54
419.344	574.82
419.721	575.72
420.098	599
420.475	588.83
420.852	588.6
421.228	599
421.605	609.16
421.982	624.53
422.358	614.81
422.735	601.93
423.111	623.18
423.488	613.01
423.864	624.08
424.241	653.01
424.617	631.76
424.994	650.07
425.37	659.11
425.746	655.49
426.123	661.14
426.499	655.49
426.875	664.3
427.251	663.4
427.627	671.54
428.003	697.52
428.379	674.93
428.756	692.33
429.132	702.5
429.507	690.97
429.883	695.49
430.259	730.07
430.635	713.57
431.011	723.06
431.387	767.35
431.763	745.66
432.138	768.26
432.514	779.1
432.89	766.22
433.265	758.99
433.641	782.04
434.016	790.18
434.392	787.01
434.767	794.92
435.143	810.97
435.518	823.4
435.894	846.22
436.269	812.78
436.644	844.86
437.02	831.98
437.395	847.8
437.77	899.55
438.145	888.03
438.52	883.51
438.895	876.73
439.271	890.29
439.646	907.69
440.021	880.34
440.395	922.38
440.77	913.34
441.145	898.2
441.52	924.86
441.895	931.64
442.27	950.4
442.645	910.17
443.019	934.81
443.394	945.88
443.769	947.01
444.143	966.44
444.518	967.57
444.892	980
445.267	973.22
445.641	986.33
446.016	984.75
446.39	998.76
446.764	1016.39
447.139	1026.55
447.513	1013.67
447.887	1000.79
448.262	1018.65
448.636	1013.67
449.01	1030.17
449.384	1056.84
449.758	1040.57
450.132	1067.68
450.506	1071.3
450.88	1090.28
451.254	1108.59
451.628	1097.29
452.002	1129.15
452.376	1125.76
452.75	1154.24
453.123	1156.5
453.497	1167.79
453.871	1163.5
454.244	1167.12
454.618	1189.71
454.992	1195.14
455.365	1199.21
455.739	1235.59
456.112	1257.06
456.486	1262.03
456.859	1258.64
457.232	1307.45
457.606	1296.38
457.979	1304.51
458.352	1334.57
458.725	1360.78
459.099	1365.76
459.472	1392.2
459.845	1407.11
460.218	1396.49
460.591	1434.91
460.964	1426.77
461.337	1459.99
461.71	1479.65
462.083	1490.72
462.456	1508.8
462.829	1531.4
463.201	1576.82
463.574	1544.73
463.947	1605.97
464.32	1596.71
464.692	1626.54
465.065	1659.08
465.438	1672.87
465.81	1711.06
466.183	1723.03
466.555	1762.58
466.928	1789.02
467.3	1793.54
467.672	1822.92
468.045	1874.89
468.417	1868.79
468.789	1893.42
469.161	1942.69
469.534	1985.17
469.906	2014.33
470.278	2005.51
470.65	2102.91
471.022	2120.76
471.394	2197.6
471.766	2176.81
472.138	2186.98
472.51	2309.01
472.882	2352.85
473.253	2378.38
473.625	2411.83
473.997	2470.36
474.369	2539.28
474.74	2542.45
475.112	2619.73
475.484	2685.04
475.855	2745.83
476.227	2765.94
476.598	2926.17
476.97	2944.47
477.341	3001.42
477.713	3037.35
478.084	3163.9
478.455	3270.79
478.827	3307.62
479.198	3406.61
479.569	3392.37
479.94	3600.95
480.311	3650.21
480.682	3755.07
481.053	3913.71
481.424	4001.39
481.795	4110.77
482.166	4194.61
482.537	4274.15
482.908	4390.31
483.279	4506.69
483.65	4634.14
484.021	4764.99
484.391	4882.27
484.762	4947.36
485.133	5069.39
485.503	5240.46
485.874	5352.54
486.244	5483.39
486.615	5697.39
486.985	5812.64
487.356	5938.74
487.726	6105.07
488.097	6215.8
488.467	6298.05
488.837	6512.06
489.207	6606.3
489.578	6765.39
489.948	6932.16
490.318	7094.19
490.688	7185.04
491.058	7425.03
491.428	7596.33
491.798	7686.27
492.168	7919.71
492.538	7991.12
492.908	8241.51
493.278	8371.9
493.648	8476.3
494.017	8609.63
494.387	8714.26
494.757	8879.68
495.126	9082.16
495.496	9218.88
495.866	9351.08
496.235	9445.09
496.605	9657.06
496.974	9685.31
497.344	9884.4
497.713	10098.18
498.082	10128.24
498.452	10310.83
498.821	10361.45
499.19	10549.47
499.559	10607.55
499.928	10743.14
500.298	10902
500.667	10994.65
501.036	11075.1
501.405	11294.31
501.774	11380.18
502.143	11476
502.512	11508.99
502.88	11671.25
503.249	11693.85
503.618	11821.75
503.987	11987.4
504.356	12100.84
504.724	12121.4
505.093	12260.61
505.462	12279.82
505.83	12410.44
506.199	12587.61
506.567	12673.25
506.936	12693.14
507.304	12884.1
507.672	12923.64
508.041	13028.05
508.409	13245.22
508.777	13256.29
509.145	13353.91
509.514	13370.86
509.882	13470.75
510.25	13465.32
510.618	13516.4
510.986	13598.2
511.354	13762.27
511.722	13763.17
512.09	13880
512.458	13928.36
512.826	14053.33
513.193	14151.18
513.561	14171.75
513.929	14232.54
514.297	14285.87
514.664	14383.49
515.032	14482.02
515.4	14540.1
515.767	14521.57
516.135	14647.67
516.502	14529.25
516.869	14761.11
517.237	14792.75
517.604	14777.83
517.972	14975.11
518.339	14977.37
518.706	14969.92
519.073	14956.36
519.44	15137.14
519.808	15145.73
520.175	15107.99
520.542	15288.78
520.909	15347.76
521.276	15323.35
521.643	15382.79
522.009	15476.8
522.376	15509.11
522.743	15607.87
523.11	15621.2
523.477	15771.03
523.843	15763.34
524.21	15894.86
524.577	16036.1
524.943	15980.96
525.31	15962.89
525.676	16105.71
526.043	16152.03
526.409	16077.46
526.776	16219.6
527.142	16318.36
527.508	16263.22
527.874	16439.26
528.241	16354.06
528.607	16382.08
528.973	16475.41
529.339	16403.33
529.705	16596.54
530.071	16560.16
530.437	16534.62
530.803	16484.45
531.169	16614.85
531.535	16522.64
531.901	16569.88
532.267	16585.02
532.632	16652.36
532.998	16576.43
533.364	16596.32
533.73	16595.19
534.095	16716.09
534.461	16727.39
534.826	16759.7
535.192	16674.73
535.557	16725.8
535.923	16556.77
536.288	16645.81
536.653	16616.88
537.019	16581.17
537.384	16629.08
537.749	16668.18
538.114	16602.64
538.479	16525.81
538.845	16487.17
539.21	16394.06
539.575	16561.97
539.94	16496.2
540.305	16507.5
540.67	16382.31
541.034	16477.45
541.399	16457.79
541.764	16487.84
542.129	16347.96
542.494	16403.1
542.858	16339.82
543.223	16288.53
543.587	16283.55
543.952	16183.44
544.316	16268.87
544.681	16099.38
545.045	16193.84
545.41	16257.11
545.774	16130.34
546.138	16138.47
546.503	16124.01
546.867	16065.26
547.231	16081.07
547.595	16077.23
547.959	15990.46
548.324	16001.3
548.688	16005.14
549.052	16020.06
549.416	15958.82
549.779	15963.11
550.143	15859.61
550.507	15887.86
550.871	15851.48
551.235	15848.76
551.599	15860.06
551.962	15803.79
552.326	15796.79
552.689	15837.92
553.053	15764.02
553.417	15763.12
553.78	15817.13
554.143	15743
554.507	15675.21
554.87	15585.95
555.234	15738.71
555.597	15504.37
555.96	15714.98
556.323	15664.36
556.686	15604.25
557.05	15706.39
557.413	15670.01
557.776	15681.31
558.139	15647.87
558.502	15582.78
558.865	15567.42
559.228	15767.18
559.59	15643.57
559.953	15684.7
560.316	15744.59
560.679	15743.68
561.041	15832.27
561.404	15772.83
561.767	15815.54
562.129	15759.27
562.492	15829.33
562.854	15722.67
563.217	15668.43
563.579	15816.45
563.941	15932.38
564.304	15776.9
564.666	15869.33
565.028	15830.46
565.39	15860.06
565.753	16047.18
566.115	15962.21
566.477	16032.49
566.839	15947.97
567.201	16013.51
567.563	16018.7
567.925	16094.63
568.287	16052.37
568.648	16064.8
569.01	16051.7
569.372	16190.9
569.734	16055.99
570.095	16178.7
570.457	16153.61
570.819	16174.63
571.18	16245.36
571.542	16174.63
571.903	16208.3
572.265	16257.11
572.626	16241.75
572.987	16305.7
573.349	16399.48
573.71	16345.93
574.071	16410.56
574.432	16348.64
574.794	16373.5
575.155	16456.66
575.516	16445.81
575.877	16391.12
576.238	16452.36
576.599	16451.46
576.96	16470.44
577.32	16495.98
577.681	16520.38
578.042	16591.57
578.403	16509.99
578.763	16518.12
579.124	16484.68
579.485	16584.11
579.845	16511.8
580.206	16484.91
580.566	16540.27
580.927	16531.68
581.287	16464.12
581.648	16585.92
582.008	16628.18
582.368	16500.5
582.728	16519.71
583.089	16432.93
583.449	16516.54
583.809	16555.86
584.169	16398.35
584.529	16465.25
584.889	16558.8
585.249	16406.04
585.609	16400.61
585.969	16417.11
586.329	16371.46
586.688	16355.64
587.048	16395.19
587.408	16362.42
587.768	16329.88
588.127	16407.39
588.487	16294.63
588.846	16424.34
589.206	16242.2
589.565	16357.45
589.925	16386.6
590.284	16210.34
590.643	16297.57
591.003	16374.63
591.362	16312.93
591.721	16336.66
592.08	16286.27
592.44	16324.23
592.799	16297.57
593.158	16262.09
593.517	16285.59
593.876	16270.9
594.235	16174.63
594.593	16210.34
594.952	16247.4
595.311	16227.74
595.67	16242.2
596.029	16284.23
596.387	16241.3
596.746	16266.15
597.104	16175.54
597.463	16217.34
597.822	16297.11
598.18	16167.4
598.538	16223.44
598.897	16313.84
599.255	16057.8
599.613	16357.23
599.972	16228.87
600.33	16287.85
600.688	16178.25
601.046	16138.93
601.404	16253.27
601.762	16208.3
602.12	16232.48
602.478	16233.84
602.836	16236.78
603.194	16168.3
603.552	16152.94
603.91	16151.13
604.268	16190.68
604.625	16161.75
604.983	16251.01
605.341	16105.25
605.698	16201.75
606.056	16267.51
606.413	16186.83
606.771	16219.15
607.128	16237.91
607.485	16147.74
607.843	16252.6
608.2	16276.1
608.557	16343.89
608.914	16239.04
609.272	16346.83
609.629	16337.79
609.986	16346.6
610.343	16296.44
610.7	16487.62
611.057	16362.87
611.414	16423.89
611.771	16313.84
612.127	16460.73
612.484	16415.53
612.841	16478.13
613.198	16449.2
613.554	16389.77
613.911	16541.63
614.267	16433.61
614.624	16447.17
614.98	16440.39
615.337	16502.76
615.693	16472.7
616.05	16475.19
616.406	16518.35
616.762	16444.23
617.118	16472.02
617.475	16552.93
617.831	16566.71
618.187	16613.49
618.543	16514.06
618.899	16676.99
619.255	16728.97
619.611	16587.28
619.967	16705.69
620.323	16716.99
620.678	16784.78
621.034	16675.86
621.39	16645.35
621.746	16646.48
622.101	16799.7
622.457	16641.29
622.812	16600.16
623.168	16697.33
623.523	16704.33
623.879	16850.09
624.234	16575.52
624.589	16695.97
624.945	16722.19
625.3	16724.22
625.655	16708.63
626.01	16765.58
626.365	16710.89
626.72	16662.53
627.075	16716.54
627.43	16743.43
627.785	16705.69
628.14	16721.96
628.495	16732.13
628.85	16621.4
629.205	16642.42
629.559	16655.3
629.914	16587.5
630.269	16646.71
630.623	16607.16
630.978	16506.37
631.332	16656.43
631.687	16633.6
632.041	16505.02
632.396	16538.92
632.75	16482.19
633.104	16538.69
633.459	16452.36
633.813	16374.63
634.167	16401.97
634.521	16422.08
634.875	16376.21
635.229	16443.78
635.583	16252.82
635.937	16284.23
636.291	16302.31
636.645	16282.2
636.999	16175.31
637.352	16266.15
637.706	16116.1
638.06	16200.39
638.413	16164.69
638.767	16172.37
639.121	16151.58
639.474	16038.14
639.828	16016.67
640.181	16150.45
640.534	16151.35
640.888	16035.88
641.241	15970.34
641.594	16025.26
641.947	15990.23
642.301	15992.72
642.654	15996.56
643.007	16023.67
643.36	15933.28
643.713	15900.29
644.066	16041.08
644.419	15892.38
644.771	15869.78
645.124	15681.31
645.477	15685.15
645.83	15570.81
646.182	15470.92
646.535	15460.98
646.888	15438.61
647.24	15406.52
647.593	15490.36
647.945	15450.58
648.298	15393.18
648.65	15350.25
649.002	15267.08
649.355	15399.74
649.707	15417.81
650.059	15493.07
650.411	15643.12
650.763	15663.23
651.115	15883.11
651.467	15707.98
651.819	15816.67
652.171	15829.78
652.523	15657.13
652.875	15754.98
653.227	15666.17
653.578	15730.35
653.93	15741.2
654.282	15677.7
654.633	15576.68
654.985	15699.62
655.337	15732.38
655.688	15717.69
656.039	15734.87
656.391	15676.79
656.742	15730.12
657.094	15711.82
657.445	15783.68
657.796	15805.6
658.147	15686.51
658.498	15565.61
658.849	15641.09
659.2	15668.43
659.551	15697.36
659.902	15719.73
660.253	15728.99
660.604	15724.02
660.955	15766.28
661.306	15791.59
661.656	15730.8
662.007	15819.84
662.358	15717.92
662.708	15770.8
663.059	15712.04
663.409	15690.8
663.76	15778.48
664.11	15743.68
664.461	15823
664.811	15862.1
665.161	15768.77
665.511	15779.39
665.862	15766.28
666.212	15929.21
666.562	15756.34
666.912	15744.13
667.262	15658.49
667.612	15860.74
667.962	15707.52
668.312	15859.84
668.662	15804.7
669.011	15828.88
669.361	15678.6
669.711	15735.77
670.06	15726.06
670.41	15674.76
670.76	15623.23
671.109	15801.08
671.459	15740.52
671.808	15612.61
672.157	15716.79
672.507	15588.21
672.856	15630.46
673.205	15634.98
673.554	15568.32
673.904	15655.55
674.253	15643.8
674.602	15572.84
674.951	15400.64
675.3	15336.01
675.649	15512.28
675.998	15566.29
676.346	15479.28
676.695	15580.3
677.044	15416.91
677.393	15474.08
677.741	15508.43
678.09	15456.01
678.438	15411.49
678.787	15413.75
679.135	15470.02
679.484	15387.76
679.832	15354.31
680.181	15270.02
680.529	15354.31
680.877	15274.09
681.225	15200.87
681.573	15314.54
681.922	15171.27
682.27	15128.11
682.618	15124.49
682.966	15067.54
683.314	15078.84
683.661	15080.87
684.009	14926.08
684.357	15080.42
684.705	14988.22
685.053	14987.77
685.4	14970.82
685.748	14788.9
686.095	14838.17
686.443	14661.9
686.79	14693.31
687.138	14715.69
687.485	14712.97
687.832	14652.41
688.18	14651.28
688.527	14512.75
688.874	14554.56
689.221	14501.68
689.568	14439.08
689.915	14425.75
690.262	14465.75
690.609	14335.13
690.956	14300.56
691.303	14288.13
691.65	14219.2
691.997	14257.39
692.344	14148.7
692.69	14149.37
693.037	14157.06
693.383	14055.14
693.73	13990.96
694.077	13951.86
694.423	13931.07
694.769	13834.13
695.116	13869.38
695.462	13812.66
695.808	13731.31
696.155	13731.53
696.501	13651.76
696.847	13639.33
697.193	13482.5
697.539	13501.03
697.885	13488.15
698.231	13386.23
698.577	13340.13
698.923	13343.75
699.269	13251.77
699.614	13154.6
699.96	13127.93
700.306	13109.4
700.651	13087.48
700.997	12997.54
701.342	13013.58
701.688	13027.37
702.033	12942.63
702.379	12906.24
702.724	12894.72
703.069	12872.8
703.415	12718.9
703.76	12747.15
704.105	12649.98
704.45	12655.63
704.795	12616.08
705.14	12572.92
705.485	12550.77
705.83	12466.93
706.175	12514.39
706.52	12421.06
706.865	12356.43
707.209	12305.35
707.554	12369.53
707.899	12292.02
708.243	12240.72
708.588	12182.42
708.932	12080.95
709.277	12079.6
709.621	12050.45
709.966	11981.3
710.31	11910.34
710.654	11888.64
710.998	11936.55
711.342	11873.28
711.687	11886.61
712.031	11815.2
712.375	11779.49
712.719	11767.97
713.063	11787.63
713.407	11847.74
713.75	11678.48
714.094	11675.99
714.438	11598.48
714.782	11712.83
715.125	11663.34
715.469	11612.94
715.812	11580.63
716.156	11543.11
716.499	11452.72
716.843	11540.18
717.186	11489.78
717.53	11498.14
717.873	11517.58
718.216	11476.68
718.559	11441.87
718.902	11387.64
719.246	11381.08
719.589	11363.91
719.932	11308.32
720.275	11217.02
720.617	11301.31
720.96	11285.95
721.303	11327.53
721.646	11250.69
721.989	11144.71
722.331	11272.84
722.674	11171.15
723.016	11210.92
723.359	11193.07
723.701	11239.85
724.044	11062
724.386	11118.94
724.729	11124.59
725.071	11188.55
725.413	11153.97
725.755	11106.52
726.097	11062.45
726.439	10995.11
726.782	10986.07
727.124	11076.01
727.465	10936.35
727.807	11042.79
728.149	10995.11
728.491	10980.19
728.833	10958.5
729.175	10958.27
729.516	10935.45
729.858	10861.55
730.199	10964.6
730.541	10917.82
730.882	10877.14
731.224	10990.81
731.565	10944.94
731.906	10942.9
732.248	10900.42
732.589	10857.93
732.93	10857.71
733.271	10858.84
733.612	10875.11
733.953	10873.98
734.294	10855.9
734.635	10845.73
734.976	10850.7
735.317	10742.01
735.658	10899.97
735.999	10825.85
736.339	10821.1
736.68	10877.6
737.021	10819.52
737.361	10844.6
737.702	10954.66
738.042	10846.64
738.383	10913.75
738.723	10919.85
739.063	10849.35
739.404	10895.22
739.744	10955.11
740.084	10924.6
740.424	10930.48
740.764	10981.32
741.104	10909.46
741.444	10947.42
741.784	10974.32
742.124	10951.94
742.464	11002.34
742.804	11054.99
743.143	11022.9
743.483	11081.21
743.823	11073.97
744.162	11093.63
744.502	11165.72
744.841	11142.67
745.181	11258.6
745.52	11281.43
745.86	11237.13
746.199	11299.96
746.538	11388.99
746.877	11477.58
747.216	11438.26
747.556	11487.75
747.895	11551.25
748.234	11587.41
748.573	11685.26
748.911	11609.33
749.25	11843.9
749.589	11818.81
749.928	11913.5
750.267	12012.48
750.605	12028.53
750.944	12154.4
751.283	12143.32
751.621	12327.95
751.96	12302.42
752.298	12537.44
752.636	12602.52
752.975	12622.41
753.313	12778.34
753.651	12908.28
753.989	12996.64
754.327	13085.22
754.666	13188.72
755.004	13355.72
755.342	13487.92
755.679	13542.61
756.017	13679.56
756.355	13945.99
756.693	14045.87
757.031	14170.62
757.368	14234.57
757.706	14455.58
758.044	14583.49
758.381	14759.3
758.719	14790.26
759.056	14942.12
759.394	15177.14
759.731	15199.97
760.068	15377.36
760.405	15558.83
760.743	15635.21
761.08	15817.13
761.417	15960.63
761.754	16032.49
762.091	16299.83
762.428	16434.96
762.765	16563.55
763.102	16835.63
763.438	16946.14
763.775	17179.35
764.112	17209.63
764.449	17493.92
764.785	17531.88
765.122	17530.98
765.458	17707.7
765.795	18026.56
766.131	18098.2
766.467	18204.41
766.804	18250.06
767.14	18414.57
767.476	18582.03
767.812	18626.54
768.148	18922.81
768.485	18930.04
768.821	18929.59
769.157	19046.65
769.492	19217.94
769.828	19322.12
770.164	19284.83
770.5	19427.88
770.836	19513.07
771.171	19600.98
771.507	19696.8
771.842	19689.34
772.178	19874.65
772.513	19884.59
772.849	19910.8
773.184	20047.52
773.519	20118.26
773.855	20077.58
774.19	20103.12
774.525	20208.65
774.86	20302.88
775.195	20440.51
775.53	20413.62
775.865	20317.57
776.2	20337.69
776.535	20215.43
776.87	20365.03
777.205	20330
777.539	20379.49
777.874	20542.43
778.209	20466.5
778.543	20396.89
778.878	20452.71
779.212	20454.97
779.547	20420.85
779.881	20508.08
780.215	20418.36
780.55	20653.16
780.884	20447.29
781.218	20489.32
781.552	20471.69
781.886	20480.28
782.22	20515.31
782.554	20455.65
782.888	20460.62
783.222	20420.4
783.556	20322.77
783.889	20297.91
784.223	20098.82
784.557	20160.29
784.89	20298.14
785.224	20086.84
785.557	20120.52
785.891	20045.72
786.224	20089.1
786.558	20139.72
786.891	19955.1
787.224	19958.49
787.557	19913.06
787.891	19979.05
788.224	19978.82
788.557	19791.03
788.89	19870.81
789.223	19963.23
789.556	19676.91
789.888	19665.16
790.221	19690.02
790.554	19600.76
790.887	19593.98
791.219	19594.88
791.552	19478.05
791.884	19504.26
792.217	19509.23
792.549	19426.07
792.882	19288
793.214	19206.87
793.546	19255.91
793.879	19196.02
794.211	19187.43
794.543	19246.87
794.875	19129.58
795.207	19129.36
795.539	19084.16
795.871	19127.1
796.203	18885.52
796.535	18937.5
796.867	18819.08
797.198	18874.45
797.53	18878.29
797.862	18674.9
798.193	18678.97
798.525	18631.52
798.856	18682.14
799.188	18480.56
799.519	18397.85
799.85	18338.42
800.182	18288.47
800.513	18399.43
800.844	18295.71
801.175	18328.25
801.506	18353.33
801.837	18161.7
802.168	18161.7
802.499	18042.15
802.83	18024.3
803.161	17928.71
803.491	18000.57
803.822	17934.13
804.153	17836.51
804.483	17794.02
804.814	17743.63
805.145	17660.92
805.475	17631.32
805.805	17650.98
806.136	17628.83
806.466	17524.88
806.796	17615.72
807.126	17426.58
807.457	17446.24
807.787	17462.73
808.117	17387.71
808.447	17295.28
808.777	17370.76
809.107	17165.79
809.436	17200.59
809.766	17121.05
810.096	17095.06
810.426	17106.13
810.755	17110.88
811.085	17014.38
811.414	16966.7
811.744	16883.99
812.073	16851.22
812.403	16913.14
812.732	16806.7
813.061	16781.39
813.39	16689.19
813.719	16624.79
814.049	16737.1
814.378	16644.22
814.707	16580.72
815.036	16583.21
815.365	16416.21
815.693	16453.27
816.022	16446.71
816.351	16380.5
816.68	16282.2
817.008	16366.72
817.337	16175.08
817.665	16247.17
817.994	16097.35
818.322	16235.65
818.651	16061.19
818.979	16128.3
819.307	16248.53
819.636	16032.71
819.964	15972.38
820.292	16036.33
820.62	16100.06
820.948	15968.53
821.276	16022.54
821.604	15940.06
821.932	16010.12
822.259	15922.89
822.587	15979.83
822.915	15969.66
823.243	16036.56
823.57	15879.72
823.898	15944.13
824.225	15815.09
824.553	15893.06
824.88	15849.67
825.207	15918.14
825.535	15885.15
825.862	15926.95
826.189	15836.11
826.516	16015.54
826.843	16037.46
827.17	15989.1
827.497	15934.19
827.824	16046.95
828.151	15974.86
828.478	15893.96
828.805	15983.22
829.131	15962.43
829.458	15931.02
829.785	15919.04
830.111	15852.38
830.438	16026.39
830.764	15945.48
831.09	15946.84
831.417	15913.62
831.743	15918.82
832.069	15899.61
832.395	15806.96
832.722	15881.76
833.048	15905.94
833.374	15912.49
833.7	15831.14
834.026	15830.69
834.351	15888.99
834.677	15768.99
835.003	15789.78
835.329	15724.02
835.654	15776.68
835.98	15684.02
836.306	15625.49
836.631	15639.73
836.956	15769.9
837.282	15672.5
837.607	15627.53
837.932	15611.48
838.258	15538.94
838.583	15587.53
838.908	15500.98
839.233	15488.1
839.558	15450.36
839.883	15342.79
840.208	15365.84
840.533	15370.58
840.858	15323.81
841.182	15380.08
841.507	15309.8
841.832	15299.63
842.156	15109.35
842.481	15242
842.805	15130.82
843.13	15175.56
843.454	15047.2
843.778	15079.74
844.103	14962.69
844.427	14975.34
844.751	14999.29
845.075	14905.51
845.399	14895.57
845.723	14808.79
846.047	14816.02
846.371	14743.71
846.695	14735.57
847.019	14586.65
847.343	14577.39
847.666	14411.51
847.99	14403.15
848.313	14432.3
848.637	14305.75
848.96	14286.32
849.284	14141.92
849.607	14214.68
849.931	14062.14
850.254	14043.16
850.577	13976.5
850.9	13855.37
851.223	13900.11
851.546	13745.54
851.869	13776.28
852.192	13743.51
852.515	13640.01
852.838	13541.03
853.161	13634.81
853.483	13515.04
853.806	13430.07
854.129	13474.14
854.451	13327.02
854.774	13353.69
855.096	13252
855.419	13274.59
855.741	13204.99
856.063	13131.1
856.385	13064.66
856.708	13137.87
857.03	13046.35
857.352	13074.6
857.674	12950.54
857.996	12876.64
858.318	12859.01
858.64	12858.79
858.961	12885.45
859.283	12728.85
859.605	12659.24
859.926	12779.47
860.248	12661.05
860.57	12666.47
860.891	12796.19
861.212	12611.34
861.534	12573.14
861.855	12486.37
862.176	12589.64
862.498	12482.3
862.819	12486.37
863.14	12528.63
863.461	12305.81
863.782	12381.28
864.103	12365.01
864.424	12330.89
864.745	12389.87
865.065	12177.45
865.386	12207.96
865.707	12218.35
866.027	12163.44
866.348	12161.4
866.668	12155.75
866.989	12129.99
867.309	12074.17
867.63	12099.03
867.95	12092.25
868.27	11942.2
868.59	12003.89
868.91	12023.33
869.23	11947.17
869.55	11926.38
869.87	11942.2
870.19	11937.23
870.51	11933.84
870.83	11960.05
871.15	11816.1
871.469	11915.31
871.789	11893.39
872.109	11886.61
872.428	11741.98
872.748	11869.21
873.067	11804.8
873.386	11785.82
873.706	11662.66
874.025	11601.42
874.344	11687.29
874.663	11675.31
874.982	11669.89
875.301	11654.75
875.62	11559.61
875.939	11581.31
876.258	11656.56
876.577	11516.67
876.896	11528.43
877.214	11534.53
877.533	11529.78
877.852	11462.44
878.17	11449.56
878.489	11466.28
878.807	11431.71
879.125	11438.71
879.444	11432.16
879.762	11424.02
880.08	11426.51
880.398	11272.84
880.716	11369.11
881.034	11289.56
881.352	11309.9
881.67	11145.38
881.988	11258.15
882.306	11178.38
882.624	11123.69
882.941	11127.76
883.259	11058.16
883.577	11158.04
883.894	11053.64
884.212	11098.83
884.529	11058.16
884.846	11009.8
885.164	11001.21
885.481	10934.99
885.798	10957.37
886.115	10823.59
886.432	10801.67
886.75	10844.83
887.067	10796.92
887.383	10776.36
887.7	10807.99
888.017	10837.6
888.334	10735.45
888.651	10670.37
888.967	10657.49
889.284	10648.67
889.6	10567.32
889.917	10537.72
890.233	10564.16
890.55	10498.62
890.866	10499.98
891.182	10409.13
891.498	10427.66
891.815	10393.31
892.131	10306.54
892.447	10284.62
892.763	10217.95
893.079	10181.79
893.395	10183.15
893.71	10218.86
894.026	10202.13
894.342	10188.57
894.657	10067.67
894.973	10024.51
895.289	10023.83
895.604	10036.49
895.92	9909.03
896.235	9862.25
896.55	9928.69
896.865	9844.63
897.181	9836.49
897.496	9828.81
897.811	9711.07
898.126	9744.29
898.441	9648.48
898.756	9649.38
899.071	9595.6
899.386	9528.93
899.7	9478.54
900.015	9487.12
900.33	9401.93
900.644	9397.18
900.959	9464.07
901.273	9364.19
901.588	9349.5
901.902	9259.33
902.216	9321.93
902.531	9297.3
902.845	9222.05
903.159	9174.59
903.473	9080.13
903.787	9107.25
904.101	9046.46
904.415	8997.19
904.729	8947.25
905.042	8949.28
905.356	8939.79
905.67	8921.94
905.984	8849.4
906.297	8881.72
906.611	8817.31
906.924	8806.46
907.237	8687.6
907.551	8703.42
907.864	8655.05
908.177	8659.8
908.491	8598.33
908.804	8544.78
909.117	8495.74
909.43	8489.41
909.743	8408.51
910.056	8375.74
910.368	8354.72
910.681	8383.42
910.994	8304.56
911.307	8260.71
911.619	8232.02
911.932	8256.42
912.244	8209.42
912.557	8142.53
912.869	8079.25
913.181	8045.13
913.494	8038.35
913.806	7962.64
914.118	8010.33
914.43	7878.58
914.742	7965.81
915.054	7848.97
915.366	7852.59
915.678	7841.07
915.99	7740.28
916.302	7693.72
916.613	7663.67
916.925	7695.76
917.236	7743.89
917.548	7590.9
917.859	7629.32
918.171	7558.59
918.482	7550.45
918.794	7463.45
919.105	7434.97
919.416	7393.17
919.727	7448.76
920.038	7389.33
920.349	7396.56
920.66	7294.64
920.971	7257.58
921.282	7265.03
921.593	7229.1
921.903	7134.19
922.214	7144.81
922.525	7134.64
922.835	7120.86
923.146	7030.01
923.456	7025.04
923.767	7018.71
924.077	7001.77
924.387	6987.3
924.697	6909.56
925.008	6929.9
925.318	6865.95
925.628	6837.25
925.938	6807.19
926.248	6744.6
926.558	6702.79
926.867	6723.35
927.177	6685.62
927.487	6629.8
927.796	6529.24
928.106	6586.86
928.416	6592.28
928.725	6546.18
929.034	6536.69
929.344	6524.04
929.653	6464.15
929.962	6411.95
930.271	6397.26
930.581	6418.28
930.89	6366.53
931.199	6315
931.508	6309.58
931.817	6295.34
932.125	6208.79
932.434	6277.26
932.743	6225.06
933.051	6178.96
933.36	6140.54
933.669	6083.6
933.977	6070.49
934.286	6130.6
934.594	6072.3
934.902	6051.96
935.21	6022.81
935.519	6010.83
935.827	5979.42
936.135	5903.49
936.443	5857.16
936.751	5866.43
937.059	5879.76
937.367	5832.76
937.674	5848.58
937.982	5865.07
938.29	5769.48
938.597	5755.47
938.905	5681.12
939.213	5688.58
939.52	5662.37
939.827	5713.66
940.135	5550.73
940.442	5624.63
940.749	5572.2
941.056	5568.13
941.363	5518.87
941.67	5489.94
941.977	5447.23
942.284	5451.98
942.591	5413.33
942.898	5315.93
943.205	5405.87
943.511	5303.28
943.818	5331.98
944.125	5264.41
944.431	5278.19
944.738	5211.3
945.044	5229.61
945.35	5218.31
945.657	5153.23
945.963	5165.43
946.269	5112.55
946.575	5114.81
946.881	5085.43
947.187	5108.71
947.493	5075.04
947.799	5012.44
948.105	4986.45
948.41	5010.4
948.716	4988.94
949.022	4952.55
949.327	4924.76
949.633	4904.87
949.938	4881.59
950.244	4917.07
950.549	4797.3
950.854	4814.7
951.16	4843.4
951.465	4792.56
951.77	4748.72
952.075	4756.17
952.38	4735.84
952.685	4711.66
952.99	4687.7
953.294	4659.23
953.599	4636.63
953.904	4598.44
954.209	4622.17
954.513	4531.1
954.818	4555.5
955.122	4519.57
955.426	4485.67
955.731	4503.75
956.035	4474.6
956.339	4456.75
956.643	4443.64
956.948	4414.26
957.252	4371.33
957.556	4361.38
957.86	4364.09
958.163	4347.6
958.467	4303.08
958.771	4339.24
959.075	4337.2
959.378	4266.02
959.682	4243.19
959.985	4219.69
960.289	4212.69
960.592	4181.73
960.896	4221.73
961.199	4150.09
961.502	4178.79
961.805	4143.54
962.108	4061.05
962.411	4103.99
962.714	4059.24
963.017	4059.02
963.32	4085.23
963.623	4043.88
963.926	3998.91
964.228	3998.45
964.531	4016.98
964.833	3962.07
965.136	3950.09
965.438	3862.86
965.741	3858.34
966.043	3873.26
966.345	3820.61
966.648	3861.06
966.95	3784.67
967.252	3798.69
967.554	3822.87
967.856	3768.63
968.158	3728.86
968.46	3788.74
968.761	3705.58
969.063	3729.76
969.365	3724.34
969.666	3663.77
969.968	3661.51
970.269	3652.25
970.571	3647.28
970.872	3625.13
971.174	3595.53
971.475	3619.93
971.776	3588.52
972.077	3591.69
972.378	3549.43
972.679	3528.41
972.98	3498.35
973.281	3467.85
973.582	3489.54
973.883	3491.12
974.183	3456.77
974.484	3483.44
974.785	3446.83
975.085	3454.06
975.386	3420.16
975.686	3390.56
975.986	3390.79
976.287	3385.36
976.587	3357.57
976.887	3351.01
977.187	3301.75
977.487	3325.7
977.787	3287.74
978.087	3281.41
978.387	3226.5
978.687	3230.79
978.987	3223.79
979.286	3176.33
979.586	3191.47
979.885	3184.24
980.185	3193.05
980.484	3142.43
980.784	3140.85
981.083	3101.98
981.382	3107.63
981.682	3103.11
981.981	3084.13
982.28	3061.76
982.579	3052.04
982.878	3065.6
983.177	3019.04
983.475	2981.08
983.774	2987.41
984.073	2976.33
984.372	2940.4
984.67	2957.13
984.969	2921.65
985.267	2925.94
985.566	2915.77
985.864	2895.21
986.162	2895.66
986.461	2885.94
986.759	2864.02
987.057	2840.74
987.355	2821.99
987.653	2779.28
987.951	2821.54
988.249	2812.72
988.547	2791.93
988.844	2778.37
989.142	2779.96
989.44	2725.72
989.737	2722.33
990.035	2705.83
990.332	2718.94
990.63	2690.69
990.927	2667.42
991.224	2650.69
991.521	2623.12
991.819	2643.46
992.116	2662.22
992.413	2630.58
992.71	2587.42
993.006	2568.89
993.303	2611.37
993.6	2543.35
993.897	2539.74
994.193	2530.7
994.49	2524.37
994.787	2515.78
995.083	2523.24
995.379	2500.41
995.676	2471.49
995.972	2434.88
996.268	2458.61
996.565	2445.95
996.861	2405.73
997.157	2419.74
997.453	2407.54
997.749	2400.3
998.044	2392.39
998.34	2384.03
998.636	2351.27
998.932	2316.46
999.227	2329.35
999.523	2334.09
999.818	2295.67
1000.114	2303.81
1000.409	2305.62
1000.704	2271.72
1001	2231.72
1001.295	2230.37
1001.59	2222.91
1001.885	2225.85
1002.18	2204.6
1002.475	2199.41
1002.77	2190.37
1003.065	2171.38
1003.359	2148.79
1003.654	2156.69
1003.949	2141.33
1004.243	2109.24
1004.538	2098.62
1004.832	2136.36
1005.127	2096.36
1005.421	2064.95
1005.715	2044.61
1006.009	2057.26
1006.304	2028.79
1006.598	2042.12
1006.892	2018.85
1007.186	2004.38
1007.48	2041.22
1007.773	1991.95
1008.067	1972.74
1008.361	1958.73
1008.655	1960.09
1008.948	1928.9
1009.242	1937.72
1009.535	1907.44
1009.829	1904.5
1010.122	1893.42
1010.415	1883.93
1010.708	1879.87
1011.001	1853.2
1011.295	1886.87
1011.588	1860.88
1011.881	1842.35
1012.173	1833.54
1012.466	1818.85
1012.759	1809.59
1013.052	1801.68
1013.344	1786.08
1013.637	1767.1
1013.93	1740.43
1014.222	1761.45
1014.514	1710.15
1014.807	1718.06
1015.099	1723.94
1015.391	1716.03
1015.683	1700.89
1015.976	1715.35
1016.268	1712.86
1016.56	1677.61
1016.851	1664.5
1017.143	1626.31
1017.435	1622.47
1017.727	1621.79
1018.018	1624.73
1018.31	1598.52
1018.602	1589.03
1018.893	1589.48
1019.185	1602.81
1019.476	1555.35
1019.767	1519.65
1020.058	1556.94
1020.35	1544.06
1020.641	1514.23
1020.932	1532.98
1021.223	1471.74
1021.514	1508.58
1021.804	1454.79
1022.095	1452.08
1022.386	1434
1022.677	1466.54
1022.967	1430.61
1023.258	1438.75
1023.548	1435.58
1023.839	1427.22
1024.129	1419.76
1024.419	1408.92
1024.709	1381.57
1025	1392.65
1025.29	1357.62
1025.58	1360.11
1025.87	1370.5
1026.16	1332.08
1026.449	1360.56
1026.739	1330.95
1027.029	1363.5
1027.319	1317.39
1027.608	1301.58
1027.898	1282.37
1028.187	1305.19
1028.477	1267.9
1028.766	1277.17
1029.055	1278.53
1029.344	1243.5
1029.634	1266.55
1029.923	1235.81
1030.212	1243.5
1030.501	1196.72
1030.79	1200.34
1031.078	1210.28
1031.367	1222.93
1031.656	1196.49
1031.945	1189.71
1032.233	1214.8
1032.522	1178.87
1032.81	1175.48
1033.099	1148.59
1033.387	1158.98
1033.675	1116.04
1033.963	1123.5
1034.251	1123.28
1034.54	1127.57
1034.828	1101.58
1035.116	1094.8
1035.403	1109.04
1035.691	1085.08
1035.979	1100.68
1036.267	1081.69
1036.554	1062.49
1036.842	1070.85
1037.129	1046.89
1037.417	1028.36
1037.704	1033.11
1037.992	1037.85
1038.279	1005.76
1038.566	1023.17
1038.853	1023.17
1039.14	1023.17
