Data from hue_270_FLMS001491_00025.txt Node
Date: Tue Feb 07 15:56:58 GMT 2017
User: dcchb
Spectrometer: FLMS00149
Trigger mode: 0
Integration Time (sec): 2.000000E-2
Scans to average: 10
Electric dark correction enabled: true
Nonlinearity correction enabled: false
Boxcar width: 0
XAxis mode: Wavelengths
Number of Pixels in Spectrum: 2048
>>>>>Begin Spectral Data<<<<<
341.393	-14.62
341.776	-14.62
342.16	-14.62
342.543	-73.15
342.927	-65.24
343.31	-61.62
343.693	-71.34
344.077	-75.63
344.46	-55.52
344.843	-67.05
345.226	-41.06
345.61	-14.39
345.993	-9.87
346.376	-3.32
346.759	15.44
347.142	30.58
347.525	24.7
347.908	56.57
348.291	63.8
348.674	103.57
349.057	105.15
349.44	125.94
349.823	126.62
350.206	182.89
350.588	189.22
350.971	208.2
351.354	197.35
351.737	219.27
352.119	245.04
352.502	252.72
352.884	286.39
353.267	261.08
353.65	271.93
354.032	287.52
354.414	324.81
354.797	304.02
355.179	321.87
355.562	289.1
355.944	324.58
356.326	324.58
356.709	323
357.091	340.17
357.473	334.3
357.855	333.85
358.238	348.08
358.62	339.04
359.002	359.84
359.384	330.68
359.766	336.33
360.148	355.54
360.53	324.81
360.912	322.55
361.294	331.14
361.676	341.08
362.057	317.12
362.439	342.43
362.821	322.32
363.203	339.04
363.584	330.91
363.966	320.97
364.348	308.54
364.729	307.41
365.111	320.06
365.493	337.46
365.874	329.33
366.256	298.37
366.637	299.5
367.019	312.15
367.4	326.62
367.781	288.65
368.163	322.32
368.544	318.03
368.925	287.97
369.306	322.1
369.688	320.97
370.069	311.93
370.45	334.98
370.831	309.67
371.212	299.5
371.593	308.99
371.974	323.9
372.355	300.18
372.736	313.96
373.117	316.9
373.498	311.47
373.879	327.29
374.26	318.48
374.641	313.28
375.021	334.98
375.402	320.97
375.783	312.6
376.163	330.01
376.544	335.2
376.925	320.51
377.305	327.52
377.686	328.42
378.066	308.09
378.447	324.13
378.827	309.89
379.208	351.7
379.588	332.04
379.968	351.93
380.349	341.53
380.729	325.26
381.109	338.14
381.489	324.81
381.87	338.14
382.25	338.37
382.63	334.75
383.01	355.32
383.39	337.24
383.77	344.69
384.15	363.68
384.53	342.66
384.91	350.12
385.29	351.47
385.67	342.43
386.049	365.71
386.429	352.83
386.809	376.78
387.189	353.06
387.568	367.74
387.948	364.58
388.328	374.75
388.707	348.76
389.087	356.67
389.466	367.29
389.846	363.9
390.225	352.83
390.605	381.3
390.984	390.57
391.363	360.74
391.743	379.5
392.122	380.63
392.501	375.43
392.881	385.6
393.26	385.6
393.639	398.7
394.018	392.15
394.397	381.3
394.776	381.98
395.155	385.6
395.534	423.11
395.913	392.83
396.292	398.25
396.671	408.65
397.05	393.28
397.429	425.14
397.808	421.08
398.186	414.3
398.565	424.24
398.944	420.4
399.323	415.88
399.701	445.93
400.08	433.05
400.458	409.1
400.837	417.91
401.215	431.92
401.594	437.12
401.972	440.51
402.351	412.94
402.729	432.38
403.107	443.9
403.486	439.16
403.864	449.55
404.242	439.83
404.62	455.2
404.999	448.42
405.377	474.18
405.755	443.22
406.133	465.37
406.511	459.49
406.889	499.94
407.267	487.06
407.645	482.54
408.023	493.16
408.401	492.71
408.779	482.77
409.156	513.96
409.534	524.12
409.912	516.67
410.29	527.06
410.667	526.61
411.045	522.32
411.422	560.28
411.8	558.25
412.178	557.8
412.555	572.26
412.933	555.31
413.31	567.06
413.687	568.64
414.065	589.66
414.442	577
414.819	617.68
415.197	607.74
415.574	630.56
415.951	642.31
416.328	625.59
416.705	644.8
417.082	630.79
417.46	645.93
417.837	649.77
418.214	661.75
418.591	661.75
418.967	675.08
419.344	681.86
419.721	677.79
420.098	730.45
420.475	712.14
420.852	695.42
421.228	725.25
421.605	736.1
421.982	752.14
422.358	762.99
422.735	753.05
423.111	760.5
423.488	759.82
423.864	783.1
424.241	816.55
424.617	812.03
424.994	811.12
425.37	838.69
425.746	819.94
426.123	863.78
426.499	861.74
426.875	879.14
427.251	896.77
427.627	891.12
428.003	887.05
428.379	910.1
428.756	941.51
429.132	935.64
429.507	950.33
429.883	951.91
430.259	972.47
430.635	992.81
431.011	990.1
431.387	1005.02
431.763	1024.68
432.138	1040.72
432.514	1041.85
432.89	1062.42
433.265	1078.46
433.641	1103.77
434.016	1098.57
434.392	1136.54
434.767	1157.1
435.143	1146.71
435.518	1180.6
435.894	1191.45
436.269	1198.91
436.644	1190.77
437.02	1220.6
437.395	1252.69
437.77	1258.34
438.145	1276.87
438.52	1306.48
438.895	1299.02
439.271	1329.53
439.646	1356.87
440.021	1359.36
440.395	1385.34
440.77	1362.52
441.145	1421.28
441.52	1407.72
441.895	1421.5
442.27	1463.99
442.645	1449.75
443.019	1457.21
443.394	1454.72
443.769	1506.25
444.143	1476.19
444.518	1499.47
444.892	1505.34
445.267	1515.74
445.641	1533.14
446.016	1536.53
446.39	1551.44
446.764	1586.47
447.139	1562.06
447.513	1597.54
447.887	1579.01
448.262	1600.25
448.636	1582.18
449.01	1621.5
449.384	1614.49
449.758	1648.61
450.132	1650.42
450.506	1671.21
450.88	1663.3
451.254	1679.12
451.628	1714.6
452.002	1706.69
452.376	1735.62
452.75	1750.99
453.123	1740.59
453.497	1800.48
453.871	1781.49
454.244	1817.42
454.618	1842.28
454.992	1862.17
455.365	1851.55
455.739	1849.06
456.112	1917.99
456.486	1926.57
456.859	1924.54
457.232	1942.62
457.606	1924.31
457.979	1977.87
458.352	2010.87
458.725	2018.32
459.099	2032.33
459.472	2077.08
459.845	2126.12
460.218	2125.66
460.591	2143.29
460.964	2123.18
461.337	2175.83
461.71	2214.48
462.083	2251.54
462.456	2219.67
462.829	2227.58
463.201	2257.86
463.574	2289.05
463.947	2288.82
464.32	2352.78
464.692	2342.61
465.065	2360.23
465.438	2411.53
465.81	2430.29
466.183	2479.1
466.555	2490.4
466.928	2504.41
467.3	2494.69
467.672	2507.35
468.045	2600.45
468.417	2634.35
468.789	2612.21
469.161	2649.72
469.534	2656.72
469.906	2735.14
470.278	2722.26
470.65	2763.39
471.022	2814.46
471.394	2811.75
471.766	2873.89
472.138	2889.71
472.51	2938.3
472.882	2985.98
473.253	2978.98
473.625	3051.74
473.997	3151.63
474.369	3138.07
474.74	3158.63
475.112	3185.52
475.484	3219.2
475.855	3254.9
476.227	3295.58
476.598	3375.8
476.97	3372.64
477.341	3421.45
477.713	3450.6
478.084	3491.5
478.455	3576.7
478.827	3609.47
479.198	3700.99
479.569	3655.57
479.94	3767.88
480.311	3810.82
480.682	3877.03
481.053	3917.26
481.424	3988.89
481.795	3969.68
482.166	4023.24
482.537	4105.73
482.908	4162.9
483.279	4180.3
483.65	4227.98
484.021	4299.62
484.391	4372.61
484.762	4383.46
485.133	4388.43
485.503	4476.11
485.874	4539.39
486.244	4574.41
486.615	4623.45
486.985	4660.06
487.356	4759.04
487.726	4808.76
488.097	4858.93
488.467	4855.08
488.837	4946.38
489.207	4941.64
489.578	5046.27
489.948	5077.9
490.318	5169.43
490.688	5162.19
491.058	5211.01
491.428	5263.89
491.798	5340.72
492.168	5379.59
492.538	5385.01
492.908	5470.66
493.278	5576.65
493.648	5501.39
494.017	5577.33
494.387	5643.09
494.757	5650.09
495.126	5688.51
495.496	5640.37
495.866	5780.26
496.235	5798.79
496.605	5827.49
496.974	5904.32
497.344	5869.75
497.713	5917.66
498.082	5917.2
498.452	6033.81
498.821	6013.7
499.19	6014.15
499.559	6060.48
499.928	6098.44
500.298	6155.39
500.667	6149.06
501.036	6208.49
501.405	6220.02
501.774	6181.38
502.143	6248.95
502.512	6244.43
502.88	6299.57
503.249	6311.77
503.618	6369.17
503.987	6322.62
504.356	6423.86
504.724	6366
505.093	6386.12
505.462	6424.31
505.83	6414.59
506.199	6514.02
506.567	6492.1
506.936	6560.12
507.304	6609.84
507.672	6601.48
508.041	6619.33
508.409	6671.76
508.777	6720.8
509.145	6747.69
509.514	6765.54
509.882	6732.32
510.25	6756.28
510.618	6815.71
510.986	6816.39
511.354	6851.42
511.722	6879.44
512.09	6883.51
512.458	6877.63
512.826	6956.72
513.193	6969.15
513.561	6999.66
513.929	7064.07
514.297	7028.59
514.664	7065.65
515.032	7001.02
515.4	7073.33
515.767	7112.2
516.135	7154.68
516.502	7029.04
516.869	7164.18
517.237	7161.46
517.604	7127.34
517.972	7224.06
518.339	7284.85
518.706	7265.42
519.073	7268.58
519.44	7202.82
519.808	7292.53
520.175	7257.51
520.542	7421.34
520.909	7375.24
521.276	7335.24
521.643	7409.14
522.009	7479.42
522.376	7516.94
522.743	7446.65
523.11	7524.62
523.477	7554.22
523.843	7613.88
524.21	7621.11
524.577	7673.09
524.943	7700.66
525.31	7728.23
525.676	7773.65
526.043	7745.63
526.409	7785.18
526.776	7871.73
527.142	7843.71
527.508	7880.32
527.874	7887.32
528.241	7949.47
528.607	7965.28
528.973	8003.48
529.339	7968.67
529.705	8036.47
530.071	8059.29
530.437	8003.02
530.803	8080.31
531.169	8219.52
531.535	8155.56
531.901	8128.22
532.267	8179.06
532.632	8207.76
532.998	8250.7
533.364	8219.97
533.73	8266.75
534.095	8303.81
534.461	8294.54
534.826	8293.64
535.192	8276.01
535.557	8334.09
535.923	8358.04
536.288	8307.65
536.653	8356.91
537.019	8374.09
537.384	8316.01
537.749	8350.36
538.114	8362.56
538.479	8392.17
538.845	8480.3
539.21	8397.82
539.575	8438.49
539.94	8469.45
540.305	8462.45
540.67	8450.24
541.034	8466.29
541.399	8481.43
541.764	8498.6
542.129	8499.51
542.494	8476.68
542.858	8591.71
543.223	8551.48
543.587	8608.43
543.952	8574.99
544.316	8641.2
544.681	8618.83
545.045	8630.58
545.41	8629.67
545.774	8660.41
546.138	8639.17
546.503	8665.38
546.867	8646.85
547.231	8671.93
547.595	8699.28
547.959	8666.06
548.324	8734.3
548.688	8711.71
549.052	8724.36
549.416	8746.06
549.779	8767.3
550.143	8797.81
550.507	8800.97
550.871	8814.3
551.235	8744.25
551.599	8859.27
551.962	8912.83
552.326	8818.6
552.689	8899.27
553.053	8835.09
553.417	8858.37
553.78	8975.2
554.143	8894.3
554.507	8978.82
554.87	9000.96
555.234	8971.36
555.597	8992.38
555.96	9031.02
556.323	9047.52
556.686	9112.37
557.05	9061.53
557.413	9038.93
557.776	9086.84
558.139	9206.83
558.502	9171.58
558.865	9223.78
559.228	9178.36
559.59	9298.81
559.953	9280.73
560.316	9347.85
560.679	9310.33
561.041	9364.34
561.404	9384.23
561.767	9482.31
562.129	9437.56
562.492	9486.15
562.854	9545.13
563.217	9480.27
563.579	9515.75
563.941	9574.28
564.304	9640.27
564.666	9710.78
565.028	9645.69
565.39	9730.89
565.753	9764.56
566.115	9770.89
566.477	9815.18
566.839	9843.88
567.201	9916.65
567.563	9861.28
567.925	9979.47
568.287	9941.05
568.648	9989.19
569.01	10040.94
569.372	10052.46
569.734	10063.76
570.095	10113.25
570.457	10174.04
570.819	10240.25
571.18	10204.32
571.542	10296.52
571.903	10272.12
572.265	10346.01
572.626	10396.86
572.987	10386.69
573.349	10350.31
573.71	10474.82
574.071	10378.1
574.432	10466.46
574.794	10600.24
575.155	10568.61
575.516	10592.33
575.877	10628.49
576.238	10654.71
576.599	10678.21
576.96	10723.4
577.32	10725.89
577.681	10790.75
578.042	10785.78
578.403	10844.98
578.763	10854.25
579.124	10902.61
579.485	10929.05
579.845	10926.56
580.206	10933.79
580.566	11020.8
580.927	11073.9
581.287	11104.64
581.648	11044.53
582.008	11125.2
582.368	11136.05
582.728	11216.27
583.089	11227.57
583.449	11211.75
583.809	11210.85
584.169	11315.71
584.529	11348.02
584.889	11384.63
585.249	11336.95
585.609	11319.1
585.969	11457.4
586.329	11460.33
586.688	11426.44
587.048	11470.73
587.408	11522.93
587.768	11468.7
588.127	11537.85
588.487	11449.26
588.846	11629.14
589.206	11541.01
589.565	11604.51
589.925	11700.78
590.284	11620.33
590.643	11717.73
591.003	11819.19
591.362	11773.09
591.721	11771.06
592.08	11837.95
592.44	11793.88
592.799	11798.4
593.158	11807.22
593.517	11871.4
593.876	11918.4
594.235	11913.43
594.593	11940.32
594.952	11945.75
595.311	11929.93
595.67	11992.3
596.029	11990.94
596.387	12072.97
596.746	12006.53
597.104	12119.53
597.463	12065.06
597.822	12177.6
598.18	12039.75
598.538	12108.45
598.897	12237.94
599.255	12117.27
599.613	12323.36
599.972	12130.15
600.33	12206.3
600.688	12281.1
601.046	12251.05
601.404	12311.39
601.762	12167.66
602.12	12359.97
602.478	12322.23
602.836	12365.62
603.194	12304.15
603.552	12338.28
603.91	12277.71
604.268	12409.91
604.625	12399.07
604.983	12383.25
605.341	12339.41
605.698	12399.52
606.056	12410.82
606.413	12451.72
606.771	12466.86
607.128	12487.65
607.485	12438.39
607.843	12364.27
608.2	12502.34
608.557	12502.11
608.914	12477.71
609.272	12546.86
609.629	12442.23
609.986	12581.43
610.343	12529.46
610.7	12604.03
611.057	12634.54
611.414	12572.62
611.771	12669.34
612.127	12646.52
612.484	12693.75
612.841	12713.18
613.198	12735.1
613.554	12655.56
613.911	12762.67
614.267	12759.28
614.624	12732.39
614.98	12768.55
615.337	12808.1
615.693	12835.89
616.05	12827.98
616.406	12888.32
616.762	12806.51
617.118	12801.77
617.475	12790.47
617.831	12893.97
618.187	12848.77
618.543	12919.96
618.899	12991.14
619.255	12911.6
619.611	12884.03
619.967	12973.06
620.323	12987.75
620.678	12884.7
621.034	12875.66
621.39	12926.96
621.746	12920.18
622.101	13014.19
622.457	12902.78
622.812	12912.27
623.168	12897.36
623.523	12926.28
623.879	13052.61
624.234	12897.58
624.589	12963.8
624.945	13027.07
625.3	12979.84
625.655	12926.51
626.01	12947.98
626.365	12997.47
626.72	12989.56
627.075	12914.53
627.43	13011.93
627.785	12981.88
628.14	12927.87
628.495	12961.31
628.85	12957.7
629.205	12865.04
629.559	12944.14
629.914	12862.78
630.269	12927.87
630.623	12894.42
630.978	12829.34
631.332	12868.43
631.687	12812.62
632.041	12828.89
632.396	12825.5
632.75	12757.93
633.104	12807.42
633.459	12773.75
633.813	12785.72
634.167	12682.22
634.521	12793.18
634.875	12807.87
635.229	12651.49
635.583	12614.43
635.937	12743.46
636.291	12621.66
636.645	12691.49
636.999	12638.38
637.352	12639.74
637.706	12582.79
638.06	12647.42
638.413	12516.35
638.767	12521.78
639.121	12575.33
639.474	12462.12
639.828	12565.16
640.181	12513.64
640.534	12539.85
640.888	12497.14
641.241	12481.32
641.594	12433.87
641.947	12523.58
642.301	12433.19
642.654	12489.69
643.007	12431.38
643.36	12397.71
643.713	12328.11
644.066	12406.98
644.419	12364.72
644.771	12320.88
645.124	12189.58
645.477	12243.14
645.83	12122.24
646.182	12006.08
646.535	12092.41
646.888	12025.29
647.24	11977.16
647.593	12051.28
647.945	11965.18
648.298	11944.16
648.65	11912.75
649.002	11895.13
649.355	11914.56
649.707	11931.73
650.059	11985.52
650.411	12093.54
650.763	12165.63
651.115	12243.59
651.467	12206.98
651.819	12247.88
652.171	12204.04
652.523	12145.29
652.875	12186.42
653.227	12195.91
653.578	12207.43
653.93	12168.79
654.282	12155.91
654.633	12108.9
654.985	12133.99
655.337	12128.57
655.688	12169.24
656.039	12211.27
656.391	12145.06
656.742	12145.74
657.094	12166.76
657.445	12162.46
657.796	12065.74
658.147	12141.22
658.498	12169.47
658.849	12131.28
659.2	12197.26
659.551	12118.17
659.902	12245.85
660.253	12167.21
660.604	12147.1
660.955	12155.23
661.306	12182.58
661.656	12201.78
662.007	12208.79
662.358	12200.88
662.708	12214.89
663.059	12136.02
663.409	12120.66
663.76	12204.04
664.11	12198.85
664.461	12170.15
664.811	12154.55
665.161	12101.67
665.511	12141.22
665.862	12166.76
666.212	12240.43
666.562	12275
666.912	12184.16
667.262	12146.87
667.612	12206.08
667.962	12152.29
668.312	12102.8
668.662	12235.46
669.011	12187.77
669.361	12176.93
669.711	12151.84
670.06	12100.32
670.41	12131.73
670.76	12132.18
671.109	12192.97
671.459	12133.08
671.808	12155.23
672.157	12117.04
672.507	12103.48
672.856	12045.86
673.205	12066.65
673.554	12090.6
673.904	12090.15
674.253	12051.73
674.602	12030.26
674.951	11867.33
675.3	11715.24
675.649	12019.42
675.998	11948.91
676.346	11934.22
676.695	11992.3
677.044	11905.29
677.393	11978.51
677.741	11924.5
678.09	11903.03
678.438	11856.26
678.787	11896.25
679.135	11847.44
679.484	11903.03
679.832	11854.67
680.181	11749.14
680.529	11904.84
680.877	11798.86
681.225	11671.4
681.573	11857.39
681.922	11735.36
682.27	11641.12
682.618	11705.53
682.966	11651.06
683.314	11716.37
683.661	11634.34
684.009	11536.72
684.357	11579.43
684.705	11569.26
685.053	11578.52
685.4	11572.2
685.748	11447.91
686.095	11488.36
686.443	11416.49
686.79	11436.15
687.138	11406.55
687.485	11364.74
687.832	11279.55
688.18	11393.67
688.527	11278.19
688.874	11249.04
689.221	11234.58
689.568	11210.85
689.915	11231.41
690.262	11208.82
690.609	11201.81
690.956	11110.51
691.303	11091.53
691.65	11075.94
691.997	11074.13
692.344	10976.96
692.69	10949.61
693.037	11048.37
693.383	10832.1
693.73	10793.69
694.077	10822.61
694.423	10760.47
694.769	10731.09
695.116	10679.79
695.462	10682.95
695.808	10675.27
696.155	10630.98
696.501	10530.64
696.847	10594.14
697.193	10505.11
697.539	10595.5
697.885	10441.83
698.231	10388.05
698.577	10360.7
698.923	10360.7
699.269	10347.14
699.614	10271.21
699.96	10211.1
700.306	10170.88
700.651	10178.79
700.997	10132.46
701.342	10125
701.688	10072.8
702.033	9974.27
702.379	10054.27
702.724	9938.79
703.069	9958
703.415	9863.54
703.76	9796.88
704.105	9802.75
704.45	9837.78
704.795	9755.97
705.14	9725.69
705.485	9747.16
705.83	9638.24
706.175	9654.28
706.52	9654.73
706.865	9566.6
707.209	9579.48
707.554	9545.13
707.899	9564.56
708.243	9508.3
708.588	9444.79
708.932	9453.16
709.277	9401.63
709.621	9422.2
709.966	9400.28
710.31	9388.98
710.654	9259.49
710.998	9341.75
711.342	9316.44
711.687	9260.62
712.031	9296.1
712.375	9212.71
712.719	9281.86
713.063	9156.67
713.407	9195.99
713.75	9179.04
714.094	9184.24
714.438	9110.57
714.782	9138.59
715.125	9045.48
715.469	9069.89
715.812	9038.7
716.156	9008.65
716.499	9050.45
716.843	9016.33
717.186	9000.96
717.53	9054.3
717.873	9006.84
718.216	8953.96
718.559	8904.47
718.902	8871.93
719.246	8923.45
719.589	8883.45
719.932	8886.84
720.275	8798.48
720.617	8864.24
720.96	8801.2
721.303	8822.21
721.646	8805.26
721.989	8792.61
722.331	8892.27
722.674	8732.95
723.016	8767.3
723.359	8760.52
723.701	8749.45
724.044	8722.55
724.386	8750.35
724.729	8729.78
725.071	8728.65
725.413	8764.59
725.755	8679.16
726.097	8669.45
726.439	8652.27
726.782	8634.19
727.124	8700.18
727.465	8634.42
727.807	8640.52
728.149	8553.29
728.491	8560.52
728.833	8666.74
729.175	8576.34
729.516	8523.69
729.858	8561.2
730.199	8548.09
730.541	8574.31
730.882	8526.63
731.224	8596.23
731.565	8506.06
731.906	8527.53
732.248	8527.08
732.589	8509.45
732.93	8436.23
733.271	8514.2
733.612	8472.16
733.953	8523.01
734.294	8488.21
734.635	8498.38
734.976	8457.93
735.317	8491.15
735.658	8443.69
735.999	8510.36
736.339	8499.73
736.68	8511.49
737.021	8450.24
737.361	8465.16
737.702	8514.87
738.042	8484.82
738.383	8495.44
738.723	8492.28
739.063	8478.04
739.404	8512.84
739.744	8525.5
740.084	8546.51
740.424	8530.92
740.764	8557.81
741.104	8537.02
741.444	8469.9
741.784	8541.99
742.124	8584.7
742.464	8615.89
742.804	8551.03
743.143	8571.14
743.483	8559.39
743.823	8546.74
744.162	8605.95
744.502	8652.05
744.841	8715.55
745.181	8686.17
745.52	8701.54
745.86	8777.24
746.199	8746.96
746.538	8779.5
746.877	8843.45
747.216	8938.82
747.556	8888.2
747.895	8938.14
748.234	8941.98
748.573	8972.94
748.911	9067.4
749.25	9086.84
749.589	9109.21
749.928	9172.71
750.267	9269.88
750.605	9281.63
750.944	9344.46
751.283	9377.68
751.621	9499.03
751.96	9471.01
752.298	9599.14
752.636	9675.07
752.975	9727.05
753.313	9809.76
753.651	10012.69
753.989	9975.18
754.327	10069.18
754.666	10190.31
755.004	10315.05
755.342	10351.66
755.679	10520.92
756.017	10575.84
756.355	10701.71
756.693	10848.82
757.031	10964.53
757.368	11022.61
757.706	11227.8
758.044	11283.62
758.381	11442.93
758.719	11522.71
759.056	11732.64
759.394	11954.56
759.731	11924.28
760.068	12127.89
760.405	12269.35
760.743	12257.38
761.08	12515.9
761.417	12649.68
761.754	12835.89
762.091	13019.84
762.428	13083.12
762.765	13215.09
763.102	13415.99
763.438	13441.53
763.775	13620.28
764.112	13838.58
764.449	13982.53
764.785	14150.66
765.122	14187.95
765.458	14372.57
765.795	14429.07
766.131	14659.35
766.467	14716.29
766.804	14860.24
767.14	15039
767.476	15197.64
767.812	15223.4
768.148	15500.23
768.485	15484.18
768.821	15584.97
769.157	15770.05
769.492	15865.42
769.828	15953.1
770.164	15966.2
770.5	16169.36
770.836	16204.84
771.171	16254.78
771.507	16418.62
771.842	16356.25
772.178	16662.91
772.513	16692.97
772.849	16837.59
773.184	16821.78
773.519	16965.05
773.855	17078.27
774.19	17011.6
774.525	17080.75
774.86	17165.27
775.195	17348.99
775.53	17402.32
775.865	17309.45
776.2	17394.42
776.535	17250.24
776.87	17452.95
777.205	17467.86
777.539	17425.6
777.874	17605.26
778.209	17579.72
778.543	17651.36
778.878	17523.45
779.212	17717.12
779.547	17662.88
779.881	17847.28
780.215	17735.65
780.55	17768.87
780.884	17682.32
781.218	17735.88
781.552	17669.66
781.886	17766.84
782.22	17745.82
782.554	17697.91
782.888	17666.72
783.222	17722.54
783.556	17646.84
783.889	17669.44
784.223	17560.96
784.557	17640.51
784.89	17766.38
785.224	17600.51
785.557	17567.74
785.891	17583.11
786.224	17601.87
786.558	17677.8
786.891	17546.05
787.224	17512.6
787.557	17452.27
787.891	17525.26
788.224	17468.99
788.557	17548.76
788.89	17543.34
789.223	17449.56
789.556	17476.67
789.888	17410.01
790.221	17347.19
790.554	17223.35
790.887	17182.9
791.219	17291.82
791.552	17305.6
791.884	17224.93
792.217	17230.58
792.549	17170.01
792.882	17067.19
793.214	17094.99
793.546	17107.42
793.879	16953.98
794.211	16948.33
794.543	17027.65
794.875	16932.05
795.207	17003.01
795.539	16944.48
795.871	16843.7
796.203	16795.11
796.535	16774.77
796.867	16712.17
797.198	16655.45
797.53	16671.04
797.862	16664.27
798.193	16694.55
798.525	16541.78
798.856	16592.63
799.188	16427.21
799.519	16410.71
799.85	16305.18
800.182	16361.67
800.513	16388.79
800.844	16253.88
801.175	16362.35
801.506	16285.52
801.837	16244.39
802.168	16168.91
802.499	16125.75
802.83	16120.78
803.161	15999.88
803.491	16024.06
803.822	15983.61
804.153	15911.52
804.483	15909.26
804.814	15829.48
805.145	15758.3
805.475	15741.8
805.805	15740.67
806.136	15673.1
806.466	15720.56
806.796	15666.1
807.126	15587.01
807.457	15553.56
807.787	15590.4
808.117	15446.67
808.447	15464.3
808.777	15477.86
809.107	15446.9
809.436	15324.87
809.766	15381.59
810.096	15334.58
810.426	15207.35
810.755	15342.94
811.085	15293
811.414	15227.01
811.744	15125.1
812.073	15169.84
812.403	15159.9
812.732	15060.24
813.061	15042.16
813.39	14996.06
813.719	14970.98
814.049	15073.57
814.378	14985.67
814.707	14961.71
815.036	14870.41
815.365	14842.39
815.693	14654.37
816.022	14766.69
816.351	14697.76
816.68	14637.65
817.008	14669.06
817.337	14647.14
817.665	14519.91
817.994	14590.65
818.322	14592.23
818.651	14554.49
818.979	14418.67
819.307	14523.76
819.636	14491.67
819.964	14379.58
820.292	14455.06
820.62	14449.18
820.948	14403.99
821.276	14462.29
821.604	14334.61
821.932	14340.71
822.259	14431.1
822.587	14343.2
822.915	14387.49
823.243	14394.04
823.57	14368.96
823.898	14344.1
824.225	14340.94
824.553	14330.99
824.88	14381.84
825.207	14410.77
825.535	14376.87
825.862	14411.67
826.189	14306.81
826.516	14511.1
826.843	14434.49
827.17	14383.2
827.497	14462.52
827.824	14470.65
828.151	14520.82
828.478	14432.69
828.805	14412.57
829.131	14444.44
829.458	14399.69
829.785	14243.76
830.111	14370.09
830.438	14520.37
830.764	14472.01
831.09	14400.14
831.417	14347.94
831.743	14433.59
832.069	14440.59
832.395	14357.43
832.722	14368.28
833.048	14312.01
833.374	14278.57
833.7	14289.41
834.026	14280.6
834.351	14356.76
834.677	14374.16
835.003	14355.4
835.329	14259.36
835.654	14271.79
835.98	14180.26
836.306	14245.57
836.631	14153.82
836.956	14230.88
837.282	14223.65
837.607	14099.59
837.932	14069.76
838.258	14156.31
838.583	14138.23
838.908	14044.45
839.233	14039.25
839.558	13959.93
839.883	13895.98
840.208	13942.98
840.533	13973.71
840.858	13909.08
841.182	13904.11
841.507	13931
841.832	13865.24
842.156	13793.83
842.481	13818.24
842.805	13761.29
843.13	13703.89
843.454	13707.05
843.778	13658.02
844.103	13671.12
844.427	13651.92
844.751	13712.25
845.075	13557
845.399	13470
845.723	13443.56
846.047	13457.34
846.371	13312.26
846.695	13405.59
847.019	13237.91
847.343	13197.46
847.666	13139.39
847.99	13079.95
848.313	13046.06
848.637	13006.96
848.96	12924.93
849.284	12957.02
849.607	12805.38
849.931	12744.59
850.254	12772.16
850.577	12613.52
850.9	12630.92
851.223	12569.01
851.546	12543.47
851.869	12443.13
852.192	12482.68
852.515	12362.46
852.838	12367.43
853.161	12357.03
853.483	12262.35
853.806	12196.81
854.129	12171.73
854.451	12166.08
854.774	12128.11
855.096	12163.59
855.419	12044.95
855.741	12101.45
856.063	11916.59
856.385	11932.86
856.708	11832.98
857.03	11928.34
857.352	11824.39
857.674	11850.83
857.996	11728.8
858.318	11642.93
858.64	11678.86
858.961	11747.78
859.283	11612.87
859.605	11573.78
859.926	11632.08
860.248	11552.76
860.57	11512.31
860.891	11522.25
861.212	11392.31
861.534	11335.37
861.855	11409.94
862.176	11387.79
862.498	11351.64
862.819	11350.28
863.14	11205.43
863.461	11303.28
863.782	11207.91
864.103	11303.28
864.424	11193.9
864.745	11198.19
865.065	11082.94
865.386	11057.63
865.707	11026.9
866.027	11049.72
866.348	11116.84
866.668	11101.02
866.989	11127.46
867.309	11002.72
867.63	10968.82
867.95	11079.1
868.27	10915.49
868.59	10921.59
868.91	10932.89
869.23	10844.08
869.55	10874.81
869.87	10849.05
870.19	10832.1
870.51	10863.06
870.83	10887.92
871.15	10742.16
871.469	10805.66
871.789	10815.83
872.109	10793.69
872.428	10780.58
872.748	10744.65
873.067	10712.33
873.386	10713.01
873.706	10729.73
874.025	10654.71
874.344	10640.92
874.663	10600.24
874.982	10680.02
875.301	10612.67
875.62	10583.07
875.939	10555.05
876.258	10580.58
876.577	10537.87
876.896	10569.51
877.214	10457.87
877.533	10492
877.852	10480.25
878.17	10500.59
878.489	10460.81
878.807	10436.63
879.125	10379.01
879.444	10373.36
879.762	10450.19
880.08	10345.11
880.398	10302.4
880.716	10326.58
881.034	10292.91
881.352	10282.06
881.67	10203.87
881.988	10271.44
882.306	10230.99
882.624	10204.55
882.941	10086.36
883.259	10112.35
883.577	10113.25
883.894	10039.58
884.212	10055.63
884.529	10050.65
884.846	9984.67
885.164	10012.69
885.481	10034.16
885.798	9970.2
886.115	9887.72
886.432	9880.71
886.75	9899.92
887.067	9909.41
887.383	9800.49
887.7	9814.73
888.017	9740.61
888.334	9735.41
888.651	9776.76
888.967	9650.66
889.284	9670.32
889.6	9646.6
889.917	9584.68
890.233	9526.37
890.55	9546.94
890.866	9490.67
891.182	9475.75
891.498	9473.95
891.815	9431.46
892.131	9391.46
892.447	9360.05
892.763	9316.44
893.079	9374.06
893.395	9287.74
893.71	9273.27
894.026	9235.99
894.342	9218.13
894.657	9172.94
894.973	9167.51
895.289	9159.15
895.604	9127.06
895.92	9008.2
896.235	9033.51
896.55	8985.6
896.865	9009.55
897.181	8927.52
897.496	8950.12
897.811	8887.52
898.126	8863.57
898.441	8838.48
898.756	8784.92
899.071	8748.99
899.386	8782.66
899.7	8690.69
900.015	8554.65
900.33	8554.87
900.644	8611.14
900.959	8601.65
901.273	8533.18
901.588	8483.01
901.902	8457.48
902.216	8370.25
902.531	8375.67
902.845	8407.76
903.159	8355.56
903.473	8263.36
903.787	8265.62
904.101	8233.75
904.415	8141.55
904.729	8194.66
905.042	8157.82
905.356	8110.59
905.67	8037.83
905.984	8095.9
906.297	8062.46
906.611	8009.13
906.924	8011.61
907.237	7969.13
907.551	7921.67
907.864	7875.57
908.177	7869.24
908.491	7840.09
908.804	7774.78
909.117	7683.26
909.43	7709.92
909.743	7672.64
910.056	7723.03
910.368	7568.01
910.681	7576.14
910.994	7568.01
911.307	7542.7
911.619	7460.21
911.932	7472.87
912.244	7440.1
912.557	7398.29
912.869	7349.03
913.181	7333.89
913.494	7355.58
913.806	7240.78
914.118	7258.41
914.43	7222.71
914.742	7184.97
915.054	7151.97
915.366	7151.75
915.678	7123.05
915.99	7027
916.302	7062.94
916.613	7025.87
916.925	7019.1
917.236	6983.84
917.548	6847.57
917.859	6899.78
918.171	6816.61
918.482	6795.6
918.794	6779.78
919.105	6863.17
919.416	6723.06
919.727	6738.42
920.038	6737.97
920.349	6678.99
920.66	6665.43
920.971	6635.83
921.282	6556.28
921.593	6539.79
921.903	6472.89
922.214	6506.11
922.525	6521.93
922.835	6477.41
923.146	6462.05
923.456	6465.44
923.767	6386.12
924.077	6373.24
924.387	6322.39
924.697	6290.53
925.008	6308.15
925.318	6239.91
925.628	6267.7
925.938	6187.93
926.248	6171.43
926.558	6184.99
926.867	6115.62
927.177	6139.34
927.487	6091.89
927.796	6000.36
928.106	5976.18
928.416	5975.51
928.725	6015.05
929.034	5921.27
929.344	5968.5
929.653	5899.12
929.962	5891.22
930.271	5833.59
930.581	5806.02
930.89	5812.57
931.199	5805.79
931.508	5767.38
931.817	5724.21
932.125	5740.26
932.434	5695.06
932.743	5677.66
933.051	5674.27
933.36	5636.08
933.669	5579.13
933.977	5572.35
934.286	5567.38
934.594	5540.26
934.902	5488.74
935.21	5481.73
935.519	5434.73
935.827	5443.77
936.135	5412.58
936.443	5428.85
936.751	5382.3
937.059	5372.36
937.367	5340.5
937.674	5342.75
937.982	5302.3
938.29	5245.81
938.597	5296.43
938.905	5240.16
939.213	5225.24
939.52	5148.41
939.827	5222.98
940.135	5130.56
940.442	5128.98
940.749	5108.86
941.056	5092.37
941.363	5028.19
941.67	5050.79
941.977	4993.61
942.284	4999.04
942.591	4938.02
942.898	4947.29
943.205	4914.74
943.511	4861.41
943.818	4879.49
944.125	4851.69
944.431	4867.06
944.738	4811.7
945.044	4799.72
945.35	4774.86
945.657	4703.45
945.963	4696.22
946.269	4691.25
946.575	4666.61
946.881	4630.23
947.187	4647.63
947.493	4588.2
947.799	4608.99
948.105	4634.53
948.41	4583.68
948.716	4538.93
949.022	4498.71
949.327	4534.41
949.633	4471.14
949.938	4486.05
950.244	4454.87
950.549	4435.21
950.854	4448.09
951.16	4397.02
951.465	4422.1
951.77	4350.69
952.075	4315.44
952.38	4349.11
952.685	4331.71
952.99	4273.4
953.294	4227.53
953.599	4283.8
953.904	4199.51
954.209	4161.09
954.513	4168.55
954.818	4173.07
955.122	4143.24
955.426	4152.73
955.731	4103.24
956.035	4091.71
956.339	4066.4
956.643	4068.21
956.948	4058.27
957.252	4070.7
957.556	4016.24
957.86	3962.9
958.163	4005.84
958.467	4004.26
958.771	3929.68
959.075	3965.39
959.378	3985.95
959.682	3923.58
959.985	3895.56
960.289	3895.11
960.592	3841.1
960.896	3844.04
961.199	3856.69
961.502	3797.71
961.805	3788.67
962.108	3779.41
962.411	3726.75
962.714	3741.44
963.017	3719.75
963.32	3715.91
963.623	3682.23
963.926	3672.52
964.228	3678.62
964.531	3612.63
964.833	3662.12
965.136	3594.78
965.438	3593.87
965.741	3570.37
966.043	3579.86
966.345	3536.47
966.648	3514.33
966.95	3540.32
967.252	3523.37
967.554	3471.17
967.856	3477.49
968.158	3477.95
968.46	3472.75
968.761	3448.57
969.063	3419.64
969.365	3369.7
969.666	3403.82
969.968	3383.03
970.269	3311.62
970.571	3314.11
970.872	3325.41
971.174	3294
971.475	3289.48
971.776	3262.58
972.077	3272.07
972.378	3322.47
972.679	3210.83
972.98	3219.42
973.281	3209.03
973.582	3238.18
973.883	3167.9
974.183	3142.81
974.484	3195.47
974.785	3111.18
975.085	3086.77
975.386	3122.25
975.686	3097.84
975.986	3085.19
976.287	3089.71
976.587	3046.32
976.887	3032.99
977.187	3016.71
977.487	3045.64
977.787	2994.34
978.087	2993.21
978.387	2969.48
978.687	2941.69
978.987	2939.2
979.286	2955.7
979.586	2916.38
979.885	2888.58
980.185	2905.53
980.484	2923.38
980.784	2852.2
981.083	2872.09
981.382	2843.16
981.682	2830.28
981.981	2785.99
982.28	2821.01
982.579	2801.58
982.878	2770.62
983.177	2751.18
983.475	2745.08
983.774	2749.6
984.073	2735.14
984.372	2743.28
984.67	2713.67
984.969	2679.1
985.267	2687.23
985.566	2668.25
985.864	2684.07
986.162	2700.56
986.461	2638.19
986.759	2618.31
987.057	2625.76
987.355	2612.66
987.653	2561.81
987.951	2593.67
988.249	2558.87
988.547	2568.82
988.844	2514.81
989.142	2544.41
989.44	2506.67
989.737	2491.98
990.035	2496.28
990.332	2468.03
990.63	2477.97
990.927	2460.57
991.224	2446.79
991.521	2406.79
991.819	2439.78
992.116	2398.43
992.413	2403.62
992.71	2393
993.006	2386.22
993.303	2360.46
993.6	2374.92
993.897	2324.76
994.193	2335.83
994.49	2323.17
994.787	2301.93
995.083	2288.6
995.379	2314.36
995.676	2268.03
995.972	2267.36
996.268	2249.73
996.565	2226.23
996.861	2241.14
997.157	2208.37
997.453	2201.59
997.749	2186.23
998.044	2192.33
998.34	2175.83
998.636	2140.58
998.932	2160.47
999.227	2134.48
999.523	2124.76
999.818	2091.54
1000.114	2127.47
1000.409	2100.35
1000.704	2096.06
1001	2052.22
1001.295	2063.52
1001.59	2023.75
1001.885	2044.99
1002.18	2048.83
1002.475	1998.66
1002.77	1997.76
1003.065	1980.36
1003.359	1989.62
1003.654	1992.56
1003.949	1971.77
1004.243	1942.84
1004.538	1932
1004.832	1918.66
1005.127	1924.54
1005.421	1902.62
1005.715	1937.87
1006.009	1891.55
1006.304	1865.11
1006.598	1866.46
1006.892	1846.8
1007.186	1848.61
1007.48	1839.8
1007.773	1804.99
1008.067	1826.92
1008.361	1817.88
1008.655	1780.59
1008.948	1760.7
1009.242	1798.67
1009.535	1769.74
1009.829	1732.91
1010.122	1764.77
1010.415	1735.17
1010.708	1710.08
1011.001	1706.69
1011.295	1709.63
1011.588	1690.65
1011.881	1701.27
1012.173	1669.41
1012.466	1652.91
1012.759	1677.77
1013.052	1650.65
1013.344	1597.32
1013.637	1630.99
1013.93	1658.33
1014.222	1602.51
1014.514	1585.11
1014.807	1569.97
1015.099	1578.33
1015.391	1574.04
1015.683	1547.83
1015.976	1537.66
1016.268	1532.91
1016.56	1539.92
1016.851	1501.73
1017.143	1529.75
1017.435	1503.08
1017.727	1503.99
1018.018	1494.27
1018.31	1478.9
1018.602	1477.09
1018.893	1442.97
1019.185	1440.48
1019.476	1456.08
1019.767	1432.8
1020.058	1399.13
1020.35	1393.48
1020.641	1406.81
1020.932	1393.25
1021.223	1419.02
1021.514	1379.24
1021.804	1380.15
1022.095	1378.57
1022.386	1305.8
1022.677	1356.42
1022.967	1329.08
1023.258	1326.82
1023.548	1291.34
1023.839	1309.64
1024.129	1278.23
1024.419	1307.83
1024.709	1290.21
1025	1275.29
1025.29	1291.11
1025.58	1246.14
1025.87	1243.65
1026.16	1226.93
1026.449	1217.44
1026.739	1229.19
1027.029	1206.14
1027.319	1200.94
1027.608	1203.88
1027.898	1220.83
1028.187	1171.11
1028.477	1181.28
1028.766	1182.19
1029.055	1168.63
1029.344	1136.09
1029.634	1133.37
1029.923	1099.7
1030.212	1119.14
1030.501	1143.32
1030.79	1110.32
1031.078	1092.92
1031.367	1102.64
1031.656	1112.36
1031.945	1101.74
1032.233	1089.76
1032.522	1097.89
1032.81	1088.18
1033.099	1071.68
1033.387	1084.79
1033.675	1069.65
1033.963	1035.52
1034.251	1064.22
1034.54	1011.12
1034.828	1027.84
1035.116	996.43
1035.403	1002.3
1035.691	1001.17
1035.979	1010.21
1036.267	995.52
1036.554	996.88
1036.842	1007.95
1037.129	950.78
1037.417	959.14
1037.704	969.54
1037.992	912.36
1038.279	928.63
1038.566	938.13
1038.853	938.13
1039.14	938.13
