Data from hue_00_FLMS001491_66.txt Node
Date: Mon Feb 06 15:30:04 GMT 2017
User: dcchb
Spectrometer: FLMS00149
Trigger mode: 0
Integration Time (sec): 2.000000E-2
Scans to average: 10
Electric dark correction enabled: true
Nonlinearity correction enabled: false
Boxcar width: 0
XAxis mode: Wavelengths
Number of Pixels in Spectrum: 2048
>>>>>Begin Spectral Data<<<<<
341.393	-7.56
341.776	-7.56
342.16	-7.56
342.543	-62.24
342.927	-82.58
343.31	-70.61
343.693	-74.67
344.077	-52.53
344.46	-77.16
344.843	-58.4
345.226	-46.2
345.61	-19.76
345.993	-26.99
346.376	-13.66
346.759	15.27
347.142	39.45
347.525	42.61
347.908	55.04
348.291	68.37
348.674	96.17
349.057	123.06
349.44	118.99
349.823	141.82
350.206	170.52
350.588	168.26
350.971	201.25
351.354	225.43
351.737	237.86
352.119	245.32
352.502	257.52
352.884	261.14
353.267	270.85
353.65	282.15
354.032	300.23
354.414	290.97
354.797	288.93
355.179	312.21
355.562	338.65
355.944	310.85
356.326	317.86
356.709	329.61
357.091	317.18
357.473	334.81
357.855	339.55
358.238	334.13
358.62	313.79
359.002	360.34
359.384	329.38
359.766	351.53
360.148	335.49
360.53	341.59
360.912	319.67
361.294	323.51
361.676	321.7
362.057	317.18
362.439	320.34
362.821	327.12
363.203	327.8
363.584	328.03
363.966	320.34
364.348	314.47
364.729	295.94
365.111	316.95
365.493	328.25
365.874	318.99
366.256	295.26
366.637	312.21
367.019	323.51
367.4	316.5
367.781	316.73
368.163	328.93
368.544	295.26
368.925	316.05
369.306	329.38
369.688	306.79
370.069	324.64
370.45	299.55
370.831	313.34
371.212	302.94
371.593	309.95
371.974	325.09
372.355	321.47
372.736	300.01
373.117	315.15
373.498	306.79
373.879	317.18
374.26	289.84
374.641	306.56
375.021	311.31
375.402	308.37
375.783	328.71
376.163	325.09
376.544	331.42
376.925	302.04
377.305	320.8
377.686	309.27
378.066	320.34
378.447	321.93
378.827	334.58
379.208	328.48
379.588	325.99
379.968	324.19
380.349	328.71
380.729	325.54
381.109	335.49
381.489	325.54
381.87	330.74
382.25	330.51
382.63	337.29
383.01	333.45
383.39	332.77
383.77	311.98
384.15	343.17
384.53	327.12
384.91	330.06
385.29	342.72
385.67	337.07
386.049	355.37
386.429	337.07
386.809	356.5
387.189	316.95
387.568	345.43
387.948	340.91
388.328	344.98
388.707	357.86
389.087	346.78
389.466	339.55
389.846	355.37
390.225	330.74
390.605	358.54
390.984	364.41
391.363	341.36
391.743	349.95
392.122	358.54
392.501	369.61
392.881	354.69
393.26	349.04
393.639	362.6
394.018	363.51
394.397	369.38
394.776	366.45
395.155	362.15
395.534	366.22
395.913	351.53
396.292	372.32
396.671	378.42
397.05	366.9
397.429	378.42
397.808	362.15
398.186	343.85
398.565	383.62
398.944	383.85
399.323	361.7
399.701	365.99
400.08	379.33
400.458	380.68
400.837	386.78
401.215	387.24
401.594	387.01
401.972	390.85
402.351	378.65
402.729	393.79
403.107	393.56
403.486	406.44
403.864	402.38
404.242	387.46
404.62	420.68
404.999	397.86
405.377	405.54
405.755	371.87
406.133	390.63
406.511	383.39
406.889	422.04
407.267	438.99
407.645	401.25
408.023	423.17
408.401	412.32
408.779	438.99
409.156	417.29
409.534	420.23
409.912	430.4
410.29	451.64
410.667	445.31
411.045	447.57
411.422	423.62
411.8	462.71
412.178	435.82
412.555	434.24
412.933	466.33
413.31	449.38
413.687	472.88
414.065	450.28
414.442	462.94
414.819	457.52
415.197	471.98
415.574	482.83
415.951	465.88
416.328	449.15
416.705	457.97
417.082	454.13
417.46	468.82
417.837	494.35
418.214	485.99
418.591	488.7
418.967	466.78
419.344	475.14
419.721	504.97
420.098	469.49
420.475	498.19
420.852	522.83
421.228	527.57
421.605	495.48
421.982	516.5
422.358	503.39
422.735	512.66
423.111	499.1
423.488	506.78
423.864	545.2
424.241	538.64
424.617	530.06
424.994	526.21
425.37	549.27
425.746	556.72
426.123	525.09
426.499	530.06
426.875	544.75
427.251	546.1
427.627	561.92
428.003	544.75
428.379	575.93
428.756	587.23
429.132	574.35
429.507	550.85
429.883	579.09
430.259	596.72
430.635	601.47
431.011	573.22
431.387	589.72
431.763	624.07
432.138	634.69
432.514	616.83
432.89	625.42
433.265	633.78
433.641	619.09
434.016	666.32
434.392	630.39
434.767	655.7
435.143	646.21
435.518	650.28
435.894	685.08
436.269	671.75
436.644	672.65
437.02	657.28
437.395	681.01
437.77	668.36
438.145	702.93
438.52	699.54
438.895	677.62
439.271	680.34
439.646	712.2
440.021	685.76
440.395	708.81
440.77	702.93
441.145	706.55
441.52	731.41
441.895	732.31
442.27	739.32
442.645	715.36
443.019	714.68
443.394	739.32
443.769	754.91
444.143	734.57
444.518	755.14
444.892	772.31
445.267	749.26
445.641	766.43
446.016	767.34
446.39	773.89
446.764	761.69
447.139	769.15
447.513	773.44
447.887	777.96
448.262	805.53
448.636	785.19
449.01	803.95
449.384	790.61
449.758	802.37
450.132	820.44
450.506	792.2
450.88	801.69
451.254	808.69
451.628	833.1
452.002	821.12
452.376	821.8
452.75	841.69
453.123	851.4
453.497	843.27
453.871	862.48
454.244	864.74
454.618	889.37
454.992	897.5
455.365	877.84
455.739	918.52
456.112	898.18
456.486	886.66
456.859	899.99
457.232	912.87
457.606	920.33
457.979	932.08
458.352	930.95
458.725	946.32
459.099	961.23
459.472	954.68
459.845	958.07
460.218	981.34
460.591	999.87
460.964	1013.89
461.337	1012.53
461.71	1050.72
462.083	1025.64
462.456	1029.93
462.829	1023.83
463.201	1074.22
463.574	1060.89
463.947	1071.96
464.32	1109.02
464.692	1088.69
465.065	1108.35
465.438	1118.06
465.81	1164.62
466.183	1172.07
466.555	1183.37
466.928	1176.37
467.3	1195.8
467.672	1181.34
468.045	1228.12
468.417	1198.06
468.789	1254.78
469.161	1250.49
469.534	1276.03
469.906	1294.78
470.278	1293.2
470.65	1296.14
471.022	1323.26
471.394	1343.14
471.766	1374.78
472.138	1375.23
472.51	1388.11
472.882	1433.99
473.253	1454.33
473.625	1453.65
473.997	1483.48
474.369	1519.18
474.74	1518.05
475.112	1549.92
475.484	1552.4
475.855	1581.78
476.227	1613.87
476.598	1653.87
476.97	1675.34
477.341	1712.85
477.713	1740.42
478.084	1765.73
478.455	1773.87
478.827	1833.07
479.198	1846.41
479.569	1899.51
479.94	1929.12
480.311	1937.25
480.682	2009.34
481.053	2017.7
481.424	2055.67
481.795	2102.67
482.166	2090.69
482.537	2111.94
482.908	2156.23
483.279	2201.2
483.65	2241.2
484.021	2300.63
484.391	2314.87
484.762	2340.18
485.133	2391.48
485.503	2421.76
485.874	2480.74
486.244	2479.16
486.615	2533.85
486.985	2571.81
487.356	2607.74
487.726	2668.08
488.097	2664.24
488.467	2707.4
488.837	2770.68
489.207	2783.33
489.578	2850.67
489.948	2867.17
490.318	2871.69
490.688	2921.41
491.058	2985.59
491.428	3044.34
491.798	3034.62
492.168	3121.17
492.538	3107.62
492.908	3147.61
493.278	3173.83
493.648	3212.92
494.017	3239.36
494.387	3293.6
494.757	3307.61
495.126	3361.17
495.496	3359.36
495.866	3425.12
496.235	3399.59
496.605	3459.7
496.974	3534.05
497.344	3508.96
497.713	3530.43
498.082	3550.54
498.452	3577.21
498.821	3622.4
499.19	3628.05
499.559	3700.37
499.928	3645.45
500.298	3733.81
500.667	3777.65
501.036	3753.25
501.405	3818.56
501.774	3787.15
502.143	3832.34
502.512	3831.44
502.88	3869.63
503.249	3889.97
503.618	3906.24
503.987	3932.23
504.356	3943.07
504.724	3953.02
505.093	3996.41
505.462	3994.15
505.83	4022.39
506.199	4013.35
506.567	4097.19
506.936	4083.86
507.304	4122.73
507.672	4154.37
508.041	4130.64
508.409	4196.17
508.777	4204.31
509.145	4213.58
509.514	4218.55
509.882	4282.5
510.25	4226.46
510.618	4242.95
510.986	4275.04
511.354	4344.65
511.722	4407.92
512.09	4353.23
512.458	4400.24
512.826	4414.25
513.193	4419.45
513.561	4443.85
513.929	4458.99
514.297	4496.51
514.664	4475.49
515.032	4514.36
515.4	4532.89
515.767	4590.06
516.135	4559.33
516.502	4494.25
516.869	4583.28
517.237	4649.72
517.604	4607.24
517.972	4657.63
518.339	4673.22
518.706	4648.14
519.073	4693.11
519.44	4694.92
519.808	4767.01
520.175	4698.76
520.542	4795.93
520.909	4756.61
521.276	4762.26
521.643	4773.56
522.009	4802.26
522.376	4872.09
522.743	4867.34
523.11	4883.84
523.477	4928.59
523.843	4948.02
524.21	5000.9
524.577	5032.09
524.943	5011.52
525.31	5041.35
525.676	5086.55
526.043	5126.09
526.409	5110.95
526.776	5226.43
527.142	5128.35
527.508	5204.51
527.874	5255.13
528.241	5251.29
528.607	5284.28
528.973	5317.95
529.339	5318.18
529.705	5371.96
530.071	5414.22
530.437	5388.46
530.803	5436.59
531.169	5474.11
531.535	5478.85
531.901	5490.83
532.267	5492.41
532.632	5517.27
532.998	5546.87
533.364	5606.08
533.73	5573.99
534.095	5624.61
534.461	5672.75
534.826	5698.28
535.192	5742.35
535.557	5710.71
535.923	5757.49
536.288	5811.05
536.653	5810.82
537.019	5804.72
537.384	5859.86
537.749	5933.08
538.114	5872.97
538.479	5925.62
538.845	5932.63
539.21	5936.47
539.575	5942.12
539.94	6017.14
540.305	6010.59
540.67	6056.92
541.034	6077.26
541.399	6057.59
541.764	6068.44
542.129	6134.2
542.494	6148.89
542.858	6199.29
543.223	6210.81
543.587	6228.21
543.952	6252.17
544.316	6283.35
544.681	6300.75
545.045	6326.97
545.41	6368.32
545.774	6415.1
546.138	6357.02
546.503	6405.61
546.867	6425.72
547.231	6457.13
547.595	6513.63
547.959	6470.92
548.324	6471.37
548.688	6584.81
549.052	6617.81
549.416	6606.06
549.779	6569.67
550.143	6649.44
550.507	6660.29
550.871	6674.98
551.235	6675.88
551.599	6747.29
551.962	6743
552.326	6771.25
552.689	6799.72
553.053	6786.62
553.417	6832.04
553.78	6862.77
554.143	6904.13
554.507	6896.89
554.87	6922.66
555.234	6984.58
555.597	6898.48
555.96	7006.04
556.323	7041.52
556.686	7020.73
557.05	7069.77
557.413	7070.68
557.776	7088.08
558.139	7112.71
558.502	7167.4
558.865	7134.4
559.228	7164.46
559.59	7194.29
559.953	7225.47
560.316	7288.07
560.679	7281.74
561.041	7341.18
561.404	7352.93
561.767	7325.81
562.129	7389.31
562.492	7441.06
562.854	7434.73
563.217	7409.2
563.579	7465.92
563.941	7517.9
564.304	7505.92
564.666	7592.02
565.028	7558.8
565.39	7607.84
565.753	7641.06
566.115	7691.22
566.477	7696.65
566.839	7726.7
567.201	7778.68
567.563	7771.45
567.925	7821.16
568.287	7838.79
568.648	7842.41
569.01	7889.64
569.372	7961.73
569.734	7964.89
570.095	8011.89
570.457	8065.9
570.819	8118.78
571.18	8057.77
571.542	8150.42
571.903	8201.04
572.265	8226.35
572.626	8184.77
572.987	8280.36
573.349	8332.34
573.71	8414.6
574.071	8410.75
574.432	8460.7
574.794	8520.81
575.155	8561.03
575.516	8635.61
575.877	8621.37
576.238	8747.02
576.599	8793.12
576.96	8902.72
577.32	8914.69
577.681	9006.44
578.042	9140
578.403	9153.56
578.763	9237.62
579.124	9279.21
579.485	9485.98
579.845	9593.55
580.206	9651.85
580.566	9755.35
580.927	9869.02
581.287	9985.63
581.648	10073.31
582.008	10249.12
582.368	10268.78
582.728	10446.41
583.089	10590.36
583.449	10693.18
583.809	10830.8
584.169	11042.32
584.529	11205.93
584.889	11429.66
585.249	11568.18
585.609	11655.41
585.969	11941.51
586.329	12046.59
586.688	12336.75
587.048	12503.3
587.408	12682.96
587.768	12942.84
588.127	13100.57
588.487	13364.75
588.846	13660.11
589.206	13731.07
589.565	14086.31
589.925	14302.58
590.284	14510.71
590.643	14797.7
591.003	15098.04
591.362	15441.53
591.721	15609.43
592.08	15806.72
592.44	16112.47
592.799	16333.71
593.158	16673.36
593.517	16906.58
593.876	17209.84
594.235	17381.59
594.593	17733.22
594.952	18013.21
595.311	18335.46
595.67	18651.84
596.029	18881.21
596.387	19241.43
596.746	19552.16
597.104	19637.12
597.463	19945.14
597.822	20357.78
598.18	20563.2
598.538	20707.38
598.897	21204.99
599.255	21265.33
599.613	21868.03
599.972	22035.71
600.33	22275.47
600.688	22392.08
601.046	22846.31
601.404	23135.79
601.762	23407.65
602.12	23767.19
602.478	23971.02
602.836	24268.64
603.194	24274.97
603.552	24787.05
603.91	24822.3
604.268	25114.27
604.625	25380.7
604.983	25747.92
605.341	25775.72
605.698	26241.92
606.056	26416.16
606.413	26691.63
606.771	26917.16
607.128	27278.73
607.485	27234.67
607.843	27480.53
608.2	27826.29
608.557	28211.14
608.914	28284.36
609.272	28478.7
609.629	28796.21
609.986	29051.34
610.343	29139.7
610.7	29448.39
611.057	29520.48
611.414	29547.15
611.771	29928.83
612.127	30144.87
612.484	30312.78
612.841	30504.64
613.198	30672.54
613.554	30851.97
613.911	31204.5
614.267	31193.21
614.624	31373.31
614.98	31569.69
615.337	31844.49
615.693	31869.8
616.05	31970.59
616.406	32310.46
616.762	32327.19
617.118	32479.05
617.475	32728.53
617.831	32848.53
618.187	32888.98
618.543	33230.44
618.899	33389.98
619.255	33414.62
619.611	33536.87
619.967	33680.82
620.323	33853.25
620.678	33775.51
621.034	33804.66
621.39	33965.79
621.746	33987.71
622.101	34439
622.457	34127.37
622.812	34522.16
623.168	34570.97
623.523	34586.11
623.879	34849.83
624.234	34650.97
624.589	34909.94
624.945	35015.25
625.3	35169.37
625.655	35158.75
626.01	35339.76
626.365	35392.42
626.72	35387.22
627.075	35300.44
627.43	35502.47
627.785	35456.14
628.14	35736.81
628.495	35802.12
628.85	35697.27
629.205	35593.32
629.559	35826.3
629.914	35704.27
630.269	35771.62
630.623	35664.05
630.978	35740.2
631.332	35887.55
631.687	36009.12
632.041	36116.24
632.396	36102.91
632.75	35969.8
633.104	36020.42
633.459	35861.11
633.813	35968.9
634.167	35994.43
634.521	35949.24
634.875	36029.46
635.229	36055
635.583	35954.66
635.937	35970.93
636.291	36013.19
636.645	35936.13
636.999	36016.13
637.352	36098.84
637.706	35859.75
638.06	36155.33
638.413	36043.47
638.767	35931.61
639.121	35957.83
639.474	35959.18
639.828	35891.61
640.181	36011.61
640.534	36017.71
640.888	35939.52
641.241	35865.4
641.594	35925.51
641.947	35833.99
642.301	35918.73
642.654	35886.19
643.007	35972.51
643.36	35902.46
643.713	35791.95
644.066	35846.64
644.419	35798.51
644.771	35473.54
645.124	35239.65
645.477	35097.06
645.83	34953.78
646.182	34914.69
646.535	34715.15
646.888	34843.05
647.24	34770.06
647.593	34870.85
647.945	34846.67
648.298	34615.94
648.65	34640.57
649.002	34690.06
649.355	34742.72
649.707	34723.96
650.059	34844.86
650.411	35003.5
650.763	35238.75
651.115	35570.27
651.467	35495.92
651.819	35471.51
652.171	35492.53
652.523	35393.77
652.875	35436.48
653.227	35150.39
653.578	35455.92
653.93	35386.32
654.282	35335.7
654.633	35131.86
654.985	35143.16
655.337	35187.68
655.688	35166.21
656.039	35380.89
656.391	35076.49
656.742	35108.58
657.094	35206.21
657.445	35174.57
657.796	35062.03
658.147	35136.38
658.498	35238.52
658.849	35110.16
659.2	35091.41
659.551	34933.9
659.902	35149.03
660.253	35165.76
660.604	35271.29
660.955	35121.46
661.306	35167.79
661.656	34945.65
662.007	35107.9
662.358	34970.06
662.708	35079.88
663.059	35062.03
663.409	34873.79
663.76	35036.49
664.11	35029.71
664.461	35188.13
664.811	35057.06
665.161	35057.74
665.511	35044.18
665.862	35059.77
666.212	35208.92
666.562	35019.55
666.912	35020
667.262	34954.24
667.612	34997.17
667.962	34900.68
668.312	34916.95
668.662	35156.26
669.011	34912.88
669.361	34906.55
669.711	34902.26
670.06	34903.84
670.41	34815.03
670.76	34718.54
671.109	34870.17
671.459	34913.11
671.808	34731.19
672.157	34840.11
672.507	34591.53
672.856	34657.75
673.205	34659.78
673.554	34848.02
673.904	34702.72
674.253	34786.78
674.602	34687.12
674.951	34241.71
675.3	34050.08
675.649	34528.03
675.998	34460.01
676.346	34561.03
676.695	34746.78
677.044	34476.96
677.393	34589.5
677.741	34602.16
678.09	34459.56
678.438	34343.4
678.787	34585.66
679.135	34557.41
679.484	34240.13
679.832	34366.46
680.181	34219.11
680.529	34282.84
680.877	34232
681.225	34207.36
681.573	34404.42
681.922	34056.63
682.27	34014.6
682.618	33946.81
682.966	33839.24
683.314	34069.74
683.661	33930.53
684.009	33734.16
684.357	33651.22
684.705	33600.37
685.053	33574.39
685.4	33561.73
685.748	33359.02
686.095	33391.57
686.443	33392.92
686.79	33337.78
687.138	33277.22
687.485	33365.13
687.832	33273.6
688.18	33265.92
688.527	33080.61
688.874	32947.51
689.221	33147.28
689.568	33051.46
689.915	32795.42
690.262	32810.79
690.609	32714.3
690.956	32644.69
691.303	32623.9
691.65	32419.84
691.997	32417.35
692.344	32294.19
692.69	32262.1
693.037	32232.5
693.383	31980.76
693.73	32161.77
694.077	31938.04
694.423	32069.79
694.769	31772.85
695.116	31787.54
695.462	31663.48
695.808	31759.74
696.155	31795.68
696.501	31463.48
696.847	31551.61
697.193	31310.26
697.539	31367.66
697.885	31124.05
698.231	31098.07
698.577	31084.73
698.923	31004.74
699.269	30768.36
699.614	30815.59
699.96	30603.39
700.306	30631.19
700.651	30584.63
700.997	30357.07
701.342	30375.83
701.688	30292.89
702.033	30271.42
702.379	30237.75
702.724	30040.92
703.069	30202.72
703.415	29769.29
703.76	29862.84
704.105	29871.66
704.45	29817.42
704.795	29573.59
705.14	29545.11
705.485	29626.47
705.83	29449.52
706.175	29428.51
706.52	29345.34
706.865	29204.56
707.209	29225.8
707.554	29179.47
707.899	29193.71
708.243	28921.85
708.588	28949.87
708.932	28755.98
709.277	28774.29
709.621	28653.16
709.966	28548.3
710.31	28724.57
710.654	28357.35
710.998	28400.06
711.342	28472.6
711.687	28290.68
712.031	28189.44
712.375	28181.53
712.719	28141.08
713.063	28208.88
713.407	28176.34
713.75	28078.03
714.094	27953.74
714.438	27950.13
714.782	27904.25
715.125	27941.99
715.469	27844.82
715.812	27651.6
716.156	27637.82
716.499	27584.71
716.843	27575.67
717.186	27504.26
717.53	27595.56
717.873	27513.53
718.216	27440.99
718.559	27299.3
718.902	27182.46
719.246	27203.71
719.589	27135.68
719.932	27141.11
720.275	27020.89
720.617	27087.78
720.96	26990.38
721.303	27005.74
721.646	27017.04
721.989	26758.52
722.331	26895.47
722.674	26835.13
723.016	26787.67
723.359	26730.72
723.701	26723.49
724.044	26624.74
724.386	26451.41
724.729	26520.79
725.071	26429.26
725.413	26553.33
725.755	26390.85
726.097	26373.44
726.439	26202.6
726.782	26091.19
727.124	26270.17
727.465	26071.08
727.807	26082.38
728.149	26055.49
728.491	26064.75
728.833	26067.92
729.175	26104.53
729.516	25908.6
729.858	25815.49
730.199	25862.27
730.541	25845.55
730.882	25727.59
731.224	25812.33
731.565	25645.33
731.906	25690.75
732.248	25648.94
732.589	25442.4
732.93	25385.9
733.271	25564.43
733.612	25470.42
733.953	25458.44
734.294	25327.82
734.635	25195.17
734.976	25400.59
735.317	25356.97
735.658	25231.1
735.999	25199.01
736.339	25211.22
736.68	25219.58
737.021	25090.31
737.361	25067.72
737.702	25163.76
738.042	25041.5
738.383	25028.4
738.723	25050.09
739.063	24852.81
739.404	24992.24
739.744	24865.24
740.084	24806.71
740.424	24738.23
740.764	24771.91
741.104	24882.18
741.444	24622.98
741.784	24584.11
742.124	24708.18
742.464	24625.47
742.804	24526.26
743.143	24486.04
743.483	24519.71
743.823	24401.52
744.162	24409.65
744.502	24479.71
744.841	24264.12
745.181	24411.46
745.52	24260.73
745.86	24290.11
746.199	24232.03
746.538	24204.91
746.877	24197.46
747.216	24292.82
747.556	24134.63
747.895	24092.6
748.234	24015.99
748.573	24037.01
748.911	23908.2
749.25	23930.57
749.589	23797.92
749.928	23796.79
750.267	23911.36
750.605	23801.76
750.944	23683.12
751.283	23645.16
751.621	23657.81
751.96	23492.62
752.298	23571.48
752.636	23621.2
752.975	23355.22
753.313	23390.92
753.651	23489.68
753.989	23331.72
754.327	23256.46
754.666	23236.35
755.004	23288.33
755.342	23187.31
755.679	23192.96
756.017	23058.5
756.355	23040.88
756.693	23072.06
757.031	23002.91
757.368	22906.42
757.706	22917.26
758.044	22814.67
758.381	22788.45
758.719	22531.06
759.056	22749.13
759.394	22589.59
759.731	22498.52
760.068	22409.48
760.405	22391.4
760.743	22239.77
761.08	22369.26
761.417	22173.1
761.754	22190.5
762.091	22138.98
762.428	22054.69
762.765	21957.52
763.102	22011.3
763.438	21805.43
763.775	21805.2
764.112	21697.86
764.449	21755.04
764.785	21646.79
765.122	21520.24
765.458	21467.36
765.795	21444.08
766.131	21352.56
766.467	21240.7
766.804	21298.55
767.14	21148.5
767.476	21066.01
767.812	21012.23
768.148	21044.32
768.485	20862.86
768.821	20790.54
769.157	20839.81
769.492	20730.2
769.828	20695.18
770.164	20500.61
770.5	20435.52
770.836	20487.5
771.171	20331.8
771.507	20295.41
771.842	20208.64
772.178	20090.22
772.513	20170.9
772.849	20044.12
773.184	19881.41
773.519	19939.04
773.855	19825.82
774.19	19779.95
774.525	19712.38
774.86	19648.65
775.195	19618.82
775.53	19470.58
775.865	19476.9
776.2	19271.26
776.535	19082.79
776.87	19200.3
777.205	19160.3
777.539	19022.68
777.874	19086.63
778.209	18881.21
778.543	18848.22
778.878	18767.09
779.212	18708.79
779.547	18572.07
779.881	18715.34
780.215	18550.6
780.55	18580.43
780.884	18388.34
781.218	18327.78
781.552	18334.79
781.886	18267.9
782.22	18086.88
782.554	18083.49
782.888	18005.98
783.222	17873.56
783.556	17862.26
783.889	17811.64
784.223	17674.24
784.557	17618.87
784.89	17663.39
785.224	17458.43
785.557	17466.56
785.891	17435.6
786.224	17312.67
786.558	17334.13
786.891	17131.43
787.224	17122.16
787.557	17076.29
787.891	17101.37
788.224	16975.27
788.557	16900.47
788.89	16902.51
789.223	16902.06
789.556	16722.85
789.888	16777.09
790.221	16649.41
790.554	16553.82
790.887	16582.52
791.219	16561.05
791.552	16439.02
791.884	16387.72
792.217	16298
792.549	16211
792.882	16099.59
793.214	16092.36
793.546	16093.04
793.879	16002.87
794.211	15900.27
794.543	15866.15
794.875	15845.36
795.207	15834.96
795.539	15727.62
795.871	15779.6
796.203	15586.61
796.535	15595.65
796.867	15537.8
797.198	15403.34
797.53	15437.46
797.862	15350.23
798.193	15353.62
798.525	15232.95
798.856	15385.03
799.188	15151.82
799.519	15093.52
799.85	15039.05
800.182	15051.26
800.513	15052.39
800.844	14808.78
801.175	14959.28
801.506	14938.04
801.837	14815.1
802.168	14743.47
802.499	14711.38
802.83	14658.5
803.161	14660.76
803.491	14639.52
803.822	14600.42
804.153	14488.33
804.483	14456.92
804.814	14417.83
805.145	14340.54
805.475	14334.21
805.805	14240.43
806.136	14219.87
806.466	14273.88
806.796	14221
807.126	14102.58
807.457	14093.99
807.787	14030.49
808.117	13945.3
808.447	13936.71
808.777	13990.72
809.107	13863.27
809.436	13873.43
809.766	13827.79
810.096	13828.69
810.426	13727.22
810.755	13702.37
811.085	13788.47
811.414	13717.05
811.744	13517.96
812.073	13477.74
812.403	13560.45
812.732	13461.24
813.061	13477.06
813.39	13353.9
813.719	13337.4
814.049	13439.32
814.378	13402.03
814.707	13314.58
815.036	13181.93
815.365	13142.83
815.693	13106.22
816.022	13198.88
816.351	13044.53
816.68	13058.31
817.008	13124.98
817.337	12897.19
817.665	12909.84
817.994	12977.64
818.322	12835.04
818.651	12861.03
818.979	12837.76
819.307	12801.82
819.636	12819.9
819.964	12739.91
820.292	12802.73
820.62	12750.98
820.948	12712.56
821.276	12684.77
821.604	12713.69
821.932	12664.88
822.259	12726.8
822.587	12679.79
822.915	12702.62
823.243	12709.17
823.57	12631.89
823.898	12755.5
824.225	12599.8
824.553	12594.15
824.88	12621.49
825.207	12601.38
825.535	12665.78
825.862	12666.46
826.189	12542.85
826.516	12654.03
826.843	12627.59
827.17	12691.09
827.497	12619
827.824	12635.05
828.151	12786.91
828.478	12697.19
828.805	12638.21
829.131	12538.78
829.458	12598.21
829.785	12505.11
830.111	12630.53
830.438	12575.16
830.764	12584.2
831.09	12559.34
831.417	12523.19
831.743	12629.17
832.069	12507.59
832.395	12464.66
832.722	12494.04
833.048	12443.87
833.374	12537.88
833.7	12390.76
834.026	12413.36
834.351	12402.96
834.677	12432.12
835.003	12458.33
835.329	12388.5
835.654	12348.73
835.98	12319.35
836.306	12388.5
836.631	12300.82
836.956	12416.3
837.282	12367.71
837.607	12259.24
837.932	12220.37
838.258	12339.92
838.583	12247.94
838.908	12208.39
839.233	12165.46
839.558	12108.96
839.883	12118.68
840.208	12114.16
840.533	12025.57
840.858	12062.86
841.182	12070.09
841.507	12092.69
841.832	11995.52
842.156	11994.16
842.481	12004.78
842.805	11924.56
843.13	11925.46
843.454	11830.78
843.778	11847.95
844.103	11810.66
844.427	11793.72
844.751	11790.55
845.075	11723.89
845.399	11685.92
845.723	11632.36
846.047	11643.89
846.371	11540.16
846.695	11600.5
847.019	11501.52
847.343	11482.99
847.666	11429.66
847.99	11355.08
848.313	11394.86
848.637	11220.85
848.96	11202.54
849.284	11252.26
849.607	11154.41
849.931	11165.03
850.254	10998.71
850.577	10965.26
850.9	10917.13
851.223	10920.52
851.546	10839.62
851.869	10787.64
852.192	10855.43
852.515	10696.57
852.838	10595.1
853.161	10635.78
853.483	10636.91
853.806	10537.93
854.129	10571.6
854.451	10479.17
854.774	10450.47
855.096	10353.75
855.419	10464.03
855.741	10317.6
856.063	10362.57
856.385	10348.56
856.708	10268.78
857.03	10144.04
857.352	10285.96
857.674	10187.66
857.996	10126.19
858.318	10120.09
858.64	10104.72
858.961	10052.52
859.283	10051.39
859.605	9995.57
859.926	9990.37
860.248	9953.31
860.57	9892.3
860.891	9986.53
861.212	9915.35
861.534	9861.56
861.855	9825.18
862.176	9885.06
862.498	9874.44
862.819	9881.9
863.14	9731.62
863.461	9738.85
863.782	9738.18
864.103	9773.2
864.424	9696.82
864.745	9652.08
865.065	9598.74
865.386	9570.04
865.707	9541.35
866.027	9588.58
866.348	9568.69
866.668	9601
866.989	9593.77
867.309	9522.59
867.63	9511.06
867.95	9503.83
868.27	9471.06
868.59	9416.83
868.91	9409.6
869.23	9371.18
869.55	9377.73
869.87	9399.88
870.19	9393.55
870.51	9387.9
870.83	9375.25
871.15	9345.42
871.469	9291.18
871.789	9297.28
872.109	9273.56
872.428	9183.84
872.748	9250.05
873.067	9256.61
873.386	9330.05
873.706	9255.93
874.025	9176.61
874.344	9138.87
874.663	9210.28
874.982	9171.41
875.301	9162.37
875.62	9083.96
875.939	9002.15
876.258	9083.73
876.577	9029.72
876.896	9080.79
877.214	9017.52
877.533	8973.68
877.852	9035.6
878.17	9031.98
878.489	8991.53
878.807	8974.58
879.125	8999.21
879.444	8944.75
879.762	8952.43
880.08	8927.58
880.398	8831.31
880.716	8930.06
881.034	8874.92
881.352	8841.48
881.67	8853.23
881.988	8844.87
882.306	8780.01
882.624	8811.42
882.941	8684.87
883.259	8714.47
883.577	8680.12
883.894	8645.32
884.212	8656.85
884.529	8686.45
884.846	8611.43
885.164	8579.34
885.481	8551.99
885.798	8572.11
886.115	8502.73
886.432	8550.64
886.75	8517.42
887.067	8470.19
887.383	8445.1
887.7	8479.23
888.017	8409.17
888.334	8434.48
888.651	8410.75
888.967	8354.03
889.284	8382.28
889.6	8343.64
889.917	8253.47
890.233	8271.55
890.55	8200.82
890.866	8246.92
891.182	8174.6
891.498	8181.15
891.815	8164.88
892.131	8117.65
892.447	8119.91
892.763	8084.43
893.079	8092.34
893.395	7967.83
893.71	8003.53
894.026	8014.83
894.342	8008.28
894.657	7907.94
894.973	7936.64
895.289	7891.22
895.604	7899.35
895.92	7867.94
896.235	7802.63
896.55	7810.77
896.865	7769.64
897.181	7801.5
897.496	7687.61
897.811	7670.66
898.126	7673.37
898.441	7647.61
898.756	7591.11
899.071	7548.86
899.386	7607.84
899.7	7509.08
900.015	7447.61
900.33	7421.63
900.644	7401.51
900.959	7435.19
901.273	7326.71
901.588	7394.96
901.902	7284.46
902.216	7287.62
902.531	7345.92
902.845	7286.26
903.159	7169.2
903.473	7232.48
903.787	7152.71
904.101	7108.41
904.415	7142.76
904.729	7106.38
905.042	7016.67
905.356	6961.07
905.67	7000.17
905.984	7041.98
906.297	6940.06
906.611	6890.12
906.924	6909.78
907.237	6899.83
907.551	6871.81
907.864	6833.17
908.177	6833.85
908.491	6727.41
908.804	6741.87
909.117	6707.97
909.43	6728.31
909.743	6700.06
910.056	6641.76
910.368	6606.06
910.681	6639.27
910.994	6570.12
911.307	6515.44
911.619	6475.21
911.932	6518.37
912.244	6460.97
912.557	6464.59
912.869	6368.32
913.181	6349.56
913.494	6379.39
913.806	6334.2
914.118	6324.03
914.43	6295.78
914.742	6281.77
915.054	6230.47
915.366	6172.39
915.678	6188.89
915.99	6166.52
916.302	6086.29
916.613	6080.19
916.925	6128.1
917.236	6044.49
917.548	6016.01
917.859	6015.11
918.171	5991.16
918.482	5980.53
918.794	5944.6
919.105	5894.89
919.416	5863.25
919.727	5900.99
920.038	5897.15
920.349	5801.78
920.66	5808.11
920.971	5756.13
921.282	5746.87
921.593	5699.86
921.903	5687.66
922.214	5658.74
922.525	5670.26
922.835	5578.96
923.146	5600.21
923.456	5561.34
923.767	5571.05
924.077	5594.78
924.387	5487.89
924.697	5463.94
925.008	5459.87
925.318	5459.19
925.628	5420.1
925.938	5395.69
926.248	5362.92
926.558	5338.97
926.867	5321.57
927.177	5314.34
927.487	5283.38
927.796	5247.9
928.106	5247.22
928.416	5228.69
928.725	5231.85
929.034	5173.32
929.344	5178.07
929.653	5134.23
929.962	5095.81
930.271	5084.74
930.581	5043.38
930.89	4996.15
931.199	5052.42
931.508	5003.39
931.817	4998.64
932.125	4958.87
932.434	4926.1
932.743	4903.05
933.051	4914.35
933.36	4859.89
933.669	4842.49
933.977	4861.69
934.286	4817.63
934.594	4790.96
934.902	4812.88
935.21	4743.96
935.519	4737.86
935.827	4797.52
936.135	4662.6
936.443	4626.9
936.751	4663.73
937.059	4646.56
937.367	4606.56
937.674	4565.66
937.982	4586.9
938.29	4526.34
938.597	4560.69
938.905	4487.69
939.213	4521.14
939.52	4456.28
939.827	4475.72
940.135	4447.24
940.442	4404.98
940.749	4389.39
941.056	4432.78
941.363	4368.37
941.67	4390.97
941.977	4325.44
942.284	4289.05
942.591	4288.38
942.898	4272.11
943.205	4248.83
943.511	4243.18
943.818	4262.39
944.125	4207.02
944.431	4181.71
944.738	4197.08
945.044	4130.87
945.35	4107.14
945.657	4098.78
945.963	4123.63
946.269	4107.59
946.575	4047.25
946.881	4031.43
947.187	4042.73
947.493	4031.21
947.799	3979.23
948.105	3977.42
948.41	3948.27
948.716	3942.85
949.022	3895.39
949.327	3934.94
949.633	3830.99
949.938	3901.04
950.244	3863.08
950.549	3821.27
950.854	3841.61
951.16	3815.17
951.465	3775.17
951.77	3763.87
952.075	3758.67
952.38	3726.36
952.685	3742.85
952.99	3741.05
953.294	3702.18
953.599	3703.08
953.904	3675.74
954.209	3632.8
954.513	3649.07
954.818	3568.62
955.122	3621.95
955.426	3560.94
955.731	3566.81
956.035	3522.52
956.339	3529.3
956.643	3550.99
956.948	3492.46
957.252	3491.33
957.556	3555.51
957.86	3470.32
958.163	3474.39
958.467	3421.51
958.771	3439.13
959.075	3427.38
959.378	3414.5
959.682	3424.22
959.985	3373.82
960.289	3346.93
960.592	3358.46
960.896	3341.28
961.199	3320.94
961.502	3313.49
961.805	3310.77
962.108	3271.45
962.411	3285.92
962.714	3216.77
963.017	3205.01
963.32	3246.14
963.623	3226.93
963.926	3176.99
964.228	3156.65
964.531	3180.61
964.833	3171.34
965.136	3117.11
965.438	3116.88
965.741	3096.99
966.043	3052.48
966.345	3084.79
966.648	3053.38
966.95	3028.97
967.252	3037.56
967.554	2994.4
967.856	3015.87
968.158	2970.22
968.46	2969.31
968.761	2999.14
969.063	2973.61
969.365	2984.46
969.666	2935.19
969.968	2898.13
970.269	2922.31
970.571	2909.43
970.872	2900.39
971.174	2885.7
971.475	2876.66
971.776	2851.35
972.077	2832.14
972.378	2837.79
972.679	2791.01
972.98	2781.97
973.281	2779.94
973.582	2791.01
973.883	2736.1
974.183	2759.15
974.484	2734.07
974.785	2706.95
975.085	2723.45
975.386	2723.67
975.686	2678.7
975.986	2674.63
976.287	2710.79
976.587	2623.33
976.887	2659.27
977.187	2664.01
977.487	2622.88
977.787	2613.39
978.087	2593.28
978.387	2618.59
978.687	2593.73
978.987	2581.75
979.286	2568.42
979.586	2544.69
979.885	2504.92
980.185	2537.91
980.484	2480.29
980.784	2516.22
981.083	2518.03
981.382	2504.24
981.682	2492.26
981.981	2488.65
982.28	2446.84
982.579	2428.99
982.878	2439.61
983.177	2396.22
983.475	2434.41
983.774	2389.44
984.073	2382.89
984.372	2389.89
984.67	2346.96
984.969	2343.79
985.267	2346.05
985.566	2339.73
985.864	2331.37
986.162	2318.03
986.461	2306.96
986.759	2306.28
987.057	2283.68
987.355	2286.17
987.653	2261.31
987.951	2249.56
988.249	2208.88
988.547	2237.81
988.844	2226.06
989.142	2196.23
989.44	2196.91
989.737	2201.2
990.035	2197.13
990.332	2182.67
990.63	2165.27
990.927	2167.98
991.224	2135.21
991.521	2152.61
991.819	2106.74
992.116	2101.31
992.413	2120.52
992.71	2110.81
993.006	2103.8
993.303	2081.2
993.6	2075.1
993.897	2082.33
994.193	2068.1
994.49	2027.87
994.787	2041.66
995.083	2010.47
995.379	2010.92
995.676	1996.01
995.972	1974.09
996.268	1967.08
996.565	1962.11
996.861	1982.22
997.157	1939.74
997.453	1938.38
997.749	1937.25
998.044	1923.69
998.34	1906.74
998.636	1913.75
998.932	1925.5
999.227	1864.03
999.523	1862
999.818	1865.84
1000.114	1854.99
1000.409	1853.86
1000.704	1830.59
1001	1814.54
1001.295	1808.89
1001.59	1780.19
1001.885	1800.98
1002.18	1789.01
1002.475	1774.32
1002.77	1781.78
1003.065	1778.61
1003.359	1772.74
1003.654	1758.05
1003.949	1747.65
1004.243	1741.32
1004.538	1713.75
1004.832	1700.42
1005.127	1693.19
1005.421	1706.75
1005.715	1693.87
1006.009	1680.31
1006.304	1680.53
1006.598	1684.6
1006.892	1646.19
1007.186	1676.92
1007.48	1619.29
1007.773	1607.09
1008.067	1612.51
1008.361	1573.87
1008.655	1605.06
1008.948	1612.29
1009.242	1581.78
1009.535	1573.87
1009.829	1563.25
1010.122	1545.62
1010.415	1544.72
1010.708	1514.44
1011.001	1525.96
1011.295	1537.04
1011.588	1527.54
1011.881	1481.44
1012.173	1478.73
1012.466	1482.8
1012.759	1487.09
1013.052	1496.81
1013.344	1469.24
1013.637	1464.95
1013.93	1445.74
1014.222	1431.73
1014.514	1421.78
1014.807	1420.88
1015.099	1411.39
1015.391	1394.21
1015.683	1395.57
1015.976	1403.48
1016.268	1391.5
1016.56	1379.98
1016.851	1380.2
1017.143	1380.43
1017.435	1344.05
1017.727	1325.29
1018.018	1342.92
1018.31	1334.56
1018.602	1332.52
1018.893	1313.09
1019.185	1322.35
1019.476	1282.81
1019.767	1278.29
1020.058	1341.11
1020.35	1289.13
1020.641	1254.33
1020.932	1234.67
1021.223	1243.03
1021.514	1233.54
1021.804	1253.88
1022.095	1237.16
1022.386	1207.55
1022.677	1201.45
1022.967	1190.83
1023.258	1217.95
1023.548	1182.69
1023.839	1186.76
1024.129	1167.78
1024.419	1170.72
1024.709	1153.54
1025	1141.34
1025.29	1154.45
1025.58	1135.92
1025.87	1113.32
1026.16	1127.78
1026.449	1136.59
1026.739	1116.03
1027.029	1112.87
1027.319	1111.74
1027.608	1103.37
1027.898	1092.08
1028.187	1057.95
1028.477	1071.29
1028.766	1043.49
1029.055	1061.79
1029.344	1032.64
1029.634	1047.78
1029.923	1020.89
1030.212	1009.82
1030.501	1020.67
1030.79	1030.83
1031.078	1018.18
1031.367	1008.24
1031.656	1009.82
1031.945	1010.72
1032.233	986.32
1032.522	996.71
1032.81	972.08
1033.099	984.96
1033.387	961.46
1033.675	958.29
1033.963	943.83
1034.251	939.31
1034.54	940.22
1034.828	934.79
1035.116	912.42
1035.403	938.18
1035.691	924.62
1035.979	925.98
1036.267	908.8
1036.554	910.61
1036.842	901.35
1037.129	889.6
1037.417	877.17
1037.704	888.92
1037.992	873.55
1038.279	873.55
1038.566	844.62
1038.853	844.62
1039.14	844.62
