Data from hue_240_FLMS001491_00071.txt Node
Date: Tue Feb 07 16:35:55 GMT 2017
User: dcchb
Spectrometer: FLMS00149
Trigger mode: 0
Integration Time (sec): 2.000000E-2
Scans to average: 10
Electric dark correction enabled: true
Nonlinearity correction enabled: false
Boxcar width: 0
XAxis mode: Wavelengths
Number of Pixels in Spectrum: 2048
>>>>>Begin Spectral Data<<<<<
341.393	-14.45
341.776	-14.45
342.16	-14.45
342.543	-61
342.927	-71.17
343.31	-64.16
343.693	-65.07
344.077	-63.04
344.46	-48.8
344.843	-51.74
345.226	-46.31
345.61	-24.17
345.993	-12.87
346.376	-6.54
346.759	7.02
347.142	25.78
347.525	39.34
347.908	58.54
348.291	70.75
348.674	79.79
349.057	101.48
349.44	105.77
349.823	149.61
350.206	153.23
350.588	176.96
350.971	203.85
351.354	200.23
351.737	238.2
352.119	256.73
352.502	263.51
352.884	254.92
353.267	271.42
353.65	292.89
354.032	283.62
354.414	303.28
354.797	293.79
355.179	314.13
355.562	297.18
355.944	329.27
356.326	313.68
356.709	315.71
357.091	336.5
357.473	310.97
357.855	326.56
358.238	319.78
358.62	330.63
359.002	345.09
359.384	306.9
359.766	322.72
360.148	322.49
360.53	304.19
360.912	347.12
361.294	332.21
361.676	341.47
362.057	324.98
362.439	307.12
362.821	322.94
363.203	341.25
363.584	313.45
363.966	317.07
364.348	331.53
364.729	317.75
365.111	312.77
365.493	305.54
365.874	295.6
366.256	315.03
366.637	322.27
367.019	294.02
367.4	311.87
367.781	295.83
368.163	301.25
368.544	310.51
368.925	301.48
369.306	305.09
369.688	303.96
370.069	318.88
370.45	299.67
370.831	282.72
371.212	306.45
371.593	287.46
371.974	287.92
372.355	298.31
372.736	306.67
373.117	320.23
373.498	316.62
373.879	296.73
374.26	319.1
374.641	288.82
375.021	305.09
375.402	303.51
375.783	315.49
376.163	322.49
376.544	318.2
376.925	307.35
377.305	318.88
377.686	323.85
378.066	337.41
378.447	311.64
378.827	309.61
379.208	323.62
379.588	327.46
379.968	323.17
380.349	351.87
380.729	338.54
381.109	318.88
381.489	335.15
381.87	324.75
382.25	323.17
382.63	323.85
383.01	321.14
383.39	331.98
383.77	332.43
384.15	338.54
384.53	344.64
384.91	340.12
385.29	340.8
385.67	322.72
386.049	337.41
386.429	345.54
386.809	338.54
387.189	352.32
387.568	337.41
387.948	356.16
388.328	339.44
388.707	346.9
389.087	345.54
389.466	370.85
389.846	364.75
390.225	347.8
390.605	366.78
390.984	366.11
391.363	362.94
391.743	358.2
392.122	357.97
392.501	361.81
392.881	384.64
393.26	358.42
393.639	355.26
394.018	357.74
394.397	383.28
394.776	360.91
395.155	383.28
395.534	401.81
395.913	382.83
396.292	381.47
396.671	374.47
397.05	390.96
397.429	389.38
397.808	398.42
398.186	391.64
398.565	391.42
398.944	404.52
399.323	394.13
399.701	388.93
400.08	400
400.458	397.29
400.837	405.2
401.215	412.88
401.594	383.73
401.972	422.83
402.351	413.34
402.729	407.24
403.107	446.33
403.486	418.31
403.864	428.93
404.242	425.54
404.62	415.82
404.999	427.35
405.377	437.52
405.755	427.8
406.133	451.53
406.511	427.8
406.889	449.04
407.267	455.82
407.645	468.02
408.023	451.3
408.401	475.93
408.779	460.57
409.156	482.71
409.534	481.13
409.912	476.84
410.29	510.28
410.667	498.08
411.045	510.28
411.422	519.77
411.8	529.27
412.178	509.83
412.555	522.94
412.933	524.52
413.31	563.39
413.687	527.68
414.065	551.19
414.442	531.75
414.819	568.36
415.197	578.53
415.574	587.34
415.951	575.82
416.328	578.53
416.705	585.54
417.082	602.71
417.46	612.2
417.837	633.44
418.214	626.89
418.591	600.22
418.967	617.17
419.344	638.64
419.721	641.81
420.098	688.81
420.475	663.05
420.852	663.95
421.228	647.45
421.605	670.05
421.982	683.16
422.358	698.3
422.735	709.6
423.111	731.75
423.488	712.09
423.864	733.55
424.241	737.85
424.617	766.55
424.994	793.21
425.37	782.59
425.746	745.53
426.123	771.07
426.499	800.22
426.875	802.93
427.251	812.65
427.627	821.24
428.003	836.6
428.379	847.22
428.756	833.89
429.132	837.05
429.507	870.27
429.883	877.51
430.259	892.42
430.635	894.68
431.011	890.61
431.387	918.63
431.763	932.19
432.138	946.88
432.514	936.71
432.89	958.41
433.265	987.56
433.641	1017.39
434.016	1006.77
434.392	1039.53
434.767	1031.85
435.143	1031.4
435.518	1059.87
435.894	1062.81
436.269	1067.33
436.644	1108.01
437.02	1125.86
437.395	1123.6
437.77	1157.5
438.145	1146.88
438.52	1173.54
438.895	1192.3
439.271	1212.19
439.646	1241.11
440.021	1239.76
440.395	1244.05
440.77	1238.4
441.145	1270.94
441.52	1288.57
441.895	1289.25
442.27	1308.91
442.645	1298.51
443.019	1316.59
443.394	1353.88
443.769	1345.52
444.143	1338.96
444.518	1347.55
444.892	1379.19
445.267	1392.29
445.641	1422.58
446.016	1401.33
446.39	1427.1
446.764	1443.82
447.139	1426.87
447.513	1457.83
447.887	1432.52
448.262	1462.57
448.636	1484.04
449.01	1473.87
449.384	1510.93
449.758	1478.17
450.132	1531.05
450.506	1532.18
450.88	1559.75
451.254	1565.4
451.628	1570.82
452.002	1567.43
452.376	1590.25
452.75	1622.12
453.123	1615.11
453.497	1666.86
453.871	1656.02
454.244	1698.05
454.618	1711.16
454.992	1677.71
455.365	1713.64
455.739	1737.82
456.112	1764.04
456.486	1769.46
456.859	1806.52
457.232	1817.59
457.606	1819.18
457.979	1843.13
458.352	1866.86
458.725	1913.18
459.099	1893.98
459.472	1936.69
459.845	1937.82
460.218	1990.47
460.591	1967.42
460.964	2010.58
461.337	2034.08
461.71	2069.34
462.083	2079.51
462.456	2086.06
462.829	2094.42
463.201	2149.56
463.574	2138.94
463.947	2158.6
464.32	2199.73
464.692	2249.67
465.065	2235.44
465.438	2271.82
465.81	2286.96
466.183	2329.9
466.555	2378.26
466.928	2380.52
467.3	2363.57
467.672	2436.79
468.045	2481.53
468.417	2468.42
468.789	2474.53
469.161	2505.26
469.534	2562.43
469.906	2599.49
470.278	2621.19
470.65	2674.75
471.022	2711.58
471.394	2728.98
471.766	2731.24
472.138	2759.72
472.51	2850.56
472.882	2883.55
473.253	2916.1
473.625	2922.2
473.997	2960.16
474.369	2985.25
474.74	3031.57
475.112	3049.88
475.484	3096.2
475.855	3173.94
476.227	3190.66
476.598	3277.67
476.97	3258.01
477.341	3381.85
477.713	3396.99
478.084	3434.27
478.455	3490.32
478.827	3525.12
479.198	3613.03
479.569	3638.56
479.94	3708.84
480.311	3715.85
480.682	3799.24
481.053	3871.1
481.424	3902.28
481.795	3961.72
482.166	3973.92
482.537	4005.78
482.908	4101.15
483.279	4155.61
483.65	4203.07
484.021	4281.03
484.391	4308.38
484.762	4357.64
485.133	4425.66
485.503	4445.09
485.874	4526.45
486.244	4580.23
486.615	4631.76
486.985	4659.55
487.356	4753.56
487.726	4745.2
488.097	4884.18
488.467	4908.13
488.837	4991.75
489.207	4996.94
489.578	5042.37
489.948	5066.32
490.318	5137.28
490.688	5212.53
491.058	5248.92
491.428	5346.31
491.798	5343.38
492.168	5433.54
492.538	5447.55
492.908	5523.48
493.278	5569.13
493.648	5573.88
494.017	5660.2
494.387	5708.79
494.757	5734.1
495.126	5789.92
495.496	5817.94
495.866	5800.99
496.235	5903.14
496.605	5936.58
496.974	5996.92
497.344	5974.77
497.713	6007.09
498.082	6017.93
498.452	6125.28
498.821	6137.03
499.19	6116.01
499.559	6135.22
499.928	6183.58
500.298	6245.5
500.667	6319.4
501.036	6291.15
501.405	6371.37
501.774	6393.29
502.143	6353.52
502.512	6372.73
502.88	6407.76
503.249	6405.27
503.618	6461.09
503.987	6479.39
504.356	6554.64
504.724	6510.35
505.093	6539.73
505.462	6577.24
505.83	6632.16
506.199	6661.76
506.567	6716.22
506.936	6735.43
507.304	6802.1
507.672	6788.08
508.041	6826.95
508.409	6870.57
508.777	6830.79
509.145	6911.02
509.514	6880.96
509.882	6944.24
510.25	6936.78
510.618	6944.92
510.986	6986.05
511.354	7013.39
511.722	7044.57
512.09	7053.61
512.458	7057.68
512.826	7114.4
513.193	7149.43
513.561	7158.7
513.929	7196.44
514.297	7250.9
514.664	7224.91
515.032	7227.62
515.4	7263.78
515.767	7272.14
516.135	7285.92
516.502	7217.23
516.869	7339.71
517.237	7394.17
517.604	7311.46
517.972	7481.4
518.339	7400.95
518.706	7448.63
519.073	7447.28
519.44	7500.16
519.808	7475.75
520.175	7510.1
520.542	7562.3
520.909	7575.63
521.276	7564.11
521.643	7592.81
522.009	7585.58
522.376	7626.71
522.743	7692.24
523.11	7669.87
523.477	7758.68
523.843	7774.95
524.21	7772.01
524.577	7795.52
524.943	7769.53
525.31	7786.7
525.676	7895.63
526.043	7854.5
526.409	7916.64
526.776	7986.02
527.142	7968.84
527.508	7962.06
527.874	8012.91
528.241	8027.37
528.607	8021.27
528.973	8110.99
529.339	8087.26
529.705	8110.31
530.071	8117.31
530.437	8153.7
530.803	8150.31
531.169	8153.7
531.535	8096.07
531.901	8124.09
532.267	8130.42
532.632	8227.82
532.998	8206.35
533.364	8136.52
533.73	8233.24
534.095	8227.59
534.461	8268.05
534.826	8287.71
535.192	8283.19
535.557	8299.23
535.923	8259.91
536.288	8240.02
536.653	8264.2
537.019	8287.25
537.384	8268.95
537.749	8277.31
538.114	8211.78
538.479	8308.95
538.845	8288.38
539.21	8212.91
539.575	8216.97
539.94	8208.16
540.305	8260.36
540.67	8271.66
541.034	8214.94
541.399	8237.76
541.764	8234.83
542.129	8265.11
542.494	8233.92
542.858	8168.61
543.223	8244.77
543.587	8245.22
543.952	8170.87
544.316	8255.39
544.681	8300.59
545.045	8179.91
545.41	8222.17
545.774	8294.49
546.138	8217.2
546.503	8209.29
546.867	8212.91
547.231	8247.25
547.595	8188.05
547.959	8212.91
548.324	8180.59
548.688	8206.35
549.052	8204.09
549.416	8167.93
549.779	8205.67
550.143	8195.5
550.507	8199.35
550.871	8181.72
551.235	8143.53
551.599	8273.24
551.962	8163.42
552.326	8210.19
552.689	8312.34
553.053	8228.05
553.417	8191.21
553.78	8227.82
554.143	8207.93
554.507	8205.67
554.87	8218.78
555.234	8282.51
555.597	8206.8
555.96	8287.25
556.323	8212.91
556.686	8259.01
557.05	8280.25
557.413	8260.14
557.776	8226.92
558.139	8263.3
558.502	8282.06
558.865	8327.48
559.228	8404.31
559.59	8315.95
559.953	8332.68
560.316	8343.98
560.679	8388.72
561.041	8403.41
561.404	8410.64
561.767	8486.57
562.129	8366.57
562.492	8420.58
562.854	8389.4
563.217	8452.67
563.579	8472.33
563.941	8529.73
564.304	8466.23
564.666	8524.76
565.028	8586.23
565.39	8576.74
565.753	8639.79
566.115	8628.26
566.477	8597.53
566.839	8623.29
567.201	8690.86
567.563	8706.23
567.925	8736.73
568.287	8706.45
568.648	8727.92
569.01	8763.4
569.372	8808.6
569.734	8791.87
570.095	8828.93
570.457	8868.03
570.819	8832.32
571.18	8910.29
571.542	8913.45
571.903	8898.09
572.265	9003.62
572.626	8894.24
572.987	8981.92
573.349	9034.13
573.71	8997.52
574.071	8980.12
574.432	9100.34
574.794	9177.4
575.155	9112.32
575.516	9052.21
575.877	9088.14
576.238	9145.76
576.599	9175.37
576.96	9230.96
577.32	9188.02
577.681	9305.31
578.042	9202.48
578.403	9297.62
578.763	9310.73
579.124	9341.24
579.485	9287.68
579.845	9404.74
580.206	9335.14
580.566	9386.21
580.927	9377.17
581.287	9427.34
581.648	9371.29
582.008	9512.53
582.368	9408.81
582.728	9508.46
583.089	9444.51
583.449	9423.27
583.809	9522.25
584.169	9512.98
584.529	9463.04
584.889	9569.93
585.249	9514.11
585.609	9445.42
585.969	9590.72
586.329	9611.74
586.688	9550.95
587.048	9596.15
587.408	9590.27
587.768	9596.6
588.127	9598.63
588.487	9614.22
588.846	9639.08
589.206	9559.08
589.565	9662.13
589.925	9702.13
590.284	9647.22
590.643	9665.52
591.003	9670.04
591.362	9750.72
591.721	9661.91
592.08	9658.74
592.44	9780.55
592.799	9676.37
593.158	9740.55
593.517	9735.8
593.876	9757.05
594.235	9747.1
594.593	9771.73
594.952	9737.61
595.311	9731.51
595.67	9729.48
596.029	9764.05
596.387	9845.18
596.746	9834.33
597.104	9803.37
597.463	9813.09
597.822	9852.18
598.18	9841.11
598.538	9853.54
598.897	9838.85
599.255	9774.22
599.613	9950.49
599.972	9859.19
600.33	9877.27
600.688	9811.73
601.046	9879.98
601.404	9937.83
601.762	9875.69
602.12	9893.77
602.478	9957.04
602.836	10010.6
603.194	9881.11
603.552	9944.39
603.91	9848.57
604.268	9961.56
604.625	9888.12
604.983	9922.01
605.341	9873.2
605.698	9929.47
606.056	9965.18
606.413	9972.86
606.771	10002.69
607.128	10009.69
607.485	9988.23
607.843	9906.65
608.2	10061.67
608.557	10025.06
608.914	10039.07
609.272	10025.51
609.629	10089.92
609.986	10056.47
610.343	10049.69
610.7	10153.65
611.057	10074.78
611.414	10121.78
611.771	10147.32
612.127	10133.53
612.484	10170.82
612.841	10190.25
613.198	10193.42
613.554	10120.65
613.911	10220.99
614.267	10147.32
614.624	10179.63
614.98	10168.11
615.337	10183.25
615.693	10181.22
616.05	10148.45
616.406	10278.39
616.762	10220.76
617.118	10211.72
617.475	10201.55
617.831	10244.04
618.187	10389.12
618.543	10220.76
618.899	10330.36
619.255	10320.42
619.611	10306.64
619.967	10306.18
620.323	10319.06
620.678	10317.03
621.034	10246.75
621.39	10262.8
621.746	10265.96
622.101	10336.47
622.457	10330.82
622.812	10318.39
623.168	10352.96
623.523	10315.45
623.879	10390.93
624.234	10378.72
624.589	10343.47
624.945	10301.66
625.3	10330.14
625.655	10332.17
626.01	10345.28
626.365	10332.62
626.72	10345.05
627.075	10328.33
627.43	10247.43
627.785	10327.65
628.14	10322.45
628.495	10382.57
628.85	10301.89
629.205	10257.15
629.559	10280.87
629.914	10279.74
630.269	10247.65
630.623	10183.25
630.978	10181.22
631.332	10223.02
631.687	10290.59
632.041	10236.58
632.396	10189.58
632.75	10204.72
633.104	10221.89
633.459	10126.75
633.813	10128.34
634.167	10165.85
634.521	10117.94
634.875	10143.7
635.229	10096.7
635.583	10107.09
635.937	10076.59
636.291	10048.11
636.645	10091.95
636.999	10015.8
637.352	10024.61
637.706	9945.52
638.06	10092.86
638.413	10007.89
638.767	9954.1
639.121	9980.99
639.474	9961.11
639.828	9939.41
640.181	9910.71
640.534	9940.09
640.888	9898.74
641.241	9849.7
641.594	9858.74
641.947	9877.72
642.301	9858.06
642.654	9873.65
643.007	9945.52
643.36	9865.97
643.713	9872.97
644.066	9821.45
644.419	9804.28
644.771	9806.08
645.124	9650.38
645.477	9719.98
645.83	9589.14
646.182	9519.31
646.535	9539.65
646.888	9509.14
647.24	9470.27
647.593	9516.37
647.945	9470.27
648.298	9505.07
648.65	9480.44
649.002	9486.77
649.355	9531.06
649.707	9479.76
650.059	9511.85
650.411	9649.48
650.763	9583.94
651.115	9702.58
651.467	9717.95
651.819	9660.1
652.171	9745.07
652.523	9663.49
652.875	9643.38
653.227	9708.46
653.578	9728.12
653.93	9639.99
654.282	9669.82
654.633	9603.83
654.985	9685.41
655.337	9619.42
655.688	9601.57
656.039	9644.05
656.391	9559.31
656.742	9591.4
657.094	9590.5
657.445	9660.55
657.796	9722.02
658.147	9604.73
658.498	9616.71
658.849	9643.6
659.2	9642.92
659.551	9592.3
659.902	9658.07
660.253	9624.85
660.604	9662.58
660.955	9590.27
661.306	9694.22
661.656	9584.62
662.007	9665.07
662.358	9678.86
662.708	9652.42
663.059	9631.17
663.409	9617.39
663.76	9642.92
664.11	9671.62
664.461	9634.34
664.811	9675.47
665.161	9632.3
665.511	9642.25
665.862	9630.72
666.212	9609.7
666.562	9679.08
666.912	9652.87
667.262	9589.82
667.612	9665.75
667.962	9633.66
668.312	9606.77
668.662	9639.08
669.011	9593.21
669.361	9562.47
669.711	9637.5
670.06	9631.4
670.41	9523.83
670.76	9523.38
671.109	9621.91
671.459	9576.26
671.808	9542.14
672.157	9496.49
672.507	9506.66
672.856	9532.87
673.205	9472.99
673.554	9497.17
673.904	9549.14
674.253	9534.9
674.602	9512.08
674.951	9323.61
675.3	9290.84
675.649	9467.56
675.998	9444.06
676.346	9507.11
676.695	9449.48
677.044	9447
677.393	9423.72
677.741	9427.34
678.09	9335.14
678.438	9381.24
678.787	9374.68
679.135	9438.86
679.484	9295.36
679.832	9327.9
680.181	9291.52
680.529	9363.16
680.877	9301.01
681.225	9341.24
681.573	9323.61
681.922	9258.98
682.27	9275.7
682.618	9249.04
682.966	9207.46
683.314	9171.07
683.661	9142.6
684.009	9157.06
684.357	9113.9
684.705	9088.81
685.053	9091.07
685.4	9101.24
685.748	8997.97
686.095	9041.58
686.443	9028.7
686.79	9007.91
687.138	9021.7
687.485	8993
687.832	8954.81
688.18	8909.16
688.527	8884.98
688.874	8915.94
689.221	8856.96
689.568	8856.73
689.915	8758.2
690.262	8768.15
690.609	8801.14
690.956	8675.27
691.303	8761.14
691.65	8774.7
691.997	8718.2
692.344	8615.38
692.69	8599.56
693.037	8582.39
693.383	8564.76
693.73	8552.78
694.077	8506.68
694.423	8499.23
694.769	8475.27
695.116	8416.97
695.462	8459.23
695.808	8396.63
696.155	8389.85
696.501	8341.49
696.847	8348.5
697.193	8285.67
697.539	8270.53
697.885	8214.71
698.231	8218.1
698.577	8190.31
698.923	8217.88
699.269	8145.11
699.614	8112.8
699.96	8051.55
700.306	8028.96
700.651	7986.47
700.997	8000.71
701.342	8009.52
701.688	7951.22
702.033	7960.93
702.379	7935.4
702.724	7855.4
703.069	7944.44
703.415	7777.89
703.76	7789.19
704.105	7779.02
704.45	7774.5
704.795	7724.33
705.14	7689.3
705.485	7706.48
705.83	7600.94
706.175	7706.7
706.52	7645.91
706.865	7600.94
707.209	7531.34
707.554	7519.82
707.899	7520.72
708.243	7506.03
708.588	7518.23
708.932	7473.26
709.277	7478.24
709.621	7451.12
709.966	7358.01
710.31	7370.22
710.654	7296.32
710.998	7422.87
711.342	7341.52
711.687	7322.31
712.031	7363.21
712.375	7318.92
712.719	7237.11
713.063	7309.88
713.407	7301.52
713.75	7226.72
714.094	7267.62
714.438	7234.17
714.782	7268.07
715.125	7139.26
715.469	7167.51
715.812	7210.22
716.156	7134.52
716.499	7123.44
716.843	7151.24
717.186	7143.1
717.53	7120.73
717.873	7081.86
718.216	7120.05
718.559	7074.4
718.902	7003.9
719.246	7002.99
719.589	6949.44
719.932	7001.86
720.275	6995.76
720.617	7005.48
720.96	6961.41
721.303	6955.76
721.646	6929.78
721.989	6932.71
722.331	6969.55
722.674	6915.99
723.016	6979.04
723.359	6908.31
723.701	6932.94
724.044	6879.16
724.386	6868.31
724.729	6925.03
725.071	6831.47
725.413	6897.23
725.755	6825.15
726.097	6820.85
726.439	6826.28
726.782	6819.27
727.124	6798.71
727.465	6855.65
727.807	6855.88
728.149	6795.32
728.491	6781.08
728.833	6818.59
729.175	6755.77
729.516	6743.11
729.858	6772.04
730.199	6816.33
730.541	6776.56
730.882	6789.67
731.224	6777.92
731.565	6720.74
731.906	6800.97
732.248	6761.64
732.589	6743.11
732.93	6752.38
733.271	6788.54
733.612	6711.02
733.953	6698.6
734.294	6714.41
734.635	6745.6
734.976	6772.27
735.317	6692.72
735.658	6742.66
735.999	6753.73
736.339	6681.65
736.68	6733.62
737.021	6727.97
737.361	6775.88
737.702	6697.69
738.042	6684.13
738.383	6699.5
738.723	6780.4
739.063	6754.41
739.404	6793.96
739.744	6707.63
740.084	6728.2
740.424	6782.89
740.764	6708.31
741.104	6753.28
741.444	6772.27
741.784	6768.65
742.124	6797.8
742.464	6749.22
742.804	6781.76
743.143	6802.77
743.483	6794.41
743.823	6753.96
744.162	6820.17
744.502	6798.03
744.841	6836.22
745.181	6953.73
745.52	6918.7
745.86	6934.52
746.199	6875.31
746.538	6955.99
746.877	7006.38
747.216	7022.2
747.556	7042.09
747.895	7026.5
748.234	7066.72
748.573	7083.44
748.911	7117.34
749.25	7182.42
749.589	7162.99
749.928	7236.43
750.267	7287.51
750.605	7256.32
750.944	7330.89
751.283	7387.16
751.621	7396.66
751.96	7434.85
752.298	7521.17
752.636	7599.59
752.975	7580.83
753.313	7641.62
753.651	7720.26
753.989	7730.66
754.327	7883.65
754.666	7916.64
755.004	7954.83
755.342	8091.78
755.679	8133.81
756.017	8261.72
756.355	8307.59
756.693	8375.84
757.031	8491.09
757.368	8433.01
757.706	8602.5
758.044	8718.2
758.381	8811.99
758.719	8873.23
759.056	9058.53
759.394	8967.91
759.731	9134.01
760.068	9213.78
760.405	9331.75
760.743	9419.2
761.08	9508.01
761.417	9595.92
761.754	9731.06
762.091	9833.2
762.428	9845.63
762.765	9853.09
763.102	10101.67
763.438	10098.73
763.775	10215.11
764.112	10303.7
764.449	10383.7
764.785	10449.68
765.122	10561.32
765.458	10585.72
765.795	10751.6
766.131	10738.26
766.467	10925.83
766.804	10921.31
767.14	10985.94
767.476	11113.17
767.812	11094.41
768.148	11244.92
768.485	11272.49
768.821	11309.77
769.157	11418.02
769.492	11448.98
769.828	11544.34
770.164	11488.07
770.5	11512.48
770.836	11639.48
771.171	11693.27
771.507	11670.22
771.842	11719.25
772.178	11709.54
772.513	11823.88
772.849	11880.83
773.184	11866.37
773.519	11940.27
773.855	12018
774.19	11966.93
774.525	11969.87
774.86	12057.78
775.195	12079.24
775.53	12052.58
775.865	12122.41
776.2	12047.38
776.535	11969.42
776.87	12159.47
777.205	12069.3
777.539	12053.48
777.874	12140.49
778.209	12145.91
778.543	12225.68
778.878	12077.44
779.212	12099.36
779.547	12121.73
779.881	12160.15
780.215	12194.72
780.55	12153.82
780.884	12074.05
781.218	12130.99
781.552	12153.14
781.886	12043.77
782.22	12138.9
782.554	12092.13
782.888	12038.57
783.222	11955.41
783.556	12091.67
783.889	11996.53
784.223	11883.09
784.557	11983.65
784.89	11953.15
785.224	11887.61
785.557	11898.23
785.891	11863.21
786.224	11882.87
786.558	11937.33
786.891	11799.03
787.224	11820.72
787.557	11775.52
787.891	11794.51
788.224	11760.83
788.557	11818.46
788.89	11799.25
789.223	11764.22
789.556	11737.78
789.888	11741.63
790.221	11634.74
790.554	11593.38
790.887	11624.12
791.219	11559.94
791.552	11544.57
791.884	11458.24
792.217	11471.35
792.549	11545.02
792.882	11422.99
793.214	11394.06
793.546	11430.45
793.879	11339.6
794.211	11369.66
794.543	11334.18
794.875	11302.77
795.207	11322.2
795.539	11328.76
795.871	11256.67
796.203	11165.14
796.535	11068.88
796.867	11069.33
797.198	11076.11
797.53	11129.89
797.862	10979.39
798.193	11056.9
798.525	10997.92
798.856	10986.39
799.188	10886.51
799.519	10798.37
799.85	10848.54
800.182	10861.2
800.513	10875.66
800.844	10764.7
801.175	10783.23
801.506	10791.14
801.837	10742.78
802.168	10705.95
802.499	10711.14
802.83	10689.45
803.161	10615.33
803.491	10593.41
803.822	10618.94
804.153	10604.26
804.483	10500.08
804.814	10490.13
805.145	10463.92
805.475	10490.81
805.805	10440.87
806.136	10418.95
806.466	10422.34
806.796	10423.02
807.126	10331.49
807.457	10288.11
807.787	10270.93
808.117	10293.75
808.447	10178.5
808.777	10145.74
809.107	10210.59
809.436	10192.74
809.766	10090.14
810.096	10153.87
810.426	10103.03
810.755	10109.8
811.085	10094.21
811.414	10088.56
811.744	10036.59
812.073	10055.79
812.403	10000.43
812.732	9905.97
813.061	10016.47
813.39	9872.52
813.719	9838.17
814.049	9933.09
814.378	9924.05
814.707	9836.59
815.036	9821
815.365	9791.62
815.693	9726.54
816.022	9824.84
816.351	9711.85
816.68	9667.33
817.008	9660.78
817.337	9641.57
817.665	9646.09
817.994	9666.88
818.322	9657.16
818.651	9553.21
818.979	9586.2
819.307	9652.64
819.636	9534.23
819.964	9463.72
820.292	9522.48
820.62	9590.72
820.948	9525.19
821.276	9564.73
821.604	9420.78
821.932	9487
822.259	9476.83
822.587	9445.19
822.915	9468.47
823.243	9483.38
823.57	9400.22
823.898	9407.22
824.225	9426.66
824.553	9490.61
824.88	9419.88
825.207	9469.82
825.535	9431.86
825.862	9466.21
826.189	9435.47
826.516	9494
826.843	9537.84
827.17	9480.89
827.497	9465.08
827.824	9535.58
828.151	9471.4
828.478	9476.15
828.805	9527
829.131	9474.79
829.458	9439.09
829.785	9437.51
830.111	9473.66
830.438	9515.02
830.764	9499.2
831.09	9476.15
831.417	9449.03
831.743	9497.17
832.069	9431.63
832.395	9395.7
832.722	9409.94
833.048	9421.46
833.374	9423.95
833.7	9364.97
834.026	9467.11
834.351	9483.83
834.677	9414.46
835.003	9394.12
835.329	9359.77
835.654	9430.5
835.98	9321.35
836.306	9388.02
836.631	9313.22
836.956	9372.88
837.282	9331.07
837.607	9284.74
837.932	9266.89
838.258	9309.37
838.583	9282.03
838.908	9243.39
839.233	9218.53
839.558	9216.04
839.883	9211.98
840.208	9135.37
840.533	9157.97
840.858	9179.66
841.182	9172.2
841.507	9128.59
841.832	9152.09
842.156	9084.75
842.481	9112.32
842.805	9089.72
843.13	9013.56
843.454	9070.28
843.778	8997.07
844.103	8980.12
844.427	8981.47
844.751	9008.14
845.075	8924.75
845.399	8943.96
845.723	8793.91
846.047	8882.94
846.371	8815.6
846.695	8755.49
847.019	8763.85
847.343	8685.89
847.666	8640.92
847.99	8635.49
848.313	8575.83
848.637	8548.49
848.96	8580.58
849.284	8553.24
849.607	8457.19
849.931	8460.81
850.254	8380.58
850.577	8335.16
850.9	8340.59
851.223	8325.67
851.546	8278.89
851.869	8187.6
852.192	8231.44
852.515	8130.42
852.838	8107.82
853.161	8150.99
853.483	8098.78
853.806	8033.7
854.129	8078.67
854.451	7987.6
854.774	7997.77
855.096	7934.27
855.419	7929.98
855.741	7981.95
856.063	7885.68
856.385	7861.05
856.708	7889.98
857.03	7835.74
857.352	7819.02
857.674	7710.55
857.996	7748.51
858.318	7692.69
858.64	7725.69
858.961	7715.29
859.283	7656.54
859.605	7595.07
859.926	7615.86
860.248	7567.27
860.57	7617.44
860.891	7585.35
861.212	7577.22
861.534	7523.88
861.855	7501.51
862.176	7505.13
862.498	7551.68
862.819	7554.17
863.14	7491.57
863.461	7431.01
863.782	7378.58
864.103	7459.93
864.424	7378.8
864.745	7447.95
865.065	7417.22
865.386	7359.14
865.707	7322.99
866.027	7373.15
866.348	7334.06
866.668	7332.7
866.989	7307.39
867.309	7288.64
867.63	7285.47
867.95	7270.56
868.27	7252.7
868.59	7247.28
868.91	7226.72
869.23	7256.09
869.55	7184.68
869.87	7248.41
870.19	7163.22
870.51	7260.39
870.83	7223.55
871.15	7151.46
871.469	7130
871.789	7189.66
872.109	7218.13
872.428	7116.44
872.748	7195.53
873.067	7136.78
873.386	7133.16
873.706	7082.09
874.025	7059.04
874.344	7070.79
874.663	7119.6
874.982	7007.06
875.301	6984.92
875.62	7034.63
875.939	7012.26
876.258	7003.9
876.577	6954.63
876.896	7013.62
877.214	6950.11
877.533	6916.22
877.852	6985.59
878.17	6967.97
878.489	6934.75
878.807	6932.71
879.125	6906.73
879.444	6892.94
879.762	6853.17
880.08	6830.57
880.398	6861.3
880.716	6807.52
881.034	6788.99
881.352	6761.42
881.67	6756.9
881.988	6817.46
882.306	6753.73
882.624	6756.45
882.941	6745.37
883.259	6726.62
883.577	6709.89
883.894	6668.31
884.212	6666.05
884.529	6668.77
884.846	6630.35
885.164	6673.06
885.481	6566.62
885.798	6639.84
886.115	6602.55
886.432	6604.81
886.75	6593.74
887.067	6519.39
887.383	6451.82
887.7	6512.84
888.017	6496.11
888.334	6515.1
888.651	6414.31
888.967	6489.79
889.284	6452.27
889.6	6357.81
889.917	6370.24
890.233	6403.01
890.55	6294.54
890.866	6358.04
891.182	6365.95
891.498	6284.14
891.815	6280.07
892.131	6250.02
892.447	6276.46
892.763	6270.13
893.079	6246.18
893.395	6171.83
893.71	6203.24
894.026	6198.72
894.342	6167.76
894.657	6104.71
894.973	6099.06
895.289	6092.51
895.604	6087.99
895.92	5998.5
896.235	6022.91
896.55	6003.92
896.865	6003.7
897.181	5940.2
897.496	5967.31
897.811	5943.36
898.126	5922.57
898.441	5968.22
898.756	5902.01
899.071	5881.22
899.386	5822.69
899.7	5798.28
900.015	5802.57
900.33	5767.32
900.644	5730.48
900.959	5739.52
901.273	5731.39
901.588	5714.67
901.902	5619.53
902.216	5619.98
902.531	5617.95
902.845	5623.14
903.159	5615.23
903.473	5553.31
903.787	5597.83
904.101	5484.16
904.415	5551.96
904.729	5475.35
905.042	5489.59
905.356	5470.15
905.67	5457.72
905.984	5468.12
906.297	5395.58
906.611	5394.9
906.924	5390.15
907.237	5364.62
907.551	5321.91
907.864	5323.49
908.177	5276.03
908.491	5334.11
908.804	5292.76
909.117	5241.23
909.43	5259.54
909.743	5186.77
910.056	5204.17
910.368	5167.79
910.681	5109.48
910.994	5116.72
911.307	5050.28
911.619	5059.77
911.932	5029.49
912.244	5021.35
912.557	5001.01
912.869	5025.19
913.181	5004.63
913.494	4979.32
913.806	4931.64
914.118	4929.38
914.43	4887.8
914.742	4881.92
915.054	4915.59
915.366	4816.61
915.678	4863.62
915.99	4776.39
916.302	4760.57
916.613	4688.03
916.925	4728.48
917.236	4724.41
917.548	4702.26
917.859	4695.26
918.171	4692.32
918.482	4615.03
918.794	4619.55
919.105	4634.47
919.416	4548.14
919.727	4558.31
920.038	4578.88
920.349	4545.43
920.66	4509.73
920.971	4493.23
921.282	4529.84
921.593	4480.35
921.903	4449.39
922.214	4411.42
922.525	4426.34
922.835	4389.05
923.146	4404.87
923.456	4385.21
923.767	4311.77
924.077	4343.4
924.387	4332.78
924.697	4277.19
925.008	4293.69
925.318	4266.57
925.628	4250.98
925.938	4240.81
926.248	4186.12
926.558	4236.06
926.867	4194.25
927.177	4168.49
927.487	4166.46
927.796	4120.36
928.106	4138.44
928.416	4077.2
928.725	4098.89
929.034	4052.79
929.344	4088.27
929.653	4074.71
929.962	4025.9
930.271	3976.86
930.581	4010.76
930.89	3978.21
931.199	3950.64
931.508	3933.24
931.817	3928.95
932.125	3904.77
932.434	3864.32
932.743	3862.06
933.051	3862.06
933.36	3852.12
933.669	3862.96
933.977	3790.65
934.286	3786.58
934.594	3805.34
934.902	3779.12
935.21	3703.65
935.519	3736.64
935.827	3795.39
936.135	3685.11
936.443	3671.56
936.751	3687.83
937.059	3669.3
937.367	3681.5
937.674	3636.75
937.982	3614.38
938.29	3620.03
938.597	3614.83
938.905	3524.67
939.213	3563.99
939.52	3561.05
939.827	3536.42
940.135	3537.55
940.442	3528.96
940.749	3484.22
941.056	3513.59
941.363	3436.53
941.67	3454.61
941.977	3432.47
942.284	3401.51
942.591	3409.64
942.898	3361.73
943.205	3383.43
943.511	3373.94
943.818	3366.25
944.125	3344.56
944.431	3312.47
944.738	3324.45
945.044	3309.76
945.35	3256.65
945.657	3291.9
945.963	3214.39
946.269	3229.31
946.575	3248.29
946.881	3194.73
947.187	3223.88
947.493	3210.1
947.799	3153.38
948.105	3135.07
948.41	3145.02
948.716	3145.92
949.022	3101.63
949.327	3088.52
949.633	3103.44
949.938	3083.77
950.244	3053.04
950.549	3048.07
950.854	3036.32
951.16	3040.84
951.465	3034.28
951.77	2985.25
952.075	3012.14
952.38	2973.5
952.685	2961.29
952.99	2936.66
953.294	2953.83
953.599	2952.48
953.904	2905.25
954.209	2890.56
954.513	2879.26
954.818	2891.01
955.122	2881.29
955.426	2865.7
955.731	2865.48
956.035	2819.83
956.339	2857.34
956.643	2857.57
956.948	2792.48
957.252	2819.6
957.556	2808.98
957.86	2760.17
958.163	2763.56
958.467	2750.22
958.771	2717
959.075	2711.13
959.378	2717.68
959.682	2721.3
959.985	2698.93
960.289	2635.65
960.592	2655.54
960.896	2655.31
961.199	2659.38
961.502	2642.43
961.805	2614.41
962.108	2636.78
962.411	2601.75
962.714	2591.13
963.017	2587.29
963.32	2590.45
963.623	2527.63
963.926	2544.35
964.228	2527.63
964.531	2539.83
964.833	2533.28
965.136	2502.55
965.438	2482.43
965.741	2480.4
966.043	2525.15
966.345	2457.58
966.648	2485.82
966.95	2448.09
967.252	2435.88
967.554	2413.28
967.856	2430.01
968.158	2407.63
968.46	2376.22
968.761	2383.68
969.063	2392.72
969.365	2383.45
969.666	2396.11
969.968	2327.18
970.269	2341.42
970.571	2343
970.872	2320.41
971.174	2327.64
971.475	2341.42
971.776	2280.86
972.077	2322.66
972.378	2279.73
972.679	2241.76
972.98	2277.02
973.281	2271.14
973.582	2258.71
973.883	2260.29
974.183	2230.24
974.484	2199.28
974.785	2213.52
975.085	2195.66
975.386	2176.45
975.686	2211.03
975.986	2181.65
976.287	2165.15
976.587	2136.46
976.887	2160.41
977.187	2129
977.487	2167.64
977.787	2130.35
978.087	2097.81
978.387	2104.59
978.687	2088.09
978.987	2051.71
979.286	2085.61
979.586	2079.51
979.885	2050.13
980.185	2029.57
980.484	2045.61
980.784	2021.88
981.083	2015.55
981.382	2006.06
981.682	2006.06
981.981	2013.75
982.28	1988.44
982.579	1955.22
982.878	1987.31
983.177	1964.26
983.475	1967.42
983.774	1961.09
984.073	1954.31
984.372	1922
984.67	1909.12
984.969	1922.45
985.267	1912.96
985.566	1914.09
985.864	1894.65
986.162	1896.91
986.461	1888.1
986.759	1853.52
987.057	1843.58
987.355	1863.24
987.653	1865.28
987.951	1843.81
988.249	1844.94
988.547	1851.26
988.844	1819.63
989.142	1807.65
989.44	1817.14
989.737	1783.7
990.035	1803.81
990.332	1801.1
990.63	1762.23
990.927	1774.2
991.224	1746.41
991.521	1761.1
991.819	1748.67
992.116	1722.91
992.413	1721.32
992.71	1706.86
993.006	1731.72
993.303	1724.71
993.6	1719.74
993.897	1663.7
994.193	1654.21
994.49	1673.87
994.787	1667.09
995.083	1639.75
995.379	1659.86
995.676	1646.75
995.972	1626.41
996.268	1632.74
996.565	1621.44
996.861	1575.34
997.157	1595.23
997.453	1616.02
997.749	1554.78
998.044	1595.68
998.34	1591.61
998.636	1585.96
998.932	1543.02
999.227	1559.97
999.523	1542.35
999.818	1530.14
1000.114	1514.78
1000.409	1535.12
1000.704	1532.63
1001	1511.16
1001.295	1477.72
1001.59	1502.8
1001.885	1491.95
1002.18	1468
1002.475	1455.57
1002.77	1466.19
1003.065	1478.85
1003.359	1424.61
1003.654	1460.77
1003.949	1423.71
1004.243	1437.04
1004.538	1417.83
1004.832	1406.98
1005.127	1414.21
1005.421	1412.18
1005.715	1397.04
1006.009	1398.62
1006.304	1389.58
1006.598	1363.14
1006.892	1385.29
1007.186	1321.79
1007.48	1344.61
1007.773	1332.86
1008.067	1298.51
1008.361	1331.73
1008.655	1314.56
1008.948	1310.04
1009.242	1303.48
1009.535	1301.67
1009.829	1300.54
1010.122	1289.02
1010.415	1304.84
1010.708	1286.53
1011.001	1261
1011.295	1259.19
1011.588	1277.49
1011.881	1254.44
1012.173	1246.08
1012.466	1236.82
1012.759	1242.92
1013.052	1233.43
1013.344	1203.82
1013.637	1216.71
1013.93	1235.69
1014.222	1201.79
1014.514	1196.59
1014.807	1184.39
1015.099	1175.8
1015.391	1163.6
1015.683	1178.06
1015.976	1171.73
1016.268	1160.66
1016.56	1136.71
1016.851	1122.24
1017.143	1119.98
1017.435	1135.35
1017.727	1115.47
1018.018	1129.02
1018.31	1090.83
1018.602	1083.38
1018.893	1090.15
1019.185	1097.61
1019.476	1088.8
1019.767	1063.04
1020.058	1071.17
1020.35	1067.1
1020.641	1059.2
1020.932	1041.12
1021.223	1034.34
1021.514	1028.46
1021.804	1021.46
1022.095	1039.53
1022.386	1040.89
1022.677	1027.11
1022.967	1002.25
1023.258	1001.8
1023.548	1001.57
1023.839	973.55
1024.129	990.27
1024.419	978.52
1024.709	971.51
1025	957.28
1025.29	950.5
1025.58	962.25
1025.87	971.29
1026.16	957.73
1026.449	971.51
1026.739	911.63
1027.029	934.9
1027.319	922.7
1027.608	913.66
1027.898	909.82
1028.187	888.35
1028.477	909.59
1028.766	919.99
1029.055	876.15
1029.344	889.26
1029.634	897.39
1029.923	862.59
1030.212	890.61
1030.501	878.86
1030.79	884.06
1031.078	856.26
1031.367	861.91
1031.656	848.81
1031.945	848.58
1032.233	841.57
1032.522	843.38
1032.81	829.14
1033.099	832.08
1033.387	830.05
1033.675	851.52
1033.963	796.6
1034.251	802.03
1034.54	811.29
1034.828	805.42
1035.116	783.04
1035.403	793.21
1035.691	783.27
1035.979	810.39
1036.267	769.71
1036.554	778.3
1036.842	772.88
1037.129	778.52
1037.417	767.9
1037.704	768.58
1037.992	742.59
1038.279	733.1
1038.566	735.36
1038.853	735.36
1039.14	735.36
