Data from hue_210_FLMS001491_00064.txt Node
Date: Tue Feb 07 16:41:32 GMT 2017
User: dcchb
Spectrometer: FLMS00149
Trigger mode: 0
Integration Time (sec): 2.000000E-2
Scans to average: 10
Electric dark correction enabled: true
Nonlinearity correction enabled: false
Boxcar width: 0
XAxis mode: Wavelengths
Number of Pixels in Spectrum: 2048
>>>>>Begin Spectral Data<<<<<
341.393	-4.79
341.776	-4.79
342.16	-4.79
342.543	-46.82
342.927	-62.19
343.31	-76.65
343.693	-62.19
344.077	-57.22
344.46	-62.64
344.843	-52.47
345.226	-55.41
345.61	-28.97
345.993	-25.35
346.376	-2.3
346.759	5.83
347.142	50.13
347.525	56.68
347.908	64.36
348.291	50.8
348.674	93.06
349.057	102.33
349.44	138.49
349.823	144.59
350.206	143.23
350.588	178.94
350.971	226.84
351.354	207.41
351.737	253.28
352.119	249.44
352.502	265.71
352.884	263.91
353.267	262.78
353.65	282.44
354.032	290.8
354.414	313.62
354.797	306.16
355.179	300.06
355.562	298.25
355.944	340.97
356.326	320.18
356.709	322.89
357.091	331.47
357.473	340.29
357.855	344.36
358.238	334.86
358.62	330.12
359.002	342.77
359.384	333.06
359.766	342.55
360.148	340.51
360.53	317.24
360.912	329.89
361.294	335.54
361.676	339.61
362.057	338.03
362.439	336.45
362.821	345.03
363.203	327.41
363.584	310.68
363.966	315.88
364.348	328.99
364.729	325.6
365.111	305.71
365.493	322.21
365.874	335.09
366.256	312.94
366.637	312.49
367.019	298.48
367.4	316.11
367.781	346.16
368.163	332.38
368.544	313.17
368.925	310.46
369.306	324.02
369.688	308.65
370.069	310.23
370.45	317.24
370.831	321.31
371.212	321.31
371.593	322.89
371.974	309.55
372.355	304.36
372.736	300.29
373.117	315.43
373.498	320.18
373.879	328.99
374.26	330.8
374.641	314.07
375.021	312.04
375.402	325.82
375.783	308.65
376.163	312.94
376.544	343.9
376.925	313.85
377.305	310.46
377.686	321.53
378.066	323.56
378.447	300.29
378.827	336.67
379.208	319.05
379.588	323.79
379.968	340.51
380.349	344.36
380.729	347.75
381.109	321.31
381.489	327.18
381.87	356.56
382.25	330.57
382.63	349.78
383.01	327.41
383.39	320.63
383.77	321.76
384.15	329.89
384.53	343.45
384.91	347.97
385.29	329.21
385.67	355.43
386.049	338.25
386.429	346.39
386.809	356.33
387.189	368.54
387.568	354.3
387.948	343
388.328	349.55
388.707	344.81
389.087	330.34
389.466	358.14
389.846	361.53
390.225	354.52
390.605	355.43
390.984	374.19
391.363	394.3
391.743	356.56
392.122	372.38
392.501	384.81
392.881	379.83
393.26	371.02
393.639	384.81
394.018	401.08
394.397	373.96
394.776	376.44
395.155	364.69
395.534	386.39
395.913	401.08
396.292	375.31
396.671	409.44
397.05	404.47
397.429	423
397.808	390.91
398.186	390
398.565	420.51
398.944	426.16
399.323	393.62
399.701	430.23
400.08	409.66
400.458	404.92
400.837	426.61
401.215	419.61
401.594	423
401.972	427.07
402.351	434.3
402.729	421.87
403.107	444.92
403.486	423.68
403.864	451.7
404.242	446.73
404.62	452.15
404.999	464.13
405.377	455.31
405.755	451.25
406.133	475.43
406.511	465.93
406.889	477.01
407.267	474.97
407.645	493.05
408.023	491.02
408.401	500.51
408.779	511.13
409.156	520.17
409.534	507.97
409.912	518.36
410.29	530.11
410.667	530.79
411.045	545.71
411.422	557.01
411.8	552.49
412.178	546.38
412.555	582.99
412.933	576.21
413.31	594.52
413.687	581.64
414.065	607.85
414.442	641.75
414.819	612.6
415.197	636.33
415.574	659.83
415.951	664.35
416.328	661.64
416.705	670
417.082	666.15
417.46	680.84
417.837	682.2
418.214	683.78
418.591	712.71
418.967	732.82
419.344	731.92
419.721	737.34
420.098	768.3
420.475	774.85
420.852	771.24
421.228	773.04
421.605	795.64
421.982	794.96
422.358	800.84
422.735	867.96
423.111	862.53
423.488	858.24
423.864	862.76
424.241	880.61
424.617	896.21
424.994	903.66
425.37	956.77
425.746	937.11
426.123	956.32
426.499	968.52
426.875	970.1
427.251	996.54
427.627	999.03
428.003	1026.15
428.379	1030.21
428.756	1052.59
429.132	1067.05
429.507	1064.11
429.883	1083.32
430.259	1107.95
430.635	1069.08
431.011	1117.22
431.387	1149.08
431.763	1155.18
432.138	1159.48
432.514	1191.79
432.89	1213.49
433.265	1223.65
433.641	1258.91
434.016	1273.82
434.392	1311.79
434.767	1327.38
435.143	1349.07
435.518	1359.92
435.894	1386.36
436.269	1386.14
436.644	1431.11
437.02	1484.44
437.395	1458.22
437.77	1514.49
438.145	1539.8
438.52	1551.78
438.895	1570.09
439.271	1587.71
439.646	1586.36
440.021	1646.69
440.395	1650.76
440.77	1652.12
441.145	1671.33
441.52	1718.33
441.895	1707.26
442.27	1730.76
442.645	1766.69
443.019	1817.54
443.394	1776.41
443.769	1834.26
444.143	1799.01
444.518	1895.95
444.892	1869.96
445.267	1878.78
445.641	1902.96
446.016	1933.24
446.39	1973.92
446.764	1958.32
447.139	1941.15
447.513	1965.1
447.887	1974.82
448.262	2026.8
448.636	2001.94
449.01	2059.79
449.384	2081.03
449.758	2116.29
450.132	2095.72
450.506	2080.58
450.88	2148.15
451.254	2158.09
451.628	2142.27
452.002	2219.79
452.376	2246.68
452.75	2229.73
453.123	2281.48
453.497	2253.23
453.871	2278.99
454.244	2366
454.618	2343.17
454.992	2376.17
455.365	2402.83
455.739	2436.73
456.112	2476.5
456.486	2472.43
456.859	2499.55
457.232	2519.21
457.606	2524.19
457.979	2563.51
458.352	2640.57
458.725	2662.94
459.099	2659.55
459.472	2706.78
459.845	2735.93
460.218	2796.49
460.591	2782.26
460.964	2767.12
461.337	2813.67
461.71	2876.94
462.083	2921.91
462.456	2934.57
462.829	2921.01
463.201	2975.25
463.574	3013.44
463.947	3067.9
464.32	3122.14
464.692	3119.88
465.065	3156.48
465.438	3193.32
465.81	3237.61
466.183	3274.67
466.555	3333.88
466.928	3378.4
467.3	3387.67
467.672	3404.39
468.045	3517.38
468.417	3485.52
468.789	3529.36
469.161	3621.56
469.534	3648.68
469.906	3693.65
470.278	3713.53
470.65	3735.68
471.022	3786.3
471.394	3874.66
471.766	3902.45
472.138	3922.57
472.51	3999.85
472.882	4044.37
473.253	4112.84
473.625	4186.29
473.997	4270.81
474.369	4252.73
474.74	4292.73
475.112	4338.15
475.484	4444.13
475.855	4538.14
476.227	4522.55
476.598	4672.15
476.97	4686.61
477.341	4777.91
477.713	4853.62
478.084	4831.69
478.455	4983.56
478.827	5014.74
479.198	5119.82
479.569	5129.09
479.94	5291.12
480.311	5312.59
480.682	5387.84
481.053	5501.28
481.424	5593.48
481.795	5630.77
482.166	5686.59
482.537	5832.8
482.908	5865.34
483.279	5955.96
483.65	6016.75
484.021	6124.99
484.391	6203.64
484.762	6264.43
485.133	6277.53
485.503	6332.9
485.874	6506.68
486.244	6550.29
486.615	6594.13
486.985	6724.07
487.356	6812.66
487.726	6858.53
488.097	6955.93
488.467	6977.18
488.837	7007.01
489.207	7206.55
489.578	7293.1
489.948	7331.97
490.318	7381.91
490.688	7372.19
491.058	7498.97
491.428	7585.29
491.798	7665.29
492.168	7788
492.538	7830.71
492.908	7878.62
493.278	8020.31
493.648	7992.52
494.017	8060.76
494.387	8100.76
494.757	8130.37
495.126	8203.13
495.496	8278.84
495.866	8280.87
496.235	8365.84
496.605	8419.17
496.974	8474.54
497.344	8560.86
497.713	8598.6
498.082	8606.29
498.452	8678.15
498.821	8649.22
499.19	8668.43
499.559	8780.29
499.928	8729.9
500.298	8820.29
500.667	8915.43
501.036	8864.36
501.405	8990.46
501.774	8966.5
502.143	8984.58
502.512	9048.76
502.88	9063.67
503.249	9044.24
503.618	9069.55
503.987	9103.45
504.356	9258.92
504.724	9295.31
505.093	9192.26
505.462	9247.4
505.83	9315.42
506.199	9346.38
506.567	9429.99
506.936	9410.78
507.304	9471.57
507.672	9550.44
508.041	9484.23
508.409	9569.42
508.777	9608.74
509.145	9599.48
509.514	9599.48
509.882	9655.3
510.25	9623.66
510.618	9654.85
510.986	9594.28
511.354	9727.16
511.722	9706.82
512.09	9777.33
512.458	9767.84
512.826	9789.3
513.193	9872.01
513.561	9886.48
513.929	9872.92
514.297	9892.58
514.664	9943.65
515.032	9935.52
515.4	9964.89
515.767	10026.59
516.135	9952.46
516.502	9909.53
516.869	10034.04
517.237	10028.17
517.604	9965.12
517.972	10080.6
518.339	10128.28
518.706	10000.37
519.073	10121.27
519.44	10062.97
519.808	10153.81
520.175	10128.5
520.542	10172.35
520.909	10218.67
521.276	10134.61
521.643	10226.36
522.009	10191.33
522.376	10291.44
522.743	10243.53
523.11	10257.54
523.477	10335.51
523.843	10311.32
524.21	10391.32
524.577	10366.46
524.943	10441.49
525.31	10419.8
525.676	10457.08
526.043	10456.18
526.409	10400.81
526.776	10493.24
527.142	10466.58
527.508	10491.21
527.874	10469.06
528.241	10480.59
528.607	10486.01
528.973	10485.33
529.339	10518.33
529.705	10640.81
530.071	10605.1
530.437	10556.06
530.803	10596.74
531.169	10612.33
531.535	10479.46
531.901	10473.81
532.267	10521.71
532.632	10492.56
532.998	10466.58
533.364	10465.22
533.73	10507.48
534.095	10554.93
534.461	10489.17
534.826	10455.28
535.192	10442.17
535.557	10518.55
535.923	10388.61
536.288	10413.24
536.653	10418.44
537.019	10327.37
537.384	10252.57
537.749	10278.33
538.114	10329.18
538.479	10267.03
538.845	10267.94
539.21	10163.76
539.575	10239.91
539.94	10143.42
540.305	10170.31
540.67	10132.57
541.034	10100.48
541.399	10104.1
541.764	10023.2
542.129	9991.33
542.494	10036.76
542.858	9975.06
543.223	9996.3
543.587	9934.16
543.952	9915.86
544.316	9882.18
544.681	9874.73
545.045	9865.23
545.41	9863.88
545.774	9848.29
546.138	9790.43
546.503	9775.07
546.867	9697.33
547.231	9739.36
547.595	9749.31
547.959	9721.96
548.324	9608.07
548.688	9614.85
549.052	9616.88
549.416	9557.9
549.779	9520.16
550.143	9583.66
550.507	9512.02
550.871	9471.12
551.235	9427.96
551.599	9416.66
551.962	9490.78
552.326	9445.36
552.689	9435.42
553.053	9394.51
553.417	9312.93
553.78	9405.59
554.143	9349.99
554.507	9302.54
554.87	9264.35
555.234	9292.37
555.597	9269.77
555.96	9247.4
556.323	9160.62
556.686	9216.21
557.05	9249.66
557.413	9211.92
557.776	9245.14
558.139	9165.59
558.502	9139.38
558.865	9138.02
559.228	9176.89
559.59	9130.57
559.953	9137.12
560.316	9217.12
560.679	9162.88
561.041	9197
561.404	9200.17
561.767	9222.77
562.129	9138.47
562.492	9238.13
562.854	9137.57
563.217	9161.52
563.579	9222.99
563.941	9251.01
564.304	9241.52
564.666	9218.92
565.028	9245.36
565.39	9198.13
565.753	9281.52
566.115	9218.7
566.477	9271.8
566.839	9197.46
567.201	9287.85
567.563	9248.75
567.925	9295.98
568.287	9319.49
568.648	9232.48
569.01	9290.79
569.372	9411.46
569.734	9292.59
570.095	9413.72
570.457	9397.68
570.819	9354.97
571.18	9391.8
571.542	9431.35
571.903	9386.38
572.265	9393.61
572.626	9340.28
572.987	9565.58
573.349	9476.32
573.71	9529.42
574.071	9409.88
574.432	9459.6
574.794	9512.93
575.155	9495.3
575.516	9479.48
575.877	9521.97
576.238	9548.18
576.599	9529.65
576.96	9546.15
577.32	9591.8
577.681	9620.04
578.042	9572.59
578.403	9571.01
578.763	9585.69
579.124	9594.96
579.485	9640.61
579.845	9674.05
580.206	9641.29
580.566	9666.82
580.927	9667.73
581.287	9678.35
581.648	9716.99
582.008	9761.28
582.368	9746.59
582.728	9720.61
583.089	9694.62
583.449	9745.24
583.809	9757.89
584.169	9752.47
584.529	9687.84
584.889	9847.16
585.249	9752.7
585.609	9750.66
585.969	9877.89
586.329	9789.53
586.688	9804.45
587.048	9794.28
587.408	9784.11
587.768	9753.15
588.127	9781.62
588.487	9817.55
588.846	9918.34
589.206	9769.64
589.565	9802.19
589.925	9851
590.284	9800.83
590.643	9853.26
591.003	9859.81
591.362	9843.31
591.721	9836.76
592.08	9936.42
592.44	9893.03
592.799	9892.8
593.158	9883.77
593.517	9861.85
593.876	9881.28
594.235	9818.68
594.593	9923.31
594.952	9903.88
595.311	9860.49
595.67	9900.49
596.029	9930.54
596.387	9953.59
596.746	9928.96
597.104	9899.13
597.463	9841.05
597.822	9959.02
598.18	9906.14
598.538	9914.73
598.897	9999.92
599.255	9850.09
599.613	9953.82
599.972	9892.8
600.33	9937.32
600.688	9975.29
601.046	9967.83
601.404	9925.57
601.762	9970.09
602.12	9986.14
602.478	9973.48
602.836	9980.71
603.194	9905.01
603.552	9921.28
603.91	9863.65
604.268	9923.76
604.625	9934.16
604.983	9928.06
605.341	9888.96
605.698	9953.37
606.056	10005.8
606.413	9944.55
606.771	9947.49
607.128	9958.11
607.485	9930.32
607.843	9922.41
608.2	10022.29
608.557	10007.6
608.914	10028.62
609.272	9989.75
609.629	10065.91
609.986	10114.72
610.343	10105
610.7	10067.72
611.057	10054.61
611.414	10048.28
611.771	10087.38
612.127	10166.7
612.484	10118.79
612.841	10117.43
613.198	10163.31
613.554	10122.4
613.911	10136.19
614.267	10147.49
614.624	10136.64
614.98	10169.41
615.337	10206.47
615.693	10144.1
616.05	10150.65
616.406	10233.36
616.762	10227.03
617.118	10169.18
617.475	10206.24
617.831	10244.89
618.187	10146.58
618.543	10260.03
618.899	10247.82
619.255	10248.95
619.611	10175.74
619.967	10272.68
620.323	10297.99
620.678	10262.96
621.034	10208.73
621.39	10204.44
621.746	10194.27
622.101	10327.37
622.457	10232.23
622.812	10336.18
623.168	10304.09
623.523	10305
623.879	10339.8
624.234	10248.95
624.589	10300.48
624.945	10346.35
625.3	10273.59
625.655	10234.94
626.01	10227.49
626.365	10232
626.72	10211.44
627.075	10277.43
627.43	10236.3
627.785	10248.73
628.14	10264.32
628.495	10207.6
628.85	10243.08
629.205	10229.75
629.559	10274.04
629.914	10209.63
630.269	10175.74
630.623	10141.61
630.978	10141.84
631.332	10172.35
631.687	10232.46
632.041	10156.53
632.396	10196.75
632.75	10127.37
633.104	10126.02
633.459	10074.72
633.813	10070.2
634.167	10037.66
634.521	10076.53
634.875	10130.99
635.229	10030.65
635.583	9986.36
635.937	10006.02
636.291	9981.39
636.645	10006.25
636.999	9943.42
637.352	10019.58
637.706	9926.02
638.06	10021.62
638.413	9940.04
638.767	9931.9
639.121	10019.36
639.474	9835.18
639.828	9866.14
640.181	9938.68
640.534	9906.82
640.888	9884.22
641.241	9815.74
641.594	9970.09
641.947	9820.04
642.301	9756.54
642.654	9774.39
643.007	9903.65
643.36	9743.66
643.713	9791.56
644.066	9796.31
644.419	9742.98
644.771	9695.3
645.124	9571.46
645.477	9661.4
645.83	9549.99
646.182	9495.3
646.535	9476.77
646.888	9496.21
647.24	9452.36
647.593	9448.97
647.945	9511.35
648.298	9484.23
648.65	9446.04
649.002	9481.29
649.355	9481.74
649.707	9478.58
650.059	9544.11
650.411	9507.96
650.763	9684.67
651.115	9707.05
651.467	9663.43
651.819	9675.86
652.171	9698.01
652.523	9703.66
652.875	9643.77
653.227	9649.65
653.578	9680.38
653.93	9683.09
654.282	9577.78
654.633	9619.14
654.985	9621.4
655.337	9678.57
655.688	9655.07
656.039	9706.14
656.391	9603.09
656.742	9637.9
657.094	9643.32
657.445	9608.29
657.796	9658.46
658.147	9639.93
658.498	9649.42
658.849	9658.69
659.2	9651.23
659.551	9647.39
659.902	9646.26
660.253	9624.56
660.604	9654.85
660.955	9618.24
661.306	9666.37
661.656	9601.51
662.007	9663.88
662.358	9695.75
662.708	9667.73
663.059	9664.79
663.409	9632.92
663.76	9682.19
664.11	9737.1
664.461	9724
664.811	9762.86
665.161	9718.8
665.511	9652.81
665.862	9698.46
666.212	9745.69
666.562	9691.68
666.912	9734.84
667.262	9726.03
667.612	9735.97
667.962	9785.92
668.312	9646.03
668.662	9716.31
669.011	9703.43
669.361	9700.49
669.711	9635.86
670.06	9639.03
670.41	9676.31
670.76	9695.07
671.109	9636.31
671.459	9667.5
671.808	9673.83
672.157	9684.45
672.507	9564.23
672.856	9636.54
673.205	9673.15
673.554	9600.38
673.904	9636.99
674.253	9604.22
674.602	9619.82
674.951	9478.35
675.3	9423.89
675.649	9524.68
675.998	9503.44
676.346	9558.35
676.695	9533.94
677.044	9477.45
677.393	9525.13
677.741	9539.37
678.09	9509.54
678.438	9467.73
678.787	9531.01
679.135	9470.22
679.484	9372.37
679.832	9412.82
680.181	9394.74
680.529	9408.75
680.877	9357.45
681.225	9372.82
681.573	9403.1
681.922	9266.38
682.27	9327.17
682.618	9305.48
682.966	9388.19
683.314	9274.06
683.661	9276.78
684.009	9277.23
684.357	9210.34
684.705	9235.2
685.053	9210.34
685.4	9157.68
685.748	9177.57
686.095	9117.91
686.443	9110
686.79	9058.7
687.138	9081.75
687.485	9102.77
687.832	9063.22
688.18	9033.62
688.527	8937.8
688.874	8897.58
689.221	8838.37
689.568	8890.8
689.915	8914.53
690.262	8853.51
690.609	8761.99
690.956	8672.05
691.303	8743
691.65	8733.06
691.997	8765.83
692.344	8674.53
692.69	8653.29
693.037	8668.88
693.383	8611.93
693.73	8578.49
694.077	8557.25
694.423	8528.09
694.769	8516.34
695.116	8463.01
695.462	8406.52
695.808	8455.55
696.155	8379.85
696.501	8376.91
696.847	8400.19
697.193	8260.53
697.539	8329.46
697.885	8207.88
698.231	8213.53
698.577	8177.6
698.923	8214.66
699.269	8159.74
699.614	8056.92
699.96	8060.08
700.306	8035.68
700.651	8044.27
700.997	8011.72
701.342	7884.27
701.688	7968.56
702.033	7937.15
702.379	7940.77
702.724	7797.94
703.069	7891.28
703.415	7753.65
703.76	7769.7
704.105	7758.17
704.45	7717.04
704.795	7663.03
705.14	7666.65
705.485	7618.51
705.83	7631.85
706.175	7596.59
706.52	7610.15
706.865	7551.4
707.209	7487.67
707.554	7477.73
707.899	7476.6
708.243	7456.48
708.588	7397.73
708.932	7390.95
709.277	7388.01
709.621	7420.33
709.966	7328.58
710.31	7364.51
710.654	7255.13
710.998	7287
711.342	7277.73
711.687	7291.29
712.031	7229.6
712.375	7257.62
712.719	7212.65
713.063	7152.76
713.407	7214.68
713.75	7141.01
714.094	7146.66
714.438	7137.4
714.782	7138.75
715.125	7108.92
715.469	7083.84
715.812	7066.89
716.156	7083.16
716.499	7115.93
716.843	7019.66
717.186	7044.74
717.53	7098.08
717.873	7056.04
718.216	7031.41
718.559	6932.2
718.902	6919.1
719.246	6967.91
719.589	6962.49
719.932	6942.83
720.275	6998.64
720.617	6949.83
720.96	6932.66
721.303	6917.52
721.646	6936.95
721.989	6866.67
722.331	6899.21
722.674	6899.89
723.016	6912.54
723.359	6925.43
723.701	6889.72
724.044	6830.96
724.386	6828.03
724.729	6878.42
725.071	6828.03
725.413	6833
725.755	6834.35
726.097	6839.55
726.439	6782.15
726.782	6763.4
727.124	6816.5
727.465	6782.38
727.807	6757.29
728.149	6743.74
728.491	6747.12
728.833	6766.56
729.175	6691.53
729.516	6712.55
729.858	6756.62
730.199	6727.01
730.541	6743.51
730.882	6738.76
731.224	6724.53
731.565	6733.11
731.906	6716.39
732.248	6753.23
732.589	6723.62
732.93	6701.7
733.271	6688.37
733.612	6763.85
733.953	6750.29
734.294	6739.22
734.635	6759.1
734.976	6716.39
735.317	6762.04
735.658	6791.64
735.999	6796.16
736.339	6724.53
736.68	6713.23
737.021	6776.5
737.361	6755.94
737.702	6761.14
738.042	6756.62
738.383	6752.1
738.723	6791.42
739.063	6776.73
739.404	6796.39
739.744	6756.62
740.084	6766.33
740.424	6787.8
740.764	6834.35
741.104	6855.37
741.444	6888.59
741.784	6849.27
742.124	6848.37
742.464	6893.79
742.804	6875.48
743.143	6887.01
743.483	6964.52
743.823	6939.44
744.162	6979.89
744.502	6981.69
744.841	7011.52
745.181	7034.35
745.52	7066.89
745.86	7124.52
746.199	7073.67
746.538	7149.83
746.877	7181.24
747.216	7291.97
747.556	7281.12
747.895	7320.9
748.234	7325.41
748.573	7298.75
748.911	7428.46
749.25	7485.86
749.589	7495.58
749.928	7615.35
750.267	7599.76
750.605	7768.57
750.944	7762.24
751.283	7862.58
751.621	8021.22
751.96	7975.34
752.298	8106.19
752.636	8177.14
752.975	8260.76
753.313	8376.23
753.651	8486.06
753.989	8497.59
754.327	8630.92
754.666	8745.04
755.004	8818.03
755.342	9055.09
755.679	9074.52
756.017	9176.67
756.355	9404
756.693	9463.66
757.031	9613.49
757.368	9696.65
757.706	9945.91
758.044	10000.6
758.381	10211.21
758.719	10342.51
759.056	10470.64
759.394	10602.84
759.731	10696.17
760.068	10958.77
760.405	11075.6
760.743	11211.64
761.08	11269.04
761.417	11572.99
761.754	11764.39
762.091	11898.85
762.428	12050.71
762.765	12101.56
763.102	12373.87
763.438	12508.78
763.775	12741.77
764.112	12904.03
764.449	13143.79
764.785	13221.08
765.122	13313.96
765.458	13546.49
765.795	13619.71
766.131	13816.32
766.467	13999.14
766.804	14150.32
767.14	14200.94
767.476	14442.52
767.812	14461.5
768.148	14704.43
768.485	14796.18
768.821	14903.75
769.157	15157.53
769.492	15133.8
769.828	15343.28
770.164	15415.6
770.5	15583.28
770.836	15703.27
771.171	15706.89
771.507	15798.86
771.842	15910.95
772.178	16075.24
772.513	16179.42
772.849	16226.42
773.184	16296.93
773.519	16416.48
773.855	16396.59
774.19	16611.5
774.525	16639.52
774.86	16767.88
775.195	16787.99
775.53	16842
775.865	16826.41
776.2	16919.96
776.535	16834.09
776.87	17002
777.205	17055.1
777.539	17120.41
777.874	17263.01
778.209	17170.81
778.543	17169
778.878	17157.92
779.212	17253.06
779.547	17248.32
779.881	17415.54
780.215	17282.22
780.55	17392.27
780.884	17380.97
781.218	17452.83
781.552	17482.89
781.886	17414.87
782.22	17497.58
782.554	17404.47
782.888	17331.93
783.222	17372.83
783.556	17387.07
783.889	17407.64
784.223	17271.14
784.557	17433.62
784.89	17462.32
785.224	17424.81
785.557	17253.29
785.891	17289.22
786.224	17288.32
786.558	17389.33
786.891	17241.76
787.224	17258.71
787.557	17239.5
787.891	17199.28
788.224	17295.1
788.557	17254.87
788.89	17210.58
789.223	17370.8
789.556	17196.79
789.888	17156.79
790.221	17135.55
790.554	17075.67
790.887	17086.29
791.219	17071.37
791.552	17002.9
791.884	16943.24
792.217	17045.39
792.549	16915.22
792.882	16898.5
793.214	16790.48
793.546	16901.21
793.879	16755.68
794.211	16672.06
794.543	16782.57
794.875	16803.36
795.207	16743.47
795.539	16739.18
795.871	16690.14
796.203	16596.58
796.535	16551.61
796.867	16567.88
797.198	16417.15
797.53	16496.47
797.862	16493.99
798.193	16459.64
798.525	16381.9
798.856	16431.16
799.188	16278.63
799.519	16264.61
799.85	16168.57
800.182	16123.83
800.513	16114.34
800.844	16147.78
801.175	16131.51
801.506	16166.76
801.837	16068.46
802.168	16031.4
802.499	15906.88
802.83	15956.6
803.161	15992.98
803.491	15866.66
803.822	15924.06
804.153	15844.29
804.483	15635.7
804.814	15653.33
805.145	15719.09
805.475	15658.75
805.805	15659.88
806.136	15645.65
806.466	15583.95
806.796	15522.04
807.126	15423.73
807.457	15461.47
807.787	15549.61
808.117	15432.32
808.447	15356.84
808.777	15371.3
809.107	15261.25
809.436	15281.59
809.766	15344.19
810.096	15296.5
810.426	15097.87
810.755	15154.81
811.085	15059.9
811.414	15132.67
811.744	15040.92
812.073	14987.59
812.403	15002.05
812.732	14939.68
813.061	14869.85
813.39	14882.5
813.719	14812.9
814.049	14904.42
814.378	14800.92
814.707	14781.49
815.036	14814.03
815.365	14739.91
815.693	14628.5
816.022	14583.75
816.351	14590.99
816.68	14531.33
817.008	14525.23
817.337	14456.98
817.665	14470.76
817.994	14457.43
818.322	14458.56
818.651	14405
818.979	14344.89
819.307	14495.4
819.636	14366.13
819.964	14306.02
820.292	14367.72
820.62	14341.05
820.948	14300.82
821.276	14387.6
821.604	14309.86
821.932	14344.21
822.259	14339.92
822.587	14355.29
822.915	14220.37
823.243	14262.41
823.57	14292.69
823.898	14369.3
824.225	14129.08
824.553	14289.98
824.88	14353.03
825.207	14300.15
825.535	14267.83
825.862	14308.51
826.189	14201.62
826.516	14225.35
826.843	14442.06
827.17	14356.19
827.497	14344.67
827.824	14269.19
828.151	14364.1
828.478	14306.02
828.805	14402.29
829.131	14305.57
829.458	14302.18
829.785	14281.84
830.111	14246.81
830.438	14445
830.764	14270.09
831.09	14289.07
831.417	14269.86
831.743	14280.26
832.069	14289.75
832.395	14171.56
832.722	14259.92
833.048	14243.42
833.374	14191.67
833.7	14066.48
834.026	14253.82
834.351	14258.11
834.677	14237.32
835.003	14128.63
835.329	14139.47
835.654	14168.85
835.98	14152.58
836.306	14129.53
836.631	14101.06
836.956	14139.02
837.282	14118.91
837.607	14038.46
837.932	14026.71
838.258	13960.95
838.583	13975.41
838.908	13861.06
839.233	13933.38
839.558	13955.97
839.883	13886.6
840.208	13885.47
840.533	13899.93
840.858	13931.79
841.182	13753.72
841.507	13838.69
841.832	13762.31
842.156	13680.05
842.481	13740.39
842.805	13790.56
843.13	13611.8
843.454	13606.38
843.778	13607.28
844.103	13577.45
844.427	13464.69
844.751	13509.88
845.075	13502.2
845.399	13498.13
845.723	13353.05
846.047	13341.3
846.371	13281.42
846.695	13296.78
847.019	13165.94
847.343	13179.72
847.666	13088.88
847.99	12984.02
848.313	13040.74
848.637	12908.77
848.96	12905.38
849.284	12905.38
849.607	12756.46
849.931	12751.94
850.254	12739.51
850.577	12598.72
850.9	12520.53
851.223	12539.29
851.546	12496.13
851.869	12360.08
852.192	12468.1
852.515	12412.74
852.838	12247.32
853.161	12304.72
853.483	12195.12
853.806	12092.97
854.129	12129.81
854.451	12036.25
854.774	12070.15
855.096	11967.33
855.419	11972.3
855.741	11913.99
856.063	11880.32
856.385	11894.11
856.708	11768.24
857.03	11798.74
857.352	11776.82
857.674	11766.43
857.996	11704.96
858.318	11617.28
858.64	11600.1
858.961	11561.69
859.283	11524.85
859.605	11451.63
859.926	11489.15
860.248	11442.14
860.57	11449.83
860.891	11408.25
861.212	11281.92
861.534	11315.14
861.855	11250.06
862.176	11316.5
862.498	11281.69
862.819	11244.63
863.14	11257.74
863.461	11152.66
863.782	11142.49
864.103	11216.16
864.424	11136.61
864.745	11164.86
865.065	11088.25
865.386	11050.51
865.707	11079.89
866.027	11055.03
866.348	10982.49
866.668	11046.67
866.989	10993.34
867.309	10930.29
867.63	11000.8
867.95	10904.53
868.27	10826.57
868.59	10871.54
868.91	10774.82
869.23	10807.13
869.55	10764.87
869.87	10885.1
870.19	10828.6
870.51	10802.16
870.83	10833.12
871.15	10801.93
871.469	10735.27
871.789	10713.12
872.109	10714.25
872.428	10610.07
872.748	10629.73
873.067	10709.51
873.386	10627.25
873.706	10632.22
874.025	10567.14
874.344	10601.94
874.663	10573.92
874.982	10563.97
875.301	10578.89
875.62	10478.78
875.939	10498.21
876.258	10476.07
876.577	10454.37
876.896	10464.77
877.214	10385.45
877.533	10429.74
877.852	10272.68
878.17	10442.62
878.489	10399.68
878.807	10410.76
879.125	10363.07
879.444	10366.24
879.762	10244.43
880.08	10243.08
880.398	10280.82
880.716	10213.25
881.034	10235.17
881.352	10225.68
881.67	10222.51
881.988	10135.74
882.306	10152.01
882.624	10119.24
882.941	10046.47
883.259	10059.58
883.577	10026.36
883.894	9997.89
884.212	9961.05
884.529	9971.45
884.846	9962.18
885.164	9918.11
885.481	9907.27
885.798	9860.26
886.115	9820.26
886.432	9822.52
886.75	9813.94
887.067	9771.68
887.383	9758.35
887.7	9733.04
888.017	9712.47
888.334	9738.46
888.651	9724.22
888.967	9649.42
889.284	9660.27
889.6	9605.81
889.917	9494.62
890.233	9555.64
890.55	9480.61
890.866	9564.23
891.182	9508.86
891.498	9406.04
891.815	9376.43
892.131	9367.85
892.447	9332.59
892.763	9312.03
893.079	9286.27
893.395	9239.26
893.71	9208.53
894.026	9208.53
894.342	9269.32
894.657	9144.58
894.973	9104.35
895.289	9110.23
895.604	9090.11
895.92	8990.23
896.235	8918.14
896.55	8958.82
896.865	8980.29
897.181	8906.16
897.496	8919.95
897.811	8840.4
898.126	8821.65
898.441	8715.66
898.756	8734.42
899.071	8628.88
899.386	8600.64
899.7	8608.77
900.015	8624.59
900.33	8489.9
900.644	8465.27
900.959	8564.7
901.273	8472.73
901.588	8430.7
901.902	8421.21
902.216	8372.17
902.531	8382.34
902.845	8331.26
903.159	8282.68
903.473	8279.29
903.787	8229.8
904.101	8144.6
904.415	8110.48
904.729	8164.49
905.042	8118.61
905.356	8072.06
905.67	8059.18
905.984	8032.51
906.297	7958.84
906.611	7979.86
906.924	7982.8
907.237	7858.73
907.551	7886.53
907.864	7852.63
908.177	7781.9
908.491	7821.45
908.804	7726.08
909.117	7680.89
909.43	7635.01
909.743	7579.42
910.056	7574
910.368	7559.98
910.681	7531.74
910.994	7441.34
911.307	7517.27
911.619	7441.34
911.932	7436.37
912.244	7361.12
912.557	7330.39
912.869	7284.06
913.181	7288.58
913.494	7300.78
913.806	7250.84
914.118	7230.73
914.43	7180.11
914.742	7149.6
915.054	7105.31
915.366	7105.31
915.678	7082.71
915.99	7035.48
916.302	6984.41
916.613	6959.1
916.925	6967.68
917.236	6897.4
917.548	6856.5
917.859	6913.9
918.171	6851.08
918.482	6820.12
918.794	6797.52
919.105	6799.1
919.416	6681.59
919.727	6763.62
920.038	6701.93
920.349	6663.06
920.66	6608.37
920.971	6644.3
921.282	6542.61
921.593	6545.32
921.903	6550.97
922.214	6507.13
922.525	6432.33
922.835	6459.22
923.146	6409.96
923.456	6385.55
923.767	6325.22
924.077	6346.23
924.387	6335.61
924.697	6214.94
925.008	6195.27
925.318	6204.77
925.628	6207.93
925.938	6225.33
926.248	6140.59
926.558	6182.39
926.867	6073.92
927.177	6087.93
927.487	6050.19
927.796	6026.69
928.106	6009.97
928.416	5995.96
928.725	5977.88
929.034	5950.31
929.344	5910.76
929.653	5875.96
929.962	5863.31
930.271	5805.23
930.581	5814.72
930.89	5756.19
931.199	5728.39
931.508	5699.24
931.817	5715.51
932.125	5710.32
932.434	5700.82
932.743	5619.47
933.051	5647.27
933.36	5616.31
933.669	5549.64
933.977	5529.98
934.286	5570.21
934.594	5533.6
934.902	5434.17
935.21	5467.84
935.519	5439.81
935.827	5440.27
936.135	5379.48
936.443	5359.14
936.751	5321.63
937.059	5333.83
937.367	5307.61
937.674	5344.45
937.982	5286.15
938.29	5257.9
938.597	5262.19
938.905	5181.74
939.213	5189.65
939.52	5162.08
939.827	5140.39
940.135	5112.14
940.442	5069.88
940.749	5113.27
941.056	5033.95
941.363	5018.36
941.67	4990.11
941.977	4971.35
942.284	4956.44
942.591	4972.26
942.898	4853.84
943.205	4887.74
943.511	4866.04
943.818	4869.43
944.125	4859.49
944.431	4821.3
944.738	4839.83
945.044	4749.66
945.35	4757.35
945.657	4726.16
945.963	4698.59
946.269	4699.27
946.575	4672.15
946.881	4651.81
947.187	4667.86
947.493	4647.07
947.799	4586.05
948.105	4581.98
948.41	4559.61
948.716	4505.83
949.022	4499.27
949.327	4534.75
949.633	4457.24
949.938	4489.78
950.244	4444.59
950.549	4386.51
950.854	4410.01
951.16	4411.59
951.465	4372.5
951.77	4371.82
952.075	4348.09
952.38	4302.9
952.685	4279.62
952.99	4239.17
953.294	4259.05
953.599	4216.57
953.904	4193.52
954.209	4175.44
954.513	4178.6
954.818	4149.45
955.122	4131.15
955.426	4124.37
955.731	4095.67
956.035	4124.59
956.339	4088.66
956.643	4054.99
956.948	4057.48
957.252	4067.87
957.556	4041.21
957.86	4005.28
958.163	3960.53
958.467	3951.72
958.771	3935.9
959.075	3896.8
959.378	3916.24
959.682	3901.32
959.985	3861.1
960.289	3892.96
960.592	3844.38
960.896	3853.87
961.199	3841.66
961.502	3788.11
961.805	3785.17
962.108	3732.29
962.411	3710.14
962.714	3686.87
963.017	3689.35
963.32	3733.19
963.623	3686.87
963.926	3678.05
964.228	3649.35
964.531	3621.78
964.833	3655.23
965.136	3572.75
965.438	3619.07
965.741	3554.67
966.043	3577.04
966.345	3554.44
966.648	3537.94
966.95	3483.93
967.252	3489.58
967.554	3495.01
967.856	3471.73
968.158	3455.91
968.46	3414.11
968.761	3451.62
969.063	3424.73
969.365	3408
969.666	3400.09
969.968	3353.99
970.269	3320.1
970.571	3335.46
970.872	3323.94
971.174	3275.8
971.475	3314.45
971.776	3247.56
972.077	3251.85
972.378	3223.15
972.679	3219.08
972.98	3225.18
973.281	3225.64
973.582	3198.52
973.883	3211.4
974.183	3199.87
974.484	3126.66
974.785	3092.53
975.085	3113.1
975.386	3104.28
975.686	3083.72
975.986	3059.54
976.287	3083.72
976.587	3037.39
976.887	3048.69
977.187	3075.58
977.487	3010.73
977.787	2995.59
978.087	2973.66
978.387	2975.7
978.687	2989.71
978.987	2911.07
979.286	2954.91
979.586	2930.5
979.885	2925.3
980.185	2909.49
980.484	2893.67
980.784	2820.67
981.083	2870.39
981.382	2819.77
981.682	2800.34
981.981	2809.15
982.28	2810.96
982.579	2786.1
982.878	2764.4
983.177	2772.99
983.475	2737.96
983.774	2730.28
984.073	2751.52
984.372	2729.15
984.67	2688.93
984.969	2704.29
985.267	2680.57
985.566	2742.26
985.864	2638.98
986.162	2660.23
986.461	2627.91
986.759	2649.61
987.057	2607.12
987.355	2592.21
987.653	2581.36
987.951	2605.76
988.249	2569.38
988.547	2561.02
988.844	2539.78
989.142	2536.61
989.44	2547.69
989.737	2507.46
990.035	2474.69
990.332	2490.51
990.63	2488.25
990.927	2485.54
991.224	2478.31
991.521	2420.46
991.819	2438.09
992.116	2441.02
992.413	2409.61
992.71	2400.8
993.006	2392.21
993.303	2371.19
993.6	2369.39
993.897	2319.9
994.193	2357.86
994.49	2340.69
994.787	2323.29
995.083	2266.11
995.379	2289.61
995.676	2259.56
995.972	2245.55
996.268	2250.07
996.565	2255.72
996.861	2262.72
997.157	2235.61
997.453	2192.89
997.749	2212.78
998.044	2203.29
998.34	2159
998.636	2174.14
998.932	2169.84
999.227	2133.01
999.523	2127.36
999.818	2111.54
1000.114	2099.11
1000.409	2109.28
1000.704	2092.78
1001	2062.05
1001.295	2032.22
1001.59	2056.4
1001.885	2055.5
1002.18	2027.02
1002.475	2024.99
1002.77	2016.85
1003.065	2004.2
1003.359	1997.65
1003.654	1989.06
1003.949	1975.95
1004.243	1974.82
1004.538	1920.59
1004.832	1939.79
1005.127	1931.43
1005.421	1950.19
1005.715	1914.71
1006.009	1860.93
1006.304	1897.31
1006.598	1856.63
1006.892	1872.9
1007.186	1848.27
1007.48	1846.24
1007.773	1841.49
1008.067	1837.88
1008.361	1836.97
1008.655	1795.84
1008.948	1789.06
1009.242	1769.18
1009.535	1773.24
1009.829	1799.01
1010.122	1764.66
1010.415	1752.45
1010.708	1734.38
1011.001	1751.1
1011.295	1727.82
1011.588	1691.21
1011.881	1669.29
1012.173	1662.51
1012.466	1661.83
1012.759	1655.51
1013.052	1665.68
1013.344	1636.3
1013.637	1639.91
1013.93	1638.33
1014.222	1618.22
1014.514	1603.08
1014.807	1609.63
1015.099	1575.51
1015.391	1595.4
1015.683	1568.28
1015.976	1580.03
1016.268	1562.85
1016.56	1557.88
1016.851	1500.03
1017.143	1527.15
1017.435	1499.13
1017.727	1480.82
1018.018	1502.52
1018.31	1463.42
1018.602	1495.29
1018.893	1457.55
1019.185	1455.51
1019.476	1453.48
1019.767	1433.37
1020.058	1431.11
1020.35	1439.24
1020.641	1403.76
1020.932	1410.77
1021.223	1415.74
1021.514	1357.44
1021.804	1388.85
1022.095	1387.72
1022.386	1350.88
1022.677	1378.9
1022.967	1359.92
1023.258	1331.45
1023.548	1315.18
1023.839	1288.51
1024.129	1309.98
1024.419	1315.4
1024.709	1279.92
1025	1248.29
1025.29	1267.04
1025.58	1283.77
1025.87	1267.04
1026.16	1253.48
1026.449	1255.97
1026.739	1229.53
1027.029	1241.73
1027.319	1232.92
1027.608	1209.42
1027.898	1191.11
1028.187	1203.32
1028.477	1176.88
1028.766	1176.65
1029.055	1163.32
1029.344	1159.93
1029.634	1165.12
1029.923	1165.58
1030.212	1136.65
1030.501	1154.96
1030.79	1119.7
1031.078	1118.12
1031.367	1098.91
1031.656	1099.14
1031.945	1105.69
1032.233	1071.34
1032.522	1075.64
1032.81	1071.34
1033.099	1078.35
1033.387	1064.34
1033.675	1048.07
1033.963	1046.94
1034.251	1073.38
1034.54	1048.29
1034.828	1052.13
1035.116	1020.04
1035.403	1010.33
1035.691	990.89
1035.979	1002.64
1036.267	1024.56
1036.554	1014.39
1036.842	989.08
1037.129	990.89
1037.417	935.98
1037.704	942.31
1037.992	965.13
1038.279	960.61
1038.566	942.31
1038.853	942.31
1039.14	942.31
