Data from hue_36_FLMS001491_00009.txt Node
Date: Tue Feb 07 17:29:20 GMT 2017
User: dcchb
Spectrometer: FLMS00149
Trigger mode: 0
Integration Time (sec): 2.000000E-2
Scans to average: 10
Electric dark correction enabled: true
Nonlinearity correction enabled: false
Boxcar width: 0
XAxis mode: Wavelengths
Number of Pixels in Spectrum: 2048
>>>>>Begin Spectral Data<<<<<
341.393	13.47
341.776	13.47
342.16	13.47
342.543	-61.78
342.927	-52.51
343.31	-66.75
343.693	-68.78
344.077	-67.88
344.46	-83.47
344.843	-49.57
345.226	-36.02
345.61	-52.29
345.993	-6.41
346.376	0.59
346.759	7.82
347.142	28.84
347.525	24.1
347.908	74.49
348.291	63.42
348.674	105.22
349.057	126.69
349.44	134.37
349.823	146.8
350.206	162.62
350.588	189.06
350.971	223.41
351.354	238.55
351.737	255.05
352.119	269.06
352.502	268.38
352.884	296.86
353.267	287.14
353.65	286.69
354.032	315.84
354.414	317.87
354.797	321.26
355.179	333.01
355.562	314.94
355.944	318.1
356.326	330.08
356.709	342.73
357.091	342.28
357.473	334.6
357.855	356.06
358.238	343.41
358.62	336.86
359.002	354.26
359.384	356.29
359.766	348.83
360.148	353.8
360.53	354.26
360.912	340.25
361.294	335.5
361.676	333.01
362.057	334.6
362.439	335.27
362.821	329.4
363.203	354.03
363.584	325.78
363.966	314.26
364.348	334.37
364.729	323.75
365.111	303.86
365.493	328.27
365.874	329.85
366.256	331.43
366.637	330.53
367.019	318.1
367.4	319.91
367.781	300.7
368.163	326.46
368.544	309.96
368.925	312.9
369.306	342.05
369.688	312.45
370.069	323.52
370.45	318.78
370.831	303.86
371.212	332.56
371.593	290.53
371.974	323.07
372.355	312
372.736	324.65
373.117	311.09
373.498	332.56
373.879	322.39
374.26	312.45
374.641	325.78
375.021	314.94
375.402	314.94
375.783	330.53
376.163	320.36
376.544	316.07
376.925	334.37
377.305	331.21
377.686	337.31
378.066	332.34
378.447	330.53
378.827	330.98
379.208	339.34
379.588	337.53
379.968	336.86
380.349	329.17
380.729	330.98
381.109	331.88
381.489	321.04
381.87	339.12
382.25	317.65
382.63	345.22
383.01	352.9
383.39	327.36
383.77	343.64
384.15	347.25
384.53	352.45
384.91	353.13
385.29	359
385.67	345.22
386.049	364.65
386.429	334.6
386.809	341.83
387.189	360.58
387.568	334.14
387.948	347.7
388.328	360.58
388.707	354.03
389.087	367.14
389.466	366.01
389.846	370.53
390.225	348.38
390.605	393.35
390.984	379.34
391.363	367.14
391.743	366.23
392.122	368.49
392.501	372.11
392.881	363.52
393.26	357.42
393.639	377.76
394.018	375.5
394.397	349.51
394.776	371.43
395.155	370.75
395.534	403.52
395.913	369.62
396.292	375.95
396.671	393.58
397.05	385.44
397.429	372.79
397.808	366.01
398.186	382.05
398.565	393.35
398.944	379.34
399.323	403.29
399.701	406.91
400.08	403.97
400.458	384.54
400.837	377.31
401.215	398.1
401.594	405.1
401.972	416.85
402.351	405.1
402.729	426.34
403.107	427.47
403.486	405.1
403.864	424.08
404.242	416.63
404.62	426.8
404.999	411.2
405.377	407.59
405.755	415.72
406.133	442.84
406.511	411.43
406.889	411.88
407.267	427.7
407.645	430.64
408.023	415.72
408.401	434.48
408.779	419.57
409.156	436.74
409.534	450.07
409.912	448.94
410.29	440.36
410.667	438.1
411.045	448.27
411.422	458.43
411.8	469.96
412.178	468.6
412.555	474.03
412.933	465.44
413.31	469.73
413.687	451.88
414.065	467.02
414.442	476.74
414.819	457.53
415.197	479.68
415.574	483.74
415.951	467.47
416.328	480.58
416.705	500.24
417.082	503.18
417.46	494.14
417.837	502.27
418.214	514.7
418.591	515.16
418.967	496.85
419.344	501.37
419.721	509.73
420.098	506.79
420.475	538.66
420.852	508.15
421.228	497.98
421.605	533.46
421.982	502.05
422.358	528.49
422.735	539.79
423.111	548.38
423.488	535.04
423.864	568.71
424.241	564.42
424.617	544.99
424.994	526.23
425.37	555.38
425.746	534.59
426.123	563.29
426.499	552.44
426.875	601.26
427.251	539.56
427.627	589.96
428.003	559.9
428.379	569.39
428.756	588.6
429.132	589.05
429.507	605.78
429.883	589.96
430.259	630.18
430.635	594.93
431.011	617.75
431.387	624.31
431.763	621.14
432.138	641.25
432.514	641.03
432.89	632.22
433.265	647.58
433.641	660.24
434.016	641.25
434.392	657.07
434.767	654.59
435.143	674.47
435.518	680.35
435.894	673.8
436.269	683.06
436.644	691.87
437.02	708.15
437.395	692.1
437.77	679.9
438.145	716.28
438.52	739.78
438.895	706.34
439.271	691.2
439.646	740.23
440.021	725.77
440.395	743.85
440.77	732.1
441.145	741.36
441.52	755.15
441.895	763.96
442.27	764.64
442.645	762.38
443.019	755.38
443.394	768.48
443.769	758.09
444.143	776.62
444.518	771.87
444.892	794.7
445.267	772.32
445.641	805.32
446.016	797.86
446.39	817.07
446.764	818.2
447.139	808.26
447.513	801.48
447.887	800.8
448.262	826.11
448.636	822.27
449.01	827.92
449.384	851.19
449.758	832.89
450.132	862.04
450.506	865.66
450.88	853.23
451.254	865.88
451.628	866.11
452.002	868.82
452.376	849.61
452.75	876.95
453.123	878.08
453.497	889.16
453.871	906.56
454.244	903.39
454.618	926.44
454.992	921.25
455.365	927.8
455.739	951.53
456.112	961.02
456.486	970.96
456.859	952.66
457.232	987.46
457.606	999.44
457.979	992.21
458.352	995.37
458.725	1005.54
459.099	1020.45
459.472	1051.86
459.845	1073.33
460.218	1069.49
460.591	1081.47
460.964	1098.19
461.337	1104.74
461.71	1136.38
462.083	1109.72
462.456	1115.37
462.829	1127.8
463.201	1163.05
463.574	1117.17
463.947	1173.44
464.32	1203.05
464.692	1201.92
465.065	1211.86
465.438	1230.39
465.81	1223.84
466.183	1254.8
466.555	1286.44
466.928	1281.46
467.3	1305.42
467.672	1360.33
468.045	1307.45
468.417	1383.61
468.789	1379.09
469.161	1407.34
469.534	1413.66
469.906	1452.76
470.278	1486.66
470.65	1474
471.022	1527.56
471.394	1535.24
471.766	1547.9
472.138	1595.81
472.51	1591.96
472.882	1649.36
473.253	1659.08
473.625	1687.33
473.997	1738.4
474.369	1739.08
474.74	1791.96
475.112	1807.1
475.484	1862.01
475.855	1918.73
476.227	1935.46
476.598	1981.33
476.97	2025.85
477.341	2052.74
477.713	2119.41
478.084	2130.48
478.455	2239.18
478.827	2262.23
479.198	2345.39
479.569	2373.86
479.94	2473.75
480.311	2497.93
480.682	2573.18
481.053	2652.27
481.424	2714.42
481.795	2715.78
482.166	2780.41
482.537	2865.38
482.908	2898.14
483.279	2980.18
483.65	3071.02
484.021	3178.81
484.391	3239.6
484.762	3301.07
485.133	3398.24
485.503	3458.13
485.874	3526.83
486.244	3639.82
486.615	3725.69
486.985	3762.08
487.356	3872.13
487.726	3956.87
488.097	4067.6
488.467	4146.47
488.837	4231.67
489.207	4329.29
489.578	4453.13
489.948	4590.75
490.318	4624.2
490.688	4645.67
491.058	4794.14
491.428	4924.08
491.798	4964.3
492.168	5126.56
492.538	5194.35
492.908	5269.83
493.278	5366.78
493.648	5455.37
494.017	5575.14
494.387	5636.15
494.757	5765.19
495.126	5806.54
495.496	5876.82
495.866	5964.28
496.235	6101.9
496.605	6162.01
496.974	6220.32
497.344	6339.64
497.713	6447.43
498.082	6536.01
498.452	6617.37
498.821	6675.9
499.19	6717.03
499.559	6810.81
499.928	6947.53
500.298	6965.38
500.667	7049.22
501.036	7091.25
501.405	7208.99
501.774	7264.58
502.143	7296.67
502.512	7444.24
502.88	7474.29
503.249	7538.7
503.618	7623.9
503.987	7697.11
504.356	7766.72
504.724	7903.89
505.093	7896.88
505.462	7951.8
505.83	8074.96
506.199	8112.92
506.567	8299.58
506.936	8194.28
507.304	8401.28
507.672	8451.22
508.041	8480.14
508.409	8575.73
508.777	8684.66
509.145	8634.26
509.514	8746.8
509.882	8827.93
510.25	8913.35
510.618	8894.37
510.986	8982.73
511.354	9051.65
511.722	9147.47
512.09	9262.95
512.458	9239.67
512.826	9290.74
513.193	9307.24
513.561	9469.72
513.929	9555.14
514.297	9570.74
514.664	9617.52
515.032	9670.62
515.4	9812.54
515.767	9838.98
516.135	9908.13
516.502	9798.98
516.869	9998.52
517.237	10069.26
517.604	10003.49
517.972	10172.76
518.339	10209.14
518.706	10285.97
519.073	10326.65
519.44	10306.54
519.808	10488.23
520.175	10489.13
520.542	10656.36
520.909	10680.31
521.276	10674.89
521.643	10807.77
522.009	10830.36
522.376	10860.19
522.743	10996.24
523.11	11107.65
523.477	11241.2
523.843	11261.99
524.21	11264.03
524.577	11363.23
524.943	11403.46
525.31	11502.66
525.676	11589.89
526.043	11674.86
526.409	11663.56
526.776	11798.93
527.142	11803.22
527.508	11940.62
527.874	12034.63
528.241	12047.28
528.607	12135.19
528.973	12185.81
529.339	12231.01
529.705	12301.96
530.071	12496.31
530.437	12522.07
530.803	12630.09
531.169	12678.23
531.535	12645.01
531.901	12707.38
532.267	12761.16
532.632	12857.43
532.998	12913.02
533.364	12941.95
533.73	13000.93
534.095	13095.84
534.461	13153.02
534.826	13182.62
535.192	13332.45
535.557	13392.11
535.923	13281.6
536.288	13406.12
536.653	13519.33
537.019	13492.67
537.384	13613.79
537.749	13652.89
538.114	13732.44
538.479	13735.6
538.845	13847.23
539.21	13833.45
539.575	13889.72
539.94	13937.18
540.305	14025.08
540.67	13948.48
541.034	14137.4
541.399	14097.62
541.764	14205.87
542.129	14248.35
542.494	14215.59
542.858	14351.18
543.223	14359.99
543.587	14465.98
543.952	14469.59
544.316	14516.6
544.681	14529.93
545.045	14621.45
545.41	14819.19
545.774	14756.82
546.138	14730.15
546.503	14874.78
546.867	14880.88
547.231	15048.33
547.595	15012.85
547.959	15138.05
548.324	15141.21
548.688	15161.55
549.052	15189.57
549.416	15280.19
549.779	15277.48
550.143	15271.15
550.507	15459.85
550.871	15450.13
551.235	15495.1
551.599	15497.36
551.962	15593.18
552.326	15665.72
552.689	15711.82
553.053	15699.84
553.417	15746.17
553.78	15940.29
554.143	16010.57
554.507	16007.63
554.87	16072.04
555.234	16138.25
555.597	16143.45
555.96	16198.81
556.323	16347.28
556.686	16380.05
557.05	16325.36
557.413	16495.07
557.776	16486.49
558.139	16605.35
558.502	16651.91
558.865	16709.08
559.228	16717.89
559.59	16775.97
559.953	16869.75
560.316	16977.32
560.679	17011.22
561.041	17075.17
561.404	17155.62
561.767	17272.46
562.129	17279.69
562.492	17434.26
562.854	17423.41
563.217	17358.33
563.579	17497.53
563.941	17540.02
564.304	17577.53
564.666	17768.71
565.028	17772.56
565.39	17798.32
565.753	17869.5
566.115	17944.53
566.477	17959.67
566.839	18072.89
567.201	18156.27
567.563	18274.46
567.925	18365.76
568.287	18406.66
568.648	18490.5
569.01	18566.43
569.372	18598.97
569.734	18589.71
570.095	18775.69
570.457	18810.49
570.819	18854.56
571.18	18859.08
571.542	18993.77
571.903	19083.26
572.265	19133.88
572.626	19184.5
572.987	19260.65
573.349	19319.41
573.71	19567.76
574.071	19586.07
574.432	19611.15
574.794	19929.33
575.155	19847.75
575.516	19963.46
575.877	20136.79
576.238	20134.53
576.599	20314.41
576.96	20330.68
577.32	20422.2
577.681	20647.73
578.042	20792.59
578.403	20807.05
578.763	21046.14
579.124	21090.66
579.485	21285.01
579.845	21440.71
580.206	21480.03
580.566	21614.26
580.927	21834.6
581.287	21963.86
581.648	22026.45
582.008	22201.37
582.368	22329.95
582.728	22518.65
583.089	22626.21
583.449	22805.87
583.809	23002.7
584.169	23273.65
584.529	23371.28
584.889	23670.25
585.249	23802.45
585.609	23931.26
585.969	24165.61
586.329	24340.29
586.688	24612.83
587.048	24711.36
587.408	24929.66
587.768	25070.44
588.127	25326.93
588.487	25509.53
588.846	25994.03
589.206	25808.28
589.565	26162.84
589.925	26582.49
590.284	26697.07
590.643	26910.85
591.003	27279.2
591.362	27460.89
591.721	27710.83
592.08	27836.7
592.44	28193.52
592.799	28512.16
593.158	28447.53
593.517	28817.69
593.876	28927.52
594.235	29178.36
594.593	29478.01
594.952	29553.26
595.311	29849.53
595.67	30116.41
596.029	30442.05
596.387	30717.3
596.746	30820.57
597.104	30994.35
597.463	31059.21
597.822	31467.56
598.18	31394.57
598.538	31684.96
598.897	32124.04
599.255	32148.22
599.613	32662.56
599.972	32652.39
600.33	32824.36
600.688	32891.71
601.046	33358.81
601.404	33564.23
601.762	33636.54
602.12	33970.1
602.478	34184.78
602.836	34237.89
603.194	34380.48
603.552	34500.93
603.91	34605.33
604.268	34993.8
604.625	35052.1
604.983	35257.75
605.341	35327.12
605.698	35497.06
606.056	35699.54
606.413	35908.35
606.771	36024.5
607.128	36231.5
607.485	36083.49
607.843	36267.44
608.2	36681.89
608.557	36887.53
608.914	36870.36
609.272	37185.83
609.629	37268.09
609.986	37499.27
610.343	37518.93
610.7	37826.94
611.057	37842.08
611.414	37979.71
611.771	37968.63
612.127	38292.24
612.484	38322.75
612.841	38682.51
613.198	38532.46
613.554	38691.55
613.911	38979.91
614.267	39100.81
614.624	39002.28
614.98	39200.24
615.337	39417.86
615.693	39565.65
616.05	39510.51
616.406	39856.49
616.762	39826.66
617.118	39839.77
617.475	39867.79
617.831	40173.1
618.187	40228.91
618.543	40304.17
618.899	40505.74
619.255	40548.68
619.611	40569.47
619.967	40830.48
620.323	40780.31
620.678	40830.71
621.034	40862.34
621.39	40844.49
621.746	40776.24
622.101	41343.69
622.457	40983.02
622.812	41324.7
623.168	41373.52
623.523	41450.35
623.879	41695.32
624.234	41269.11
624.589	41597.69
624.945	41676.33
625.3	41690.12
625.655	41577.81
626.01	41641.31
626.365	41782.55
626.72	41725.82
627.075	41847.18
627.43	41831.58
627.785	41761.76
628.14	41870.68
628.495	41990.22
628.85	41958.36
629.205	41931.02
629.559	42184.79
629.914	41894.86
630.269	41927.17
630.623	41796.56
630.978	41951.35
631.332	42153.38
631.687	42346.82
632.041	41996.1
632.396	42149.32
632.75	41936.89
633.104	42093.95
633.459	41901.64
633.813	41864.35
634.167	42020.28
634.521	41979.6
634.875	42100.28
635.229	41966.04
635.583	41898.7
635.937	41935.99
636.291	41900.73
636.645	41865.03
636.999	41870.23
637.352	41956.55
637.706	41869.32
638.06	41916.33
638.413	41837.91
638.767	41798.14
639.121	41883.79
639.474	41585.04
639.828	41718.59
640.181	41757.91
640.534	41694.64
640.888	41587.3
641.241	41457.81
641.594	41611.7
641.947	41780.51
642.301	41667.75
642.654	41536
643.007	41716.33
643.36	41747.97
643.713	41555.66
644.066	41737.35
644.419	41369.45
644.771	41157.48
645.124	40789.13
645.477	40704.61
645.83	40476.59
646.182	40559.98
646.535	40325.41
646.888	40376.71
647.24	40279.76
647.593	40556.14
647.945	40246.77
648.298	40184.85
648.65	40150.5
649.002	40133.55
649.355	40375.12
649.707	40277.95
650.059	40468.23
650.411	40960.87
650.763	40859.86
651.115	41354.53
651.467	41210.81
651.819	41248.32
652.171	41167.42
652.523	40967.88
652.875	40873.42
653.227	40863.02
653.578	41180.53
653.93	40893.76
654.282	40758.62
654.633	40694.44
654.985	40826.41
655.337	40812.63
655.688	40926.52
656.039	40912.29
656.391	40636.36
656.742	40840.65
657.094	40672.74
657.445	40892.85
657.796	40866.86
658.147	40728.34
658.498	40648.56
658.849	40731.5
659.2	40797.94
659.551	40671.16
659.902	40786.19
660.253	40705.06
660.604	40726.3
660.955	40527.44
661.306	40909.35
661.656	40603.59
662.007	40626.64
662.358	40623.71
662.708	40533.54
663.059	40532.86
663.409	40317.27
663.76	40717.04
664.11	40493.31
664.461	40546.19
664.811	40611.73
665.161	40512.52
665.511	40434.11
665.862	40608.57
666.212	40605.18
666.562	40727.66
666.912	40531.28
667.262	40556.59
667.612	40488.79
667.962	40607.44
668.312	40539.41
668.662	40673.42
669.011	40432.3
669.361	40370.15
669.711	40609.69
670.06	40457.61
670.41	40351.85
670.76	40442.92
671.109	40480.21
671.459	40378.97
671.808	40284.28
672.157	40440.21
672.507	40286.77
672.856	40138.75
673.205	40249.7
673.554	40190.95
673.904	40209.48
674.253	40474.11
674.602	40203.15
674.951	39912.31
675.3	39624.86
675.649	40293.32
675.998	40147.56
676.346	40136.49
676.695	40199.31
677.044	40026.21
677.393	40058.97
677.741	40191.4
678.09	39975.59
678.438	39921.13
678.787	40001.12
679.135	40032.76
679.484	39713.22
679.832	39918.19
680.181	39746.67
680.529	39827.12
680.877	39871.18
681.225	39727.23
681.573	39890.17
681.922	39603.17
682.27	39602.94
682.618	39571.53
682.966	39468.26
683.314	39417.41
683.661	39410.63
684.009	39171.77
684.357	39179.9
684.705	39045.89
685.053	39046.8
685.4	39031.88
685.748	38862.17
686.095	38845.9
686.443	38749.63
686.79	38787.37
687.138	38706.69
687.485	38687.94
687.832	38684.55
688.18	38595.96
688.527	38395.29
688.874	38448.62
689.221	38442.52
689.568	38228.06
689.915	38218.12
690.262	38226.71
690.609	38144.67
690.956	37957.11
691.303	37984.91
691.65	37662.2
691.997	37814.29
692.344	37637.8
692.69	37503.79
693.037	37505.6
693.383	37334.75
693.73	37243
694.077	37192.38
694.423	37174.31
694.769	37110.35
695.116	36958.72
695.462	37067.64
695.808	36753.3
696.155	36919.85
696.501	36474.44
696.847	36630.14
697.193	36413.87
697.539	36569.35
697.885	36246.42
698.231	36153.77
698.577	36147.44
698.923	36126.42
699.269	35851.4
699.614	35829.03
699.96	35722.37
700.306	35746.55
700.651	35638.75
700.997	35470.4
701.342	35434.46
701.688	35359.44
702.033	35256.84
702.379	35218.65
702.724	35174.13
703.069	35217.97
703.415	34661.6
703.76	34671.55
704.105	34799.68
704.45	34670.42
704.795	34506.35
705.14	34543.64
705.485	34506.58
705.83	34315.62
706.175	34352.68
706.52	34228.85
706.865	34206.47
707.209	34065.23
707.554	33940.72
707.899	34066.82
708.243	33751.34
708.588	33855.07
708.932	33570.78
709.277	33543.89
709.621	33583.44
709.966	33342.99
710.31	33397
710.654	33212.15
710.998	33154.98
711.342	33312.94
711.687	33157.69
712.031	33071.81
712.375	32904.59
712.719	32969.22
713.063	32914.08
713.407	33042.21
713.75	32800.63
714.094	32807.87
714.438	32527.65
714.782	32661.66
715.125	32616.68
715.469	32610.58
715.812	32416.46
716.156	32178.73
716.499	32044.04
716.843	32292.85
717.186	32125.17
717.53	32145.51
717.873	32218.28
718.216	32131.73
718.559	31836.82
718.902	31736.03
719.246	31811.73
719.589	31642.47
719.932	31600.21
720.275	31582.81
720.617	31545.75
720.96	31550.95
721.303	31470.73
721.646	31365.42
721.989	31244.07
722.331	31457.85
722.674	31262.82
723.016	31269.38
723.359	31163.62
723.701	31218.53
724.044	30940.8
724.386	30684.08
724.729	30942.15
725.071	30986.9
725.413	30951.87
725.755	30882.49
726.097	30694.25
726.439	30666.68
726.782	30627.81
727.124	30810.86
727.465	30673.23
727.807	30569.28
728.149	30511.66
728.491	30396.86
728.833	30521.6
729.175	30425.33
729.516	30284.77
729.858	30313.47
730.199	30261.27
730.541	30138.33
730.882	30133.81
731.224	30268.5
731.565	30090.88
731.906	30044.32
732.248	29993.48
732.589	29809.75
732.93	29848.85
733.271	29818.34
733.612	29824.89
733.953	29844.1
734.294	29748.96
734.635	29643.43
734.976	29598.91
735.317	29585.8
735.658	29508.29
735.999	29579.93
736.339	29358.47
736.68	29501.96
737.021	29364.57
737.361	29305.59
737.702	29366.37
738.042	29270.11
738.383	29259.94
738.723	29291.35
739.063	29130.9
739.404	29301.29
739.744	29165.48
740.084	29054.52
740.424	29029.89
740.764	28998.7
741.104	29113.95
741.444	28700.86
741.784	28870.79
742.124	28816.56
742.464	28796.67
742.804	28720.06
743.143	28565.94
743.483	28713.28
743.823	28403.24
744.162	28546.51
744.502	28539.5
744.841	28473.29
745.181	28582.67
745.52	28496.79
745.86	28553.74
746.199	28329.57
746.538	28288.44
746.877	28299.51
747.216	28295.89
747.556	28267.19
747.895	28163.92
748.234	28100.42
748.573	28103.81
748.911	28039.4
749.25	27965.28
749.589	27953.98
749.928	27935.45
750.267	28058.61
750.605	27712.41
750.944	27764.83
751.283	27581.56
751.621	27751.95
751.96	27616.14
752.298	27551.28
752.636	27605.07
752.975	27443.49
753.313	27281.46
753.651	27394
753.989	27299.08
754.327	27298.41
754.666	27048.92
755.004	27285.07
755.342	27148.13
755.679	27076.04
756.017	26927.79
756.355	27077.85
756.693	26961.47
757.031	26931.41
757.368	26838.53
757.706	26761.02
758.044	26704.52
758.381	26706.78
758.719	26437.86
759.056	26533.68
759.394	26512.66
759.731	26305.21
760.068	26223.86
760.405	26109.96
760.743	26043.52
761.08	26112.22
761.417	26108.83
761.754	25900.03
762.091	25885.11
762.428	25794.49
762.765	25680.82
763.102	25725.34
763.438	25586.36
763.775	25439.02
764.112	25524.44
764.449	25519.7
764.785	25462.07
765.122	25147.5
765.458	25077.67
765.795	25048.07
766.131	24947.96
766.467	24898.7
766.804	24754.74
767.14	24727.63
767.476	24654.86
767.812	24571.47
768.148	24540.29
768.485	24414.64
768.821	24247.19
769.157	24242.67
769.492	24211.93
769.828	24152.27
770.164	23952.28
770.5	23947.53
770.836	23859.85
771.171	23751.61
771.507	23700.31
771.842	23533.99
772.178	23615.11
772.513	23505.74
772.849	23356.59
773.184	23317.27
773.519	23259.19
773.855	23243.6
774.19	23000.44
774.525	22965.87
774.86	22912.53
775.195	22911.63
775.53	22833.44
775.865	22854.68
776.2	22598.87
776.535	22429.38
776.87	22441.59
777.205	22323.85
777.539	22273
777.874	22295.37
778.209	22033.23
778.543	22021.94
778.878	21942.39
779.212	21988.94
779.547	21845.67
779.881	21850.41
780.215	21608.16
780.55	21685.67
780.884	21473.47
781.218	21418.11
781.552	21442.97
781.886	21094.95
782.22	21244.78
782.554	21200.94
782.888	20933.15
783.222	20893.83
783.556	20861.74
783.889	20826.49
784.223	20529.54
784.557	20536.1
784.89	20613.16
785.224	20391.47
785.557	20336.56
785.891	20318.7
786.224	20275.09
786.558	20192.83
786.891	20087.52
787.224	19970.69
787.557	20043
787.891	19913.97
788.224	19889.56
788.557	19852.27
788.89	19800.52
789.223	19755.1
789.556	19626.74
789.888	19485.28
790.221	19486.41
790.554	19328.45
790.887	19320.31
791.219	19326.41
791.552	19263.14
791.884	19199.18
792.217	19020.88
792.549	19061.33
792.882	18855.24
793.214	18829.48
793.546	18794.22
793.879	18783.15
794.211	18664.51
794.543	18666.77
794.875	18581.8
795.207	18652.08
795.539	18516.26
795.871	18515.13
796.203	18312.2
796.535	18204.86
796.867	18234.92
797.198	18099.1
797.53	18133
797.862	18070.85
798.193	17955.15
798.525	17905.43
798.856	17923.29
799.188	17766.23
799.519	17647.81
799.85	17568.94
800.182	17617.08
800.513	17595.61
800.844	17387.03
801.175	17445.56
801.506	17412.79
801.837	17417.31
802.168	17276.98
802.499	17300.93
802.83	17177.77
803.161	17135.51
803.491	17156.53
803.822	16996.53
804.153	16977.55
804.483	16852.13
804.814	16758.34
805.145	16839.7
805.475	16771.68
805.805	16686.71
806.136	16658.69
806.466	16682.87
806.796	16671.12
807.126	16587.95
807.457	16423.89
807.787	16535.75
808.117	16344.57
808.447	16326.94
808.777	16366.72
809.107	16252.6
809.436	16177.12
809.766	16234.29
810.096	16159.04
810.426	16036.1
810.755	16006.95
811.085	16066.39
811.414	15904.81
811.744	15876.33
812.073	15776.68
812.403	15780.29
812.732	15686.28
813.061	15769.67
813.39	15647.19
813.719	15633.18
814.049	15749.33
814.378	15647.19
814.707	15539.85
815.036	15553.63
815.365	15420.3
815.693	15385.5
816.022	15323.81
816.351	15399.96
816.68	15181.21
817.008	15251.94
817.337	15064.38
817.665	15083.36
817.994	15159.74
818.322	15111.83
818.651	15016.24
818.979	14989.8
819.307	15048.11
819.636	14968.79
819.964	14851.28
820.292	14930.82
820.62	14917.72
820.948	14860.77
821.276	14878.17
821.604	14822.58
821.932	14880.2
822.259	14912.07
822.587	14839.3
822.915	14759.98
823.243	14852.18
823.57	14771.96
823.898	14825.29
824.225	14654.9
824.553	14735.57
824.88	14818.73
825.207	14799.98
825.535	14715.91
825.862	14793.88
826.189	14697.38
826.516	14821.22
826.843	14839.75
827.17	14853.54
827.497	14716.59
827.824	14850.6
828.151	14852.41
828.478	14820.09
828.805	14793.88
829.131	14713.2
829.458	14721.79
829.785	14673.88
830.111	14677.5
830.438	14736.93
830.764	14632.75
831.09	14768.11
831.417	14593.2
831.743	14681.79
832.069	14642.02
832.395	14611.51
832.722	14639.3
833.048	14579.87
833.374	14539.65
833.7	14551.4
834.026	14507.33
834.351	14595.46
834.677	14549.36
835.003	14526.99
835.329	14555.24
835.654	14459.2
835.98	14453.09
836.306	14469.14
836.631	14379.42
836.956	14466.2
837.282	14412.19
837.607	14348.24
837.932	14314.57
838.258	14362.7
838.583	14265.3
838.908	14217.17
839.233	14288.35
839.558	14171.52
839.883	14140.56
840.208	14146.21
840.533	14153.22
840.858	14114.12
841.182	14091.97
841.507	14147.11
841.832	14016.95
842.156	14041.81
842.481	14002.71
842.805	13993.9
843.13	13848.36
843.454	13874.13
843.778	13866.44
844.103	13888.36
844.427	13747.8
844.751	13796.61
845.075	13750.74
845.399	13663.06
845.723	13591.2
846.047	13654.92
846.371	13548.26
846.695	13513.01
847.019	13373.8
847.343	13296.06
847.666	13303.75
847.99	13248.15
848.313	13228.49
848.637	13115.28
848.96	13159.8
849.284	13183.75
849.607	12979.69
849.931	12966.81
850.254	12862.85
850.577	12790.31
850.9	12682.07
851.223	12663.31
851.546	12688.17
851.869	12607.72
852.192	12713.03
852.515	12553.03
852.838	12453.15
853.161	12453.37
853.483	12354.84
853.806	12327.73
854.129	12378.35
854.451	12275.75
854.774	12316.88
855.096	12182.19
855.419	12138.58
855.741	12066.94
856.063	11989.43
856.385	12040.73
856.708	11988.3
857.03	11944.46
857.352	11991.46
857.674	11799.38
857.996	11893.39
858.318	11752.15
858.64	11801.64
858.961	11735.43
859.283	11698.59
859.605	11670.12
859.926	11651.59
860.248	11679.83
860.57	11646.84
860.891	11541.98
861.212	11484.81
861.534	11518.71
861.855	11407.52
862.176	11468.99
862.498	11424.02
862.819	11461.31
863.14	11411.82
863.461	11352.61
863.782	11353.74
864.103	11349.9
864.424	11300.41
864.745	11311.71
865.065	11225.38
865.386	11183.12
865.707	11199.62
866.027	11217.47
866.348	11211.15
866.668	11198.72
866.989	11085.5
867.309	11009.57
867.63	11106.74
867.95	11024.94
868.27	10986.52
868.59	11078.27
868.91	11017.7
869.23	11007.54
869.55	10946.29
869.87	11013.86
870.19	10944.94
870.51	10960.08
870.83	10968.67
871.15	10925.28
871.469	10893.41
871.789	10897.26
872.109	10861.32
872.428	10802.57
872.748	10756.69
873.067	10814.32
873.386	10798.73
873.706	10771.16
874.025	10694.78
874.344	10648.22
874.663	10688.67
874.982	10632.4
875.301	10673.08
875.62	10662.69
875.939	10599.86
876.258	10629.47
876.577	10635.12
876.896	10583.37
877.214	10533.2
877.533	10603.25
877.852	10603.93
878.17	10576.13
878.489	10528.23
878.807	10526.64
879.125	10502.46
879.444	10499.07
879.762	10453.88
880.08	10457.95
880.398	10278.74
880.716	10402.81
881.034	10318.97
881.352	10369.81
881.67	10293.66
881.988	10353.54
882.306	10304.73
882.624	10205.97
882.941	10222.92
883.259	10178.86
883.577	10148.8
883.894	10091.63
884.212	10214.79
884.529	10090.27
884.846	10037.84
885.164	10035.36
885.481	9982.03
885.798	10053.89
886.115	9945.42
886.432	9908.58
886.75	9882.59
887.067	9932.08
887.383	9805.99
887.7	9855.48
888.017	9781.13
888.334	9826.32
888.651	9734.57
888.967	9730.51
889.284	9700
889.6	9670.17
889.917	9622.26
890.233	9659.1
890.55	9646.89
890.866	9643.73
891.182	9547.91
891.498	9551.98
891.815	9545.43
892.131	9436.5
892.447	9448.48
892.763	9435.37
893.079	9382.72
893.395	9358.99
893.71	9296.85
894.026	9263.17
894.342	9306.34
894.657	9173.91
894.973	9286
895.289	9198.77
895.604	9156.96
895.92	9150.41
896.235	9042.62
896.55	9102.27
896.865	9030.41
897.181	8965.78
897.496	8974.82
897.811	8959.91
898.126	8854.37
898.441	8836.29
898.756	8835.62
899.071	8815.73
899.386	8870.19
899.7	8788.61
900.015	8722.4
900.33	8628.84
900.644	8656.18
900.959	8605.11
901.273	8603.3
901.588	8579.58
901.902	8489.86
902.216	8522.63
902.531	8488.05
902.845	8499.13
903.159	8380.03
903.473	8373.48
903.787	8360.6
904.101	8315.63
904.415	8267.27
904.729	8266.36
905.042	8254.84
905.356	8225.46
905.67	8199.47
905.984	8202.41
906.297	8165.58
906.611	8112.24
906.924	8052.36
907.237	8050.78
907.551	8012.36
907.864	8008.52
908.177	7915.41
908.491	7928.52
908.804	7926.49
909.117	7865.7
909.43	7831.35
909.743	7749.99
910.056	7756.32
910.368	7775.76
910.681	7693.05
910.994	7630.22
911.307	7633.61
911.619	7518.59
911.932	7527.17
912.244	7491.92
912.557	7458.25
912.869	7514.75
913.181	7424.13
913.494	7424.8
913.806	7340.29
914.118	7361.53
914.43	7342.55
914.742	7286.05
915.054	7173.29
915.366	7225.26
915.678	7174.64
915.99	7135.55
916.302	7158.6
916.613	7081.54
916.925	7073.63
917.236	7086.73
917.548	7024.36
917.859	7003.57
918.171	6973.97
918.482	6945.72
918.794	6945.72
919.105	6875.44
919.416	6898.49
919.727	6835.67
920.038	6772.17
920.349	6787.08
920.66	6723.81
920.971	6755.22
921.282	6718.83
921.593	6653.3
921.903	6588.44
922.214	6628.22
922.525	6562.23
922.835	6495.34
923.146	6508.9
923.456	6463.47
923.767	6406.98
924.077	6412.4
924.387	6376.92
924.697	6351.39
925.008	6316.36
925.318	6320.2
925.628	6326.98
925.938	6289.47
926.248	6218.73
926.558	6169.02
926.867	6175.35
927.177	6189.36
927.487	6153.65
927.796	6080.43
928.106	6085.18
928.416	6020.55
928.725	6025.07
929.034	5976.93
929.344	5987.33
929.653	5939.65
929.962	5896.71
930.271	5882.47
930.581	5859.42
930.89	5769.93
931.199	5825.07
931.508	5810.38
931.817	5725.64
932.125	5775.81
932.434	5718.18
932.743	5698.07
933.051	5690.39
933.36	5640.22
933.669	5641.57
933.977	5538.3
934.286	5594.8
934.594	5572.65
934.902	5517.28
935.21	5512.76
935.519	5472.54
935.827	5476.16
936.135	5435.93
936.443	5371.53
936.751	5361.81
937.059	5407.23
937.367	5356.38
937.674	5328.81
937.982	5326.78
938.29	5263.28
938.597	5292.43
938.905	5182.15
939.213	5225.99
939.52	5172.66
939.827	5232.77
940.135	5146.22
940.442	5129.27
940.749	5130.4
941.056	5095.15
941.363	5051.76
941.67	5049.95
941.977	5008.82
942.284	4920.24
942.591	4929.05
942.898	4929.5
943.205	4972.67
943.511	4938.54
943.818	4880.46
944.125	4833.46
944.431	4833.69
944.738	4802.05
945.044	4778.55
945.35	4837.98
945.657	4755.95
945.963	4758.43
946.269	4764.99
946.575	4674.59
946.881	4680.24
947.187	4662.39
947.493	4649.06
947.799	4653.35
948.105	4593.47
948.41	4607.7
948.716	4637.53
949.022	4520.47
949.327	4494.03
949.633	4481.38
949.938	4513.69
950.244	4452.68
950.549	4436.18
950.854	4418.78
951.16	4470.76
951.465	4361.61
951.77	4367.94
952.075	4306.02
952.38	4329.74
952.685	4315.06
952.99	4243.19
953.294	4263.76
953.599	4256.53
953.904	4192.8
954.209	4221.95
954.513	4181.73
954.818	4176.3
955.122	4170.43
955.426	4161.61
955.731	4123.42
956.035	4102.18
956.339	4087.72
956.643	4092.01
956.948	4014.5
957.252	4020.15
957.556	4042.75
957.86	4027.38
958.163	4018.79
958.467	3972.47
958.771	3936.31
959.075	3956.2
959.378	3911.22
959.682	3906.71
959.985	3910.32
960.289	3897.44
960.592	3889.76
960.896	3819.7
961.199	3792.58
961.502	3808.4
961.805	3797.33
962.108	3755.07
962.411	3787.84
962.714	3714.17
963.017	3731.57
963.32	3738.35
963.623	3711
963.926	3655.19
964.228	3689.76
964.531	3651.57
964.833	3621.06
965.136	3561.63
965.438	3632.14
965.741	3595.07
966.043	3550.78
966.345	3543.1
966.648	3514.63
966.95	3539.48
967.252	3498.35
967.554	3435.98
967.856	3456.1
968.158	3430.33
968.46	3441.86
968.761	3414.97
969.063	3425.59
969.365	3367.96
969.666	3387.4
969.968	3331.13
970.269	3299.72
970.571	3365.25
970.872	3307.17
971.174	3290.45
971.475	3317.12
971.776	3292.26
972.077	3223.33
972.378	3227.18
972.679	3268.53
972.98	3225.14
973.281	3192.6
973.582	3195.76
973.883	3203.9
974.183	3165.48
974.484	3130.45
974.785	3115.54
975.085	3126.16
975.386	3140.17
975.686	3074.41
975.986	3064.92
976.287	3074.18
976.587	3034.86
976.887	3023.56
977.187	3035.77
977.487	3010.46
977.787	3000.74
978.087	3005.26
978.387	2991.02
978.687	2956.45
978.987	2934.08
979.286	2962.78
979.586	2931.82
979.885	2901.76
980.185	2904.25
980.484	2835.55
980.784	2873.51
981.083	2834.42
981.382	2838.94
981.682	2847.3
981.981	2823.12
982.28	2819.28
982.579	2783.34
982.878	2806.62
983.177	2781.99
983.475	2738.6
983.774	2763.68
984.073	2737.47
984.372	2732.27
984.67	2740.41
984.969	2708.09
985.267	2712.61
985.566	2697.92
985.864	2644.14
986.162	2647.3
986.461	2675.78
986.759	2630.58
987.057	2610.92
987.355	2603.91
987.653	2553.75
987.951	2600.75
988.249	2556.68
988.547	2577.93
988.844	2527.98
989.142	2553.29
989.44	2477.36
989.737	2513.97
990.035	2497.93
990.332	2510.13
990.63	2485.5
990.927	2486.18
991.224	2453.41
991.521	2478.95
991.819	2428.1
992.116	2411.15
992.413	2404.6
992.71	2371.15
993.006	2391.72
993.303	2370.93
993.6	2373.41
993.897	2344.71
994.193	2340.64
994.49	2334.54
994.787	2339.97
995.083	2290.25
995.379	2291.38
995.676	2302.45
995.972	2282.12
996.268	2264.71
996.565	2235.11
996.861	2248.22
997.157	2254.32
997.453	2237.14
997.749	2176.81
998.044	2212.96
998.34	2182.23
998.636	2184.49
998.932	2171.38
999.227	2142.68
999.523	2112.4
999.818	2107.2
1000.114	2133.64
1000.409	2092.06
1000.704	2082.57
1001	2093.42
1001.295	2076.92
1001.59	2070.14
1001.885	2075.57
1002.18	2060.43
1002.475	1989.02
1002.77	1989.92
1003.065	2006.19
1003.359	1987.21
1003.654	1962.35
1003.949	1973.42
1004.243	1939.3
1004.538	1941.79
1004.832	1934.55
1005.127	1922.58
1005.421	1916.25
1005.715	1910.6
1006.009	1898.4
1006.304	1902.24
1006.598	1881
1006.892	1866.53
1007.186	1856.82
1007.48	1878.74
1007.773	1834.67
1008.067	1811.62
1008.361	1828.34
1008.655	1806.65
1008.948	1835.12
1009.242	1806.2
1009.535	1790.6
1009.829	1768.46
1010.122	1772.07
1010.415	1798.51
1010.708	1767.1
1011.001	1738.4
1011.295	1719.64
1011.588	1706.09
1011.881	1721.23
1012.173	1678.06
1012.466	1651.62
1012.759	1692.98
1013.052	1691.4
1013.344	1638.97
1013.637	1648.91
1013.93	1614.79
1014.222	1594.22
1014.514	1619.76
1014.807	1615.47
1015.099	1613.88
1015.391	1567.33
1015.683	1565.52
1015.976	1549.03
1016.268	1553.55
1016.56	1561.68
1016.851	1551.29
1017.143	1522.14
1017.435	1504.28
1017.727	1497.5
1018.018	1493.66
1018.31	1526.65
1018.602	1495.47
1018.893	1485.75
1019.185	1470.84
1019.476	1458.18
1019.767	1430.84
1020.058	1441.91
1020.35	1431.52
1020.641	1419.09
1020.932	1402.14
1021.223	1384.06
1021.514	1386.77
1021.804	1383.83
1022.095	1381.8
1022.386	1359.2
1022.677	1370.95
1022.967	1348.81
1023.258	1334.12
1023.548	1365.08
1023.839	1331.41
1024.129	1331.41
1024.419	1316.04
1024.709	1296.38
1025	1276.49
1025.29	1312.2
1025.58	1294.57
1025.87	1273.33
1026.16	1274.68
1026.449	1264.06
1026.739	1234.23
1027.029	1228.36
1027.319	1225.65
1027.608	1200.79
1027.898	1217.74
1028.187	1225.42
1028.477	1195.36
1028.766	1160.11
1029.055	1173.44
1029.344	1161.47
1029.634	1172.54
1029.923	1141.13
1030.212	1134.57
1030.501	1163.27
1030.79	1119.66
1031.078	1125.54
1031.367	1125.99
1031.656	1090.73
1031.945	1079.21
1032.233	1105.42
1032.522	1078.76
1032.81	1088.02
1033.099	1064.52
1033.387	1064.07
1033.675	1055.71
1033.963	1055.71
1034.251	1016.16
1034.54	1045.54
1034.828	1010.51
1035.116	1008.93
1035.403	1004.63
1035.691	1029.49
1035.979	1032.88
1036.267	998.08
1036.554	980.91
1036.842	994.01
1037.129	966.44
1037.417	977.97
1037.704	971.42
1037.992	982.04
1038.279	929.38
1038.566	933.45
1038.853	933.45
1039.14	933.45
