Data from hue_260_FLMS001491_00098.txt Node
Date: Tue Feb 07 15:59:54 GMT 2017
User: dcchb
Spectrometer: FLMS00149
Trigger mode: 0
Integration Time (sec): 2.000000E-2
Scans to average: 10
Electric dark correction enabled: true
Nonlinearity correction enabled: false
Boxcar width: 0
XAxis mode: Wavelengths
Number of Pixels in Spectrum: 2048
>>>>>Begin Spectral Data<<<<<
341.393	-8.38
341.776	-8.38
342.16	-8.38
342.543	-53.8
342.927	-71.42
343.31	-70.52
343.693	-69.39
344.077	-66.23
344.46	-37.08
344.843	-39.34
345.226	-51.76
345.61	-33.01
345.993	-19.9
346.376	-27.36
346.759	-2.5
347.142	38.63
347.525	34.11
347.908	44.5
348.291	76.37
348.674	103.94
349.057	119.53
349.44	143.71
349.823	167.89
350.206	155.24
350.588	171.51
350.971	186.2
351.354	219.87
351.737	232.52
352.119	230.04
352.502	246.31
352.884	271.84
353.267	268.91
353.65	289.02
354.032	290.37
354.414	277.27
354.797	279.07
355.179	308.68
355.562	313.65
355.944	308.45
356.326	310.71
356.709	309.58
357.091	310.03
357.473	339.64
357.855	343.25
358.238	349.81
358.62	326.98
359.002	355.23
359.384	319.98
359.766	308
360.148	312.07
360.53	320.66
360.912	332.18
361.294	331.95
361.676	326.53
362.057	314.1
362.439	328.34
362.821	319.53
363.203	317.94
363.584	320.43
363.966	309.13
364.348	322.92
364.729	307.32
365.111	304.38
365.493	311.84
365.874	297.61
366.256	306.42
366.637	304.38
367.019	322.01
367.4	293.31
367.781	307.1
368.163	297.61
368.544	303.25
368.925	297.38
369.306	298.28
369.688	320.2
370.069	317.04
370.45	304.84
370.831	315.68
371.212	303.71
371.593	320.43
371.974	301.9
372.355	322.92
372.736	301.67
373.117	316.14
373.498	304.16
373.879	291.05
374.26	308.23
374.641	320.43
375.021	313.65
375.402	300.77
375.783	325.18
376.163	306.64
376.544	312.52
376.925	315.23
377.305	325.85
377.686	317.27
378.066	314.55
378.447	332.63
378.827	344.38
379.208	339.19
379.588	310.94
379.968	323.59
380.349	331.28
380.729	329.92
381.109	311.84
381.489	331.28
381.87	320.43
382.25	322.69
382.63	342.58
383.01	320.66
383.39	314.78
383.77	327.66
384.15	331.73
384.53	343.48
384.91	339.64
385.29	346.42
385.67	343.93
386.049	357.49
386.429	337.15
386.809	329.24
387.189	337.83
387.568	370.15
387.948	360.88
388.328	356.81
388.707	358.39
389.087	343.71
389.466	369.02
389.846	370.37
390.225	363.59
390.605	354.1
390.984	361.78
391.363	366.08
391.743	370.15
392.122	358.62
392.501	368.34
392.881	382.35
393.26	366.08
393.639	366.08
394.018	383.03
394.397	390.94
394.776	379.18
395.155	377.38
395.534	377.38
395.913	377.15
396.292	416.02
396.671	391.16
397.05	385.74
397.429	397.49
397.808	398.85
398.186	386.87
398.565	402.91
398.944	426.42
399.323	381.22
399.701	400.43
400.08	385.51
400.458	406.98
400.837	404.27
401.215	416.92
401.594	413.53
401.972	402.91
402.351	423.93
402.729	396.59
403.107	428.22
403.486	423.03
403.864	425.51
404.242	422.57
404.62	436.13
404.999	423.93
405.377	441.33
405.755	439.52
406.133	455.79
406.511	450.14
406.889	465.28
407.267	477.49
407.645	475.91
408.023	475.45
408.401	464.15
408.779	499.63
409.156	496.7
409.534	497.6
409.912	484.94
410.29	502.35
410.667	506.19
411.045	512.97
411.422	529.01
411.8	530.37
412.178	530.82
412.555	555.45
412.933	542.57
413.31	546.86
413.687	550.48
414.065	558.16
414.442	585.73
414.819	577.6
415.197	579.18
415.574	583.7
415.951	620.76
416.328	620.08
416.705	620.08
417.082	609.69
417.46	630.25
417.837	646.52
418.214	625.51
418.591	646.3
418.967	645.17
419.344	662.79
419.721	670.02
420.098	661.21
420.475	688.78
420.852	685.62
421.228	696.24
421.605	722.23
421.982	712.96
422.358	730.81
422.735	742.79
423.111	765.84
423.488	767.42
423.864	770.14
424.241	789.12
424.617	809
424.994	785.05
425.37	812.62
425.746	815.78
426.123	834.77
426.499	863.92
426.875	853.75
427.251	886.52
427.627	906.18
428.003	886.29
428.379	895.33
428.756	900.3
429.132	914.76
429.507	929.23
429.883	942.56
430.259	953.63
430.635	980.75
431.011	956.8
431.387	1005.84
431.763	1032.5
432.138	997.93
432.514	1000.19
432.89	1046.51
433.265	1040.64
433.641	1113.85
434.016	1107.08
434.392	1090.35
434.767	1137.13
435.143	1172.16
435.518	1173.29
435.894	1170.58
436.269	1197.47
436.644	1237.47
437.02	1242.21
437.395	1208.77
437.77	1242.67
438.145	1274.53
438.52	1284.25
438.895	1295.09
439.271	1342.78
439.646	1356.33
440.021	1324.7
440.395	1368.31
440.77	1371.7
441.145	1398.59
441.52	1397.92
441.895	1425.49
442.27	1474.52
442.645	1412.6
443.019	1424.13
443.394	1471.81
443.769	1481.08
444.143	1472.26
444.518	1536.44
444.892	1533.28
445.267	1542.54
445.641	1548.19
446.016	1526.73
446.39	1564.69
446.764	1604.69
447.139	1576.22
447.513	1600.62
447.887	1614.41
448.262	1621.19
448.636	1636.55
449.01	1626.38
449.384	1668.64
449.758	1651.47
450.132	1671.13
450.506	1690.11
450.88	1699.83
451.254	1709.09
451.628	1719.04
452.002	1755.42
452.376	1739.15
452.75	1765.59
453.123	1791.58
453.497	1788.41
453.871	1817.11
454.244	1858.47
454.618	1855.53
454.992	1876.77
455.365	1889.2
455.739	1928.97
456.112	1925.81
456.486	1944.34
456.859	1981.4
457.232	1989.99
457.606	1988.86
457.979	2044.45
458.352	2061.63
458.725	2093.04
459.099	2095.98
459.472	2129.42
459.845	2140.27
460.218	2183.21
460.591	2195.18
460.964	2190.44
461.337	2234.73
461.71	2253.26
462.083	2274.5
462.456	2313.37
462.829	2309.08
463.201	2339.59
463.574	2345.91
463.947	2406.25
464.32	2429.75
464.692	2450.32
465.065	2457.1
465.438	2481.95
465.81	2520.15
466.183	2538.68
466.555	2598.79
466.928	2625
467.3	2640.59
467.672	2608.96
468.045	2704.55
468.417	2679.01
468.789	2703.19
469.161	2771.66
469.534	2788.84
469.906	2839.69
470.278	2877.42
470.65	2890.98
471.022	2932.34
471.394	3017.53
471.766	3005.33
472.138	2970.08
472.51	3119
472.882	3124.65
473.253	3174.59
473.625	3189.51
473.997	3246.91
474.369	3253.23
474.74	3324.64
475.112	3362.84
475.484	3398.77
475.855	3449.84
476.227	3488.93
476.598	3582.49
476.97	3618.87
477.341	3652.77
477.713	3727.12
478.084	3737.51
478.455	3801.24
478.827	3826.1
479.198	3875.82
479.569	3950.84
479.94	4015.47
480.311	4041.01
480.682	4103.38
481.053	4197.62
481.424	4242.59
481.795	4278.97
482.166	4305.41
482.537	4366.65
482.908	4447.1
483.279	4480.32
483.65	4601.67
484.021	4630.15
484.391	4674.44
484.762	4684.16
485.133	4717.38
485.503	4827.88
485.874	4884.6
486.244	4884.83
486.615	5007.76
486.985	5078.95
487.356	5143.58
487.726	5184.26
488.097	5257.02
488.467	5257.7
488.837	5358.94
489.207	5380.41
489.578	5522.33
489.948	5488.2
490.318	5615.66
490.688	5594.87
491.058	5686.39
491.428	5686.39
491.798	5808.87
492.168	5867.63
492.538	5900.85
492.908	5920.73
493.278	5981.98
493.648	6027.4
494.017	6053.61
494.387	6125.93
494.757	6140.62
495.126	6170.45
495.496	6213.61
495.866	6252.93
496.235	6271.23
496.605	6333.38
496.974	6426.94
497.344	6437.1
497.713	6484.79
498.082	6551
498.452	6525.46
498.821	6576.08
499.19	6524.11
499.559	6632.13
499.928	6626.7
500.298	6715.52
500.667	6728.4
501.036	6688.17
501.405	6792.35
501.774	6753.93
502.143	6805.46
502.512	6816.08
502.88	6883.87
503.249	6894.27
503.618	6919.35
503.987	6917.32
504.356	6971.78
504.724	6952.35
505.093	6971.78
505.462	7063.53
505.83	7101.95
506.199	7152.34
506.567	7206.12
506.936	7164.32
507.304	7215.62
507.672	7226.69
508.041	7196.41
508.409	7277.08
508.777	7346.46
509.145	7295.84
509.514	7332.45
509.882	7325.89
510.25	7333.13
510.618	7370.64
510.986	7372.45
511.354	7427.14
511.722	7483.63
512.09	7548.49
512.458	7539.67
512.826	7529.51
513.193	7480.92
513.561	7596.4
513.929	7564.76
514.297	7654.93
514.664	7702.83
515.032	7661.03
515.4	7681.37
515.767	7648.15
516.135	7710.74
516.502	7617.64
516.869	7775.37
517.237	7766.79
517.604	7753
517.972	7773.34
518.339	7789.16
518.706	7825.77
519.073	7832.77
519.44	7787.13
519.808	7858.08
520.175	7823.06
520.542	7929.49
520.909	7936.5
521.276	7899.89
521.643	7940.12
522.009	7993.22
522.376	8039.32
522.743	7965.43
523.11	8069.6
523.477	8146.66
523.843	8112.09
524.21	8127.46
524.577	8194.35
524.943	8185.53
525.31	8147.79
525.676	8188.25
526.043	8261.92
526.409	8302.14
526.776	8326.32
527.142	8303.04
527.508	8320.67
527.874	8355.02
528.241	8276.83
528.607	8307.34
528.973	8407
529.339	8303.72
529.705	8388.92
530.071	8433.66
530.437	8404.74
530.803	8446.09
531.169	8484.06
531.535	8423.72
531.901	8482.02
532.267	8438.86
532.632	8448.13
532.998	8424.62
533.364	8416.71
533.73	8457.16
534.095	8484.06
534.461	8481.12
534.826	8396.6
535.192	8472.76
535.557	8513.89
535.923	8563.38
536.288	8518.41
536.653	8504.17
537.019	8464.62
537.384	8462.59
537.749	8448.58
538.114	8476.37
538.479	8451.29
538.845	8504.17
539.21	8404.28
539.575	8441.57
539.94	8430.05
540.305	8417.17
540.67	8456.94
541.034	8433.44
541.399	8461.46
541.764	8407.22
542.129	8436.37
542.494	8397.05
542.858	8441.12
543.223	8404.51
543.587	8429.14
543.952	8367.45
544.316	8464.62
544.681	8381.23
545.045	8387.56
545.41	8402.93
545.774	8371.97
546.138	8334
546.503	8378.3
546.867	8347.56
547.231	8355.47
547.595	8366.32
547.959	8350.27
548.324	8298.07
548.688	8289.26
549.052	8348.69
549.416	8323.61
549.779	8290.62
550.143	8356.38
550.507	8370.39
550.871	8338.52
551.235	8284.06
551.599	8248.13
551.962	8309.15
552.326	8294.23
552.689	8286.1
553.053	8237.06
553.417	8249.26
553.78	8305.76
554.143	8281.8
554.507	8295.36
554.87	8314.57
555.234	8334.23
555.597	8239.32
555.96	8298.75
556.323	8365.64
556.686	8287.23
557.05	8385.75
557.413	8280.45
557.776	8290.16
558.139	8306.43
558.502	8317.06
558.865	8275.25
559.228	8343.95
559.59	8321.57
559.953	8357.51
560.316	8390.73
560.679	8407.67
561.041	8425.98
561.404	8449.03
561.767	8458.07
562.129	8409.48
562.492	8459.2
562.854	8426.43
563.217	8440.67
563.579	8472.76
563.941	8549.59
564.304	8512.76
564.666	8510.72
565.028	8508.69
565.39	8559.31
565.753	8583.26
566.115	8552.53
566.477	8574
566.839	8615.13
567.201	8628.69
567.563	8639.53
567.925	8723.6
568.287	8641.57
568.648	8734.67
569.01	8821.9
569.372	8797.27
569.734	8736.93
570.095	8762.69
570.457	8842.69
570.819	8809.02
571.18	8896.25
571.542	8937.83
571.903	8893.76
572.265	8880.2
572.626	8893.54
572.987	8974.21
573.349	9019.18
573.71	9000.88
574.071	8973.99
574.432	9051.05
574.794	9070.93
575.155	9068.22
575.516	9076.13
575.877	9124.49
576.238	9141.89
576.599	9177.6
576.96	9215.56
577.32	9173.98
577.681	9214.43
578.042	9253.3
578.403	9247.65
578.763	9204.26
579.124	9353.86
579.485	9356.58
579.845	9417.14
580.206	9300.98
580.566	9303.47
580.927	9315.67
581.287	9460.08
581.648	9386.86
582.008	9414.43
582.368	9425.27
582.728	9521.77
583.089	9450.58
583.449	9474.09
583.809	9488.1
584.169	9598.15
584.529	9443.35
584.889	9558.15
585.249	9547.98
585.609	9622.33
585.969	9630.02
586.329	9566.97
586.688	9634.99
587.048	9587.08
587.408	9654.65
587.768	9636.57
588.127	9610.81
588.487	9590.69
588.846	9763.8
589.206	9678.6
589.565	9695.55
589.925	9738.03
590.284	9793.4
590.643	9702.33
591.003	9781.65
591.362	9884.25
591.721	9814.42
592.08	9755.66
592.44	9973.28
592.799	9882.44
593.158	9828.65
593.517	9845.83
593.876	9867.07
594.235	9853.51
594.593	9870.23
594.952	9905.04
595.311	9896
595.67	9926.05
596.029	9943.68
596.387	9999.72
596.746	10019.16
597.104	9991.36
597.463	9965.15
597.822	10053.73
598.18	9954.3
598.538	9959.27
598.897	9988.42
599.255	9921.31
599.613	10031.59
599.972	10076.56
600.33	10066.84
600.688	10040.4
601.046	10048.54
601.404	10000.85
601.762	10065.03
602.12	10127.86
602.478	10136.89
602.836	10119.72
603.194	10024.36
603.552	10100.51
603.91	10081.98
604.268	10100.96
604.625	10014.41
604.983	10069.33
605.341	10060.29
605.698	10108.65
606.056	10182.54
606.413	10152.26
606.771	10139.38
607.128	10182.09
607.485	10104.35
607.843	10136.44
608.2	10194.29
608.557	10286.27
608.914	10198.81
609.272	10278.36
609.629	10213.5
609.986	10302.99
610.343	10277
610.7	10263.9
611.057	10280.62
611.414	10249.66
611.771	10280.85
612.127	10348.19
612.484	10340.96
612.841	10323.56
613.198	10277
613.554	10377.57
613.911	10381.18
614.267	10304.8
614.624	10371.92
614.98	10418.47
615.337	10371.92
615.693	10371.69
616.05	10360.17
616.406	10404.23
616.762	10434.74
617.118	10438.81
617.475	10450.56
617.831	10443.55
618.187	10521.52
618.543	10506.83
618.899	10539.37
619.255	10590.89
619.611	10495.98
619.967	10561.97
620.323	10553.61
620.678	10536.66
621.034	10510.9
621.39	10517
621.746	10408.75
622.101	10617.11
622.457	10486.49
622.812	10491.01
623.168	10563.78
623.523	10523.55
623.879	10590.22
624.234	10495.53
624.589	10637.9
624.945	10534.62
625.3	10518.58
625.655	10511.8
626.01	10483.55
626.365	10624.34
626.72	10575.75
627.075	10475.19
627.43	10554.96
627.785	10455.53
628.14	10490.56
628.495	10499.37
628.85	10539.14
629.205	10427.51
629.559	10517
629.914	10478.13
630.269	10445.81
630.623	10511.12
630.978	10441.07
631.332	10447.85
631.687	10435.87
632.041	10467.73
632.396	10368.75
632.75	10432.03
633.104	10352.93
633.459	10329.88
633.813	10394.06
634.167	10339.38
634.521	10285.37
634.875	10345.48
635.229	10284.46
635.583	10263.44
635.937	10267.06
636.291	10189.32
636.645	10239.49
636.999	10262.77
637.352	10194.29
637.706	10237.68
638.06	10258.25
638.413	10215.99
638.767	10165.82
639.121	10123.11
639.474	10078.82
639.828	10162.66
640.181	10091.7
640.534	10061.19
640.888	10071.81
641.241	10034.75
641.594	10010.34
641.947	10130.57
642.301	10069.78
642.654	10110
643.007	10057.57
643.36	10079.72
643.713	10070.23
644.066	10040.4
644.419	10004.47
644.771	10011.02
645.124	9832.72
645.477	9769.9
645.83	9764.02
646.182	9770.35
646.535	9763.57
646.888	9741.42
647.24	9699.62
647.593	9687.19
647.945	9710.92
648.298	9689
648.65	9710.69
649.002	9636.12
649.355	9611.94
649.707	9682.67
650.059	9669.79
650.411	9822.1
650.763	9828.88
651.115	9910.01
651.467	9883.34
651.819	9926.73
652.171	9815.32
652.523	9863.91
652.875	9861.42
653.227	9793.85
653.578	9905.26
653.93	9878.82
654.282	9882.44
654.633	9849.44
654.985	9821.2
655.337	9848.09
655.688	9940.52
656.039	9871.36
656.391	9786.62
656.742	9861.42
657.094	9927.86
657.445	9878.37
657.796	9814.87
658.147	9911.82
658.498	9917.47
658.849	9844.25
659.2	9912.04
659.551	9798.6
659.902	9906.17
660.253	9846.73
660.604	9880.4
660.955	9888.54
661.306	9847.86
661.656	9885.38
662.007	9841.31
662.358	9888.09
662.708	9887.18
663.059	9830.46
663.409	9832.95
663.76	9860.29
664.11	9873.85
664.461	9890.57
664.811	9932.61
665.161	9868.88
665.511	9884.7
665.862	9824.81
666.212	9827.98
666.562	9875.21
666.912	9897.58
667.262	9815.55
667.612	9863
667.962	9853.74
668.312	9843.57
668.662	9953.85
669.011	9914.3
669.361	9891.93
669.711	9890.35
670.06	9903.68
670.41	9830.46
670.76	9868.88
671.109	9839.5
671.459	9845.15
671.808	9827.75
672.157	9805.38
672.507	9722.89
672.856	9794.3
673.205	9777.13
673.554	9800.41
673.904	9763.8
674.253	9789.33
674.602	9769.9
674.951	9587.53
675.3	9571.03
675.649	9710.24
675.998	9793.85
676.346	9736.9
676.695	9745.04
677.044	9681.31
677.393	9743.01
677.741	9676.57
678.09	9665.04
678.438	9728.54
678.787	9668.66
679.135	9655.33
679.484	9567.87
679.832	9624.14
680.181	9639.05
680.529	9575.1
680.877	9553.63
681.225	9553.18
681.573	9560.86
681.922	9574.2
682.27	9393.64
682.618	9493.3
682.966	9547.98
683.314	9551.6
683.661	9481.32
684.009	9409.23
684.357	9417.82
684.705	9355.45
685.053	9273.41
685.4	9357.03
685.748	9260.99
686.095	9293.98
686.443	9288.33
686.79	9315.45
687.138	9291.94
687.485	9198.84
687.832	9225.28
688.18	9187.77
688.527	9171.04
688.874	9209.91
689.221	9177.6
689.568	9132.85
689.915	9066.19
690.262	9037.04
690.609	9062.57
690.956	8982.35
691.303	9039.3
691.65	8921.11
691.997	8928.34
692.344	8879.75
692.69	8871.62
693.037	8817.83
693.383	8825.74
693.73	8685.86
694.077	8762.92
694.423	8716.59
694.769	8681.34
695.116	8667.1
695.462	8671.4
695.808	8574.68
696.155	8616.71
696.501	8517.05
696.847	8553.43
697.193	8490.61
697.539	8466.43
697.885	8411.74
698.231	8456.71
698.577	8395.7
698.923	8418.07
699.269	8309.6
699.614	8256.94
699.96	8223.72
700.306	8275.47
700.651	8234.8
700.997	8145.76
701.342	8163.16
701.688	8133.11
702.033	8208.13
702.379	8136.95
702.724	8063.28
703.069	8094.91
703.415	8018.08
703.76	7941.92
704.105	7955.03
704.45	7937.18
704.795	7913.22
705.14	7878.87
705.485	7897.63
705.83	7825.54
706.175	7840.68
706.52	7742.38
706.865	7746.22
707.209	7722.04
707.554	7681.37
707.899	7730.4
708.243	7676.39
708.588	7675.72
708.932	7561.82
709.277	7643.4
709.621	7634.81
709.966	7568.37
710.31	7593.46
710.654	7494.93
710.998	7495.16
711.342	7480.92
711.687	7474.59
712.031	7437.3
712.375	7426.68
712.719	7436.63
713.063	7404.08
713.407	7461.71
713.75	7422.16
714.094	7343.52
714.438	7377.42
714.782	7364.76
715.125	7323.86
715.469	7261.94
715.812	7285.44
716.156	7287.03
716.499	7236.63
716.843	7285.44
717.186	7237.76
717.53	7266.69
717.873	7304.2
718.216	7182.17
718.559	7196.41
718.902	7156.18
719.246	7101.49
719.589	7138.1
719.932	7058.56
720.275	7123.19
720.617	7098.1
720.96	7097.2
721.303	7053.13
721.646	7084.32
721.989	7035.28
722.331	7086.58
722.674	7064.66
723.016	7078.22
723.359	7058.33
723.701	7083.19
724.044	7052.23
724.386	6974.94
724.729	7008.84
725.071	7025.34
725.413	6995.96
725.755	6935.17
726.097	6974.72
726.439	6963.42
726.782	6973.36
727.124	7025.56
727.465	6929.3
727.807	6971.78
728.149	6912.35
728.491	6935.85
728.833	6948.73
729.175	6863.99
729.516	6927.49
729.858	6884.1
730.199	6892.01
730.541	6919.35
730.882	6882.52
731.224	6960.03
731.565	6870.31
731.906	6891.1
732.248	6896.53
732.589	6911.44
732.93	6909.18
733.271	6853.36
733.612	6851.56
733.953	6925.68
734.294	6901.5
734.635	6874.38
734.976	6909.63
735.317	6879.8
735.658	6873.48
735.999	6885.23
736.339	6858.34
736.68	6842.97
737.021	6876.64
737.361	6842.07
737.702	6941.5
738.042	6903.08
738.383	6853.14
738.723	6888.84
739.063	6894.27
739.404	6902.63
739.744	6910.54
740.084	6852.46
740.424	6932.46
740.764	6943.08
741.104	6995.06
741.444	6899.69
741.784	6921.84
742.124	6975.17
742.464	6958
742.804	7002.06
743.143	6991.67
743.483	7002.97
743.823	7001.84
744.162	7109.4
744.502	7027.37
744.841	7064.43
745.181	7099.23
745.52	7102.62
745.86	7141.49
746.199	7122.96
746.538	7198.89
746.877	7246.8
747.216	7265.56
747.556	7276.63
747.895	7323.41
748.234	7318.44
748.573	7367.93
748.911	7440.69
749.25	7433.24
749.589	7455.38
749.928	7553.46
750.267	7639.11
750.605	7664.42
750.944	7700.57
751.283	7789.16
751.621	7828.03
751.96	7821.02
752.298	7993
752.636	8084.29
752.975	8104.18
753.313	8151.18
753.651	8277.73
753.989	8323.61
754.327	8383.72
754.666	8458.07
755.004	8534.68
755.342	8682.7
755.679	8736.25
756.017	8807.21
756.355	8989.58
756.693	9060.31
757.031	9232.74
757.368	9234.55
757.706	9363.81
758.044	9504.82
758.381	9616
758.719	9756.79
759.056	9862.55
759.394	9965.37
759.731	10057.35
760.068	10175.31
760.405	10251.47
760.743	10446.49
761.08	10616.88
761.417	10626.6
761.754	10762.19
762.091	10893.03
762.428	11037.66
762.765	11128.28
763.102	11375.51
763.438	11396.97
763.775	11533.92
764.112	11646.91
764.449	11816.17
764.785	11961.48
765.122	12020.46
765.458	12088.93
765.795	12196.5
766.131	12380.23
766.467	12525.31
766.804	12525.98
767.14	12566.66
767.476	12687.79
767.812	12801.23
768.148	12916.48
768.485	13002.81
768.821	13041.68
769.157	13197.83
769.492	13278.96
769.828	13369.13
770.164	13373.42
770.5	13450.03
770.836	13615.67
771.171	13669.68
771.507	13704.48
771.842	13740.19
772.178	13849.79
772.513	13927.3
772.849	13959.84
773.184	13981.77
773.519	14074.87
773.855	14066.51
774.19	14021.54
774.525	14167.75
774.86	14357.12
775.195	14312.6
775.53	14293.17
775.865	14305.37
776.2	14349.67
776.535	14258.14
776.87	14404.35
777.205	14346.73
777.539	14414.97
777.874	14475.09
778.209	14400.96
778.543	14496.78
778.878	14463.11
779.212	14512.6
779.547	14502.2
779.881	14523.22
780.215	14440.96
780.55	14578.36
780.884	14478.7
781.218	14576.55
781.552	14595.99
781.886	14485.93
782.22	14501.07
782.554	14551.24
782.888	14439.38
783.222	14449.78
783.556	14399.38
783.889	14412.71
784.223	14397.57
784.557	14374.75
784.89	14441.41
785.224	14397.35
785.557	14360.06
785.891	14375.43
786.224	14253.62
786.558	14365.48
786.891	14216.34
787.224	14143.12
787.557	14199.84
787.891	14259.05
788.224	14213.4
788.557	14198.71
788.89	14233.51
789.223	14263.79
789.556	14129.11
789.888	14081.65
790.221	14057.24
790.554	13892.95
790.887	14069.45
791.219	14058.6
791.552	13941.77
791.884	13978.38
792.217	13876.23
792.549	13901.54
792.882	13781.32
793.214	13754.88
793.546	13822.22
793.879	13735.9
794.211	13659.51
794.543	13725.73
794.875	13678.72
795.207	13762.34
795.539	13625.39
795.871	13622.23
796.203	13571.61
796.535	13514.21
796.867	13509.01
797.198	13400.09
797.53	13453.87
797.862	13388.56
798.193	13419.52
798.525	13281.67
798.856	13324.61
799.188	13271.95
799.519	13203.25
799.85	13156.02
800.182	13213.88
800.513	13171.62
800.844	13007.1
801.175	13143.6
801.506	13157.83
801.837	13035.58
802.168	13017.5
802.499	12943.83
802.83	12989.25
803.161	12928.23
803.491	12901.57
803.822	12862.25
804.153	12858.4
804.483	12838.97
804.814	12781.12
805.145	12734.11
805.475	12746.09
805.805	12723.04
806.136	12707.9
806.466	12699.76
806.796	12591.29
807.126	12535.02
807.457	12548.81
807.787	12501.13
808.117	12478.3
808.447	12512.65
808.777	12528.02
809.107	12496.15
809.436	12375.03
809.766	12439.43
810.096	12316.95
810.426	12325.54
810.755	12370.73
811.085	12236.27
811.414	12280.34
811.744	12118.99
812.073	12144.3
812.403	12223.17
812.732	12051.65
813.061	12097.75
813.39	12015.72
813.719	12015.49
814.049	12090.06
814.378	12049.39
814.707	11952.89
815.036	11962.16
815.365	11819.79
815.693	11779.79
816.022	11812.1
816.351	11762.84
816.68	11704.99
817.008	11809.17
817.337	11704.99
817.665	11659.34
817.994	11731.43
818.322	11737.53
818.651	11597.2
818.979	11594.03
819.307	11666.57
819.636	11630.41
819.964	11502.28
820.292	11596.29
820.62	11603.07
820.948	11525.78
821.276	11537.99
821.604	11541.38
821.932	11601.49
822.259	11520.81
822.587	11555.16
822.915	11434.94
823.243	11513.58
823.57	11493.24
823.898	11565.78
824.225	11425.67
824.553	11507.25
824.88	11534.82
825.207	11588.61
825.535	11465.22
825.862	11517.88
826.189	11456.18
826.516	11585.44
826.843	11643.07
827.17	11590.42
827.497	11568.95
827.824	11568.95
828.151	11612.11
828.478	11533.02
828.805	11633.58
829.131	11641.26
829.458	11560.13
829.785	11487.59
830.111	11513.36
830.438	11516.75
830.764	11598.1
831.09	11582.96
831.417	11466.35
831.743	11529.85
832.069	11539.57
832.395	11466.35
832.722	11545.67
833.048	11491.21
833.374	11547.48
833.7	11481.94
834.026	11526.24
834.351	11498.21
834.677	11480.81
835.003	11449.4
835.329	11458.89
835.654	11463.64
835.98	11357.65
836.306	11441.94
836.631	11373.92
836.956	11425.45
837.282	11409.63
837.607	11325.56
837.932	11302.74
838.258	11296.64
838.583	11305.45
838.908	11271.33
839.233	11279.92
839.558	11243.31
839.883	11195.4
840.208	11225.23
840.533	11160.82
840.858	11146.13
841.182	11185.23
841.507	11121.28
841.832	11008.51
842.156	11001.05
842.481	11034.05
842.805	11049.41
843.13	10961.28
843.454	11022.97
843.778	11022.97
844.103	10912.47
844.427	10951.11
844.751	10888.97
845.075	10930.77
845.399	10860.94
845.723	10829.08
846.047	10783.43
846.371	10731.23
846.695	10651.01
847.019	10617.33
847.343	10468.64
847.666	10521.29
847.99	10461.41
848.313	10513.16
848.637	10403.78
848.96	10343.67
849.284	10366.72
849.607	10260.28
849.931	10236.1
850.254	10208.31
850.577	10189.1
850.9	10108.19
851.223	10114.75
851.546	10004.02
851.869	10005.15
852.192	10046.28
852.515	9925.6
852.838	9928.31
853.161	9852.16
853.483	9814.19
853.806	9774.87
854.129	9817.13
854.451	9768.09
854.774	9713.4
855.096	9747.75
855.419	9653.52
855.741	9639.28
856.063	9624.59
856.385	9557.02
856.708	9524.26
857.03	9493.75
857.352	9497.59
857.674	9415.78
857.996	9401.55
858.318	9373.07
858.64	9433.86
858.961	9354.09
859.283	9319.06
859.605	9349.34
859.926	9303.02
860.248	9278.39
860.57	9247.2
860.891	9255.34
861.212	9220.53
861.534	9119.07
861.855	9138.5
862.176	9228.22
862.498	9108.45
862.819	9152.97
863.14	9024.83
863.461	9071.39
863.782	9111.61
864.103	9057.37
864.424	9059.63
864.745	9058.96
865.065	8972.63
865.386	8985.51
865.707	8977.6
866.027	8913.42
866.348	8957.94
866.668	8931.95
866.989	8878.17
867.309	8842.47
867.63	8870.49
867.95	8871.62
868.27	8736.71
868.59	8833.2
868.91	8731.51
869.23	8781.45
869.55	8733.32
869.87	8789.59
870.19	8772.41
870.51	8753.43
870.83	8753.65
871.15	8698.74
871.469	8664.39
871.789	8724.73
872.109	8648.8
872.428	8625.07
872.748	8657.61
873.067	8630.95
873.386	8676.59
873.706	8621
874.025	8578.97
874.344	8536.71
874.663	8555.47
874.982	8593.21
875.301	8473.21
875.62	8493.32
875.939	8453.77
876.258	8454.68
876.577	8503.04
876.896	8425.08
877.214	8456.94
877.533	8515.92
877.852	8430.95
878.17	8428.92
878.489	8418.07
878.807	8398.18
879.125	8365.87
879.444	8328.13
879.762	8264.18
880.08	8357.28
880.398	8310.05
880.716	8324.96
881.034	8267.57
881.352	8286.77
881.67	8301.91
881.988	8189.15
882.306	8213.1
882.624	8197.74
882.941	8118.64
883.259	8106.67
883.577	8135.37
883.894	8090.17
884.212	8132.88
884.529	8065.76
884.846	8086.78
885.164	8065.99
885.481	8000.68
885.798	8079.77
886.115	7986.22
886.432	8015.82
886.75	7931.53
887.067	7956.61
887.383	7948.48
887.7	7911.19
888.017	7879.55
888.334	7927.01
888.651	7839.1
888.967	7786.9
889.284	7819.22
889.6	7743.51
889.917	7695.38
890.233	7717.3
890.55	7684.08
890.866	7738.31
891.182	7679.56
891.498	7639.33
891.815	7647.69
892.131	7551.2
892.447	7556.17
892.763	7550.07
893.079	7522.5
893.395	7559.56
893.71	7496.51
894.026	7510.3
894.342	7412.9
894.657	7360.47
894.973	7382.84
895.289	7310.98
895.604	7369.28
895.92	7317.99
896.235	7306.01
896.55	7280.25
896.865	7323.18
897.181	7242.73
897.496	7235.5
897.811	7203.19
898.126	7189.85
898.441	7103.75
898.756	7158.67
899.071	7020.14
899.386	7119.12
899.7	7016.07
900.015	6997.32
900.33	6926.81
900.644	6958.9
900.959	6973.59
901.273	6900.14
901.588	6913.93
901.902	6838.9
902.216	6814.27
902.531	6816.98
902.845	6803.87
903.159	6729.98
903.473	6714.16
903.787	6675.97
904.101	6639.13
904.415	6653.14
904.729	6580.15
905.042	6542.86
905.356	6669.19
905.67	6563.43
905.984	6581.51
906.297	6484.11
906.611	6492.02
906.924	6476.65
907.237	6498.8
907.551	6464.45
907.864	6403.43
908.177	6358.91
908.491	6378.12
908.804	6290.22
909.117	6282.53
909.43	6245.7
909.743	6259.71
910.056	6242.08
910.368	6177.45
910.681	6184.91
910.994	6122.08
911.307	6143.33
911.619	6093.61
911.932	6062.88
912.244	6045.48
912.557	6014.07
912.869	5952.82
913.181	5933.39
913.494	5964.8
913.806	5905.14
914.118	5874.63
914.43	5799.38
914.742	5888.42
915.054	5780.62
915.366	5844.13
915.678	5806.39
915.99	5761.42
916.302	5689.1
916.613	5712.38
916.925	5636
917.236	5656.11
917.548	5595.77
917.859	5644.13
918.171	5640.97
918.482	5574.3
918.794	5572.95
919.105	5566.85
919.416	5480.75
919.727	5509.9
920.038	5426.96
920.349	5432.39
920.66	5388.32
920.971	5429.22
921.282	5371.82
921.593	5404.36
921.903	5350.58
922.214	5332.95
922.525	5278.94
922.835	5287.08
923.146	5193.3
923.456	5265.61
923.767	5197.14
924.077	5189.68
924.387	5173.86
924.697	5142.68
925.008	5152.39
925.318	5108.55
925.628	5097.25
925.938	5140.87
926.248	5029.23
926.558	5013.19
926.867	4954.43
927.177	4973.64
927.487	4967.76
927.796	4928.9
928.106	4906.3
928.416	4926.41
928.725	4870.14
929.034	4814.55
929.344	4839.18
929.653	4863.13
929.962	4785.17
930.271	4804.38
930.581	4786.98
930.89	4735
931.199	4735.45
931.508	4722.57
931.817	4698.62
932.125	4685.06
932.434	4678.73
932.743	4599.19
933.051	4563.03
933.36	4602.58
933.669	4544.05
933.977	4558.28
934.286	4535.46
934.594	4492.07
934.902	4497.72
935.21	4520.54
935.519	4475.57
935.827	4447.1
936.135	4420.43
936.443	4396.71
936.751	4370.72
937.059	4399.19
937.367	4349.7
937.674	4347.67
937.982	4292.75
938.29	4306.77
938.597	4331.17
938.905	4262.02
939.213	4237.84
939.52	4217.95
939.827	4190.38
940.135	4199.2
940.442	4188.12
940.749	4206.88
941.056	4152.19
941.363	4104.51
941.67	4118.07
941.977	4088.69
942.284	4044.63
942.591	4033.1
942.898	4026.09
943.205	4044.63
943.511	4005.98
943.818	3976.15
944.125	3942.26
944.431	3974.34
944.738	3973.67
945.044	3921.01
945.35	3920.33
945.657	3890.73
945.963	3857.96
946.269	3838.98
946.575	3842.14
946.881	3887.34
947.187	3795.82
947.493	3801.02
947.799	3769.15
948.105	3749.72
948.41	3741.36
948.716	3787.91
949.022	3689.38
949.327	3717.18
949.633	3653.68
949.938	3665.65
950.244	3686.44
950.549	3623.39
950.854	3654.13
951.16	3562.6
951.465	3582.26
951.77	3571.64
952.075	3560.57
952.38	3523.51
952.685	3535.26
952.99	3466.79
953.294	3515.83
953.599	3482.61
953.904	3448.93
954.209	3441.48
954.513	3426.79
954.818	3388.6
955.122	3399.9
955.426	3376.62
955.731	3395.15
956.035	3391.99
956.339	3335.27
956.643	3366.23
956.948	3289.16
957.252	3300.92
957.556	3297.07
957.86	3290.97
958.163	3256.62
958.467	3260.47
958.771	3208.49
959.075	3267.47
959.378	3246.45
959.682	3233.35
959.985	3196.96
960.289	3146.12
960.592	3157.42
960.896	3137.53
961.199	3142.95
961.502	3126.23
961.805	3107.02
962.108	3063.63
962.411	3089.17
962.714	3051.66
963.017	3045.78
963.32	3079.45
963.623	3039
963.926	3058.66
964.228	3010.75
964.531	2986.35
964.833	3001.26
965.136	2943.86
965.438	2940.02
965.741	2916.75
966.043	2927.59
966.345	2917.2
966.648	2895.5
966.95	2909.06
967.252	2873.81
967.554	2845.56
967.856	2869.29
968.158	2811.89
968.46	2857.76
968.761	2794.49
969.063	2806.92
969.365	2780.03
969.666	2773.7
969.968	2781.38
970.269	2733.7
970.571	2752.46
970.872	2757.2
971.174	2756.07
971.475	2710.2
971.776	2717.43
972.077	2716.75
972.378	2702.97
972.679	2682.18
972.98	2680.59
973.281	2646.02
973.582	2656.41
973.883	2628.84
974.183	2600.6
974.484	2615.74
974.785	2610.76
975.085	2583.65
975.386	2606.02
975.686	2549.3
975.986	2542.52
976.287	2547.04
976.587	2508.85
976.887	2497.1
977.187	2492.35
977.487	2486.25
977.787	2480.37
978.087	2506.13
978.387	2444.89
978.687	2447.61
978.987	2451.22
979.286	2385.23
979.586	2439.92
979.885	2404.22
980.185	2403.76
980.484	2378.23
980.784	2391.79
981.083	2331.9
981.382	2363.54
981.682	2327.61
981.981	2344.33
982.28	2312.02
982.579	2296.2
982.878	2298.68
983.177	2294.61
983.475	2297.33
983.774	2263.2
984.073	2288.06
984.372	2265.01
984.67	2234.05
984.969	2268.4
985.267	2196.09
985.566	2228.18
985.864	2227.05
986.162	2205.35
986.461	2157.44
986.759	2166.03
987.057	2177.1
987.355	2141.4
987.653	2174.62
987.951	2143.66
988.249	2120.83
988.547	2136.43
988.844	2091.46
989.142	2099.82
989.44	2113.6
989.737	2049.65
990.035	2050.1
990.332	2068.18
990.63	2036.99
990.927	2054.62
991.224	2060.5
991.521	2030.67
991.819	2018.46
992.116	2009.2
992.413	2000.39
992.71	1990.89
993.006	1990.89
993.303	1985.24
993.6	1963.32
993.897	1964.23
994.193	1935.53
994.49	1957.67
994.787	1937.11
995.083	1929.88
995.379	1912.7
995.676	1877
995.972	1899.6
996.268	1922.2
996.565	1882.65
996.861	1866.6
997.157	1856.89
997.453	1846.94
997.749	1829.77
998.044	1818.47
998.34	1842.42
998.636	1829.99
998.932	1818.02
999.227	1769.2
999.523	1772.14
999.818	1761.3
1000.114	1774.18
1000.409	1730.79
1000.704	1742.09
1001	1738.7
1001.295	1729.88
1001.59	1749.09
1001.885	1718.81
1002.18	1700.05
1002.475	1685.59
1002.77	1686.04
1003.065	1684.91
1003.359	1659.38
1003.654	1669.55
1003.949	1663.9
1004.243	1661.41
1004.538	1650.79
1004.832	1629.55
1005.127	1626.16
1005.421	1592.94
1005.715	1582.09
1006.009	1596.1
1006.304	1580.06
1006.598	1571.7
1006.892	1562.43
1007.186	1568.31
1007.48	1528.53
1007.773	1540.51
1008.067	1552.49
1008.361	1548.19
1008.655	1519.72
1008.948	1516.78
1009.242	1519.95
1009.535	1500.51
1009.829	1511.13
1010.122	1477.91
1010.415	1494.64
1010.708	1475.65
1011.001	1430.91
1011.295	1426.62
1011.588	1455.54
1011.881	1447.86
1012.173	1421.19
1012.466	1409.21
1012.759	1413.73
1013.052	1389.1
1013.344	1412.83
1013.637	1361.08
1013.93	1360.85
1014.222	1365.83
1014.514	1359.72
1014.807	1366.73
1015.099	1346.17
1015.391	1350.68
1015.683	1320.63
1015.976	1294.87
1016.268	1319.73
1016.56	1279.27
1016.851	1314.08
1017.143	1293.96
1017.435	1251.7
1017.727	1256
1018.018	1260.97
1018.31	1260.07
1018.602	1241.31
1018.893	1266.39
1019.185	1243.34
1019.476	1237.69
1019.767	1206.06
1020.058	1227.52
1020.35	1210.8
1020.641	1191.14
1020.932	1198.37
1021.223	1187.98
1021.514	1184.59
1021.804	1164.02
1022.095	1180.75
1022.386	1140.75
1022.677	1120.86
1022.967	1137.13
1023.258	1114.08
1023.548	1136
1023.839	1134.65
1024.129	1113.63
1024.419	1093.06
1024.709	1101.43
1025	1088.77
1025.29	1093.97
1025.58	1083.57
1025.87	1076.34
1026.16	1080.64
1026.449	1052.39
1026.739	1039.51
1027.029	1092.61
1027.319	1052.61
1027.608	1048.55
1027.898	1022.33
1028.187	1004.48
1028.477	1015.78
1028.766	1007.19
1029.055	1004.25
1029.344	1018.72
1029.634	982.78
1029.923	973.97
1030.212	959.96
1030.501	985.04
1030.79	950.7
1031.078	977.14
1031.367	943.46
1031.656	947.98
1031.945	954.54
1032.233	946.85
1032.522	949.11
1032.81	941.66
1033.099	889.45
1033.387	927.42
1033.675	917.48
1033.963	921.32
1034.251	899.4
1034.54	888.55
1034.828	872.73
1035.116	882.67
1035.403	881.77
1035.691	880.87
1035.979	867.53
1036.267	848.55
1036.554	872.96
1036.842	829.12
1037.129	851.49
1037.417	825.05
1037.704	856.23
1037.992	848.55
1038.279	844.03
1038.566	825.27
1038.853	825.27
1039.14	825.27
