Data from hue_70_FLMS001491_8.txt Node
Date: Mon Feb 06 15:20:00 GMT 2017
User: dcchb
Spectrometer: FLMS00149
Trigger mode: 0
Integration Time (sec): 2.000000E-2
Scans to average: 10
Electric dark correction enabled: true
Nonlinearity correction enabled: false
Boxcar width: 0
XAxis mode: Wavelengths
Number of Pixels in Spectrum: 2048
>>>>>Begin Spectral Data<<<<<
341.393	-4.25
341.776	-4.25
342.16	-4.25
342.543	-70.69
342.927	-54.87
343.31	-63.68
343.693	-62.1
344.077	-68.66
344.46	-69.56
344.843	-47.19
345.226	-32.95
345.61	-33.86
345.993	-15.32
346.376	0.04
346.759	6.14
347.142	18.57
347.525	29.87
347.908	70.32
348.291	57.22
348.674	74.62
349.057	136.54
349.44	139.25
349.823	122.07
350.206	155.29
350.588	197.33
350.971	220.15
351.354	212.24
351.737	252.47
352.119	239.13
352.502	248.85
352.884	270.77
353.267	284.78
353.65	285.23
354.032	298.34
354.414	315.29
354.797	326.36
355.179	323.42
355.562	327.27
355.944	328.62
356.326	313.71
356.709	343.76
357.091	321.84
357.473	350.54
357.855	329.75
358.238	341.73
358.62	319.81
359.002	333.37
359.384	328.17
359.766	338.56
360.148	344.89
360.53	355.29
360.912	356.64
361.294	350.54
361.676	329.53
362.057	339.69
362.439	313.25
362.821	321.62
363.203	331.79
363.584	334.27
363.966	299.47
364.348	322.75
364.729	326.59
365.111	309.86
365.493	321.39
365.874	296.31
366.256	318.68
366.637	323.65
367.019	314.61
367.4	329.07
367.781	307.38
368.163	323.42
368.544	305.35
368.925	310.99
369.306	317.77
369.688	324.78
370.069	323.2
370.45	310.77
370.831	326.59
371.212	311.22
371.593	320.71
371.974	315.29
372.355	290.66
372.736	298.34
373.117	343.08
373.498	330.43
373.879	330.88
374.26	306.02
374.641	329.3
375.021	326.81
375.402	317.1
375.783	324.1
376.163	315.06
376.544	334.27
376.925	340.6
377.305	325.91
377.686	323.88
378.066	314.61
378.447	337.21
378.827	332.46
379.208	325.01
379.588	353.25
379.968	328.62
380.349	336.3
380.729	327.04
381.109	322.97
381.489	331.56
381.87	342.63
382.25	337.66
382.63	313.25
383.01	328.4
383.39	320.03
383.77	325.68
384.15	344.21
384.53	334.5
384.91	347.15
385.29	367.72
385.67	342.18
386.049	348.96
386.429	337.89
386.809	367.94
387.189	345.34
387.568	363.87
387.948	343.31
388.328	348.73
388.707	347.15
389.087	348.96
389.466	350.54
389.846	355.06
390.225	363.65
390.605	364.1
390.984	357.77
391.363	363.65
391.743	356.64
392.122	376.3
392.501	352.12
392.881	351.67
393.26	350.99
393.639	356.19
394.018	371.11
394.397	363.87
394.776	375.63
395.155	375.17
395.534	371.56
395.913	365
396.292	403.87
396.671	359.58
397.05	385.57
397.429	390.77
397.808	356.64
398.186	389.86
398.565	387.15
398.944	380.15
399.323	377.89
399.701	385.12
400.08	406.13
400.458	408.62
400.837	405.23
401.215	377.89
401.594	391.9
401.972	392.35
402.351	405.91
402.729	390.31
403.107	387.83
403.486	399.13
403.864	399.13
404.242	403.87
404.62	408.39
404.999	412.01
405.377	406.59
405.755	396.42
406.133	426.02
406.511	412.91
406.889	426.25
407.267	415.4
407.645	417.88
408.023	418.34
408.401	420.6
408.779	414.04
409.156	425.57
409.534	447.71
409.912	449.3
410.29	464.44
410.667	464.21
411.045	449.97
411.422	452.46
411.8	449.75
412.178	462.63
412.555	469.86
412.933	458.56
413.31	454.49
413.687	460.14
414.065	471.22
414.442	437.54
414.819	477.77
415.197	475.06
415.574	487.04
415.951	484.1
416.328	492.46
416.705	481.16
417.082	473.48
417.46	485
417.837	488.62
418.214	484.1
418.591	511.67
418.967	496.07
419.344	506.02
419.721	485.23
420.098	519.8
420.475	508.5
420.852	508.73
421.228	504.21
421.605	511.67
421.982	532.68
422.358	520.25
422.735	515.96
423.111	528.39
423.488	535.85
423.864	535.85
424.241	547.82
424.617	544.43
424.994	542.85
425.37	558.45
425.746	532.23
426.123	540.82
426.499	546.24
426.875	538.79
427.251	556.19
427.627	554.83
428.003	557.54
428.379	573.36
428.756	575.17
429.132	565.45
429.507	577.43
429.883	606.58
430.259	611.55
430.635	620.37
431.011	588.73
431.387	624.88
431.763	608.16
432.138	617.88
432.514	618.33
432.89	619.24
433.265	630.31
433.641	632.12
434.016	646.35
434.392	643.87
434.767	651.32
435.143	646.58
435.518	672.57
435.894	653.13
436.269	668.27
436.644	668.95
437.02	686.13
437.395	689.97
437.77	720.02
438.145	705.33
438.52	695.62
438.895	698.78
439.271	711.66
439.646	729.29
440.021	718.22
440.395	711.66
440.77	722.06
441.145	737.88
441.52	766.8
441.895	733.36
442.27	735.84
442.645	752.56
443.019	770.87
443.394	757.31
443.769	732.9
444.143	719.12
444.518	776.07
444.892	776.97
445.267	757.08
445.641	772
446.016	820.36
446.39	787.59
446.764	781.26
447.139	814.48
447.513	796.86
447.887	801.6
448.262	804.99
448.636	795.05
449.01	838.89
449.384	838.66
449.758	834.37
450.132	846.57
450.506	851.77
450.88	828.72
451.254	856.97
451.628	861.71
452.002	867.59
452.376	869.85
452.75	887.02
453.123	876.18
453.497	889.06
453.871	896.74
454.244	895.39
454.618	910.53
454.992	914.14
455.365	945.55
455.739	957.08
456.112	977.64
456.486	962.73
456.859	987.14
457.232	1006.34
457.606	971.54
457.979	997.98
458.352	1019.68
458.725	1047.25
459.099	1042.95
459.472	1055.38
459.845	1050.41
460.218	1073.01
460.591	1077.3
460.964	1068.94
461.337	1128.15
461.71	1106.68
462.083	1136.06
462.456	1132.89
462.829	1133.35
463.201	1158.66
463.574	1182.38
463.947	1197.75
464.32	1201.59
464.692	1229.39
465.065	1221.93
465.438	1251.76
465.81	1275.26
466.183	1275.49
466.555	1302.83
466.928	1341.7
467.3	1334.47
467.672	1362.27
468.045	1409.72
468.417	1401.36
468.789	1412.21
469.161	1435.03
469.534	1444.07
469.906	1505.54
470.278	1492.21
470.65	1526.1
471.022	1555.71
471.394	1582.37
471.766	1614.69
472.138	1661.69
472.51	1699.43
472.882	1720.22
473.253	1765.65
473.625	1846.77
473.997	1860.56
474.369	1829.82
474.74	1895.59
475.112	1915.92
475.484	1970.39
475.855	2046.77
476.227	2064.39
476.598	2156.82
476.97	2148.91
477.341	2249.47
477.713	2280.43
478.084	2320.21
478.455	2389.36
478.827	2460.32
479.198	2567.66
479.569	2593.19
479.94	2698.73
480.311	2750.93
480.682	2825.28
481.053	2943.47
481.424	3015.1
481.795	3040.41
482.166	3156.34
482.537	3213.97
482.908	3295.77
483.279	3419.84
483.65	3498.71
484.021	3592.04
484.391	3693.73
484.762	3803.56
485.133	3884.23
485.503	3997.9
485.874	4095.98
486.244	4191.57
486.615	4324.67
486.985	4447.38
487.356	4545.23
487.726	4639.02
488.097	4786.13
488.467	4922.62
488.837	5079
489.207	5140.02
489.578	5314.48
489.948	5411.88
490.318	5608.03
490.688	5667.24
491.058	5860.68
491.428	5956.5
491.798	6062.71
492.168	6288.01
492.538	6314.9
492.908	6494.11
493.278	6718.74
493.648	6773.65
494.017	6885.29
494.387	7056.13
494.757	7200.76
495.126	7370.92
495.496	7433.75
495.866	7531.82
496.235	7720.29
496.605	7899.04
496.974	7998.7
497.344	8197.79
497.713	8297.23
498.082	8405.92
498.452	8597.1
498.821	8709.64
499.19	8746.93
499.559	8915.51
499.928	9108.96
500.298	9248.39
500.667	9404.99
501.036	9383.52
501.405	9535.16
501.774	9682.5
502.143	9762.72
502.512	9958.88
502.88	10063.96
503.249	10117.06
503.618	10290.62
503.987	10411.29
504.356	10509.6
504.724	10696.94
505.093	10773.09
505.462	10851.96
505.83	10950.71
506.199	11136.92
506.567	11307.09
506.936	11331.95
507.304	11478.38
507.672	11599.06
508.041	11715.67
508.409	11794.31
508.777	11946.39
509.145	12095.32
509.514	12141.42
509.882	12213.05
510.25	12403.78
510.618	12505.7
510.986	12636.09
511.354	12742.76
511.722	12816.88
512.09	12996.08
512.458	12972.58
512.826	13177.55
513.193	13258.68
513.561	13288.96
513.929	13535.28
514.297	13565.34
514.664	13679.23
515.032	13686.69
515.4	13878.32
515.767	13981.6
516.135	14077.86
516.502	13987.47
516.869	14293.23
517.237	14326.9
517.604	14325.99
517.972	14512.2
518.339	14566.67
518.706	14635.14
519.073	14681.69
519.44	14849.37
519.808	15014.11
520.175	14896.6
520.542	15236.03
520.909	15248.45
521.276	15308.11
521.643	15414.33
522.009	15543.81
522.376	15632.85
522.743	15706.07
523.11	15892.96
523.477	16029.68
523.843	16113.97
524.21	16241.2
524.577	16364.58
524.943	16368.2
525.31	16410.46
525.676	16574.07
526.043	16684.58
526.409	16721.18
526.776	16879.6
527.142	16945.13
527.508	17140.61
527.874	17161.85
528.241	17199.82
528.607	17263.54
528.973	17417.21
529.339	17407.27
529.705	17632.8
530.071	17765.22
530.437	17742.17
530.803	17751.21
531.169	17938.33
531.535	17826.47
531.901	17948.72
532.267	17979.46
532.632	18128.38
532.998	18135.84
533.364	18112.33
533.73	18167.93
534.095	18284.76
534.461	18310.75
534.826	18378.32
535.192	18428.71
535.557	18487.24
535.923	18434.59
536.288	18577.41
536.653	18625.09
537.019	18517.97
537.384	18672.09
537.749	18734.92
538.114	18751.19
538.479	18694.69
538.845	18803.16
539.21	18737.63
539.575	18825.99
539.94	18862.37
540.305	18980.79
540.67	18909.38
541.034	18984.85
541.399	18924.74
541.764	19046.1
542.129	19031.18
542.494	19100.56
542.858	19062.37
543.223	19172.19
543.587	19260.33
543.952	19112.53
544.316	19213.1
544.681	19187.79
545.045	19197.96
545.41	19324.51
545.774	19364.5
546.138	19314.79
546.503	19364.05
546.867	19275.92
547.231	19443.15
547.595	19540.55
547.959	19395.69
548.324	19350.95
548.688	19492.64
549.052	19562.01
549.416	19527.66
549.779	19529.7
550.143	19580.77
550.507	19647.89
550.871	19695.34
551.235	19697.6
551.599	19849.69
551.962	19802.46
552.326	19742.12
552.689	19850.59
553.053	19793.87
553.417	19710.94
553.78	20004.94
554.143	19883.14
554.507	19912.97
554.87	20004.49
555.234	20141.89
555.597	20044.94
555.96	20078.61
556.323	20061.89
556.686	20195.22
557.05	20322.22
557.413	20274.76
557.776	20301.88
558.139	20406.51
558.502	20372.39
558.865	20428.66
559.228	20590.01
559.59	20572.83
559.953	20502.1
560.316	20786.16
560.679	20786.84
561.041	20828.87
561.404	20924.24
561.767	21045.59
562.129	20860.28
562.492	21057.57
562.854	21002.43
563.217	21088.08
563.579	21149.77
563.941	21271.35
564.304	21296.21
564.666	21367.39
565.028	21401.97
565.39	21481.96
565.753	21585.01
566.115	21615.07
566.477	21694.84
566.839	21694.61
567.201	21819.13
567.563	21854.61
567.925	22011.89
568.287	21949.3
568.648	21889.86
569.01	22140.93
569.372	22145.67
569.734	22101.83
570.095	22214.83
570.457	22355.61
570.819	22284.88
571.18	22337.99
571.542	22431.09
571.903	22522.39
572.265	22568.26
572.626	22644.64
572.987	22583.86
573.349	22742.04
573.71	22754.47
574.071	22803.28
574.432	22829.27
574.794	22997.63
575.155	22992.21
575.516	22835.37
575.877	23001.02
576.238	22959.44
576.599	23121.24
576.96	23017.97
577.32	23130.51
577.681	23107.68
578.042	23204.18
578.403	23234.46
578.763	23256.83
579.124	23250.73
579.485	23418.18
579.845	23394.46
580.206	23401.23
580.566	23403.49
580.927	23395.13
581.287	23438.3
581.648	23452.53
582.008	23586.09
582.368	23451.63
582.728	23452.08
583.089	23379.31
583.449	23518.29
583.809	23425.19
584.169	23499.31
584.529	23413.44
584.889	23581.12
585.249	23488.92
585.609	23414.57
585.969	23498.63
586.329	23479.2
586.688	23474.68
587.048	23520.78
587.408	23430.61
587.768	23419.77
588.127	23480.1
588.487	23450.05
588.846	23511.51
589.206	23322.37
589.565	23392.65
589.925	23520.1
590.284	23454.11
590.643	23488.69
591.003	23489.82
591.362	23565.3
591.721	23451.4
592.08	23508.35
592.44	23562.36
592.799	23650.49
593.158	23546.54
593.517	23563.49
593.876	23539.54
594.235	23499.76
594.593	23505.86
594.952	23653.21
595.311	23572.53
595.67	23615.01
596.029	23702.92
596.387	23718.74
596.746	23771.17
597.104	23617.5
597.463	23639.19
597.822	23618.86
598.18	23563.94
598.538	23616.37
598.897	23686.2
599.255	23403.72
599.613	23824.73
599.972	23694.33
600.33	23762.81
600.688	23632.64
601.046	23715.8
601.404	23890.71
601.762	23751.96
602.12	23804.84
602.478	23892.52
602.836	23855.01
603.194	23722.81
603.552	23732.53
603.91	23786.99
604.268	23852.75
604.625	23743.82
604.983	23852.52
605.341	23753.09
605.698	23880.54
606.056	23903.37
606.413	23984.72
606.771	24062.69
607.128	23882.58
607.485	23992.63
607.843	23937.04
608.2	24155.57
608.557	24180.65
608.914	24070.6
609.272	24224.94
609.629	24347.88
609.986	24356.46
610.343	24194.21
610.7	24429.68
611.057	24437.14
611.414	24412.51
611.771	24348.55
612.127	24499.51
612.484	24579.28
612.841	24535.89
613.198	24468.33
613.554	24508.1
613.911	24712.84
614.267	24636.91
614.624	24572.96
614.98	24535.89
615.337	24819.5
615.693	24789.9
616.05	24653.41
616.406	24919.16
616.762	24786.51
617.118	24822.67
617.475	24754.19
617.831	24883.23
618.187	24864.93
618.543	25039.38
618.899	25069.44
619.255	25025.37
619.611	25090.23
619.967	25106.27
620.323	25120.29
620.678	25131.81
621.034	24947.18
621.39	25033.73
621.746	24989.44
622.101	25295.2
622.457	25130.91
622.812	25138.59
623.168	25188.53
623.523	25297.46
623.879	25195.76
624.234	25147.63
624.589	25335.2
624.945	25267.85
625.3	25279.38
625.655	25282.09
626.01	25267.4
626.365	25238.7
626.72	25387.85
627.075	25256.33
627.43	25266.95
627.785	25153.51
628.14	25221.07
628.495	25268.08
628.85	25240.06
629.205	25290.45
629.559	25405.48
629.914	25320.05
630.269	25247.29
630.623	25272.15
630.978	25177.23
631.332	25251.13
631.687	25309.43
632.041	25238.93
632.396	25322.54
632.75	25103.79
633.104	25115.09
633.459	25152.15
633.813	25082.32
634.167	25071.02
634.521	25102.66
634.875	25109.66
635.229	24997.58
635.583	24889.11
635.937	24992.83
636.291	24922.1
636.645	24892.72
636.999	24801.42
637.352	24971.14
637.706	24802.1
638.06	24897.69
638.413	24767.3
638.767	24766.4
639.121	24971.82
639.474	24621.09
639.828	24677.59
640.181	24746.06
640.534	24909.22
640.888	24637.59
641.241	24461.77
641.594	24632.39
641.947	24673.97
642.301	24647.3
642.654	24650.92
643.007	24654.99
643.36	24612.05
643.713	24528.89
644.066	24460.87
644.419	24478.49
644.771	24276.69
645.124	24130.71
645.477	24045.74
645.83	24023.37
646.182	23852.97
646.535	23852.97
646.888	23824.05
647.24	23758.74
647.593	23860.43
647.945	23786.31
648.298	23684.62
648.65	23643.49
649.002	23577.28
649.355	23695.46
649.707	23600.55
650.059	23699.98
650.411	24069.92
650.763	24069.01
651.115	24404.37
651.467	24386.29
651.819	24173.19
652.171	24207.54
652.523	24132.29
652.875	24161.44
653.227	24044.83
653.578	24165.51
653.93	24221.55
654.282	23953.54
654.633	24022.01
654.985	24117.15
655.337	24101.33
655.688	24008.68
656.039	24217.26
656.391	24008.45
656.742	24033.99
657.094	24054.55
657.445	24184.72
657.796	24121.67
658.147	24137.49
658.498	23948.11
658.849	24044.38
659.2	24034.66
659.551	24018.62
659.902	23991.5
660.253	24068.56
660.604	24131.39
660.955	24033.31
661.306	24120.76
661.656	24108.79
662.007	24042.35
662.358	23953.99
662.708	24037.38
663.059	24012.07
663.409	23937.72
663.76	24142.01
664.11	24078.73
664.461	24089.35
664.811	23986.76
665.161	24078.05
665.511	23969.13
665.862	24085.96
666.212	24081.9
666.562	24074.44
666.912	23996.93
667.262	23945.63
667.612	23952.86
667.962	24076.25
668.312	23925.06
668.662	24097.26
669.011	24010.03
669.361	23991.28
669.711	23985.85
670.06	23992.63
670.41	23918.06
670.76	23834.44
671.109	23994.44
671.459	23897.95
671.808	23936.81
672.157	24024.04
672.507	23709.93
672.856	23876.7
673.205	23858.85
673.554	23898.85
673.904	23790.83
674.253	23919.87
674.602	23874.67
674.951	23466.32
675.3	23497.73
675.649	23736.59
675.998	23739.31
676.346	23723.49
676.695	23831.96
677.044	23609.59
677.393	23726.65
677.741	23698.63
678.09	23631.51
678.438	23532.98
678.787	23553.77
679.135	23639.42
679.484	23493.44
679.832	23560.78
680.181	23304.74
680.529	23474.23
680.877	23412.08
681.225	23325.53
681.573	23470.16
681.922	23345.42
682.27	23217.74
682.618	23247.79
682.966	23270.39
683.314	23094.8
683.661	23170.96
684.009	23071.75
684.357	22985.65
684.705	22945.43
685.053	22919.21
685.4	22934.13
685.748	22886.9
686.095	22793.79
686.443	22836.28
686.79	22801.48
687.138	22808.26
687.485	22702.04
687.832	22614.81
688.18	22669.05
688.527	22502.95
688.874	22465.44
689.221	22463.63
689.568	22340.92
689.915	22392
690.262	22360.13
690.609	22255.28
690.956	22240.36
691.303	22103.42
691.65	22007.37
691.997	22032.68
692.344	21890.99
692.69	21821.16
693.037	21886.92
693.383	21668.85
693.73	21739.36
694.077	21623.2
694.423	21633.82
694.769	21641.06
695.116	21482.87
695.462	21513.6
695.808	21388.86
696.155	21419.37
696.501	21239.48
696.847	21172.59
697.193	21141.41
697.539	21110.22
697.885	20993.39
698.231	20854.86
698.577	20777.58
698.923	20876.33
699.269	20736.45
699.614	20552.04
699.96	20597.01
700.306	20509.33
700.651	20463.01
700.997	20350.02
701.342	20298.72
701.688	20279.96
702.033	20180.53
702.379	20148.89
702.724	20161.55
703.069	20154.99
703.415	19969.69
703.76	19938.73
704.105	20001.1
704.45	19969.46
704.795	19753.65
705.14	19694.89
705.485	19777.83
705.83	19606.76
706.175	19632.52
706.52	19542.58
706.865	19501
707.209	19375.8
707.554	19345.97
707.899	19402.7
708.243	19260.55
708.588	19128.8
708.932	19071.63
709.277	19015.59
709.621	19058.52
709.966	18919.09
710.31	18962.26
710.654	18826.44
710.998	18924.06
711.342	18909.38
711.687	18717.97
712.031	18709.83
712.375	18689.04
712.719	18593.23
713.063	18595.71
713.407	18656.27
713.75	18496.28
714.094	18428.26
714.438	18506.22
714.782	18381.48
715.125	18400.46
715.469	18416.51
715.812	18281.14
716.156	18224.87
716.499	18277.3
716.843	18219.22
717.186	18116.4
717.53	18264.19
717.873	18191.2
718.216	18171.54
718.559	18058.32
718.902	17959.34
719.246	18075.5
719.589	17833.7
719.932	17941.49
720.275	17905.56
720.617	17870.98
720.96	17815.85
721.303	17881.38
721.646	17839.8
721.989	17764.55
722.331	17852.68
722.674	17741.72
723.016	17762.06
723.359	17721.61
723.701	17608.39
724.044	17572.01
724.386	17567.94
724.729	17623.99
725.071	17545.8
725.413	17525.01
725.755	17489.3
726.097	17450.21
726.439	17420.6
726.782	17395.07
727.124	17515.97
727.465	17332.69
727.807	17409.75
728.149	17328.17
728.491	17348.74
728.833	17363.88
729.175	17207.27
729.516	17173.6
729.858	17239.59
730.199	17316.65
730.541	17258.57
730.882	17109.65
731.224	17181.96
731.565	17186.26
731.906	17175.18
732.248	17170.44
732.589	17049.99
732.93	17064.45
733.271	17063.55
733.612	17121.63
733.953	17142.64
734.294	16981.52
734.635	16942.2
734.976	16997.79
735.317	16862.65
735.658	17005.02
735.999	16964.79
736.339	16939.03
736.68	17045.24
737.021	16905.13
737.361	16831.24
737.702	16981.29
738.042	16894.06
738.383	16929.09
738.723	17002.53
739.063	16853.38
739.404	16848.86
739.744	16877.56
740.084	16812.03
740.424	16926.6
740.764	16924.12
741.104	17020.39
741.444	16848.86
741.784	16748.75
742.124	16837.57
742.464	16871.24
742.804	16821.29
743.143	16867.4
743.483	16890.45
743.823	16809.09
744.162	16794.63
744.502	16880.05
744.841	16840.05
745.181	16885.7
745.52	16819.71
745.86	16961.18
746.199	16899.49
746.538	16998.92
746.877	17121.17
747.216	17105.36
747.556	17157.78
747.895	17093.83
748.234	17058.12
748.573	17136.77
748.911	17200.95
749.25	17176.09
749.589	17196.2
749.928	17250.44
750.267	17386.03
750.605	17271
750.944	17431.67
751.283	17312.58
751.621	17484.33
751.96	17431
752.298	17461.5
752.636	17668.96
752.975	17570.88
753.313	17603.2
753.651	17777.43
753.989	17620.6
754.327	17788.05
754.666	17710.54
755.004	17863.3
755.342	18002.05
755.679	18051.77
756.017	18121.83
756.355	18164.99
756.693	18131.09
757.031	18200.02
757.368	18247.02
757.706	18376.28
758.044	18369.05
758.381	18515.71
758.719	18539.89
759.056	18594.81
759.394	18583.73
759.731	18671.87
760.068	18769.49
760.405	18814.69
760.743	18863.95
761.08	18871.86
761.417	18882.71
761.754	19037.28
762.091	19011.52
762.428	19013.33
762.765	19067.34
763.102	19178.3
763.438	19047.23
763.775	19107.11
764.112	19276.15
764.449	19241.57
764.785	19254.45
765.122	19352.08
765.458	19272.3
765.795	19369.7
766.131	19363.15
766.467	19399.08
766.804	19290.61
767.14	19397.05
767.476	19405.41
767.812	19359.99
768.148	19540.32
768.485	19331.74
768.821	19268.91
769.157	19334.45
769.492	19364.96
769.828	19425.07
770.164	19220.1
770.5	19344.17
770.836	19348.69
771.171	19236.15
771.507	19276.6
771.842	19220.33
772.178	19142.59
772.513	19352.3
772.849	19209.93
773.184	19210.84
773.519	19244.06
773.855	19129.71
774.19	19128.58
774.525	19159.31
774.86	19058.07
775.195	19036.15
775.53	19045.42
775.865	18912.09
776.2	18897.85
776.535	18845.42
776.87	18895.59
777.205	18855.37
777.539	18806.33
777.874	18818.98
778.209	18675.71
778.543	18680.91
778.878	18559.78
779.212	18504.41
779.547	18441.59
779.881	18575.15
780.215	18439.78
780.55	18409.05
780.884	18310.75
781.218	18366.34
781.552	18336.28
781.886	18162.95
782.22	18137.64
782.554	18070.75
782.888	17939.01
783.222	17916.86
783.556	17854.04
783.889	17829.4
784.223	17772.46
784.557	17711.67
784.89	17669.41
785.224	17634.15
785.557	17604.78
785.891	17594.38
786.224	17480.94
786.558	17482.07
786.891	17382.86
787.224	17295.41
787.557	17241.17
787.891	17275.97
788.224	17195.07
788.557	17130.67
788.89	17174.73
789.223	17084.79
789.556	16943.78
789.888	16910.56
790.221	16869.88
790.554	16707.63
790.887	16753.27
791.219	16715.31
791.552	16644.8
791.884	16502.66
792.217	16595.76
792.549	16482.77
792.882	16422.89
793.214	16280.29
793.546	16339.95
793.879	16228.54
794.211	16182.67
794.543	16249.78
794.875	16106.74
795.207	16224.47
795.539	16004.59
795.871	16088.88
796.203	15931.37
796.535	15829.68
796.867	15779.74
797.198	15785.62
797.53	15796.46
797.862	15763.02
798.193	15622.23
798.525	15568.45
798.856	15647.54
799.188	15434.44
799.519	15442.57
799.85	15367.55
800.182	15325.97
800.513	15300.43
800.844	15228.12
801.175	15246.65
801.506	15262.92
801.837	15185.41
802.168	15158.74
802.499	15113.09
802.83	15072.41
803.161	14985.19
803.491	14919.2
803.822	14946.09
804.153	14822.25
804.483	14781.8
804.814	14749.71
805.145	14691.63
805.475	14669.26
805.805	14601.92
806.136	14647.11
806.466	14649.83
806.796	14562.6
807.126	14507.46
807.457	14472.43
807.787	14358.31
808.117	14372.77
808.447	14251.19
808.777	14374.35
809.107	14247.13
809.436	14302.72
809.766	14247.13
810.096	14154.25
810.426	14104.08
810.755	14155.6
811.085	14076.28
811.414	14114.25
811.744	13899.34
812.073	13922.61
812.403	13963.07
812.732	13854.14
813.061	13879
813.39	13811.43
813.719	13696.41
814.049	13786.8
814.378	13798.55
814.707	13710.19
815.036	13637.2
815.365	13537.77
815.693	13560.59
816.022	13549.74
816.351	13472.23
816.68	13368.73
817.008	13364.89
817.337	13353.59
817.665	13250.54
817.994	13343.19
818.322	13283.99
818.651	13185.01
818.979	13131.45
819.307	13229.53
819.636	13214.38
819.964	13135.52
820.292	13137.1
820.62	13128.51
820.948	13030.66
821.276	13155.4
821.604	13010.55
821.932	13056.65
822.259	13053.71
822.587	13092.58
822.915	13047.83
823.243	13123.54
823.57	13018.91
823.898	13049.42
824.225	13001.28
824.553	13033.6
824.88	13032.69
825.207	13056.87
825.535	12975.07
825.862	13045.58
826.189	12984.33
826.516	13029.53
826.843	13051
827.17	13069.53
827.497	13105.46
827.824	13029.3
828.151	13061.39
828.478	13080.15
828.805	13057.78
829.131	13032.69
829.458	12989.08
829.785	13005.12
830.111	12983.88
830.438	13072.02
830.764	13001.28
831.09	13068.4
831.417	12899.36
831.743	12947.72
832.069	13015.29
832.395	12888.74
832.722	12942.3
833.048	12851
833.374	12865.47
833.7	12859.59
834.026	12804.23
834.351	12903.43
834.677	12866.6
835.003	12864.79
835.329	12886.94
835.654	12865.69
835.98	12790.21
836.306	12771.91
836.631	12756.54
836.956	12846.48
837.282	12741.85
837.607	12664.34
837.932	12669.77
838.258	12781.18
838.583	12618.92
838.908	12592.93
839.233	12647.62
839.558	12604.23
839.883	12546.15
840.208	12504.35
840.533	12540.96
840.858	12536.66
841.182	12515.65
841.507	12591.35
841.832	12480.39
842.156	12338.7
842.481	12369.66
842.805	12322.88
843.13	12322.88
843.454	12295.54
843.778	12277.46
844.103	12197.46
844.427	12125.6
844.751	12184.13
845.075	12148.42
845.399	12103.68
845.723	12055.09
846.047	12022.78
846.371	11938.03
846.695	11867.53
847.019	11806.96
847.343	11842.44
847.666	11669.34
847.99	11617.36
848.313	11743.01
848.637	11590.47
848.96	11547.99
849.284	11588.66
849.607	11482.45
849.931	11438.61
850.254	11337.15
850.577	11378.73
850.9	11206.75
851.223	11326.52
851.546	11203.82
851.869	11161.56
852.192	11148.9
852.515	11070.71
852.838	11008.79
853.161	11042.92
853.483	10945.97
853.806	10863.49
854.129	10872.75
854.451	10844.28
854.774	10817.16
855.096	10786.43
855.419	10773.09
855.741	10718.63
856.063	10606.09
856.385	10623.72
856.708	10609.48
857.03	10657.39
857.352	10554.12
857.674	10491.74
857.996	10500.56
858.318	10483.61
858.64	10404.74
858.961	10357.28
859.283	10312.54
859.605	10335.82
859.926	10383.05
860.248	10265.76
860.57	10219.89
860.891	10240.45
861.212	10237.74
861.534	10216.27
861.855	10154.58
862.176	10174.69
862.498	10181.24
862.819	10153
863.14	10032.32
863.461	10063.73
863.782	10053.34
864.103	10014.47
864.424	9994.81
864.745	10043.39
865.065	9997.07
865.386	9907.13
865.707	9932.66
866.027	9974.47
866.348	9860.8
866.668	9887.47
866.989	9840.24
867.309	9757.3
867.63	9830.07
867.95	9772.21
868.27	9836.62
868.59	9804.08
868.91	9738.54
869.23	9741.03
869.55	9707.13
869.87	9778.09
870.19	9638.66
870.51	9673.01
870.83	9715.72
871.15	9583.29
871.469	9643.86
871.789	9600.24
872.109	9571.09
872.428	9582.62
872.748	9583.52
873.067	9603.86
873.386	9510.98
873.706	9529.74
874.025	9459.68
874.344	9502.17
874.663	9472.34
874.982	9452.22
875.301	9474.82
875.62	9444.54
875.939	9410.19
876.258	9356.86
876.577	9371.32
876.896	9384.88
877.214	9378.55
877.533	9300.81
877.852	9323.19
878.17	9346.46
878.489	9293.13
878.807	9293.13
879.125	9263.98
879.444	9256.52
879.762	9234.15
880.08	9250.65
880.398	9203.19
880.716	9173.59
881.034	9179.46
881.352	9192.34
881.67	9097.2
881.988	9100.14
882.306	9087.04
882.624	9028.28
882.941	9002.74
883.259	8929.53
883.577	8990.99
883.894	8954.84
884.212	8951.67
884.529	8883.88
884.846	8865.57
885.164	8961.16
885.481	8859.02
885.798	8854.72
886.115	8806.36
886.432	8758.23
886.75	8748.96
887.067	8816.31
887.383	8731.11
887.7	8739.7
888.017	8725.46
888.334	8730.66
888.651	8663.32
888.967	8653.6
889.284	8583.32
889.6	8569.08
889.917	8511.68
890.233	8546.94
890.55	8550.55
890.866	8498.35
891.182	8477.56
891.498	8449.99
891.815	8488.18
892.131	8425.58
892.447	8323.89
892.763	8362.76
893.079	8320.95
893.395	8347.85
893.71	8223.55
894.026	8252.03
894.342	8323.44
894.657	8189.88
894.973	8184.69
895.289	8182.88
895.604	8138.13
895.92	8055.88
896.235	8071.69
896.55	8041.19
896.865	8008.87
897.181	7968.42
897.496	7981.75
897.811	7904.24
898.126	7872.6
898.441	7836.45
898.756	7816.11
899.071	7833.06
899.386	7864.24
899.7	7745.6
900.015	7724.36
900.33	7610.24
900.644	7647.75
900.959	7667.41
901.273	7606.17
901.588	7615.44
901.902	7541.54
902.216	7550.13
902.531	7515.1
902.845	7458.38
903.159	7420.41
903.473	7431.94
903.787	7346.29
904.101	7398.49
904.415	7405.27
904.729	7302.68
905.042	7284.37
905.356	7208.67
905.67	7177.71
905.984	7277.37
906.297	7164.37
906.611	7142.91
906.924	7145.84
907.237	7071.49
907.551	7074.88
907.864	7063.36
908.177	7066.52
908.491	6974.1
908.804	6988.11
909.117	6844.61
909.43	6888.45
909.743	6904.27
910.056	6820.65
910.368	6822.91
910.681	6858.62
910.994	6838.05
911.307	6751.05
911.619	6663.6
911.932	6755.8
912.244	6609.59
912.557	6645.97
912.869	6621.56
913.181	6581.56
913.494	6622.69
913.806	6497.05
914.118	6533.88
914.43	6469.7
914.742	6447.1
915.054	6384.06
915.366	6384.51
915.678	6373.43
915.99	6335.24
916.302	6303.38
916.613	6267.67
916.925	6289.59
917.236	6271.06
917.548	6182.48
917.859	6219.77
918.171	6168.92
918.482	6140.67
918.794	6150.84
919.105	6128.69
919.416	6056.38
919.727	6050.96
920.038	6028.81
920.349	5976.16
920.66	5950.39
920.971	5959.43
921.282	5921.92
921.593	5888.48
921.903	5841.02
922.214	5839.21
922.525	5821.36
922.835	5847.57
923.146	5793.56
923.456	5763.05
923.767	5734.58
924.077	5739.33
924.387	5659.78
924.697	5682.38
925.008	5675.37
925.318	5598.31
925.628	5612.32
925.938	5589.05
926.248	5590.63
926.558	5537.98
926.867	5506.79
927.177	5478.54
927.487	5437.41
927.796	5403.06
928.106	5342.73
928.416	5406.45
928.725	5387.92
929.034	5337.76
929.344	5337.08
929.653	5311.32
929.962	5261.37
930.271	5205.33
930.581	5240.13
930.89	5209.85
931.199	5176.18
931.508	5147.25
931.817	5115.61
932.125	5108.16
932.434	5129.4
932.743	5034.03
933.051	5034.03
933.36	5017.54
933.669	4977.54
933.977	4961.72
934.286	4982.28
934.594	4980.48
934.902	4909.07
935.21	4921.72
935.519	4894.6
935.827	4830.65
936.135	4842.63
936.443	4774.38
936.751	4757.88
937.059	4794.72
937.367	4766.7
937.674	4787.71
937.982	4702.07
938.29	4659.58
938.597	4700.26
938.905	4606.7
939.213	4633.82
939.52	4648.73
939.827	4612.8
940.135	4592.69
940.442	4562.18
940.749	4570.32
941.056	4575.29
941.363	4515.86
941.67	4471.11
941.977	4451.9
942.284	4439.25
942.591	4446.71
942.898	4404.45
943.205	4425.69
943.511	4329.42
943.818	4323.09
944.125	4386.37
944.431	4358.35
944.738	4302.75
945.044	4293.26
945.35	4210.33
945.657	4215.52
945.963	4220.95
946.269	4226.82
946.575	4205.36
946.881	4157.67
947.187	4167.84
947.493	4130.56
947.799	4121.74
948.105	4079.71
948.41	4089.65
948.716	4062.76
949.022	4063.89
949.327	4034.29
949.633	4018.47
949.938	4014.85
950.244	3964.46
950.549	3969.2
950.854	3921.75
951.16	3959.26
951.465	3940.28
951.77	3908.19
952.075	3889.43
952.38	3879.71
952.685	3861.64
952.99	3798.13
953.294	3801.3
953.599	3787.97
953.904	3790
954.209	3761.53
954.513	3784.58
954.818	3707.97
955.122	3711.81
955.426	3721.75
955.731	3680.4
956.035	3685.14
956.339	3665.93
956.643	3646.27
956.948	3648.08
957.252	3628.87
957.556	3599.04
957.86	3558.59
958.163	3582.32
958.467	3585.94
958.771	3552.72
959.075	3548.42
959.378	3500.97
959.682	3497.8
959.985	3463.68
960.289	3463
960.592	3443.57
960.896	3430.01
961.199	3418.03
961.502	3389.11
961.805	3390.24
962.108	3371.71
962.411	3354.98
962.714	3317.47
963.017	3318.6
963.32	3301.42
963.623	3285.38
963.926	3299.84
964.228	3288.77
964.531	3276.34
964.833	3274.53
965.136	3222.56
965.438	3198.6
965.741	3192.73
966.043	3194.08
966.345	3180.3
966.648	3147.76
966.95	3150.24
967.252	3116.8
967.554	3122.45
967.856	3091.71
968.158	3116.12
968.46	3065.72
968.761	3061.88
969.063	3077.7
969.365	3061.66
969.666	3027.99
969.968	2990.47
970.269	2996.57
970.571	2986.86
970.872	2933.3
971.174	2975.33
971.475	2979.4
971.776	2950.7
972.077	2943.24
972.378	2934.2
972.679	2898.5
972.98	2877.03
973.281	2889.68
973.582	2838.84
973.883	2830.02
974.183	2817.6
974.484	2832.28
974.785	2820.08
975.085	2782.57
975.386	2788.67
975.686	2752.51
975.986	2739.86
976.287	2757.48
976.587	2724.49
976.887	2718.16
977.187	2718.61
977.487	2688.11
977.787	2702.34
978.087	2671.84
978.387	2632.97
978.687	2654.89
978.987	2625.06
979.286	2632.97
979.586	2609.01
979.885	2572.4
980.185	2588
980.484	2594.32
980.784	2588.67
981.083	2574.66
981.382	2557.26
981.682	2563.36
981.981	2509.13
982.28	2520.43
982.579	2511.39
982.878	2501.67
983.177	2530.15
983.475	2492.18
983.774	2454.67
984.073	2463.48
984.372	2444.27
984.67	2434.55
984.969	2435.23
985.267	2432.97
985.566	2400.21
985.864	2370.15
986.162	2400.21
986.461	2345.97
986.759	2368.12
987.057	2349.59
987.355	2362.01
987.653	2322.47
987.951	2307.78
988.249	2275.24
988.547	2309.13
988.844	2261
989.142	2270.27
989.44	2290.38
989.737	2258.29
990.035	2249.7
990.332	2253.54
990.63	2262.81
990.927	2217.84
991.224	2232.98
991.521	2233.43
991.819	2168.12
992.116	2185.3
992.413	2177.61
992.71	2148.91
993.006	2135.58
993.303	2177.39
993.6	2144.17
993.897	2112.76
994.193	2118.86
994.49	2119.53
994.787	2082.7
995.083	2069.37
995.379	2092.42
995.676	2060.55
995.972	2064.39
996.268	2032.53
996.565	2019.65
996.861	2060.33
997.157	2018.52
997.453	1980.78
997.749	2031.85
998.044	1978.75
998.34	1966.09
998.636	1950.05
998.932	1934.23
999.227	1961.8
999.523	1930.84
999.818	1912.53
1000.114	1917.05
1000.409	1886.77
1000.704	1879.99
1001	1890.84
1001.295	1868.24
1001.59	1859.65
1001.885	1849.49
1002.18	1840.45
1002.475	1844.97
1002.77	1822.14
1003.065	1809.03
1003.359	1795.7
1003.654	1777.17
1003.949	1791.63
1004.243	1797.96
1004.538	1785.31
1004.832	1743.05
1005.127	1784.4
1005.421	1743.5
1005.715	1743.5
1006.009	1720.45
1006.304	1691.3
1006.598	1694.01
1006.892	1701.01
1007.186	1676.83
1007.48	1679.09
1007.773	1675.48
1008.067	1673.22
1008.361	1655.82
1008.655	1637.29
1008.948	1627.8
1009.242	1609.72
1009.535	1625.54
1009.829	1616.72
1010.122	1622.37
1010.415	1615.59
1010.708	1599.1
1011.001	1585.99
1011.295	1542.37
1011.588	1545.76
1011.881	1533.79
1012.173	1526.78
1012.466	1536.95
1012.759	1506.22
1013.052	1495.37
1013.344	1507.35
1013.637	1499.21
1013.93	1455.37
1014.222	1479.55
1014.514	1449.5
1014.807	1455.15
1015.099	1461.02
1015.391	1461.47
1015.683	1442.26
1015.976	1458.54
1016.268	1425.77
1016.56	1412.43
1016.851	1409.72
1017.143	1398.42
1017.435	1423.06
1017.727	1380.8
1018.018	1374.92
1018.31	1345.32
1018.602	1325.88
1018.893	1313.23
1019.185	1304.41
1019.476	1326.34
1019.767	1329.05
1020.058	1304.64
1020.35	1310.97
1020.641	1265.77
1020.932	1275.94
1021.223	1267.13
1021.514	1251.08
1021.804	1245.43
1022.095	1235.94
1022.386	1259.44
1022.677	1217.64
1022.967	1221.71
1023.258	1237.98
1023.548	1197.07
1023.839	1208.82
1024.129	1217.64
1024.419	1195.49
1024.709	1193.68
1025	1172.67
1025.29	1164.08
1025.58	1137.41
1025.87	1161.14
1026.16	1149.39
1026.449	1105.32
1026.739	1120.01
1027.029	1104.19
1027.319	1086.34
1027.608	1129.96
1027.898	1099.45
1028.187	1106.68
1028.477	1097.87
1028.766	1098.54
1029.055	1083.18
1029.344	1054.25
1029.634	1043.86
1029.923	1072.78
1030.212	1041.6
1030.501	1057.19
1030.79	1033.91
1031.078	1053.8
1031.367	1033.01
1031.656	1002.73
1031.945	1026.68
1032.233	996.4
1032.522	1009.06
1032.81	991.65
1033.099	988.04
1033.387	997.53
1033.675	967.7
1033.963	972.22
1034.251	977.87
1034.54	958.66
1034.828	930.19
1035.116	938.77
1035.403	948.72
1035.691	933.58
1035.979	950.07
1036.267	925.67
1036.554	915.72
1036.842	901.49
1037.129	921.6
1037.417	891.32
1037.704	892.45
1037.992	903.52
1038.279	903.52
1038.566	884.54
1038.853	884.54
1039.14	884.54
