Data from hue_150_FLMS001491_00053.txt Node
Date: Tue Feb 07 16:54:13 GMT 2017
User: dcchb
Spectrometer: FLMS00149
Trigger mode: 0
Integration Time (sec): 2.000000E-2
Scans to average: 10
Electric dark correction enabled: true
Nonlinearity correction enabled: false
Boxcar width: 0
XAxis mode: Wavelengths
Number of Pixels in Spectrum: 2048
>>>>>Begin Spectral Data<<<<<
341.393	-18.78
341.776	-18.78
342.16	-18.78
342.543	-53.81
342.927	-63.76
343.31	-50.2
343.693	-64.21
344.077	-72.57
344.46	-51.55
344.843	-56.3
345.226	-59.46
345.61	-22.63
345.993	-10.42
346.376	-0.93
346.759	24.6
347.142	24.6
347.525	22.8
347.908	68.67
348.291	69.12
348.674	75.68
349.057	102.79
349.44	125.17
349.823	164.04
350.206	158.39
350.588	205.39
350.971	222.11
351.354	213.3
351.737	255.56
352.119	258.5
352.502	259.63
352.884	273.86
353.267	284.94
353.65	279.29
354.032	307.76
354.414	307.08
354.797	327.87
355.179	313.41
355.562	327.42
355.944	320.64
356.326	335.56
356.709	331.94
357.091	344.37
357.473	336.01
357.855	338.95
358.238	354.99
358.62	351.6
359.002	337.82
359.384	328.32
359.766	337.36
360.148	334.88
360.53	327.87
360.912	333.3
361.294	335.56
361.676	322
362.057	322
362.439	331.26
362.821	313.64
363.203	306.18
363.584	330.13
363.966	313.64
364.348	322.68
364.729	298.72
365.111	323.13
365.493	319.29
365.874	310.92
366.256	315.22
366.637	311.6
367.019	310.7
367.4	315.67
367.781	317.7
368.163	316.57
368.544	313.86
368.925	310.47
369.306	343.92
369.688	311.6
370.069	319.06
370.45	316.8
370.831	307.53
371.212	330.13
371.593	316.8
371.974	322.45
372.355	312.73
372.736	306.18
373.117	317.93
373.498	333.52
373.879	318.38
374.26	320.87
374.641	314.77
375.021	307.31
375.402	295.78
375.783	335.78
376.163	319.74
376.544	340.3
376.925	343.01
377.305	303.69
377.686	313.41
378.066	327.65
378.447	311.83
378.827	344.37
379.208	331.71
379.588	321.09
379.968	327.65
380.349	320.87
380.729	340.08
381.109	325.16
381.489	338.49
381.87	332.62
382.25	322.22
382.63	350.02
383.01	350.47
383.39	340.98
383.77	316.57
384.15	339.17
384.53	331.49
384.91	347.76
385.29	333.07
385.67	354.09
386.049	353.63
386.429	322.68
386.809	352.5
387.189	347.31
387.568	366.06
387.948	332.39
388.328	352.5
388.707	353.41
389.087	367.42
389.466	357.7
389.846	351.15
390.225	362.67
390.605	363.58
390.984	351.37
391.363	374.88
391.743	369.91
392.122	360.19
392.501	366.52
392.881	376.01
393.26	359.74
393.639	356.8
394.018	345.27
394.397	358.38
394.776	392.28
395.155	378.04
395.534	385.5
395.913	375.56
396.292	363.58
396.671	373.07
397.05	362.45
397.429	378.94
397.808	369.45
398.186	395.44
398.565	391.15
398.944	390.02
399.323	389.79
399.701	398.15
400.08	376.46
400.458	390.24
400.837	406.51
401.215	367.65
401.594	383.24
401.972	406.51
402.351	417.59
402.729	409.9
403.107	424.59
403.486	419.17
403.864	397.7
404.242	416.23
404.62	411.71
404.999	425.5
405.377	410.81
405.755	420.3
406.133	425.27
406.511	414.42
406.889	428.44
407.267	439.96
407.645	450.36
408.023	446.74
408.401	429.79
408.779	441.99
409.156	442.22
409.534	434.54
409.912	431.37
410.29	448.77
410.667	438.15
411.045	451.03
411.422	455.55
411.8	472.95
412.178	453.75
412.555	449
412.933	478.38
413.31	449.9
413.687	474.08
414.065	488.55
414.442	450.36
414.819	474.08
415.197	500.3
415.574	492.39
415.951	509.56
416.328	477.47
416.705	503.24
417.082	491.48
417.46	476.34
417.837	504.14
418.214	497.36
418.591	516.34
418.967	529.22
419.344	493.74
419.721	503.01
420.098	512.5
420.475	536.91
420.852	495.55
421.228	533.29
421.605	540.3
421.982	543.46
422.358	552.5
422.735	567.19
423.111	536.91
423.488	542.33
423.864	544.59
424.241	565.15
424.617	556.12
424.994	584.36
425.37	572.61
425.746	577.81
426.123	571.26
426.499	571.71
426.875	582.78
427.251	571.03
427.627	566.74
428.003	590.92
428.379	599.28
428.756	584.59
429.132	606.74
429.507	594.31
429.883	619.39
430.259	630.46
430.635	627.07
431.011	634.76
431.387	636.57
431.763	647.86
432.138	639.5
432.514	667.3
432.89	660.07
433.265	661.65
433.641	663.68
434.016	687.41
434.392	688.77
434.767	687.41
435.143	683.8
435.518	703
435.894	710.91
436.269	691.03
436.644	711.59
437.02	710.24
437.395	712.27
437.77	742.55
438.145	746.62
438.52	733.29
438.895	740.97
439.271	734.87
439.646	743.68
440.021	760.63
440.395	784.81
440.77	767.41
441.145	769.67
441.52	793.62
441.895	782.78
442.27	788.88
442.645	803.57
443.019	813.28
443.394	829.78
443.769	808.31
444.143	807.18
444.518	813.96
444.892	823.45
445.267	839.95
445.641	843.79
446.016	856.22
446.39	839.5
446.764	867.52
447.139	858.93
447.513	865.49
447.887	859.16
448.262	877.91
448.636	868.88
449.01	887.41
449.384	905.71
449.758	897.35
450.132	898.93
450.506	909.55
450.88	922.43
451.254	926.28
451.628	931.7
452.002	923.56
452.376	938.93
452.75	945.03
453.123	971.02
453.497	980.06
453.871	951.36
454.244	998.59
454.618	990.68
454.992	1011.24
455.365	1014.18
455.739	1042.43
456.112	1025.71
456.486	1063.45
456.859	1063.22
457.232	1072.26
457.606	1102.54
457.979	1105.48
458.352	1111.13
458.725	1137.79
459.099	1149.55
459.472	1170.79
459.845	1160.17
460.218	1180.28
460.591	1203.1
460.964	1197.91
461.337	1204.91
461.71	1220.73
462.083	1242.88
462.456	1262.31
462.829	1251.69
463.201	1263.89
463.574	1305.02
463.947	1321.29
464.32	1330.56
464.692	1380.73
465.065	1368.98
465.438	1390.67
465.81	1431.57
466.183	1444.23
466.555	1456.2
466.928	1490.1
467.3	1470.44
467.672	1490.55
468.045	1564
468.417	1562.87
468.789	1559.93
469.161	1615.97
469.534	1643.54
469.906	1663.66
470.278	1655.3
470.65	1693.94
471.022	1755.63
471.394	1794.95
471.766	1805.8
472.138	1833.6
472.51	1889.87
472.882	1913.37
473.253	1909.3
473.625	1986.81
473.997	2046.25
474.369	2071.1
474.74	2082.18
475.112	2144.32
475.484	2236.3
475.855	2263.87
476.227	2305.67
476.598	2372.56
476.97	2402.39
477.341	2477.65
477.713	2516.74
478.084	2587.7
478.455	2662.5
478.827	2711.54
479.198	2834.47
479.569	2864.53
479.94	2981.36
480.311	3047.35
480.682	3105.88
481.053	3199.89
481.424	3294.57
481.795	3389.94
482.166	3490.5
482.537	3556.94
482.908	3670.84
483.279	3730.5
483.65	3849.14
484.021	3969.13
484.391	4021.11
484.762	4135.68
485.133	4251.39
485.503	4318.73
485.874	4465.39
486.244	4538.16
486.615	4724.82
486.985	4773.63
487.356	4925.04
487.726	5029.44
488.097	5138.82
488.467	5269.44
488.837	5419.04
489.207	5511.92
489.578	5654.96
489.948	5703.1
490.318	5928.4
490.688	5978.35
491.058	6180.37
491.428	6244.33
491.798	6420.37
492.168	6616.75
492.538	6743.75
492.908	6865.33
493.278	6916.17
493.648	6992.1
494.017	7213.12
494.387	7283.62
494.757	7481.58
495.126	7604.29
495.496	7656.72
495.866	7786.43
496.235	7924.74
496.605	8004.28
496.974	8150.72
497.344	8239.98
497.713	8303.48
498.082	8431.16
498.452	8618.28
498.821	8668.9
499.19	8734.66
499.559	8892.85
499.928	9048.32
500.298	9016.46
500.667	9163.57
501.036	9198.15
501.405	9379.39
501.774	9378.93
502.143	9521.76
502.512	9540.96
502.88	9695.54
503.249	9733.28
503.618	9780.28
503.987	9870.67
504.356	9931.46
504.724	10054.85
505.093	10105.92
505.462	10160.83
505.83	10236.09
506.199	10333.49
506.567	10477.44
506.936	10529.64
507.304	10650.31
507.672	10641.27
508.041	10763.76
508.409	10828.84
508.777	10921.27
509.145	11020.92
509.514	11031.55
509.882	11030.87
510.25	11051.88
510.618	11147.93
510.986	11083.3
511.354	11265.66
511.722	11286.68
512.09	11458.88
512.458	11334.14
512.826	11444.42
513.193	11440.35
513.561	11602.6
513.929	11524.64
514.297	11703.84
514.664	11725.54
515.032	11751.3
515.4	11865.42
515.767	11836.72
516.135	11848.25
516.502	11801.7
516.869	11984.97
517.237	12075.59
517.604	11967.79
517.972	12121.46
518.339	12050.5
518.706	12097.51
519.073	12119.88
519.44	12153.32
519.808	12259.54
520.175	12204.85
520.542	12351.51
520.909	12248.24
521.276	12329.59
521.643	12367.56
522.009	12438.29
522.376	12492.3
522.743	12464.73
523.11	12575.69
523.477	12611.39
523.843	12612.07
524.21	12729.81
524.577	12701.56
524.943	12723.25
525.31	12777.04
525.676	12845.06
526.043	12861.1
526.409	12906.53
526.776	12844.83
527.142	12910.14
527.508	12911.95
527.874	12954.43
528.241	12933.87
528.607	12949.46
528.973	13005.73
529.339	12938.84
529.705	13057.48
530.071	13005.96
530.437	13013.87
530.803	12986.75
531.169	13068.1
531.535	12967.99
531.901	12987.2
532.267	12967.77
532.632	13008.22
532.998	12990.82
533.364	12946.3
533.73	12961.66
534.095	12985.39
534.461	12989.69
534.826	12990.59
535.192	12909.69
535.557	13015.22
535.923	12910.14
536.288	12901.55
536.653	12930.25
537.019	12835.11
537.384	12755.34
537.749	12842.12
538.114	12804.38
538.479	12774.78
538.845	12920.08
539.21	12669.7
539.575	12684.61
539.94	12675.8
540.305	12722.8
540.67	12571.39
541.034	12564.61
541.399	12558.51
541.764	12561.45
542.129	12579.98
542.494	12585.4
542.858	12480.1
543.223	12457.72
543.587	12497.95
543.952	12429.93
544.316	12381.57
544.681	12363.04
545.045	12346.77
545.41	12297.73
545.774	12246.43
546.138	12271.74
546.503	12243.27
546.867	12102.03
547.231	12161.91
547.595	12161.69
547.959	12123.72
548.324	12017.06
548.688	12083.5
549.052	11967.57
549.416	11957.85
549.779	11916.49
550.143	11936.83
550.507	11953.33
550.871	11858.19
551.235	11844.86
551.599	11843.5
551.962	11789.94
552.326	11754.01
552.689	11767.12
553.053	11713.11
553.417	11712.43
553.78	11781.81
554.143	11697.29
554.507	11725.09
554.87	11669.5
555.234	11755.59
555.597	11587.69
555.96	11639.89
556.323	11622.94
556.686	11560.8
557.05	11589.95
557.413	11615.94
557.776	11603.06
558.139	11598.76
558.502	11528.71
558.865	11481.25
559.228	11539.78
559.59	11532.78
559.953	11505.21
560.316	11609.16
560.679	11585.66
561.041	11564.87
561.404	11569.84
561.767	11616.16
562.129	11523.28
562.492	11643.96
562.854	11586.79
563.217	11509.27
563.579	11516.05
563.941	11622.94
564.304	11565.54
564.666	11661.36
565.028	11629.72
565.39	11634.24
565.753	11646.45
566.115	11711.53
566.477	11608.71
566.839	11684.86
567.201	11671.3
567.563	11659.78
567.925	11729.83
568.287	11651.87
568.648	11741.13
569.01	11736.16
569.372	11823.84
569.734	11710.62
570.095	11793.11
570.457	11788.14
570.819	11765.54
571.18	11789.49
571.542	11826.1
571.903	11799.44
572.265	11883.28
572.626	11870.62
572.987	11927.79
573.349	11986.1
573.71	11973.89
574.071	11817.06
574.432	11879.21
574.794	11948.13
575.155	11922.82
575.516	11947.68
575.877	11893.67
576.238	11937.28
576.599	11998.3
576.96	12021.8
577.32	12005.31
577.681	11957.85
578.042	11988.81
578.403	11930.51
578.763	11972.76
579.124	11990.16
579.485	12004.63
579.845	12023.16
580.206	11972.31
580.566	11997.62
580.927	12004.18
581.287	12011.63
581.648	11825.42
582.008	11951.3
582.368	11961.47
582.728	11936.38
583.089	12003.27
583.449	11999.43
583.809	12036.94
584.169	11975.7
584.529	11884.41
584.889	12029.26
585.249	11897.74
585.609	11885.08
585.969	11919.66
586.329	11821.81
586.688	11985.19
587.048	11789.04
587.408	11856.38
587.768	11904.52
588.127	11878.76
588.487	11853.9
588.846	11886.66
589.206	11830.17
589.565	11819.32
589.925	11912.88
590.284	11820.23
590.643	11843.05
591.003	11852.32
591.362	11880.34
591.721	11709.72
592.08	11762.83
592.44	11723.28
592.799	11883.05
593.158	11807.34
593.517	11831.3
593.876	11798.76
594.235	11746.56
594.593	11777.52
594.952	11838.3
595.311	11723.28
595.67	11787.01
596.029	11772.09
596.387	11767.57
596.746	11842.15
597.104	11715.6
597.463	11718.31
597.822	11757.4
598.18	11695.03
598.538	11693.9
598.897	11783.16
599.255	11619.1
599.613	11825.2
599.972	11682.83
600.33	11722.83
600.688	11642.83
601.046	11760.79
601.404	11726.67
601.762	11744.52
602.12	11715.14
602.478	11702.26
602.836	11851.19
603.194	11754.92
603.552	11735.71
603.91	11672.21
604.268	11737.52
604.625	11701.81
604.983	11736.16
605.341	11625.88
605.698	11731.87
606.056	11715.14
606.413	11757.4
606.771	11760.57
607.128	11773.22
607.485	11670.4
607.843	11693.68
608.2	11786.55
608.557	11788.81
608.914	11769.38
609.272	11803.28
609.629	11891.18
609.986	11863.61
610.343	11769.15
610.7	11879.89
611.057	11881.24
611.414	11815.25
611.771	11826.1
612.127	11921.69
612.484	11865.42
612.841	11980.9
613.198	11818.42
613.554	11845.31
613.911	11889.6
614.267	11911.97
614.624	11801.47
614.98	11968.24
615.337	12012.54
615.693	11923.27
616.05	11987.68
616.406	11982.03
616.762	11981.8
617.118	11972.09
617.475	12028.81
617.831	11907.68
618.187	12016.15
618.543	11990.62
618.899	12039.88
619.255	11999.2
619.611	12099.99
619.967	12130.95
620.323	12073.33
620.678	11974.57
621.034	12061.8
621.39	12017.51
621.746	11982.48
622.101	12182.25
622.457	12035.36
622.812	12093.21
623.168	12081.24
623.523	12092.99
623.879	12219.31
624.234	12032.42
624.589	12109.26
624.945	12114.68
625.3	12131.4
625.655	12104.51
626.01	12082.14
626.365	12082.14
626.72	12060.9
627.075	12050.95
627.43	12070.61
627.785	11996.72
628.14	12049.37
628.495	12064.97
628.85	12015.93
629.205	12018.41
629.559	12052.76
629.914	11936.61
630.269	12044.17
630.623	12005.98
630.978	11940.22
631.332	12033.78
631.687	12000.11
632.041	11975.25
632.396	12011.86
632.75	11853.9
633.104	11951.75
633.459	11905.42
633.813	11872.2
634.167	11982.03
634.521	11914.46
634.875	11844.63
635.229	11810.06
635.583	11812.99
635.937	11760.34
636.291	11809.6
636.645	11713.34
636.999	11716.05
637.352	11840.56
637.706	11594.47
638.06	11699.55
638.413	11693.9
638.767	11644.41
639.121	11647.58
639.474	11574.81
639.828	11619.33
640.181	11614.36
640.534	11644.19
640.888	11570.29
641.241	11572.77
641.594	11595.37
641.947	11666.11
642.301	11542.27
642.654	11615.03
643.007	11585.88
643.36	11592.21
643.713	11517.64
644.066	11517.86
644.419	11495.94
644.771	11476.73
645.124	11381.59
645.477	11344.76
645.83	11273.57
646.182	11223.41
646.535	11198.55
646.888	11223.63
647.24	11151.99
647.593	11196.74
647.945	11111.77
648.298	11097.76
648.65	11136.18
649.002	11063.64
649.355	11097.99
649.707	11100.7
650.059	11178.21
650.411	11341.37
650.763	11363.97
651.115	11404.19
651.467	11323.74
651.819	11389.73
652.171	11339.33
652.523	11403.74
652.875	11374.81
653.227	11388.37
653.578	11464.3
653.93	11470.4
654.282	11391.54
654.633	11344.08
654.985	11399.45
655.337	11336.17
655.688	11314.7
656.039	11396.28
656.391	11375.04
656.742	11373.01
657.094	11366.23
657.445	11438.54
657.796	11351.76
658.147	11344.53
658.498	11370.75
658.849	11344.76
659.2	11452.33
659.551	11348.37
659.902	11410.97
660.253	11481.7
660.604	11366
660.955	11434.47
661.306	11436.96
661.656	11410.07
662.007	11415.72
662.358	11393.57
662.708	11423.4
663.059	11438.99
663.409	11359.22
663.76	11480.35
664.11	11385.44
664.461	11407.58
664.811	11404.19
665.161	11422.27
665.511	11374.14
665.862	11423.85
666.212	11416.62
666.562	11449.84
666.912	11420.46
667.262	11412.78
667.612	11368.03
667.962	11448.26
668.312	11434.7
668.662	11431.99
669.011	11448.26
669.361	11349.05
669.711	11316.51
670.06	11361.03
670.41	11350.86
670.76	11410.97
671.109	11390.86
671.459	11358.77
671.808	11354.02
672.157	11385.89
672.507	11282.16
672.856	11385.66
673.205	11324.87
673.554	11286.23
673.904	11302.05
674.253	11430.86
674.602	11323.74
674.951	11110.41
675.3	11128.72
675.649	11247.36
675.998	11194.48
676.346	11226.12
676.695	11279.68
677.044	11149.74
677.393	11222.5
677.741	11192.45
678.09	11206.46
678.438	11144.54
678.787	11232.67
679.135	11216.63
679.484	11168.04
679.832	11235.83
680.181	11093.24
680.529	11075.39
680.877	11060.92
681.225	11084.43
681.573	11131.88
681.922	11029.06
682.27	10982.73
682.618	10965.11
682.966	11033.13
683.314	10953.81
683.661	10943.86
684.009	10852.79
684.357	10902.06
684.705	10788.39
685.053	10793.36
685.4	10808.73
685.748	10753.81
686.095	10732.57
686.443	10706.58
686.79	10733.47
687.138	10694.38
687.485	10681.27
687.832	10609.86
688.18	10611.67
688.527	10614.83
688.874	10596.53
689.221	10577.77
689.568	10519.24
689.915	10499.13
690.262	10484.67
690.609	10410.55
690.956	10383.88
691.303	10407.38
691.65	10353.6
691.997	10329.87
692.344	10308.85
692.69	10276.54
693.037	10230.89
693.383	10209.19
693.73	10187.5
694.077	10078.8
694.423	10068.41
694.769	10057.79
695.116	10077.9
695.462	10033.83
695.808	10061.18
696.155	9976.66
696.501	9898.24
696.847	9905.25
697.193	9880.16
697.539	9807.85
697.885	9694.18
698.231	9649.66
698.577	9790
698.923	9639.04
699.269	9632.71
699.614	9599.04
699.96	9547.29
700.306	9568.31
700.651	9518.37
700.997	9418.71
701.342	9491.7
701.688	9441.76
702.033	9329.22
702.379	9384.58
702.724	9329.9
703.069	9358.14
703.415	9255.55
703.76	9225.49
704.105	9205.15
704.45	9265.72
704.795	9112.27
705.14	9126.06
705.485	9043.8
705.83	9115.66
706.175	9061.2
706.52	8971.94
706.865	9025.5
707.209	8926.06
707.554	8951.15
707.899	8974.88
708.243	8825.73
708.588	8904.37
708.932	8853.3
709.277	8830.7
709.621	8816.46
709.966	8741.44
710.31	8774.2
710.654	8630.25
710.998	8719.06
711.342	8696.69
711.687	8608.33
712.031	8616.02
712.375	8592.97
712.719	8652.85
713.063	8586.41
713.407	8548.67
713.75	8544.15
714.094	8522.69
714.438	8499.41
714.782	8456.25
715.125	8489.24
715.469	8472.52
715.812	8368.11
716.156	8398.17
716.499	8415.57
716.843	8370.83
717.186	8314.1
717.53	8399.98
717.873	8347.77
718.216	8335.57
718.559	8297.83
718.902	8298.74
719.246	8268.91
719.589	8261
719.932	8181.23
720.275	8219.19
720.617	8202.02
720.96	8202.24
721.303	8211.06
721.646	8217.16
721.989	8203.6
722.331	8286.08
722.674	8157.5
723.016	8203.82
723.359	8214.45
723.701	8185.75
724.044	8096.93
724.386	8081.57
724.729	8190.04
725.071	8136.03
725.413	8139.42
725.755	8145.97
726.097	8143.03
726.439	8097.16
726.782	8065.97
727.124	8135.13
727.465	8065.75
727.807	8075.69
728.149	8072.75
728.491	8021.68
728.833	8123.6
729.175	8022.13
729.516	8024.62
729.858	7950.5
730.199	8072.53
730.541	8061.91
730.882	8010.38
731.224	8061.91
731.565	8000.89
731.906	8054
732.248	7992.3
732.589	7936.26
732.93	7965.86
733.271	7935.81
733.612	7993.21
733.953	8000.89
734.294	7968.12
734.635	7921.8
734.976	8037.5
735.317	7966.54
735.658	7975.36
735.999	7966.54
736.339	7992.53
736.68	7962.25
737.021	8019.87
737.361	8000.67
737.702	8044.28
738.042	8017.16
738.383	7958.41
738.723	8033.88
739.063	7998.41
739.404	8090.83
739.744	8072.98
740.084	8027.33
740.424	8106.88
740.764	8045.86
741.104	8093.32
741.444	8048.35
741.784	8046.99
742.124	8162.02
742.464	8201.79
742.804	8158.63
743.143	8187.55
743.483	8183.71
743.823	8164.05
744.162	8210.38
744.502	8222.13
744.841	8250.6
745.181	8345.29
745.52	8380.32
745.86	8357.94
746.199	8422.35
746.538	8394.55
746.877	8457.6
747.216	8565.85
747.556	8472.97
747.895	8615.11
748.234	8600.42
748.573	8705.28
748.911	8654.43
749.25	8729.01
749.589	8743.24
749.928	8857.37
750.267	8915.44
750.605	9047.19
750.944	9045.16
751.283	9080.86
751.621	9250.58
751.96	9219.62
752.298	9320.63
752.636	9411.93
752.975	9527.86
753.313	9527.63
753.651	9682.2
753.989	9727.4
754.327	9852.59
754.666	9966.49
755.004	10017.11
755.342	10286.03
755.679	10310.44
756.017	10429.53
756.355	10492.8
756.693	10676.53
757.031	10823.64
757.368	10951.1
757.706	11053.47
758.044	11189.06
758.381	11410.52
758.719	11494.36
759.056	11682.38
759.394	11801.24
759.731	11839.89
760.068	12061.58
760.405	12174.11
760.743	12273.1
761.08	12568.68
761.417	12630.83
761.754	12892.74
762.091	13003.02
762.428	13095.22
762.765	13214.09
763.102	13476.23
763.438	13534.76
763.775	13712.83
764.112	13885.26
764.449	14080.51
764.785	14061.97
765.122	14183.55
765.458	14443.21
765.795	14555.3
766.131	14664.22
766.467	14774.95
766.804	14915.51
767.14	15072.8
767.476	15194.6
767.812	15322.05
768.148	15456.51
768.485	15553.91
768.821	15611.99
769.157	15749.61
769.492	15912.32
769.828	16051.3
770.164	16005.88
770.5	16173.56
770.836	16280.45
771.171	16288.13
771.507	16433.89
771.842	16429.6
772.178	16558.86
772.513	16731.74
772.849	16770.83
773.184	16867.1
773.519	16904.61
773.855	16888.57
774.19	17073.87
774.525	17056.25
774.86	17231.84
775.195	17264.38
775.53	17311.61
775.865	17179.63
776.2	17288.33
776.535	17302.79
776.87	17375.33
777.205	17436.35
777.539	17401.55
777.874	17562.45
778.209	17408.33
778.543	17536.01
778.878	17503.69
779.212	17613.97
779.547	17556.57
779.881	17605.38
780.215	17544.37
780.55	17665.04
780.884	17593.41
781.218	17660.75
781.552	17670.69
781.886	17585.27
782.22	17597.93
782.554	17591.15
782.888	17553.41
783.222	17558.15
783.556	17549.34
783.889	17528.32
784.223	17471.6
784.557	17460.08
784.89	17560.87
785.224	17414.2
785.557	17422.34
785.891	17413.98
786.224	17435.9
786.558	17397.03
786.891	17251.72
787.224	17252.4
787.557	17207.2
787.891	17272.74
788.224	17313.64
788.557	17287.43
788.89	17272.51
789.223	17329.23
789.556	17143.93
789.888	17199.07
790.221	17160.42
790.554	17044.95
790.887	17088.56
791.219	17098.05
791.552	16911.39
791.884	17014.44
792.217	17004.72
792.549	16764.28
792.882	16811.51
793.214	16735.35
793.546	16823.03
793.879	16710.94
794.211	16632.75
794.543	16756.59
794.875	16723.15
795.207	16743.26
795.539	16680.89
795.871	16715.24
796.203	16528.12
796.535	16520.89
796.867	16528.12
797.198	16423.72
797.53	16479.31
797.862	16262.59
798.193	16385.76
798.525	16229.6
798.856	16295.36
799.188	16089.49
799.519	16125.42
799.85	15985.77
800.182	16133.33
800.513	16150.96
800.844	16051.53
801.175	16038.19
801.506	16044.3
801.837	15915.03
802.168	15865.77
802.499	15867.35
802.83	15677.53
803.161	15815.83
803.491	15687.24
803.822	15821.02
804.153	15630.75
804.483	15514.14
804.814	15481.6
805.145	15441.15
805.475	15501.49
805.805	15442.96
806.136	15443.41
806.466	15501.71
806.796	15441.6
807.126	15330.19
807.457	15230.31
807.787	15256.29
808.117	15203.41
808.447	15149.63
808.777	15258.33
809.107	15116.41
809.436	15094.49
809.766	15036.64
810.096	15011.33
810.426	14975.17
810.755	15000.48
811.085	15066.02
811.414	14999.58
811.744	14828.96
812.073	14798.68
812.403	14915.51
812.732	14802.29
813.061	14740.6
813.39	14664.44
813.719	14606.82
814.049	14676.2
814.378	14608.63
814.707	14624.9
815.036	14593.03
815.365	14446.37
815.693	14508.74
816.022	14432.81
816.351	14424.68
816.68	14350.78
817.008	14426.94
817.337	14280.5
817.665	14231.46
817.994	14322.31
818.322	14323.66
818.651	14176.77
818.979	14099.26
819.307	14244.79
819.636	14134.74
819.964	14061.07
820.292	14092.03
820.62	14153.5
820.948	14001.64
821.276	14161.63
821.604	14007.06
821.932	14113.05
822.259	14051.13
822.587	14033.05
822.915	14067.85
823.243	14068.98
823.57	14043.9
823.898	14105.59
824.225	14016.78
824.553	14049.77
824.88	14030.79
825.207	14003.9
825.535	13990.34
825.862	14055.2
826.189	14026.5
826.516	14094.74
826.843	14091.35
827.17	14153.95
827.497	14147.4
827.824	14113.72
828.151	14121.86
828.478	14041.18
828.805	14185.81
829.131	14087.51
829.458	14037.34
829.785	14004.35
830.111	14006.84
830.438	14101.97
830.764	14031.24
831.09	14130.9
831.417	13972.26
831.743	14174.51
832.069	14056.33
832.395	13974.07
832.722	14009.77
833.048	13981.07
833.374	13962.09
833.7	13907.85
834.026	13957.57
834.351	13925.03
834.677	13960.51
835.003	14001.19
835.329	13935.42
835.654	13906.5
835.98	13907.63
836.306	13888.87
836.631	13838.93
836.956	13896.78
837.282	13831.7
837.607	13844.58
837.932	13740.4
838.258	13822.66
838.583	13767.29
838.908	13701.31
839.233	13770.46
839.558	13631.7
839.883	13643.68
840.208	13541.99
840.533	13668.09
840.858	13570.91
841.182	13606.39
841.507	13492.95
841.832	13431.26
842.156	13471.93
842.481	13476.23
842.805	13400.52
843.13	13430.58
843.454	13364.59
843.778	13363.01
844.103	13223.58
844.427	13204.82
844.751	13324.14
845.075	13238.95
845.399	13192.39
845.723	13091.15
846.047	13165.95
846.371	13004.6
846.695	13059.06
847.019	12959.86
847.343	12885.28
847.666	12797.6
847.99	12760.77
848.313	12758.73
848.637	12679.19
848.96	12717.38
849.284	12577.04
849.607	12537.04
849.931	12563.26
850.254	12426.99
850.577	12406.88
850.9	12341.34
851.223	12337.27
851.546	12233.55
851.869	12204.4
852.192	12264.51
852.515	12119.65
852.838	12027.45
853.161	12079.88
853.483	11973.22
853.806	11933.22
854.129	11868.59
854.451	11894.8
854.774	11775.26
855.096	11753.56
855.419	11675.14
855.741	11703.17
856.063	11591.53
856.385	11553.57
856.708	11527.13
857.03	11540.46
857.352	11501.59
857.674	11464.98
857.996	11475.38
858.318	11386.11
858.64	11427.69
858.961	11345.66
859.283	11314.48
859.605	11261.6
859.926	11282.16
860.248	11194.03
860.57	11188.83
860.891	11195.38
861.212	11121.71
861.534	11054.37
861.855	11050.3
862.176	11051.66
862.498	10992.23
862.819	11022.28
863.14	11023.64
863.461	11073.13
863.782	10964.88
864.103	10934.37
864.424	10938.89
864.745	10926.92
865.065	10911.32
865.386	10880.82
865.707	10855.96
866.027	10882.4
866.348	10780.48
866.668	10809.41
866.989	10764.66
867.309	10776.41
867.63	10769.41
867.95	10717.88
868.27	10654.61
868.59	10740.25
868.91	10717.88
869.23	10630.65
869.55	10561.73
869.87	10604.89
870.19	10655.51
870.51	10591.78
870.83	10587.72
871.15	10543.2
871.469	10542.97
871.789	10523.54
872.109	10487.38
872.428	10458.68
872.748	10448.96
873.067	10502.29
873.386	10479.24
873.706	10415.97
874.025	10347.5
874.344	10298.91
874.663	10375.07
874.982	10322.19
875.301	10293.71
875.62	10234.5
875.939	10360.83
876.258	10317.89
876.577	10162.87
876.896	10229.31
877.214	10222.53
877.533	10139.14
877.852	10174.17
878.17	10132.81
878.489	10171.91
878.807	10129.42
879.125	10104.79
879.444	10146.82
879.762	10101.4
880.08	10068.41
880.398	10036.54
880.716	10072.48
881.034	10025.24
881.352	10051.68
881.67	9982.31
881.988	9945.02
882.306	9894.63
882.624	9932.82
882.941	9876.55
883.259	9849.88
883.577	9880.62
883.894	9822.09
884.212	9814.85
884.529	9812.82
884.846	9748.87
885.164	9839.94
885.481	9608.08
885.798	9725.82
886.115	9641.75
886.432	9670
886.75	9596.1
887.067	9665.48
887.383	9554.97
887.7	9560.4
888.017	9486.05
888.334	9553.39
888.651	9523.56
888.967	9495.09
889.284	9388.43
889.6	9378.93
889.917	9380.29
890.233	9340.74
890.55	9284.47
890.866	9268.65
891.182	9282.21
891.498	9153.18
891.815	9166.74
892.131	9183.69
892.447	9126.06
892.763	9141.43
893.079	9091.03
893.395	9074.08
893.71	9025.72
894.026	9040.86
894.342	9015.55
894.657	8893.3
894.973	8952.5
895.289	8879.51
895.604	8912.05
895.92	8820.98
896.235	8795.22
896.55	8743.7
896.865	8722.45
897.181	8715.9
897.496	8712.06
897.811	8713.41
898.126	8676.13
898.441	8640.87
898.756	8556.81
899.071	8555.68
899.386	8547.09
899.7	8489.24
900.015	8384.84
900.33	8378.96
900.644	8362.24
900.959	8345.52
901.273	8362.01
901.588	8281.79
901.902	8364.27
902.216	8259.19
902.531	8260.32
902.845	8207.21
903.159	8073.66
903.473	8129.7
903.787	8096.03
904.101	8041.12
904.415	8012.42
904.729	7993.43
905.042	8033.21
905.356	7915.47
905.67	7913.21
905.984	7850.84
906.297	7874.34
906.611	7764.06
906.924	7760.67
907.237	7786.89
907.551	7748.47
907.864	7743.5
908.177	7709.83
908.491	7634.57
908.804	7593.67
909.117	7530.85
909.43	7526.33
909.743	7466.67
910.056	7473.45
910.368	7503.05
910.681	7429.83
910.994	7342.15
911.307	7357.74
911.619	7312.32
911.932	7265.09
912.244	7281.81
912.557	7228.48
912.869	7212.66
913.181	7168.14
913.494	7194.81
913.806	7155.72
914.118	7041.37
914.43	7017.41
914.742	7019
915.054	7008.38
915.366	6989.17
915.678	6932.9
915.99	6934.93
916.302	6875.05
916.613	6855.84
916.925	6884.76
917.236	6837.98
917.548	6790.08
917.859	6675.28
918.171	6679.8
918.482	6703.98
918.794	6687.03
919.105	6670.08
919.416	6576.75
919.727	6557.99
920.038	6613.81
920.349	6536.98
920.66	6491.1
920.971	6490.87
921.282	6501.27
921.593	6413.59
921.903	6377.66
922.214	6381.05
922.525	6319.13
922.835	6355.74
923.146	6296.08
923.456	6277.09
923.767	6207.27
924.077	6210.88
924.387	6205.68
924.697	6213.37
925.008	6133.14
925.318	6093.6
925.628	6096.08
925.938	6089.08
926.248	6040.72
926.558	6017.67
926.867	6029.42
927.177	5975.86
927.487	5944.67
927.796	5913.04
928.106	5885.92
928.416	5842.3
928.725	5875.3
929.034	5813.15
929.344	5799.59
929.653	5808.86
929.962	5764.79
930.271	5743.1
930.581	5661.97
930.89	5633.04
931.199	5604.8
931.508	5627.17
931.817	5615.64
932.125	5620.16
932.434	5595.08
932.743	5521.86
933.051	5480.51
933.36	5446.83
933.669	5489.09
933.977	5404.8
934.286	5478.47
934.594	5421.98
934.902	5376.55
935.21	5360.06
935.519	5340.17
935.827	5272.6
936.135	5335.2
936.443	5306.05
936.751	5242.77
937.059	5226.5
937.367	5203.45
937.674	5198.71
937.982	5187.63
938.29	5151.93
938.597	5097.46
938.905	5070.57
939.213	5066.96
939.52	5032.83
939.827	5021.31
940.135	5008.65
940.442	4979.5
940.749	5003.46
941.056	4940.86
941.363	4903.57
941.67	4920.29
941.977	4870.8
942.284	4889.79
942.591	4825.61
942.898	4824.25
943.205	4835.78
943.511	4779.06
943.818	4761.2
944.125	4772.28
944.431	4694.31
944.738	4741.54
945.044	4676.91
945.35	4635.78
945.657	4556.69
945.963	4633.07
946.269	4577.48
946.575	4602.79
946.881	4578.83
947.187	4571.15
947.493	4507.65
947.799	4482.11
948.105	4484.83
948.41	4448.22
948.716	4455.9
949.022	4417.26
949.327	4436.69
949.633	4378.61
949.938	4384.72
950.244	4341.1
950.549	4324.6
950.854	4298.39
951.16	4294.32
951.465	4296.58
951.77	4264.27
952.075	4246.41
952.38	4198.73
952.685	4219.52
952.99	4199.64
953.294	4155.34
953.599	4145.85
953.904	4147.66
954.209	4105.4
954.513	4120.54
954.818	4118.28
955.122	4130.71
955.426	4069.47
955.731	4021.33
956.035	4061.11
956.339	4022.92
956.643	4022.92
956.948	3979.3
957.252	3947.21
957.556	3920.77
957.86	3909.7
958.163	3937.04
958.467	3887.1
958.771	3881.9
959.075	3847.78
959.378	3856.14
959.682	3825.18
959.985	3763.04
960.289	3810.94
960.592	3739.53
960.896	3738.86
961.199	3728.24
961.502	3725.98
961.805	3715.13
962.108	3670.38
962.411	3652.08
962.714	3629.25
963.017	3691.63
963.32	3634
963.623	3627.9
963.926	3630.84
964.228	3584.06
964.531	3575.47
964.833	3512.42
965.136	3482.59
965.438	3528.69
965.741	3497.96
966.043	3510.16
966.345	3450.5
966.648	3472.65
966.95	3455.25
967.252	3402.59
967.554	3399.88
967.856	3376.61
968.158	3366.21
968.46	3362.37
968.761	3336.83
969.063	3353.78
969.365	3305.2
969.666	3309.26
969.968	3271.75
970.269	3275.37
970.571	3280.11
970.872	3307.23
971.174	3240.11
971.475	3255.93
971.776	3202.37
972.077	3195.14
972.378	3203.5
972.679	3157.4
972.98	3129.83
973.281	3117.63
973.582	3140
973.883	3116.73
974.183	3054.35
974.484	3095.03
974.785	3083.51
975.085	3093.22
975.386	3045.32
975.686	3019.78
975.986	2983.17
976.287	3014.13
976.587	2989.05
976.887	2970.74
977.187	2968.71
977.487	2949.72
977.787	2956.28
978.087	2909.5
978.387	2926.45
978.687	2899.1
978.987	2847.81
979.286	2873.79
979.586	2875.15
979.885	2860.01
980.185	2822.27
980.484	2862.27
980.784	2816.62
981.083	2812.78
981.382	2806.45
981.682	2777.75
981.981	2754.25
982.28	2742.05
982.579	2727.36
982.878	2733.46
983.177	2715.83
983.475	2730.07
983.774	2715.15
984.073	2682.84
984.372	2637.19
984.67	2641.26
984.969	2661.82
985.267	2669.51
985.566	2640.58
985.864	2596.74
986.162	2630.41
986.461	2593.8
986.759	2581.15
987.057	2531.2
987.355	2561.71
987.653	2544.99
987.951	2517.19
988.249	2506.57
988.547	2530.75
988.844	2482.39
989.142	2499.12
989.44	2467.25
989.737	2450.98
990.035	2454.6
990.332	2456.18
990.63	2440.59
990.927	2372.11
991.224	2379.8
991.521	2382.96
991.819	2339.57
992.116	2354.94
992.413	2347.03
992.71	2312.91
993.006	2329.18
993.303	2336.86
993.6	2300.25
993.897	2315.84
994.193	2296.41
994.49	2286.92
994.787	2311.78
995.083	2308.84
995.379	2257.09
995.676	2254.15
995.972	2230.2
996.268	2250.53
996.565	2217.09
996.861	2189.52
997.157	2185.68
997.453	2195.39
997.749	2171.67
998.044	2163.3
998.34	2145
998.636	2130.09
998.932	2114.49
999.227	2104.32
999.523	2093.93
999.818	2098.67
1000.114	2062.74
1000.409	2085.57
1000.704	2066.13
1001	2086.47
1001.295	2020.26
1001.59	2051.22
1001.885	2035.17
1002.18	2019.58
1002.475	1997.21
1002.77	1953.59
1003.065	1997.66
1003.359	1939.81
1003.654	1911.11
1003.949	1978.68
1004.243	1921.5
1004.538	1940.94
1004.832	1906.59
1005.127	1933.03
1005.421	1911.33
1005.715	1890.09
1006.009	1866.59
1006.304	1844.89
1006.598	1833.6
1006.892	1856.87
1007.186	1827.72
1007.48	1814.39
1007.773	1799.02
1008.067	1789.3
1008.361	1792.24
1008.655	1749.3
1008.948	1784.56
1009.242	1771.9
1009.535	1757.89
1009.829	1739.14
1010.122	1742.75
1010.415	1728.74
1010.708	1668.4
1011.001	1714.28
1011.295	1697.33
1011.588	1637.67
1011.881	1677.89
1012.173	1692.81
1012.466	1658.23
1012.759	1634.28
1013.052	1665.01
1013.344	1625.01
1013.637	1607.61
1013.93	1611
1014.222	1580.5
1014.514	1585.92
1014.807	1577.33
1015.099	1560.16
1015.391	1561.29
1015.683	1557.9
1015.976	1526.26
1016.268	1512.93
1016.56	1542.76
1016.851	1497.56
1017.143	1486.71
1017.435	1500.95
1017.727	1480.84
1018.018	1479.71
1018.31	1451.91
1018.602	1446.71
1018.893	1435.19
1019.185	1450.1
1019.476	1406.71
1019.767	1460.5
1020.058	1410.56
1020.35	1373.72
1020.641	1389.99
1020.932	1386.15
1021.223	1367.85
1021.514	1365.36
1021.804	1340.73
1022.095	1313.84
1022.386	1353.61
1022.677	1331.01
1022.967	1317.68
1023.258	1315.42
1023.548	1298.47
1023.839	1273.84
1024.129	1279.03
1024.419	1296.43
1024.709	1265.25
1025	1269.77
1025.29	1262.54
1025.58	1232.03
1025.87	1246.27
1026.16	1231.13
1026.449	1253.05
1026.739	1212.6
1027.029	1210.34
1027.319	1208.53
1027.608	1188.19
1027.898	1207.4
1028.187	1160.85
1028.477	1151.81
1028.766	1148.87
1029.055	1157.23
1029.344	1142.31
1029.634	1122.88
1029.923	1150.22
1030.212	1122.65
1030.501	1135.99
1030.79	1134.63
1031.078	1100.06
1031.367	1069.1
1031.656	1102.77
1031.945	1079.04
1032.233	1063.9
1032.522	1060.06
1032.81	1065.93
1033.099	1055.54
1033.387	1045.37
1033.675	1034.29
1033.963	1045.82
1034.251	1050.11
1034.54	1020.28
1034.828	1020.28
1035.116	986.39
1035.403	991.58
1035.691	980.28
1035.979	988.19
1036.267	995.88
1036.554	990
1036.842	966.27
1037.129	963.79
1037.417	962.21
1037.704	968.99
1037.992	943.9
1038.279	941.64
1038.566	956.56
1038.853	956.56
1039.14	956.56
