Data from hue_100_FLMS001491_00087.txt Node
Date: Tue Feb 07 17:03:46 GMT 2017
User: dcchb
Spectrometer: FLMS00149
Trigger mode: 0
Integration Time (sec): 2.000000E-2
Scans to average: 10
Electric dark correction enabled: true
Nonlinearity correction enabled: false
Boxcar width: 0
XAxis mode: Wavelengths
Number of Pixels in Spectrum: 2048
>>>>>Begin Spectral Data<<<<<
341.393	-13.09
341.776	-13.09
342.16	-13.09
342.543	-61.45
342.927	-61.91
343.31	-84.96
343.693	-71.4
344.077	-53.77
344.46	-41.57
344.843	-58.97
345.226	-30.95
345.61	-23.49
345.993	-29.82
346.376	-16.93
346.759	10.86
347.142	17.64
347.525	44.98
347.908	68.94
348.291	86.57
348.674	87.7
349.057	95.15
349.44	118.2
349.823	160.91
350.206	144.64
350.588	205.88
350.971	203.17
351.354	244.53
351.737	231.65
352.119	252.89
352.502	268.26
352.884	296.28
353.267	299.22
353.65	282.04
354.032	289.95
354.414	286.56
354.797	311.19
355.179	346.9
355.562	348.25
355.944	336.5
356.326	332.66
356.709	332.66
357.091	348.93
357.473	346.9
357.855	349.16
358.238	325.2
358.62	335.82
359.002	340.57
359.384	337.63
359.766	334.24
360.148	360
360.53	340.12
360.912	348.48
361.294	345.54
361.676	303.28
362.057	318.65
362.439	308.03
362.821	343.73
363.203	324.53
363.584	320.68
363.966	320.01
364.348	321.59
364.729	322.72
365.111	325.43
365.493	323.62
365.874	332.21
366.256	313.68
366.637	313.68
367.019	325.43
367.4	335.15
367.781	305.99
368.163	315.03
368.544	300.35
368.925	315.03
369.306	347.12
369.688	328.82
370.069	303.28
370.45	317.97
370.831	308.03
371.212	309.61
371.593	336.05
371.974	305.32
372.355	306.9
372.736	334.92
373.117	337.18
373.498	318.88
373.879	329.95
374.26	331.53
374.641	312.55
375.021	311.64
375.402	314.81
375.783	340.34
376.163	330.63
376.544	319.78
376.925	336.5
377.305	363.17
377.686	335.6
378.066	334.69
378.447	328.82
378.827	322.27
379.208	337.41
379.588	332.89
379.968	348.71
380.349	337.41
380.729	345.54
381.109	339.89
381.489	341.25
381.87	340.34
382.25	356.84
382.63	364.75
383.01	339.67
383.39	356.16
383.77	345.09
384.15	363.85
384.53	353.23
384.91	377.63
385.29	354.36
385.67	364.52
386.049	374.92
386.429	363.62
386.809	382.15
387.189	355.71
387.568	358.2
387.948	362.72
388.328	369.72
388.707	377.18
389.087	393.45
389.466	400.46
389.846	379.67
390.225	374.24
390.605	372.89
390.984	385.31
391.363	370.17
391.743	391.87
392.122	370.63
392.501	388.25
392.881	394.13
393.26	372.21
393.639	380.34
394.018	399.78
394.397	391.64
394.776	392.32
395.155	398.42
395.534	403.17
395.913	383.51
396.292	399.33
396.671	388.93
397.05	413.79
397.429	407.01
397.808	417.86
398.186	402.26
398.565	396.84
398.944	412.43
399.323	418.08
399.701	440.45
400.08	413.79
400.458	424.41
400.837	431.87
401.215	423.28
401.594	442.49
401.972	414.01
402.351	438.42
402.729	458.08
403.107	450.62
403.486	431.42
403.864	431.64
404.242	443.39
404.62	458.99
404.999	440.68
405.377	468.48
405.755	451.3
406.133	476.16
406.511	450.17
406.889	463.28
407.267	473.9
407.645	469.83
408.023	481.36
408.401	458.08
408.779	488.81
409.156	472.09
409.534	477.97
409.912	488.36
410.29	499.89
410.667	471.87
411.045	494.92
411.422	491.07
411.8	519.32
412.178	518.87
412.555	505.54
412.933	506.89
413.31	512.32
413.687	538.76
414.065	534.46
414.442	550.96
414.819	543.73
415.197	535.59
415.574	520.45
415.951	546.44
416.328	536.72
416.705	547.57
417.082	551.64
417.46	558.64
417.837	567
418.214	560.68
418.591	577.17
418.967	565.42
419.344	582.15
419.721	574.91
420.098	590.06
420.475	571.52
420.852	599.55
421.228	601.58
421.605	603.84
421.982	604.74
422.358	592.77
422.735	593.44
423.111	606.33
423.488	616.04
423.864	626.89
424.241	632.54
424.617	639.09
424.994	624.4
425.37	633.22
425.746	624.18
426.123	635.25
426.499	661.01
426.875	684.97
427.251	639.55
427.627	692.43
428.003	665.99
428.379	703.27
428.756	705.08
429.132	709.15
429.507	722.71
429.883	721.8
430.259	738.07
430.635	683.39
431.011	714.35
431.387	728.13
431.763	756.6
432.138	747.34
432.514	752.31
432.89	766.77
433.265	767
433.641	775.59
434.016	789.82
434.392	815.59
434.767	808.58
435.143	799.99
435.518	815.36
435.894	803.16
436.269	839.09
436.644	838.18
437.02	828.69
437.395	855.13
437.77	845.42
438.145	844.06
438.52	839.99
438.895	892.87
439.271	884.51
439.646	876.6
440.021	904.17
440.395	887.45
440.77	897.62
441.145	894.45
441.52	937.84
441.895	912.08
442.27	914.57
442.645	937.84
443.019	976.49
443.394	961.34
443.769	950.05
444.143	963.83
444.518	964.51
444.892	971.29
445.267	991.63
445.641	995.24
446.016	1011.29
446.39	1008.12
446.764	1031.85
447.139	1034.34
447.513	1021.46
447.887	1026.65
448.262	1020.78
448.636	1035.47
449.01	1061.23
449.384	1031.4
449.758	1043.15
450.132	1067.78
450.506	1058.07
450.88	1084.96
451.254	1089.7
451.628	1116.37
452.002	1104.84
452.376	1109.82
452.75	1122.02
453.123	1133.32
453.497	1176.48
453.871	1145.07
454.244	1165.18
454.618	1190.94
454.992	1207.44
455.365	1199.3
455.739	1231.62
456.112	1270.94
456.486	1270.72
456.859	1291.05
457.232	1327.44
457.606	1299.41
457.979	1349.36
458.352	1345.97
458.725	1325.4
459.099	1348.68
459.472	1387.55
459.845	1423.03
460.218	1397.27
460.591	1428.68
460.964	1433.2
461.337	1463.25
461.71	1487.43
462.083	1487.21
462.456	1526.3
462.829	1517.94
463.201	1564.04
463.574	1576.02
463.947	1588.9
464.32	1618.5
464.692	1654.89
465.065	1672.29
465.438	1690.14
465.81	1692.17
466.183	1737.14
466.555	1779.18
466.928	1765.84
467.3	1806.07
467.672	1833.41
468.045	1875.45
468.417	1877.03
468.789	1860.98
469.161	1931.71
469.534	2002.45
469.906	2017.36
470.278	2044.25
470.65	2080.86
471.022	2122.44
471.394	2164.25
471.766	2224.36
472.138	2213.52
472.51	2307.3
472.882	2337.58
473.253	2386.39
473.625	2401.76
473.997	2468.2
474.369	2500.29
474.74	2570.12
475.112	2650.11
475.484	2669.32
475.855	2762.2
476.227	2794.06
476.598	2903.67
476.97	2919.49
477.341	3028.18
477.713	3101.4
478.084	3159.48
478.455	3252.58
478.827	3311.11
479.198	3419.13
479.569	3460.71
479.94	3592.24
480.311	3666.36
480.682	3758.11
481.053	3910.42
481.424	4025.22
481.795	4066.57
482.166	4213.91
482.537	4305.66
482.908	4442.84
483.279	4525.09
483.65	4662.26
484.021	4797.85
484.391	4902.94
484.762	4988.81
485.133	5099.32
485.503	5197.39
485.874	5393.32
486.244	5446.42
486.615	5675.35
486.985	5730.71
487.356	5941.1
487.726	5989.91
488.097	6228.78
488.467	6315.55
488.837	6515.32
489.207	6694.75
489.578	6857.91
489.948	6952.6
490.318	7070.11
490.688	7200.73
491.058	7380.61
491.428	7520.27
491.798	7732.01
492.168	7992.57
492.538	8002.74
492.908	8190.08
493.278	8420.81
493.648	8425.56
494.017	8669.39
494.387	8767.02
494.757	8892.89
495.126	9074.13
495.496	9199.32
495.866	9289.04
496.235	9436.83
496.605	9614.68
496.974	9691.51
497.344	9860.32
497.713	10059.18
498.082	10116.36
498.452	10273.64
498.821	10393.87
499.19	10411.27
499.559	10665.72
499.928	10736
500.298	10815.77
500.667	10996.79
501.036	11004.92
501.405	11258.48
501.774	11238.59
502.143	11375.53
502.512	11455.76
502.88	11655.07
503.249	11706.82
503.618	11816.65
503.987	11888.06
504.356	12043.54
504.724	12154.95
505.093	12145.23
505.462	12266.13
505.83	12350.88
506.199	12522.4
506.567	12622.51
506.936	12567.82
507.304	12858.89
507.672	12897.3
508.041	12881.71
508.409	13023.63
508.777	13088.03
509.145	13222.04
509.514	13242.15
509.882	13345.43
510.25	13391.98
510.618	13555.36
510.986	13484.86
511.354	13643.27
511.722	13735.7
512.09	13723.95
512.458	13778.41
512.826	13915.58
513.193	14001.68
513.561	13996.93
513.929	14141.56
514.297	14212.52
514.664	14308.34
515.032	14323.48
515.4	14420.43
515.767	14411.16
516.135	14505.85
516.502	14409.58
516.869	14622.68
517.237	14671.49
517.604	14579.52
517.972	14744.94
518.339	14790.81
518.706	14807.99
519.073	14786.07
519.44	14900.19
519.808	15064.25
520.175	15009.11
520.542	15095.44
520.909	15252.72
521.276	15180.63
521.643	15250.69
522.009	15356.67
522.376	15382.21
522.743	15430.34
523.11	15510.57
523.477	15584.01
523.843	15560.28
524.21	15788.98
524.577	15800.5
524.943	15855.19
525.31	15864.91
525.676	15926.6
526.043	16037.56
526.409	15940.16
526.776	16129.31
527.142	16051.34
527.508	16094.73
527.874	16154.39
528.241	16162.75
528.607	16166.59
528.973	16236.65
529.339	16176.76
529.705	16377.44
530.071	16382.18
530.437	16439.13
530.803	16383.31
531.169	16419.92
531.535	16340.83
531.901	16419.92
532.267	16398.45
532.632	16345.12
532.998	16332.24
533.364	16386.25
533.73	16434.61
534.095	16508.05
534.461	16517.09
534.826	16472.8
535.192	16460.6
535.557	16524.55
535.923	16413.59
536.288	16470.54
536.653	16500.6
537.019	16424.22
537.384	16468.06
537.749	16388.28
538.114	16331.11
538.479	16323.65
538.845	16379.47
539.21	16253.6
539.575	16273.94
539.94	16290.89
540.305	16310.09
540.67	16269.42
541.034	16183.32
541.399	16245.24
541.764	16141.28
542.129	16132.25
542.494	16151.91
542.858	16142.87
543.223	16155.3
543.587	16050.21
543.952	16024.68
544.316	16029.65
544.681	15960.95
545.045	15972.93
545.41	16046.6
545.774	15996.43
546.138	15909.88
546.503	15887.96
546.867	15861.74
547.231	15899.26
547.595	15906.71
547.959	15861.52
548.324	15665.36
548.688	15751.24
549.052	15700.17
549.416	15775.42
549.779	15695.42
550.143	15628.76
550.507	15617.23
550.871	15613.16
551.235	15640.96
551.599	15679.38
551.962	15644.8
552.326	15533.39
552.689	15603.67
553.053	15431.02
553.417	15471.7
553.78	15620.85
554.143	15541.75
554.507	15508.08
554.87	15424.02
555.234	15581.53
555.597	15438.7
555.96	15371.81
556.323	15433.28
556.686	15409.1
557.05	15441.64
557.413	15421.98
557.776	15421.53
558.139	15446.61
558.502	15448.87
558.865	15347.18
559.228	15437.57
559.59	15513.28
559.953	15457.91
560.316	15558.25
560.679	15515.99
561.041	15569.1
561.404	15516.44
561.767	15650.9
562.129	15420.85
562.492	15682.77
562.854	15598.7
563.217	15582.2
563.579	15647.96
563.941	15562.99
564.304	15689.32
564.666	15657
565.028	15630.79
565.39	15688.87
565.753	15674.18
566.115	15711.47
566.477	15768.19
566.839	15755.98
567.201	15800.05
567.563	15868.07
567.925	15974.96
568.287	15922.08
568.648	15862.42
569.01	15901.74
569.372	16082.3
569.734	15913.27
570.095	15866.04
570.457	16032.81
570.819	16074.17
571.18	16040.5
571.542	16007.5
571.903	16033.26
572.265	16053.6
572.626	16125.92
572.987	16094.73
573.349	16209.08
573.71	16157.1
574.071	16136.54
574.432	16207.5
574.794	16286.82
575.155	16191.45
575.516	16133.15
575.877	16174.96
576.238	16226.25
576.599	16317.78
576.96	16178.35
577.32	16290.21
577.681	16255.86
578.042	16362.3
578.403	16279.36
578.763	16315.29
579.124	16295.86
579.485	16357.78
579.845	16459.69
580.206	16324.78
580.566	16367.27
580.927	16368.62
581.287	16451.33
581.648	16350.54
582.008	16454.72
582.368	16295.18
582.728	16318
583.089	16343.99
583.449	16343.09
583.809	16302.41
584.169	16349.64
584.529	16257.21
584.889	16405.01
585.249	16268.51
585.609	16202.3
585.969	16386.25
586.329	16222.19
586.688	16273.94
587.048	16223.09
587.408	16212.92
587.768	16229.64
588.127	16211.34
588.487	16124.11
588.846	16284.33
589.206	16138.12
589.565	16185.13
589.925	16144.67
590.284	16151.45
590.643	16222.19
591.003	16197.78
591.362	16127.27
591.721	16163.2
592.08	16110.78
592.44	16245.69
592.799	16163.43
593.158	16197.55
593.517	16118.01
593.876	16149.19
594.235	16077.33
594.593	16132.92
594.952	16180.61
595.311	16053.38
595.67	16150.78
596.029	16170.21
596.387	16122.53
596.746	16203.66
597.104	15982.64
597.463	16085.24
597.822	16080.72
598.18	15948.07
598.538	15992.59
598.897	16139.7
599.255	16035.3
599.613	16237.33
599.972	16060.16
600.33	16133.15
600.688	16009.99
601.046	16111.91
601.404	16146.93
601.762	16042.08
602.12	16094.73
602.478	16176.54
602.836	16136.09
603.194	16098.8
603.552	16118.91
603.91	16000.72
604.268	16153.04
604.625	15964.11
604.983	16153.94
605.341	16089.08
605.698	16017.9
606.056	16105.81
606.413	16020.16
606.771	16144.22
607.128	16144
607.485	16027.16
607.843	16026.03
608.2	16170.89
608.557	16202.3
608.914	16130.21
609.272	16193.94
609.629	16200.04
609.986	16256.08
610.343	16152.36
610.7	16306.7
611.057	16234.84
611.414	16280.72
611.771	16268.06
612.127	16338.34
612.484	16281.17
612.841	16324.78
613.198	16425.34
613.554	16332.92
613.911	16372.46
614.267	16381.96
614.624	16274.39
614.98	16400.94
615.337	16572.23
615.693	16390.54
616.05	16480.48
616.406	16517.09
616.762	16428.06
617.118	16477.1
617.475	16455.85
617.831	16538.79
618.187	16564.32
618.543	16526.81
618.899	16599.58
619.255	16585.11
619.611	16558.67
619.967	16650.65
620.323	16607.71
620.678	16633.25
621.034	16534.72
621.39	16561.84
621.746	16508.05
622.101	16710.31
622.457	16640.93
622.812	16577.88
623.168	16666.02
623.523	16653.36
623.879	16625.34
624.234	16514.61
624.589	16579.24
624.945	16561.84
625.3	16606.58
625.655	16644.77
626.01	16542.18
626.365	16582.4
626.72	16574.49
627.075	16534.95
627.43	16602.52
627.785	16543.99
628.14	16605.91
628.495	16531.33
628.85	16588.05
629.205	16495.85
629.559	16661.04
629.914	16519.81
630.269	16567.49
630.623	16552.8
630.978	16470.32
631.332	16533.82
631.687	16428.28
632.041	16489.3
632.396	16512.8
632.75	16428.96
633.104	16492.24
633.459	16301.73
633.813	16345.8
634.167	16348.06
634.521	16326.36
634.875	16293.15
635.229	16323.2
635.583	16255.86
635.937	16294.5
636.291	16218.8
636.645	16216.99
636.999	16203.88
637.352	16240.72
637.706	16029.65
638.06	16261.28
638.413	16113.04
638.767	16112.13
639.121	16104.9
639.474	16055.19
639.828	16046.82
640.181	16094.05
640.534	16106.71
640.888	16023.55
641.241	15918.01
641.594	15966.37
641.947	15965.47
642.301	15901.52
642.654	15935.41
643.007	15999.82
643.36	15949.2
643.713	15915.75
644.066	15950.56
644.419	15800.95
644.771	15739.26
645.124	15607.29
645.477	15594.18
645.83	15535.2
646.182	15383.11
646.535	15439.16
646.888	15437.12
647.24	15395.54
647.593	15423.34
647.945	15435.77
648.298	15282.55
648.65	15285.49
649.002	15273.74
649.355	15369.55
649.707	15364.58
650.059	15419.27
650.411	15608.64
650.763	15631.02
651.115	15725.7
651.467	15760.5
651.819	15721.41
652.171	15719.15
652.523	15777.23
652.875	15616.78
653.227	15677.34
653.578	15715.76
653.93	15633.28
654.282	15687.96
654.633	15632.82
654.985	15649.32
655.337	15614.74
655.688	15659.04
656.039	15740.39
656.391	15629.66
656.742	15759.15
657.094	15629.89
657.445	15702.43
657.796	15639.15
658.147	15771.58
658.498	15579.27
658.849	15747.62
659.2	15685.25
659.551	15688.42
659.902	15717.57
660.253	15642.31
660.604	15717.57
660.955	15603.67
661.306	15728.19
661.656	15600.51
662.007	15754.63
662.358	15701.75
662.708	15683.67
663.059	15696.55
663.409	15619.26
663.76	15773.61
664.11	15724.12
664.461	15768.19
664.811	15763.22
665.161	15687.51
665.511	15692.26
665.862	15700.39
666.212	15779.49
666.562	15711.01
666.912	15728.64
667.262	15733.84
667.612	15737
667.962	15753.95
668.312	15718.47
668.662	15837.56
669.011	15706.04
669.361	15688.87
669.711	15635.08
670.06	15618.13
670.41	15706.95
670.76	15700.84
671.109	15610
671.459	15680.73
671.808	15642.31
672.157	15644.8
672.507	15506.73
672.856	15615.65
673.205	15622.88
673.554	15673.05
673.904	15609.1
674.253	15667.4
674.602	15584.24
674.951	15380.63
675.3	15284.58
675.649	15565.93
675.998	15433.96
676.346	15481.19
676.695	15591.24
677.044	15460.4
677.393	15498.59
677.741	15527.29
678.09	15468.76
678.438	15403.45
678.787	15407.29
679.135	15438.48
679.484	15261.99
679.832	15411.81
680.181	15313.28
680.529	15309.22
680.877	15217.24
681.225	15283.45
681.573	15278.71
681.922	15110.13
682.27	15077.13
682.618	15161.65
682.966	15078.26
683.314	15103.8
683.661	15088.66
684.009	14869.45
684.357	14913.75
684.705	14980.86
685.053	14985.38
685.4	14948.77
685.748	14852.96
686.095	14811.38
686.443	14746.29
686.79	14739.29
687.138	14732.96
687.485	14739.74
687.832	14593.75
688.18	14651.38
688.527	14575.9
688.874	14542.68
689.221	14435.34
689.568	14410.71
689.915	14465.17
690.262	14440.09
690.609	14341.33
690.956	14280.54
691.303	14264.5
691.65	14220.88
691.997	14163.26
692.344	14124.39
692.69	14133.43
693.037	14156.93
693.383	13888.24
693.73	13996.71
694.077	13932.98
694.423	13881.23
694.769	13887.56
695.116	13749.26
695.462	13785.64
695.808	13704.06
696.155	13730.27
696.501	13682.59
696.847	13639.2
697.193	13449.6
697.539	13568.02
697.885	13473.56
698.231	13423.84
698.577	13439.21
698.923	13361.47
699.269	13266.56
699.614	13216.84
699.96	13183.17
700.306	13192.44
700.651	13031.31
700.997	13018.43
701.342	13035.15
701.688	12967.81
702.033	12824.08
702.379	12900.47
702.724	12834.48
703.069	12835.38
703.415	12738.44
703.76	12682.84
704.105	12667.03
704.45	12609.85
704.795	12557.2
705.14	12541.61
705.485	12524.88
705.83	12554.94
706.175	12469.52
706.52	12479.91
706.865	12376.86
707.209	12417.09
707.554	12306.13
707.899	12312.68
708.243	12276.75
708.588	12209.86
708.932	12099.81
709.277	12117.21
709.621	12101.16
709.966	11970.09
710.31	12014.84
710.654	11924.9
710.998	11928.74
711.342	11923.32
711.687	11887.16
712.031	11794.51
712.375	11766.71
712.719	11797.22
713.063	11800.16
713.407	11754.96
713.75	11752.47
714.094	11681.06
714.438	11775.3
714.782	11709.76
715.125	11603.78
715.469	11608.07
715.812	11597
716.156	11505.47
716.499	11589.99
716.843	11579.6
717.186	11445.14
717.53	11520.39
717.873	11539.6
718.216	11451.24
718.559	11448.75
718.902	11349.32
719.246	11343.44
719.589	11403.78
719.932	11352.03
720.275	11346.38
720.617	11294.63
720.96	11292.15
721.303	11352.71
721.646	11320.85
721.989	11171.47
722.331	11242.66
722.674	11259.15
723.016	11249.66
723.359	11257.57
723.701	11191.13
724.044	11155.65
724.386	11101.19
724.729	11121.53
725.071	11108.2
725.413	11140.96
725.755	11131.92
726.097	11018.48
726.439	11024.13
726.782	11011.7
727.124	11136.9
727.465	10973.96
727.807	10994.53
728.149	10922.21
728.491	10983.23
728.833	11093.28
729.175	10964.92
729.516	10940.07
729.858	10966.96
730.199	10972.38
730.541	10945.49
730.882	10890.35
731.224	11024.81
731.565	10926.51
731.906	10839.73
732.248	11025.49
732.589	10893.51
732.93	10943.68
733.271	10923.34
733.612	10905.49
733.953	10924.47
734.294	10916.56
734.635	10892.16
734.976	10870.91
735.317	10922.44
735.658	10893.51
735.999	10898.26
736.339	10945.26
736.68	10926.73
737.021	10918.15
737.361	10855.32
737.702	10967.41
738.042	10869.11
738.383	10913.17
738.723	10993.4
739.063	10936.9
739.404	10976.67
739.744	10950.69
740.084	10956.79
740.424	11004.24
740.764	10931.03
741.104	10973.74
741.444	10953.85
741.784	10928.31
742.124	11068.65
742.464	11045.15
742.804	11001.08
743.143	11039.5
743.483	11100.29
743.823	10992.72
744.162	11163.56
744.502	11165.14
744.841	11109.55
745.181	11191.81
745.52	11186.61
745.86	11312.03
746.199	11308.64
746.538	11327.4
746.877	11386.83
747.216	11491.24
747.556	11536.21
747.895	11478.36
748.234	11553.61
748.573	11614.17
748.911	11725.81
749.25	11784.34
749.589	11862.98
749.928	11921.28
750.267	11920.83
750.605	12058
750.944	12137.32
751.283	12165.12
751.621	12300.71
751.96	12373.93
752.298	12499.57
752.636	12597.65
752.975	12574.15
753.313	12728.94
753.651	12828.15
753.989	12899.11
754.327	13025.66
754.666	13060.69
755.004	13279.89
755.342	13469.04
755.679	13608.92
756.017	13639.88
756.355	13808.92
756.693	13903.83
757.031	14054.33
757.368	14104.05
757.706	14329.35
758.044	14447.54
758.381	14650.25
758.719	14824.03
759.056	14934.99
759.394	14999.85
759.731	15132.5
760.068	15400.97
760.405	15552.83
760.743	15628.53
761.08	15918.92
761.417	16009.31
761.754	16155.07
762.091	16337.21
762.428	16447.49
762.765	16545.34
763.102	16872.56
763.438	16973.13
763.775	17109.39
764.112	17250.63
764.449	17530.17
764.785	17584.41
765.122	17681.81
765.458	17830.28
765.795	17987.79
766.131	18079.09
766.467	18322.24
766.804	18377.84
767.14	18514.78
767.476	18628.9
767.812	18796.81
768.148	18982.57
768.485	18933.98
768.821	19133.3
769.157	19247.19
769.492	19340.52
769.828	19499.16
770.164	19465.27
770.5	19509.11
770.836	19666.62
771.171	19794.97
771.507	19811.92
771.842	19786.16
772.178	19925.14
772.513	20059.37
772.849	20189.09
773.184	20167.62
773.519	20323.77
773.855	20275.64
774.19	20356.32
774.525	20356.32
774.86	20482.19
775.195	20467.5
775.53	20535.29
775.865	20514.5
776.2	20470.89
776.535	20451
776.87	20613.71
777.205	20603.77
777.539	20465.92
777.874	20666.82
778.209	20674.72
778.543	20606.03
778.878	20752.69
779.212	20583.88
779.547	20668.17
779.881	20689.19
780.215	20604.22
780.55	20738.9
780.884	20653.26
781.218	20659.81
781.552	20777.32
781.886	20695.29
782.22	20561.51
782.554	20681.73
782.888	20580.04
783.222	20614.61
783.556	20436.54
783.889	20503.43
784.223	20418.46
784.557	20449.42
784.89	20508.63
785.224	20345.69
785.557	20459.36
785.891	20368.97
786.224	20278.58
786.558	20354.51
786.891	20225.02
787.224	20230.44
787.557	20214.85
787.891	20164.46
788.224	20267.5
788.557	20207.17
788.89	20142.54
789.223	20181.86
789.556	19990.45
789.888	19959.72
790.221	19962.65
790.554	19801.08
790.887	19792.04
791.219	19801.98
791.552	19786.39
791.884	19708.42
792.217	19723.79
792.549	19653.96
792.882	19546.39
793.214	19464.14
793.546	19569.22
793.879	19456
794.211	19352.73
794.543	19370.35
794.875	19374.65
795.207	19334.42
795.539	19338.04
795.871	19260.3
796.203	19063.02
796.535	19125.84
796.867	19129
797.198	19119.51
797.53	19086.29
797.862	18875.22
798.193	18996.8
798.525	18907.09
798.856	18825.73
799.188	18726.53
799.519	18736.92
799.85	18547.55
800.182	18579.41
800.513	18647.66
800.844	18409.93
801.175	18696.25
801.506	18548.23
801.837	18455.35
802.168	18400.66
802.499	18347.55
802.83	18300.55
803.161	18203.15
803.491	18250.83
803.822	18182.59
804.153	18119.31
804.483	17945.98
804.814	17962.03
805.145	17983.72
805.475	17912.76
805.805	17873.44
806.136	17933.55
806.466	17866.89
806.796	17738.76
807.126	17742.82
807.457	17599.1
807.787	17686.33
808.117	17648.36
808.447	17573.79
808.777	17512.1
809.107	17573.79
809.436	17447.92
809.766	17311.88
810.096	17325.66
810.426	17318.2
810.755	17360.69
811.085	17303.74
811.414	17259.67
811.744	17144.87
812.073	17046.57
812.403	17154.59
812.732	17052.22
813.061	16981.49
813.39	16924.99
813.719	16879.57
814.049	16953.47
814.378	16924.99
814.707	16813.13
815.036	16849.51
815.365	16795.73
815.693	16657.43
816.022	16661.72
816.351	16700.37
816.68	16457.43
817.008	16594.15
817.337	16428.73
817.665	16301.73
817.994	16379.02
818.322	16358.45
818.651	16398.68
818.979	16323.2
819.307	16341.05
819.636	16196.2
819.964	16128.18
820.292	16337.44
820.62	16251.11
820.948	16149.42
821.276	16254.73
821.604	16224.9
821.932	16190.1
822.259	16234.39
822.587	16276.42
822.915	16011.34
823.243	16276.2
823.57	16208.18
823.898	16205.69
824.225	16137.44
824.553	16063.55
824.88	16138.8
825.207	16327.04
825.535	16098.57
825.862	16201.17
826.189	16124.79
826.516	16226.93
826.843	16222.64
827.17	16209.76
827.497	16207.27
827.824	16191.68
828.151	16211.79
828.478	16150.32
828.805	16266.48
829.131	16244.78
829.458	16170.21
829.785	16127.73
830.111	16102.19
830.438	16301.51
830.764	16205.46
831.09	16219.93
831.417	16137.67
831.743	16264.22
832.069	16135.41
832.395	16091.34
832.722	16167.72
833.048	16112.81
833.374	16056.99
833.7	16057.67
834.026	16072.81
834.351	16020.61
834.677	16023.55
835.003	16082.3
835.329	16061.06
835.654	16014.73
835.98	15943.55
836.306	15942.42
836.631	15892.7
836.956	15951.91
837.282	16036.2
837.607	15832.37
837.932	15847.06
838.258	15831.46
838.583	15787.62
838.908	15716.89
839.233	15719.6
839.558	15716.66
839.883	15648.87
840.208	15651.35
840.533	15675.31
840.858	15645.25
841.182	15583.33
841.507	15577.46
841.832	15453.62
842.156	15543.33
842.481	15503.34
842.805	15378.59
843.13	15343.57
843.454	15372.72
843.778	15343.57
844.103	15255.21
844.427	15199.61
844.751	15174.3
845.075	15164.14
845.399	15107.64
845.723	15081.88
846.047	15072.84
846.371	14939.73
846.695	14925.95
847.019	14904.03
847.343	14732.06
847.666	14677.59
847.99	14607.31
848.313	14655
848.637	14618.84
848.96	14474.44
849.284	14485.06
849.607	14422.01
849.931	14370.03
850.254	14238.96
850.577	14121.9
850.9	14193.99
851.223	14156.03
851.546	13969.14
851.869	14008.23
852.192	14015.01
852.515	13886.65
852.838	13858.18
853.161	13776.6
853.483	13759.65
853.806	13690.73
854.129	13638.98
854.451	13600.56
854.774	13608.24
855.096	13458.64
855.419	13493.9
855.741	13454.8
856.063	13412.32
856.385	13436.72
856.708	13376.84
857.03	13239.67
857.352	13214.13
857.674	13255.94
857.996	13169.84
858.318	13159.44
858.64	13086
858.961	13045.32
859.283	12963.06
859.605	12962.84
859.926	12935.95
860.248	12900.01
860.57	12841.03
860.891	12865.66
861.212	12820.47
861.534	12834.25
861.855	12700.25
862.176	12690.53
862.498	12713.58
862.819	12715.16
863.14	12648.27
863.461	12646.46
863.782	12557.42
864.103	12529.63
864.424	12488.27
864.745	12570.98
865.065	12467.03
865.386	12414.38
865.707	12447.37
866.027	12473.36
866.348	12354.94
866.668	12373.93
866.989	12385.45
867.309	12283.08
867.63	12278.56
867.95	12308.39
868.27	12249.86
868.59	12283.31
868.91	12206.47
869.23	12257.77
869.55	12170.77
869.87	12206.02
870.19	12160.15
870.51	12144.33
870.83	12187.04
871.15	12049.41
871.469	12079.92
871.789	12100.26
872.109	12030.43
872.428	12002.41
872.748	12073.82
873.067	12039.7
873.386	11932.81
873.706	11931.45
874.025	11889.87
874.344	11821.4
874.663	11912.7
874.982	11810.78
875.301	11821.17
875.62	11710.44
875.939	11738.46
876.258	11802.19
876.577	11705.24
876.896	11744.56
877.214	11690.78
877.533	11705.92
877.852	11658.69
878.17	11719.71
878.489	11645.81
878.807	11661.85
879.125	11558.81
879.444	11648.97
879.762	11618.24
880.08	11581.63
880.398	11513.16
880.716	11530.33
881.034	11446.04
881.352	11455.98
881.67	11403.56
881.988	11486.04
882.306	11387.74
882.624	11281.98
882.941	11244.69
883.259	11265.48
883.577	11254.41
883.894	11258.02
884.212	11204.24
884.529	11288.76
884.846	11178.25
885.164	11213.05
885.481	11136.67
885.798	11083.34
886.115	11061.19
886.432	11032.72
886.75	10929.9
887.067	11025.71
887.383	10952.04
887.7	10946.17
888.017	10906.62
888.334	10902.33
888.651	10843.57
888.967	10852.61
889.284	10804.02
889.6	10793.63
889.917	10717.7
890.233	10646.51
890.55	10639.96
890.866	10698.94
891.182	10616.68
891.498	10583.92
891.815	10560.19
892.131	10483.81
892.447	10505.5
892.763	10400.42
893.079	10366.52
893.395	10389.57
893.71	10387.09
894.026	10402
894.342	10345.5
894.657	10270.25
894.973	10156.13
895.289	10244.94
895.604	10158.17
895.92	10114.1
896.235	10093.31
896.55	10030.48
896.865	9983.48
897.181	9959.98
897.496	10010.37
897.811	9942.35
898.126	9939.41
898.441	9839.08
898.756	9828.68
899.071	9781.23
899.386	9744.84
899.7	9675.24
900.015	9660.33
900.33	9595.69
900.644	9605.19
900.959	9542.81
901.273	9532.87
901.588	9470.05
901.902	9443.16
902.216	9434.34
902.531	9393.89
902.845	9372.65
903.159	9297.85
903.473	9290.17
903.787	9252.43
904.101	9143.5
904.415	9183.5
904.729	9145.76
905.042	9073.67
905.356	9073.9
905.67	9089.04
905.984	9048.14
906.297	9024.41
906.611	9003.62
906.924	8968.37
907.237	8911.19
907.551	8848.82
907.864	8846.11
908.177	8803.62
908.491	8739.45
908.804	8735.15
909.117	8613.35
909.43	8617.19
909.743	8592.56
910.056	8528.83
910.368	8564.31
910.681	8523.86
910.994	8459.45
911.307	8433.92
911.619	8383.75
911.932	8348.72
912.244	8327.03
912.557	8312.11
912.869	8207.71
913.181	8200.02
913.494	8189.86
913.806	8151.66
914.118	8102.4
914.43	8064.89
914.742	8056.75
915.054	8010.42
915.366	8025.79
915.678	7890.43
915.99	7940.37
916.302	7843.42
916.613	7820.83
916.925	7810.66
917.236	7816.98
917.548	7766.36
917.859	7744.44
918.171	7636.42
918.482	7628.51
918.794	7687.27
919.105	7595.29
919.416	7516.65
919.727	7491.12
920.038	7537.67
920.349	7468.74
920.66	7558.01
920.971	7434.17
921.282	7419.93
921.593	7333.83
921.903	7296.09
922.214	7325.02
922.525	7266.04
922.835	7260.16
923.146	7208.41
923.456	7137.68
923.767	7150.79
924.077	7154.63
924.387	7088.64
924.697	7057
925.008	6981.53
925.318	6983.11
925.628	7000.06
925.938	6951.02
926.248	6889.32
926.558	6823.11
926.867	6837.8
927.177	6822.21
927.487	6777.46
927.796	6750.35
928.106	6696.11
928.416	6716.45
928.725	6685.04
929.034	6655.88
929.344	6665.83
929.653	6595.55
929.962	6530.69
930.271	6548.32
930.581	6548.32
930.89	6490.92
931.199	6421.54
931.508	6508.77
931.817	6426.29
932.125	6402.11
932.434	6356.68
932.743	6319.85
933.051	6296.35
933.36	6311.26
933.669	6219.06
933.977	6238.04
934.286	6259.96
934.594	6186.07
934.902	6116.69
935.21	6124.37
935.519	6149.46
935.827	6071.94
936.135	6018.61
936.443	6029.46
936.751	6002.79
937.059	5916.92
937.367	5916.24
937.674	5941.33
937.982	5882.35
938.29	5843.02
938.597	5855.91
938.905	5770.48
939.213	5745.85
939.52	5731.39
939.827	5771.84
940.135	5727.32
940.442	5665.63
940.749	5698.17
941.056	5708.34
941.363	5595.57
941.67	5546.53
941.977	5519.19
942.284	5505.18
942.591	5490.27
942.898	5477.16
943.205	5496.37
943.511	5468.57
943.818	5432.87
944.125	5336.37
944.431	5379.99
944.738	5328.24
945.044	5317.61
945.35	5296.82
945.657	5245.53
945.963	5317.61
946.269	5202.59
946.575	5235.81
946.881	5204.17
947.187	5173.21
947.493	5149.94
947.799	5125.53
948.105	5124.17
948.41	5073.33
948.716	5062.48
949.022	5041.01
949.327	5001.46
949.633	4965.53
949.938	5022.25
950.244	4985.42
950.549	4952.88
950.854	4947.45
951.16	4932.99
951.465	4881.24
951.77	4820.68
952.075	4834.92
952.38	4782.04
952.685	4827.68
952.99	4724.86
953.294	4794.92
953.599	4713.34
953.904	4715.6
954.209	4715.14
954.513	4673.11
954.818	4619.1
955.122	4587.01
955.426	4621.81
955.731	4588.59
956.035	4579.55
956.339	4526.45
956.643	4559.89
956.948	4488.48
957.252	4481.93
957.556	4453.68
957.86	4476.96
958.163	4441.03
958.467	4390.41
958.771	4397.86
959.075	4360.13
959.378	4333.46
959.682	4343.85
959.985	4325.32
960.289	4315.15
960.592	4234.93
960.896	4258.43
961.199	4222.5
961.502	4239
961.805	4185.67
962.108	4164.88
962.411	4117.87
962.714	4141.83
963.017	4149.74
963.32	4132.33
963.623	4088.49
963.926	4093.47
964.228	4053.01
964.531	4022.96
964.833	4051.43
965.136	3982.96
965.438	3981.15
965.741	3972.57
966.043	3941.38
966.345	3942.96
966.648	3946.35
966.95	3932.11
967.252	3874.94
967.554	3854.6
967.856	3844.21
968.158	3854.15
968.46	3827.94
968.761	3828.61
969.063	3789.07
969.365	3790.87
969.666	3720.14
969.968	3729.41
970.269	3691.44
970.571	3698.45
970.872	3706.58
971.174	3661.61
971.475	3620.94
971.776	3644.44
972.077	3606.25
972.378	3614.83
972.679	3583.42
972.98	3558.79
973.281	3561.73
973.582	3569.64
973.883	3562.86
974.183	3490.77
974.484	3505.91
974.785	3464.56
975.085	3473.14
975.386	3461.17
975.686	3447.83
975.986	3436.08
976.287	3395.86
976.587	3395.41
976.887	3355.18
977.187	3375.52
977.487	3338.23
977.787	3306.82
978.087	3288.52
978.387	3320.6
978.687	3286.71
978.987	3244.67
979.286	3278.8
979.586	3219.59
979.885	3221.62
980.185	3208.97
980.484	3238.57
980.784	3163.09
981.083	3148.18
981.382	3158.8
981.682	3165.35
981.981	3152.25
982.28	3096.66
982.579	3071.35
982.878	3107.28
983.177	3107.5
983.475	3079.93
983.774	3020.73
984.073	2993.38
984.372	2986.83
984.67	2993.83
984.969	3004.91
985.267	2972.14
985.566	2964.23
985.864	2914.74
986.162	2937.79
986.461	2885.59
986.759	2890.33
987.057	2890.11
987.355	2891.24
987.653	2851.92
987.951	2889.43
988.249	2828.64
988.547	2809.21
988.844	2815.76
989.142	2793.84
989.44	2752.03
989.737	2753.16
990.035	2778.92
990.332	2706.38
990.63	2742.54
990.927	2739.15
991.224	2733.5
991.521	2687.4
991.819	2688.31
992.116	2686.5
992.413	2670.68
992.71	2636.1
993.006	2632.94
993.303	2667.74
993.6	2616.44
993.897	2591.13
994.193	2581.42
994.49	2579.38
994.787	2568.08
995.083	2571.7
995.379	2551.13
995.676	2530.34
995.972	2530.57
996.268	2532.83
996.565	2482.89
996.861	2508.65
997.157	2484.92
997.453	2472.94
997.749	2464.81
998.044	2429.55
998.34	2403.11
998.636	2405.6
998.932	2373.96
999.227	2352.49
999.523	2367.86
999.818	2334.42
1000.114	2330.35
1000.409	2354.75
1000.704	2329.67
1001	2301.65
1001.295	2270.91
1001.59	2276.56
1001.885	2279.73
1002.18	2263.01
1002.475	2251.48
1002.77	2213.29
1003.065	2234.31
1003.359	2222.33
1003.654	2204.48
1003.949	2165.15
1004.243	2177.81
1004.538	2155.89
1004.832	2156.79
1005.127	2129.9
1005.421	2135.33
1005.715	2105.5
1006.009	2132.39
1006.304	2082.22
1006.598	2096
1006.892	2044.48
1007.186	2040.64
1007.48	2046.06
1007.773	2021.66
1008.067	2033.41
1008.361	2003.13
1008.655	1941.66
1008.948	1995.44
1009.242	1991.15
1009.535	1961.09
1009.829	1938.49
1010.122	1933.07
1010.415	1912.96
1010.708	1911.83
1011.001	1918.61
1011.295	1896.46
1011.588	1881.77
1011.881	1839.97
1012.173	1841.77
1012.466	1814.2
1012.759	1861.21
1013.052	1851.04
1013.344	1818.72
1013.637	1808.55
1013.93	1784.37
1014.222	1790.25
1014.514	1759.29
1014.807	1766.52
1015.099	1772.85
1015.391	1732.62
1015.683	1727.88
1015.976	1724.94
1016.268	1686.98
1016.56	1677.26
1016.851	1688.11
1017.143	1679.74
1017.435	1675.22
1017.727	1663.7
1018.018	1618.05
1018.31	1660.31
1018.602	1653.98
1018.893	1607.2
1019.185	1603.36
1019.476	1569.69
1019.767	1610.14
1020.058	1557.04
1020.35	1544.83
1020.641	1541.89
1020.932	1531.95
1021.223	1515
1021.514	1504.61
1021.804	1514.32
1022.095	1509.13
1022.386	1494.44
1022.677	1491.27
1022.967	1488.56
1023.258	1424.61
1023.548	1418.51
1023.839	1453.08
1024.129	1437.49
1024.419	1398.85
1024.709	1376.48
1025	1406.98
1025.29	1402.24
1025.58	1393.65
1025.87	1361.33
1026.16	1356.36
1026.449	1359.53
1026.739	1351.17
1027.029	1321.79
1027.319	1326.08
1027.608	1317.27
1027.898	1324.27
1028.187	1301
1028.477	1297.83
1028.766	1274.56
1029.055	1262.13
1029.344	1279.53
1029.634	1252.41
1029.923	1278.4
1030.212	1261
1030.501	1238.85
1030.79	1231.62
1031.078	1202.69
1031.367	1204.95
1031.656	1186.88
1031.945	1206.54
1032.233	1183.94
1032.522	1185.07
1032.81	1185.07
1033.099	1165.18
1033.387	1139.87
1033.675	1153.66
1033.963	1112.08
1034.251	1135.8
1034.54	1112.3
1034.828	1120.66
1035.116	1081.34
1035.403	1114.34
1035.691	1098.29
1035.979	1084.05
1036.267	1107.56
1036.554	1086.77
1036.842	1056.03
1037.129	1035.47
1037.417	1073.66
1037.704	1053.32
1037.992	1048.35
1038.279	1035.02
1038.566	1020.55
1038.853	1020.55
1039.14	1020.55
