Data from hue_230_FLMS001491_00027.txt Node
Date: Tue Feb 07 16:37:00 GMT 2017
User: dcchb
Spectrometer: FLMS00149
Trigger mode: 0
Integration Time (sec): 2.000000E-2
Scans to average: 10
Electric dark correction enabled: true
Nonlinearity correction enabled: false
Boxcar width: 0
XAxis mode: Wavelengths
Number of Pixels in Spectrum: 2048
>>>>>Begin Spectral Data<<<<<
341.393	-0.51
341.776	-0.51
342.16	-0.51
342.543	-41.64
342.927	-53.16
343.31	-57.91
343.693	-65.14
344.077	-56.78
344.46	-65.14
344.843	-57.23
345.226	-47.06
345.61	-18.81
345.993	-21.75
346.376	-12.49
346.759	-12.49
347.142	21.19
347.525	51.69
347.908	81.75
348.291	69.32
348.674	88.98
349.057	101.86
349.44	116.32
349.823	154.74
350.206	179.15
350.588	177.79
350.971	196.1
351.354	209.88
351.737	228.41
352.119	251.24
352.502	267.06
352.884	249.43
353.267	288.07
353.65	297.56
354.032	280.84
354.414	284
354.797	297.56
355.179	320.39
355.562	319.48
355.944	314.06
356.326	322.42
356.709	346.83
357.091	322.42
357.473	342.76
357.855	321.29
358.238	332.36
358.62	333.04
359.002	344.34
359.384	346.83
359.766	334.85
360.148	317.68
360.53	336.21
360.912	340.05
361.294	342.31
361.676	338.69
362.057	346.83
362.439	336.88
362.821	329.43
363.203	320.84
363.584	335.53
363.966	330.56
364.348	338.69
364.729	322.42
365.111	324.23
365.493	312.03
365.874	321.29
366.256	337.34
366.637	305.92
367.019	320.61
367.4	316.32
367.781	291.46
368.163	312.7
368.544	312.7
368.925	306.6
369.306	326.49
369.688	317.45
370.069	319.26
370.45	317.22
370.831	333.04
371.212	301.18
371.593	312.93
371.974	313.61
372.355	318.35
372.736	318.35
373.117	323.55
373.498	315.87
373.879	300.05
374.26	316.09
374.641	329.88
375.021	301.18
375.402	307.51
375.783	312.93
376.163	310.44
376.544	320.16
376.925	319.94
377.305	325.58
377.686	343.66
378.066	335.53
378.447	320.39
378.827	315.19
379.208	329.65
379.588	328.52
379.968	341.86
380.349	338.47
380.729	348.41
381.109	330.33
381.489	327.17
381.87	345.02
382.25	335.98
382.63	327.84
383.01	366.04
383.39	334.17
383.77	331.23
384.15	324.23
384.53	362.65
384.91	352.93
385.29	340.95
385.67	345.02
386.049	351.57
386.429	343.21
386.809	326.04
387.189	350.22
387.568	349.76
387.948	361.52
388.328	369.65
388.707	333.27
389.087	360.16
389.466	385.24
389.846	366.49
390.225	355.87
390.605	354.96
390.984	355.87
391.363	362.19
391.743	388.63
392.122	390.22
392.501	368.97
392.881	388.18
393.26	396.77
393.639	355.64
394.018	375.98
394.397	365.58
394.776	383.66
395.155	375.07
395.534	385.47
395.913	403.77
396.292	408.29
396.671	414.4
397.05	373.94
397.429	397.67
397.808	389.76
398.186	406.03
398.565	392.48
398.944	389.54
399.323	426.82
399.701	402.64
400.08	404.68
400.458	414.4
400.837	410.33
401.215	407.16
401.594	411.01
401.972	428.18
402.351	420.27
402.729	418.46
403.107	442.42
403.486	428.86
403.864	406.71
404.242	430.89
404.62	459.82
404.999	408.97
405.377	432.47
405.755	444.9
406.133	440.38
406.511	440.16
406.889	465.24
407.267	475.19
407.645	459.59
408.023	450.33
408.401	483.32
408.779	467.05
409.156	481.74
409.534	491.46
409.912	481.06
410.29	503.21
410.667	507.05
411.045	522.64
411.422	508.63
411.8	546.82
412.178	534.62
412.555	519.93
412.933	550.66
413.31	527.39
413.687	578.23
414.065	566.26
414.442	572.81
414.819	574.39
415.197	603.77
415.574	592.02
415.951	600.61
416.328	573.49
416.705	595.63
417.082	614.84
417.46	644.67
417.837	611.45
418.214	640.38
418.591	616.2
418.967	629.76
419.344	614.16
419.721	654.84
420.098	662.98
420.475	663.2
420.852	701.85
421.228	675.86
421.605	705.91
421.982	712.24
422.358	708.4
422.735	759.92
423.111	718.79
423.488	732.13
423.864	766.25
424.241	773.26
424.617	792.69
424.994	784.56
425.37	775.74
425.746	807.38
426.123	815.29
426.499	808.28
426.875	829.75
427.251	851.67
427.627	850.54
428.003	849.86
428.379	881.05
428.756	896.42
429.132	906.13
429.507	894.16
429.883	929.86
430.259	912.46
430.635	917.89
431.011	906.81
431.387	954.27
431.763	961.95
432.138	959.47
432.514	975.96
432.89	999.24
433.265	1039.24
433.641	1017.54
434.016	1050.09
434.392	1066.58
434.767	1070.2
435.143	1100.25
435.518	1107.49
435.894	1126.47
436.269	1128.28
436.644	1149.29
437.02	1165.79
437.395	1182.06
437.77	1199.46
438.145	1233.36
438.52	1227.93
438.895	1247.59
439.271	1258.67
439.646	1270.64
440.021	1294.6
440.395	1322.17
440.77	1294.37
441.145	1346.12
441.52	1370.53
441.895	1344.99
442.27	1380.02
442.645	1375.95
443.019	1411.21
443.394	1416.86
443.769	1420.7
444.143	1420.25
444.518	1442.17
444.892	1450.98
445.267	1485.55
445.641	1495.5
446.016	1485.1
446.39	1491.66
446.764	1525.1
447.139	1507.02
447.513	1537.53
447.887	1519.68
448.262	1542.05
448.636	1515.61
449.01	1601.03
449.384	1594.93
449.758	1574.59
450.132	1609.84
450.506	1606.23
450.88	1620.24
451.254	1645.32
451.628	1656.62
452.002	1652.33
452.376	1667.24
452.75	1679.45
453.123	1683.06
453.497	1724.42
453.871	1750.86
454.244	1772.78
454.618	1778.65
454.992	1795.83
455.365	1797.64
455.739	1830.18
456.112	1889.61
456.486	1897.52
456.859	1888.03
457.232	1925.32
457.606	1931.64
457.979	1938.65
458.352	1986.56
458.725	2010.74
459.099	1995.82
459.472	2002.38
459.845	2052.54
460.218	2057.29
460.591	2097.29
460.964	2100.45
461.337	2127.8
461.71	2145.2
462.083	2198.3
462.456	2208.92
462.829	2184.29
463.201	2250.05
463.574	2231.75
463.947	2277.85
464.32	2324.18
464.692	2302.26
465.065	2344.74
465.438	2374.57
465.81	2398.3
466.183	2399.88
466.555	2461.12
466.928	2492.99
467.3	2455.25
467.672	2546.32
468.045	2610.27
468.417	2604.62
468.789	2621.8
469.161	2624.51
469.534	2675.58
469.906	2696.37
470.278	2749.02
470.65	2797.84
471.022	2796.93
471.394	2856.14
471.766	2867.44
472.138	2863.15
472.51	2942.24
472.882	2977.94
473.253	2982.46
473.625	3046.87
473.997	3112.4
474.369	3122.12
474.74	3183.81
475.112	3191.05
475.484	3234.89
475.855	3295.45
476.227	3367.76
476.598	3408.89
476.97	3425.39
477.341	3480.76
477.713	3549.68
478.084	3504.03
478.455	3671.94
478.827	3639.4
479.198	3767.3
479.569	3780.64
479.94	3795.55
480.311	3828.77
480.682	3873.06
481.053	4004.58
481.424	4079.84
481.795	4090.91
482.166	4085.03
482.537	4139.04
482.908	4227.63
483.279	4258.81
483.65	4354.41
484.021	4423.78
484.391	4485.7
484.762	4482.54
485.133	4511.24
485.503	4548.07
485.874	4657.67
486.244	4697.22
486.615	4728.86
486.985	4818.12
487.356	4916.65
487.726	4886.37
488.097	5013.37
488.467	5017.66
488.837	5130.88
489.207	5150.77
489.578	5202.29
489.948	5214.72
490.318	5305.11
490.688	5297.88
491.058	5391.21
491.428	5411.1
491.798	5501.04
492.168	5594.37
492.538	5604.77
492.908	5674.6
493.278	5674.14
493.648	5708.72
494.017	5811.09
494.387	5803.86
494.757	5856.06
495.126	5862.39
495.496	5885.21
495.866	5911.43
496.235	5959.11
496.605	6029.39
496.974	6045.43
497.344	6134.02
497.713	6085.89
498.082	6129.73
498.452	6212.89
498.821	6205.2
499.19	6220.57
499.559	6294.24
499.928	6252.66
500.298	6345.31
500.667	6338.99
501.036	6362.71
501.405	6421.7
501.774	6401.13
502.143	6488.81
502.512	6495.14
502.88	6509.6
503.249	6477.29
503.618	6531.3
503.987	6561.8
504.356	6529.04
504.724	6643.38
505.093	6626.89
505.462	6666.89
505.83	6668.24
506.199	6668.02
506.567	6797.73
506.936	6716.15
507.304	6838.63
507.672	6816.04
508.041	6836.83
508.409	6793.44
508.777	6803.38
509.145	6926.99
509.514	6918.18
509.882	6916.15
510.25	6950.27
510.618	7005.64
510.986	7007.67
511.354	7033.66
511.722	7108.01
512.09	7063.49
512.458	7023.71
512.826	7104.84
513.193	7141.45
513.561	7112.98
513.929	7134.22
514.297	7153.65
514.664	7241.56
515.032	7265.74
515.4	7261.45
515.767	7275.46
516.135	7268.9
516.502	7171.73
516.869	7292.86
517.237	7323.82
517.604	7244.95
517.972	7307.55
518.339	7307.55
518.706	7342.8
519.073	7303.03
519.44	7367.21
519.808	7397.94
520.175	7394.78
520.542	7490.82
520.909	7438.39
521.276	7403.36
521.643	7439.52
522.009	7458.28
522.376	7412.63
522.743	7572.85
523.11	7569.01
523.477	7602.23
523.843	7616.47
524.21	7658.95
524.577	7594.55
524.943	7659.63
525.31	7629.8
525.676	7673.41
526.043	7655.11
526.409	7705.5
526.776	7758.16
527.142	7733.53
527.508	7750.25
527.874	7818.95
528.241	7785.5
528.607	7768.55
528.973	7811.04
529.339	7779.63
529.705	7830.47
530.071	7842
530.437	7862.56
530.803	7869.12
531.169	7955.44
531.535	7846.29
531.901	7862.11
532.267	7817.14
532.632	7865.5
532.998	7863.47
533.364	7859.4
533.73	7882
534.095	7870.02
534.461	7833.64
534.826	7856.23
535.192	7899.62
535.557	7940.07
535.923	7924.03
536.288	7820.75
536.653	7853.52
537.019	7852.17
537.384	7851.49
537.749	7859.17
538.114	7805.61
538.479	7898.72
538.845	7867.08
539.21	7829.34
539.575	7757.03
539.94	7823.69
540.305	7830.25
540.67	7763.58
541.034	7814.43
541.399	7748.67
541.764	7759.97
542.129	7831.83
542.494	7716.8
542.858	7762
543.223	7723.36
543.587	7804.71
543.952	7699.63
544.316	7748.67
544.681	7693.07
545.045	7683.81
545.41	7738.95
545.774	7669.57
546.138	7694.2
546.503	7718.84
546.867	7628.9
547.231	7710.7
547.595	7679.97
547.959	7691.94
548.324	7718.61
548.688	7624.38
549.052	7649.23
549.416	7609.01
549.779	7590.7
550.143	7562.46
550.507	7615.79
550.871	7565.62
551.235	7601.1
551.599	7620.76
551.962	7588.44
552.326	7622.79
552.689	7597.48
553.053	7563.13
553.417	7576.47
553.78	7603.36
554.143	7534.21
554.507	7513.19
554.87	7558.16
555.234	7579.63
555.597	7531.95
555.96	7567.43
556.323	7580.08
556.686	7571.72
557.05	7524.04
557.413	7553.87
557.776	7592.74
558.139	7543.7
558.502	7595.22
558.865	7587.31
559.228	7589.12
559.59	7631.83
559.953	7644.71
560.316	7663.47
560.679	7640.65
561.041	7617.82
561.404	7675.9
561.767	7684.26
562.129	7687.88
562.492	7689.68
562.854	7692.4
563.217	7670.93
563.579	7728.33
563.941	7750.02
564.304	7799.96
564.666	7811.26
565.028	7876.35
565.39	7842.9
565.753	7845.39
566.115	7835.44
566.477	7863.47
566.839	7854.65
567.201	7888.78
567.563	7901.66
567.925	7959.96
568.287	7943.01
568.648	7946.63
569.01	7975.55
569.372	7985.04
569.734	8021.2
570.095	8048.09
570.457	8049.68
570.819	8046.74
571.18	8057.36
571.542	8131.03
571.903	8076.79
572.265	8153.18
572.626	8102.1
572.987	8146.4
573.349	8218.03
573.71	8204.25
574.071	8243.12
574.432	8202.89
574.794	8297.8
575.155	8307.97
575.516	8248.99
575.877	8345.49
576.238	8286.28
576.599	8296.9
576.96	8313.17
577.32	8368.99
577.681	8413.73
578.042	8414.86
578.403	8401.08
578.763	8380.97
579.124	8419.84
579.485	8444.47
579.845	8461.87
580.206	8453.96
580.566	8498.25
580.927	8502.77
581.287	8534.63
581.648	8502.77
582.008	8594.97
582.368	8553.16
582.728	8551.13
583.089	8553.62
583.449	8688.08
583.809	8650.79
584.169	8746.38
584.529	8645.59
584.889	8692.82
585.249	8688.53
585.609	8656.21
585.969	8660.51
586.329	8683.56
586.688	8743.89
587.048	8773.5
587.408	8705.7
587.768	8735.53
588.127	8686.04
588.487	8763.55
588.846	8855.08
589.206	8845.59
589.565	8781.18
589.925	8822.31
590.284	8754.52
590.643	8817.34
591.003	8822.08
591.362	8919.26
591.721	8820.28
592.08	8856.43
592.44	8874.29
592.799	8962.87
593.158	8879.71
593.517	8890.33
593.876	8902.99
594.235	8885.59
594.593	8937.56
594.952	8974.17
595.311	8906.83
595.67	8972.59
596.029	8991.12
596.387	8972.81
596.746	9011.01
597.104	9006.26
597.463	9006.26
597.822	9117.22
598.18	8985.24
598.538	9000.84
598.897	9010.55
599.255	8955.41
599.613	9090.55
599.972	8996.77
600.33	9076.54
600.688	9079.25
601.046	9159.25
601.404	9118.12
601.762	9060.72
602.12	9115.18
602.478	9124.9
602.836	9139.82
603.194	9093.49
603.552	9093.72
603.91	9091.91
604.268	9113.83
604.625	9094.85
604.983	9145.69
605.341	9061.85
605.698	9200.61
606.056	9205.8
606.413	9136.43
606.771	9192.47
607.128	9196.09
607.485	9175.52
607.843	9217.55
608.2	9262.98
608.557	9223.2
608.914	9220.72
609.272	9287.83
609.629	9246.71
609.986	9345.01
610.343	9258.46
610.7	9310.89
611.057	9299.59
611.414	9296.87
611.771	9277.44
612.127	9364.22
612.484	9331.9
612.841	9277.89
613.198	9335.74
613.554	9294.61
613.911	9391.79
614.267	9380.94
614.624	9344.33
614.98	9318.34
615.337	9403.31
615.693	9365.35
616.05	9365.57
616.406	9439.02
616.762	9336.2
617.118	9393.14
617.475	9413.93
617.831	9434.72
618.187	9408.96
618.543	9450.99
618.899	9518.56
619.255	9472.24
619.611	9392.24
619.967	9542.74
620.323	9489.64
620.678	9468.17
621.034	9467.72
621.39	9393.37
621.746	9430.66
622.101	9488.51
622.457	9377.32
622.812	9475.17
623.168	9514.04
623.523	9531.22
623.879	9508.17
624.234	9430.66
624.589	9374.84
624.945	9425.23
625.3	9473.82
625.655	9511.11
626.01	9531.44
626.365	9477.21
626.72	9485.12
627.075	9434.27
627.43	9535.06
627.785	9479.24
628.14	9533.48
628.495	9509.3
628.85	9540.94
629.205	9463.2
629.559	9437.89
629.914	9427.04
630.269	9456.64
630.623	9443.54
630.978	9445.34
631.332	9486.93
631.687	9389.98
632.041	9394.72
632.396	9400.37
632.75	9337.33
633.104	9449.41
633.459	9371.22
633.813	9359.25
634.167	9271.34
634.521	9312.02
634.875	9324.9
635.229	9326.25
635.583	9330.77
635.937	9283.09
636.291	9289.64
636.645	9315.63
636.999	9271.34
637.352	9288.29
637.706	9184.33
638.06	9195.86
638.413	9195.86
638.767	9182.3
639.121	9194.28
639.474	9139.36
639.828	9150.89
640.181	9147.5
640.534	9187.27
640.888	9130.1
641.241	9097.33
641.594	9041.74
641.947	9095.3
642.301	9089.87
642.654	9149.99
643.007	9105.92
643.36	9110.44
643.713	9021.4
644.066	9083.09
644.419	8993.83
644.771	9013.49
645.124	8919.48
645.477	8868.18
645.83	8851.24
646.182	8799.49
646.535	8746.61
646.888	8806.72
647.24	8731.47
647.593	8772.82
647.945	8755.19
648.298	8737.79
648.65	8677.68
649.002	8707.51
649.355	8781.63
649.707	8773.5
650.059	8781.86
650.411	8915.64
650.763	8860.95
651.115	8980.72
651.467	8903.89
651.819	8902.53
652.171	8895.08
652.523	8908.86
652.875	8936.21
653.227	8855.76
653.578	8934.85
653.93	8935.08
654.282	8864.34
654.633	8884.46
654.985	8863.67
655.337	8844.91
655.688	8903.66
656.039	8902.31
656.391	8842.87
656.742	8870.44
657.094	8824.57
657.445	8921.74
657.796	8947.28
658.147	8844.68
658.498	8857.34
658.849	8933.95
659.2	8908.18
659.551	8844
659.902	8938.69
660.253	8891.01
660.604	8859.15
660.955	8800.62
661.306	8856.43
661.656	8911.57
662.007	8888.75
662.358	8899.82
662.708	8942.53
663.059	8881.52
663.409	8839.71
663.76	8896.21
664.11	8948.18
664.461	8887.17
664.811	8865.7
665.161	8874.06
665.511	8833.61
665.862	8921.97
666.212	8936.88
666.562	8894.85
666.912	8866.83
667.262	8861.86
667.612	8931.91
667.962	8997.67
668.312	8903.44
668.662	8947.28
669.011	8923.32
669.361	8869.31
669.711	8887.85
670.06	8881.97
670.41	8818.02
670.76	8843.1
671.109	8856.21
671.459	8848.3
671.808	8824.34
672.157	8862.08
672.507	8853.27
672.856	8820.05
673.205	8799.94
673.554	8889.88
673.904	8806.04
674.253	8803.55
674.602	8735.53
674.951	8663.67
675.3	8595.88
675.649	8762.88
675.998	8726.49
676.346	8695.31
676.695	8820.28
677.044	8679.72
677.393	8708.19
677.741	8729.43
678.09	8695.08
678.438	8758.13
678.787	8681.75
679.135	8721.97
679.484	8691.01
679.832	8618.02
680.181	8612.6
680.529	8599.72
680.877	8627.74
681.225	8598.14
681.573	8589.1
681.922	8543.45
682.27	8557.68
682.618	8589.55
682.966	8534.18
683.314	8517.46
683.661	8547.52
684.009	8430.91
684.357	8434.98
684.705	8428.42
685.053	8453.73
685.4	8397.91
685.748	8365.37
686.095	8392.27
686.443	8369.67
686.79	8283.34
687.138	8271.59
687.485	8282.66
687.832	8274.53
688.18	8260.97
688.527	8157.7
688.874	8264.58
689.221	8254.42
689.568	8159.95
689.915	8150.46
690.262	8127.19
690.609	8087.64
690.956	8055.32
691.303	8015.55
691.65	8052.84
691.997	8093.97
692.344	7924.03
692.69	7978.26
693.037	7922.9
693.383	7913.18
693.73	7901.2
694.077	7943.46
694.423	7888.78
694.769	7798.61
695.116	7844.48
695.462	7830.92
695.808	7771.26
696.155	7815.56
696.501	7697.82
696.847	7703.47
697.193	7648.56
697.539	7641.55
697.885	7599.52
698.231	7631.38
698.577	7599.07
698.923	7539.18
699.269	7477.26
699.614	7455.79
699.96	7461.67
700.306	7427.09
700.651	7402.46
700.997	7338.51
701.342	7378.96
701.688	7331.5
702.033	7274.33
702.379	7313.2
702.724	7315.46
703.069	7290.15
703.415	7208.12
703.76	7254.89
704.105	7222.13
704.45	7142.81
704.795	7096.93
705.14	7097.84
705.485	7147.78
705.83	7083.15
706.175	7145.07
706.52	7033.2
706.865	7044.73
707.209	7003.6
707.554	6965.86
707.899	6981.91
708.243	6942.59
708.588	6923.38
708.932	6908.91
709.277	6870.27
709.621	6864.4
709.966	6850.61
710.31	6904.39
710.654	6792.53
710.998	6776.04
711.342	6766.77
711.687	6805.87
712.031	6705.08
712.375	6672.54
712.719	6719.31
713.063	6737.39
713.407	6749.37
713.75	6654.01
714.094	6652.2
714.438	6605.42
714.782	6699.43
715.125	6642.93
715.469	6642.93
715.812	6615.36
716.156	6525.87
716.499	6627.79
716.843	6496.95
717.186	6571.3
717.53	6549.38
717.873	6569.94
718.216	6581.01
718.559	6442.26
718.902	6528.36
719.246	6493.56
719.589	6481.13
719.932	6413.11
720.275	6401.36
720.617	6448.36
720.96	6508.7
721.303	6442.94
721.646	6447.01
721.989	6421.7
722.331	6408.59
722.674	6438.87
723.016	6416.95
723.359	6412.43
723.701	6378.53
724.044	6364.3
724.386	6337.4
724.729	6400
725.071	6366.1
725.413	6382.83
725.755	6379.66
726.097	6315.26
726.439	6318.87
726.782	6307.8
727.124	6380.34
727.465	6291.3
727.807	6354.13
728.149	6356.61
728.491	6294.24
728.833	6325.65
729.175	6242.49
729.516	6281.13
729.858	6273.68
730.199	6307.12
730.541	6304.18
730.882	6255.82
731.224	6291.53
731.565	6278.42
731.906	6267.8
732.248	6323.62
732.589	6285.43
732.93	6294.24
733.271	6324.75
733.612	6297.86
733.953	6248.59
734.294	6238.42
734.635	6204.53
734.976	6252.43
735.317	6161.36
735.658	6234.58
735.999	6267.12
736.339	6241.59
736.68	6297.41
737.021	6250.17
737.361	6205.88
737.702	6297.18
738.042	6239.33
738.383	6221.02
738.723	6220.12
739.063	6311.64
739.404	6315.03
739.744	6272.32
740.084	6240.46
740.424	6284.75
740.764	6302.83
741.104	6371.98
741.444	6292.21
741.784	6311.64
742.124	6320.46
742.464	6314.58
742.804	6370.17
743.143	6314.58
743.483	6391.41
743.823	6391.41
744.162	6430.96
744.502	6431.19
744.841	6414.24
745.181	6467.34
745.52	6458.53
745.86	6516.16
746.199	6546.89
746.538	6578.3
746.877	6571.52
747.216	6618.75
747.556	6583.95
747.895	6672.76
748.234	6710.05
748.573	6683.61
748.911	6728.13
749.25	6806.77
749.589	6777.62
749.928	6829.37
750.267	6949.59
750.605	6948.46
750.944	7042.92
751.283	7021.68
751.621	7122.69
751.96	7221
752.298	7230.71
752.636	7255.12
752.975	7337.38
753.313	7374.44
753.651	7489.92
753.989	7511.61
754.327	7603.13
754.666	7664.37
755.004	7774.88
755.342	7927.87
755.679	8005.16
756.017	8039.28
756.355	8178.03
756.693	8243.79
757.031	8326.96
757.368	8442.66
757.706	8471.13
758.044	8568.76
758.381	8727.17
758.719	8804.01
759.056	8945.47
759.394	9084
759.731	9120.83
760.068	9245.35
760.405	9312.02
760.743	9466.36
761.08	9570.99
761.417	9655.96
761.754	9791.32
762.091	9892.11
762.428	10031.09
762.765	10174.82
763.102	10320.12
763.438	10313.34
763.775	10431.53
764.112	10532.1
764.449	10713.56
764.785	10808.02
765.122	10944.74
765.458	11041.46
765.795	11071.52
766.131	11110.84
766.467	11302.47
766.804	11330.49
767.14	11421.56
767.476	11588.11
767.812	11697.94
768.148	11830.37
768.485	11823.59
768.821	11895.68
769.157	12047.99
769.492	12078.04
769.828	12191.71
770.164	12262.9
770.5	12193.97
770.836	12465.83
771.171	12445.27
771.507	12535.21
771.842	12610.01
772.178	12649.55
772.513	12688.42
772.849	12731.13
773.184	12759.83
773.519	12856.78
773.855	12921.41
774.19	12869.21
774.525	12974.29
774.86	12967.74
775.195	13054.52
775.53	13132.48
775.865	13120.5
776.2	13069.2
776.535	13011.35
776.87	13160.28
777.205	13153.5
777.539	13217.9
777.874	13216.55
778.209	13155.98
778.543	13215.64
778.878	13170.67
779.212	13261.52
779.547	13165.7
779.881	13324.79
780.215	13220.84
780.55	13272.81
780.884	13217
781.218	13218.13
781.552	13306.26
781.886	13238.92
782.22	13247.73
782.554	13286.37
782.888	13267.84
783.222	13198.69
783.556	13155.98
783.889	13246.15
784.223	13080.73
784.557	13169.09
784.89	13113.27
785.224	13162.76
785.557	13057.91
785.891	13147.62
786.224	13083.67
786.558	13115.3
786.891	13058.81
787.224	13023.33
787.557	12990.79
787.891	13008.87
788.224	13111.24
788.557	13047.28
788.89	13097.45
789.223	13018.13
789.556	12886.61
789.888	12935.2
790.221	12928.42
790.554	12832.37
790.887	12833.28
791.219	12773.39
791.552	12805.48
791.884	12778.36
792.217	12687.97
792.549	12708.08
792.882	12629.22
793.214	12551.48
793.546	12659.05
793.879	12585.83
794.211	12571.59
794.543	12529.11
794.875	12518.26
795.207	12500.18
795.539	12504.7
795.871	12552.83
796.203	12398.71
796.535	12330.47
796.867	12363.69
797.198	12379.73
797.53	12351.48
797.862	12240.53
798.193	12298.6
798.525	12262.67
798.856	12236.68
799.188	12152.62
799.519	12092.73
799.85	12048.67
800.182	12085.5
800.513	12094.54
800.844	11972.74
801.175	12110.81
801.506	12031.49
801.837	12037.82
802.168	11944.26
802.499	11904.26
802.83	11799.86
803.161	11857.94
803.491	11827.2
803.822	11864.72
804.153	11763.93
804.483	11724.83
804.814	11668.56
805.145	11673.53
805.475	11617.04
805.805	11545.18
806.136	11595.34
806.466	11568.9
806.796	11573.42
807.126	11490.71
807.457	11433.09
807.787	11448.68
808.117	11396.25
808.447	11375.01
808.777	11380.21
809.107	11366.88
809.436	11316.48
809.766	11355.8
810.096	11226.99
810.426	11305.86
810.755	11231.06
811.085	11242.81
811.414	11234.9
811.744	11117.62
812.073	11216.82
812.403	11121.01
812.732	11089.14
813.061	11110.61
813.39	11064.96
813.719	10942.71
814.049	11076.04
814.378	10926.44
814.707	10917.4
815.036	10989.03
815.365	10908.13
815.693	10885.31
816.022	10816.16
816.351	10813.22
816.68	10708.59
817.008	10867.45
817.337	10759.21
817.665	10688.25
817.994	10704.29
818.322	10738.64
818.651	10657.74
818.979	10657.29
819.307	10675.6
819.636	10650.06
819.964	10605.77
820.292	10610.29
820.62	10618.87
820.948	10567.8
821.276	10714.01
821.604	10586.56
821.932	10597.63
822.259	10600.57
822.587	10649.83
822.915	10562.38
823.243	10666.56
823.57	10598.53
823.898	10576.84
824.225	10545.88
824.553	10570.29
824.88	10554.24
825.207	10613.45
825.535	10556.28
825.862	10530.51
826.189	10545.65
826.516	10634.47
826.843	10684.41
827.17	10589.5
827.497	10666.1
827.824	10583.17
828.151	10625.2
828.478	10588.37
828.805	10587.01
829.131	10602.15
829.458	10553.34
829.785	10496.39
830.111	10514.92
830.438	10639.21
830.764	10637.63
831.09	10631.08
831.417	10596.73
831.743	10642.6
832.069	10593.56
832.395	10520.12
832.722	10539.78
833.048	10481.7
833.374	10538.88
833.7	10494.13
834.026	10497.52
834.351	10592.21
834.677	10520.34
835.003	10472.44
835.329	10506.33
835.654	10437.64
835.98	10429.73
836.306	10460.69
836.631	10402.61
836.956	10483.96
837.282	10472.44
837.607	10408.71
837.932	10423.4
838.258	10310.63
838.583	10369.84
838.908	10344.98
839.233	10376.17
839.558	10261.14
839.883	10239.9
840.208	10219.56
840.533	10271.09
840.858	10320.12
841.182	10203.52
841.507	10269.5
841.832	10249.17
842.156	10135.95
842.481	10184.08
842.805	10103.63
843.13	10066.35
843.454	10086.01
843.778	10045.56
844.103	10017.76
844.427	10006.46
844.751	10050.07
845.075	9924.2
845.399	9921.94
845.723	9901.6
846.047	9924.88
846.371	9849.63
846.695	9815.96
847.019	9757.2
847.343	9689.86
847.666	9686.47
847.99	9608.05
848.313	9695.73
848.637	9561.95
848.96	9611.44
849.284	9547.04
849.607	9461.84
849.931	9439.7
850.254	9441.5
850.577	9360.15
850.9	9254.16
851.223	9350.43
851.546	9175.75
851.869	9179.36
852.192	9191.57
852.515	9130.55
852.838	9110.89
853.161	9091.46
853.483	9092.59
853.806	9017.79
854.129	8940.73
854.451	8983.44
854.774	8986.15
855.096	8932.59
855.419	8883.33
855.741	8817.56
856.063	8804.46
856.385	8802.88
856.708	8796.32
857.03	8732.82
857.352	8736.21
857.674	8740.05
857.996	8665.7
858.318	8638.59
858.64	8614.41
858.961	8602.88
859.283	8564.92
859.605	8507.74
859.926	8568.53
860.248	8497.12
860.57	8469.78
860.891	8447.18
861.212	8441.08
861.534	8359.72
861.855	8372.15
862.176	8353.62
862.498	8337.58
862.819	8355.43
863.14	8300.06
863.461	8323.79
863.782	8329.67
864.103	8301.42
864.424	8287.41
864.745	8266.62
865.065	8313.17
865.386	8183.23
865.707	8177.81
866.027	8219.39
866.348	8199.5
866.668	8205.83
866.989	8170.12
867.309	8140.29
867.63	8138.03
867.95	8062.33
868.27	8086.51
868.59	8153.63
868.91	8068.88
869.23	8060.97
869.55	7947.76
869.87	8073.4
870.19	8120.18
870.51	8065.49
870.83	8100.07
871.15	8006.96
871.469	7969.23
871.789	8017.13
872.109	7990.24
872.428	7912.73
872.748	7976.46
873.067	7966.06
873.386	7895.78
873.706	7966.29
874.025	7903.01
874.344	7872.73
874.663	7845.61
874.982	7858.95
875.301	7887.65
875.62	7842.68
875.939	7805.61
876.258	7775.33
876.577	7818.27
876.896	7797.7
877.214	7742.56
877.533	7791.15
877.852	7746.63
878.17	7699.4
878.489	7696.92
878.807	7717.93
879.125	7729.91
879.444	7671.61
879.762	7634.55
880.08	7661.44
880.398	7674.09
880.716	7594.55
881.034	7543.47
881.352	7541.44
881.67	7581.21
881.988	7567.88
882.306	7574.89
882.624	7529.46
882.941	7456.02
883.259	7428.67
883.577	7483.14
883.894	7464.83
884.212	7403.36
884.529	7427.54
884.846	7446.08
885.164	7387.55
885.481	7355.46
885.798	7384.38
886.115	7269.58
886.432	7275.23
886.75	7331.05
887.067	7293.54
887.383	7284.5
887.7	7312.52
888.017	7229.58
888.334	7274.55
888.651	7162.92
888.967	7234.56
889.284	7159.08
889.6	7112.75
889.917	7128.12
890.233	7160.21
890.55	7068.91
890.866	7086.54
891.182	7042.47
891.498	7022.58
891.815	7009.25
892.131	6996.37
892.447	6941.46
892.763	6908.46
893.079	6902.81
893.395	6892.64
893.71	6894.68
894.026	6909.59
894.342	6892.19
894.657	6778.97
894.973	6813.55
895.289	6801.57
895.604	6761.35
895.92	6745.53
896.235	6729.94
896.55	6667.79
896.865	6637.74
897.181	6630.96
897.496	6691.29
897.811	6617.62
898.126	6587.57
898.441	6551.41
898.756	6520.9
899.071	6515.93
899.386	6583.95
899.7	6434.58
900.015	6449.94
900.33	6469.38
900.644	6381.02
900.959	6424.63
901.273	6406.55
901.588	6336.95
901.902	6289.27
902.216	6274.35
902.531	6276.84
902.845	6276.61
903.159	6212.89
903.473	6205.43
903.787	6135.15
904.101	6068.94
904.415	6140.35
904.729	6081.37
905.042	6087.02
905.356	6068.71
905.67	5979.9
905.984	6005.89
906.297	6028.71
906.611	5976.28
906.924	5942.39
907.237	5934.02
907.551	5957.98
907.864	5936.96
908.177	5884.53
908.491	5880.24
908.804	5859.9
909.117	5762.73
909.43	5800.47
909.743	5699.68
910.056	5690.64
910.368	5705.1
910.681	5670.3
910.994	5637.08
911.307	5675.73
911.619	5583.98
911.932	5603.41
912.244	5575.16
912.557	5539.46
912.869	5539.91
913.181	5525.45
913.494	5486.8
913.806	5420.59
914.118	5419.24
914.43	5390.76
914.742	5412.68
915.054	5367.26
915.366	5355.28
915.678	5350.99
915.99	5313.93
916.302	5215.85
916.613	5261.95
916.925	5263.31
917.236	5230.99
917.548	5140.15
917.859	5214.04
918.171	5157.32
918.482	5143.76
918.794	5105.12
919.105	5125.91
919.416	5054.95
919.727	5031.45
920.038	5084.1
920.349	4986.71
920.66	5021.73
920.971	5000.49
921.282	4926.59
921.593	4930.21
921.903	4933.15
922.214	4870.55
922.525	4935.63
922.835	4812.92
923.146	4857.89
923.456	4873.04
923.767	4823.77
924.077	4761.63
924.387	4762.98
924.697	4743.32
925.008	4736.99
925.318	4741.51
925.628	4708.07
925.938	4682.08
926.248	4638.24
926.558	4633.95
926.867	4626.49
927.177	4610.44
927.487	4603.89
927.796	4563.89
928.106	4552.14
928.416	4539.26
928.725	4534.06
929.034	4455.42
929.344	4500.62
929.653	4517.79
929.962	4452.71
930.271	4395.99
930.581	4423.33
930.89	4387.62
931.199	4370.68
931.508	4355.08
931.817	4363.9
932.125	4331.36
932.434	4322.99
932.743	4275.76
933.051	4259.04
933.36	4265.59
933.669	4226.27
933.977	4197.57
934.286	4222.43
934.594	4208.87
934.902	4167.52
935.21	4109.67
935.519	4123.68
935.827	4134.98
936.135	4104.92
936.443	4053.62
936.751	4088.42
937.059	4083.23
937.367	4043.68
937.674	4009.78
937.982	4039.61
938.29	3987.18
938.597	4046.16
938.905	3924.81
939.213	3902.21
939.52	3892.72
939.827	3900.86
940.135	3869.67
940.442	3825.61
940.749	3866.51
941.056	3901.54
941.363	3832.84
941.67	3895.66
941.977	3753.74
942.284	3748.32
942.591	3765.27
942.898	3727.08
943.205	3744.03
943.511	3720.98
943.818	3712.84
944.125	3698.83
944.431	3683.01
944.738	3685.5
945.044	3607.08
945.35	3630.36
945.657	3595.78
945.963	3608.44
946.269	3578.38
946.575	3584.48
946.881	3573.63
947.187	3535.9
947.493	3550.13
947.799	3509.23
948.105	3501.77
948.41	3444.6
948.716	3490.47
949.022	3452.96
949.327	3458.61
949.633	3414.99
949.938	3405.73
950.244	3381.1
950.549	3421.55
950.854	3365.28
951.16	3364.37
951.465	3337.93
951.77	3321.89
952.075	3268.78
952.38	3282.8
952.685	3259.97
952.99	3267.2
953.294	3233.76
953.599	3238.73
953.904	3223.81
954.209	3244.6
954.513	3188.33
954.818	3155.34
955.122	3177.49
955.426	3158.96
955.731	3162.35
956.035	3117.6
956.339	3150.14
956.643	3149.92
956.948	3105.17
957.252	3080.77
957.556	3062.69
957.86	3032.63
958.163	3076.92
958.467	3083.7
958.771	3040.99
959.075	3030.37
959.378	3014.55
959.682	2977.72
959.985	2960.54
960.289	2973.88
960.592	2977.04
960.896	2949.02
961.199	2930.26
961.502	2944.27
961.805	2908.12
962.108	2893.43
962.411	2853.88
962.714	2843.03
963.017	2862.47
963.32	2862.92
963.623	2846.2
963.926	2831.28
964.228	2804.39
964.531	2790.15
964.833	2772.07
965.136	2757.16
965.438	2745.86
965.741	2741.57
966.043	2728.46
966.345	2720.32
966.648	2720.55
966.95	2695.92
967.252	2673.55
967.554	2666.31
967.856	2656.82
968.158	2649.59
968.46	2623.83
968.761	2629.7
969.063	2612.3
969.365	2597.84
969.666	2599.42
969.968	2568.92
970.269	2602.36
970.571	2561.23
970.872	2530.27
971.174	2567.56
971.475	2518.3
971.776	2522.59
972.077	2509.71
972.378	2485.98
972.679	2519.88
972.98	2475.13
973.281	2443.95
973.582	2484.4
973.883	2459.77
974.183	2457.28
974.484	2457.51
974.785	2422.93
975.085	2412.08
975.386	2412.08
975.686	2390.16
975.986	2375.25
976.287	2378.19
976.587	2332.99
976.887	2353.33
977.187	2366.66
977.487	2345.42
977.787	2316.27
978.087	2295.02
978.387	2304.52
978.687	2281.01
978.987	2325.98
979.286	2285.99
979.586	2299.77
979.885	2271.52
980.185	2255.03
980.484	2245.31
980.784	2215.25
981.083	2229.26
981.382	2228.36
981.682	2224.97
981.981	2199.43
982.28	2194.46
982.579	2131.19
982.878	2177.51
983.177	2177.29
983.475	2146.1
983.774	2162.82
984.073	2119.89
984.372	2139.55
984.67	2114.01
984.969	2110.85
985.267	2090.28
985.566	2069.27
985.864	2091.64
986.162	2055.26
986.461	2036.27
986.759	2059.32
987.057	2012.77
987.355	2018.2
987.653	2047.35
987.951	2004.18
988.249	2007.8
988.547	2005.77
988.844	2010.29
989.142	2013.22
989.44	1993.79
989.737	1938.88
990.035	1956.5
990.332	1931.42
990.63	1938.88
990.927	1944.98
991.224	1902.27
991.521	1918.99
991.819	1885.09
992.116	1887.35
992.413	1860.01
992.71	1861.36
993.006	1873.34
993.303	1878.99
993.6	1838.99
993.897	1829.5
994.193	1848.26
994.49	1807.35
994.787	1841.25
995.083	1799.67
995.379	1824.3
995.676	1798.31
995.972	1804.42
996.268	1764.42
996.565	1731.2
996.861	1750.41
997.157	1759.9
997.453	1755.15
997.749	1756.06
998.044	1732.78
998.34	1723.97
998.636	1710.63
998.932	1717.64
999.227	1729.84
999.523	1689.84
999.818	1664.98
1000.114	1653.46
1000.409	1661.37
1000.704	1636.06
1001	1660.46
1001.295	1649.62
1001.59	1616.85
1001.885	1627.7
1002.18	1628.83
1002.475	1615.95
1002.77	1593.35
1003.065	1597.87
1003.359	1567.59
1003.654	1547.47
1003.949	1583.63
1004.243	1542.73
1004.538	1542.05
1004.832	1552.45
1005.127	1526.01
1005.421	1521.94
1005.715	1521.26
1006.009	1529.39
1006.304	1492.56
1006.598	1505.89
1006.892	1472.9
1007.186	1494.14
1007.48	1462.28
1007.773	1442.17
1008.067	1448.72
1008.361	1440.13
1008.655	1410.98
1008.948	1429.06
1009.242	1441.26
1009.535	1425.67
1009.829	1416.86
1010.122	1395.84
1010.415	1406.69
1010.708	1381.6
1011.001	1365.33
1011.295	1365.78
1011.588	1365.78
1011.881	1373.69
1012.173	1350.42
1012.466	1362.85
1012.759	1359.46
1013.052	1321.94
1013.344	1342.73
1013.637	1291.43
1013.93	1279.68
1014.222	1299.34
1014.514	1278.78
1014.807	1291.66
1015.099	1294.82
1015.391	1267.48
1015.683	1290.08
1015.976	1221.83
1016.268	1255.96
1016.56	1244.43
1016.851	1239.68
1017.143	1232.91
1017.435	1214.6
1017.727	1201.49
1018.018	1207.6
1018.31	1210.53
1018.602	1185
1018.893	1171.66
1019.185	1190.19
1019.476	1152.91
1019.767	1182.51
1020.058	1167.14
1020.35	1177.99
1020.641	1159.24
1020.932	1140.7
1021.223	1115.17
1021.514	1130.31
1021.804	1118.11
1022.095	1105.23
1022.386	1104.77
1022.677	1103.42
1022.967	1088.73
1023.258	1092.12
1023.548	1044.44
1023.839	1075.62
1024.129	1063.64
1024.419	1048.5
1024.709	1059.8
1025	1058.22
1025.29	1030.65
1025.58	1033.59
1025.87	1011.89
1026.16	1037.66
1026.449	1016.87
1026.739	1006.7
1027.029	1009.86
1027.319	1003.53
1027.608	999.69
1027.898	988.84
1028.187	973.48
1028.477	976.64
1028.766	981.39
1029.055	985
1029.344	975.96
1029.634	951.33
1029.923	943.87
1030.212	940.48
1030.501	954.49
1030.79	912.46
1031.078	930.09
1031.367	947.72
1031.656	927.6
1031.945	897.1
1032.233	924.44
1032.522	900.48
1032.81	892.12
1033.099	905.91
1033.387	895.06
1033.675	883.76
1033.963	855.74
1034.251	882.86
1034.54	856.19
1034.828	845.57
1035.116	835.4
1035.403	846.25
1035.691	827.27
1035.979	844.89
1036.267	832.46
1036.554	840.37
1036.842	830.2
1037.129	825.46
1037.417	800.37
1037.704	802.63
1037.992	815.52
1038.279	792.69
1038.566	813.26
1038.853	813.26
1039.14	813.26
