Data from hue_28_FLMS001491_00072.txt Node
Date: Tue Feb 07 17:17:46 GMT 2017
User: dcchb
Spectrometer: FLMS00149
Trigger mode: 0
Integration Time (sec): 2.000000E-2
Scans to average: 10
Electric dark correction enabled: true
Nonlinearity correction enabled: false
Boxcar width: 0
XAxis mode: Wavelengths
Number of Pixels in Spectrum: 2048
>>>>>Begin Spectral Data<<<<<
341.393	-1.1
341.776	-1.1
342.16	-1.1
342.543	-47.65
342.927	-87.2
343.31	-60.31
343.693	-73.64
344.077	-70.48
344.46	-55.79
344.843	-44.72
345.226	-32.74
345.61	-26.86
345.993	-35
346.376	-19.86
346.759	13.81
347.142	33.02
347.525	39.12
347.908	58.56
348.291	79.12
348.674	99.46
349.057	96.3
349.44	130.87
349.823	129.97
350.206	165.45
350.588	178.78
350.971	201.6
351.354	220.14
351.737	235.05
352.119	259.68
352.502	262.17
352.884	285.67
353.267	281.15
353.65	298.1
354.032	288.83
354.414	300.36
354.797	323.41
355.179	308.72
355.562	325.22
355.944	322.96
356.326	329.06
356.709	326.8
357.091	344.65
357.473	345.56
357.855	328.83
358.238	333.8
358.62	315.5
359.002	346.69
359.384	333.35
359.766	330.42
360.148	355.05
360.53	334.71
360.912	343.97
361.294	338.55
361.676	353.24
362.057	317.08
362.439	355.27
362.821	332.45
363.203	339.45
363.584	313.24
363.966	347.59
364.348	323.18
364.729	332.67
365.111	333.35
365.493	330.42
365.874	314.82
366.256	308.04
366.637	311.88
367.019	314.37
367.4	322.51
367.781	321.38
368.163	329.51
368.544	329.74
368.925	320.02
369.306	315.95
369.688	331.09
370.069	337.19
370.45	311.66
370.831	315.05
371.212	305.1
371.593	312.11
371.974	314.6
372.355	337.87
372.736	325.44
373.117	326.35
373.498	315.73
373.879	307.36
374.26	331.54
374.641	306.01
375.021	325.9
375.402	333.58
375.783	322.28
376.163	334.93
376.544	324.31
376.925	319.57
377.305	325.44
377.686	310.98
378.066	320.02
378.447	338.55
378.827	364.09
379.208	326.12
379.588	336.29
379.968	335.39
380.349	344.88
380.729	324.77
381.109	358.21
381.489	343.97
381.87	337.65
382.25	340.81
382.63	355.95
383.01	327.93
383.39	346.69
383.77	338.78
384.15	337.65
384.53	342.17
384.91	353.69
385.29	370.64
385.67	352.11
386.049	356.86
386.429	339.91
386.809	372.45
387.189	360.92
387.568	379.45
387.948	370.19
388.328	364.54
388.707	350.98
389.087	355.5
389.466	360.02
389.846	377.42
390.225	387.14
390.605	367.7
390.984	382.17
391.363	372.67
391.743	371.09
392.122	368.83
392.501	366.35
392.881	368.38
393.26	400.92
393.639	376.52
394.018	366.12
394.397	388.27
394.776	388.72
395.155	398.21
395.534	367.48
395.913	387.14
396.292	378.78
396.671	391.43
397.05	396.4
397.429	389.4
397.808	404.09
398.186	386.68
398.565	407.25
398.944	391.43
399.323	379
399.701	400.02
400.08	399.79
400.458	396.18
400.837	400.47
401.215	403.63
401.594	377.87
401.972	396.63
402.351	414.48
402.729	413.58
403.107	399.11
403.486	416.74
403.864	427.14
404.242	422.84
404.62	423.07
404.999	435.27
405.377	423.75
405.755	436.4
406.133	425.78
406.511	438.21
406.889	416.97
407.267	443.86
407.645	448.83
408.023	434.82
408.401	430.07
408.779	457.87
409.156	460.58
409.534	447.7
409.912	444.08
410.29	424.2
410.667	459.68
411.045	453.8
411.422	467.59
411.8	465.55
412.178	442.5
412.555	486.12
412.933	458.32
413.31	478.21
413.687	480.92
414.065	469.39
414.442	471.43
414.819	499
415.197	489.05
415.574	475.04
415.951	505.1
416.328	506.46
416.705	498.32
417.082	495.83
417.46	520.69
417.837	527.47
418.214	517.75
418.591	510.07
418.967	529.05
419.344	510.98
419.721	541.93
420.098	527.02
420.475	533.35
420.852	548.26
421.228	538.32
421.605	517.98
421.982	529.05
422.358	533.57
422.735	541.48
423.111	522.05
423.488	541.71
423.864	566.79
424.241	558.43
424.617	581.48
424.994	566.57
425.37	574.25
425.746	575.61
426.123	582.84
426.499	580.13
426.875	591.43
427.251	582.84
427.627	588.04
428.003	604.98
428.379	620.35
428.756	615.38
429.132	610.63
429.507	597.98
429.883	598.43
430.259	612.22
430.635	635.72
431.011	621.93
431.387	653.34
431.763	640.92
432.138	645.89
432.514	652.44
432.89	674.36
433.265	672.78
433.641	666.23
434.016	660.8
434.392	673
434.767	692.44
435.143	667.58
435.518	684.76
435.894	700.8
436.269	705.55
436.644	720.91
437.02	721.59
437.395	734.7
437.77	723.85
438.145	740.12
438.52	753.23
438.895	755.49
439.271	745.77
439.646	775.6
440.021	749.61
440.395	752.55
440.77	747.13
441.145	772.89
441.52	769.95
441.895	771.31
442.27	762.49
442.645	773.12
443.019	783.74
443.394	792.78
443.769	782.38
444.143	769.05
444.518	805.43
444.892	811.31
445.267	786.45
445.641	815.6
446.016	825.09
446.39	836.62
446.764	834.81
447.139	837.52
447.513	842.72
447.887	835.49
448.262	856.05
448.636	842.49
449.01	861.02
449.384	867.12
449.758	854.02
450.132	866.67
450.506	899.89
450.88	907.12
451.254	884.75
451.628	880.46
452.002	909.61
452.376	920.91
452.75	922.94
453.123	915.71
453.497	919.1
453.871	938.53
454.244	934.92
454.618	953.68
454.992	963.84
455.365	982.38
455.739	973.34
456.112	989.15
456.486	991.64
456.859	1006.33
457.232	1004.97
457.606	1015.82
457.979	1018.98
458.352	1058.76
458.725	1047.01
459.099	1072.32
459.472	1063.96
459.845	1099.21
460.218	1131.07
460.591	1126.33
460.964	1118.64
461.337	1122.94
461.71	1139.43
462.083	1181.24
462.456	1177.62
462.829	1153.67
463.201	1196.83
463.574	1195.48
463.947	1197.96
464.32	1200.9
464.692	1241.8
465.065	1234.35
465.438	1294.91
465.81	1284.29
466.183	1298.07
466.555	1296.72
466.928	1310.73
467.3	1317.96
467.672	1330.39
468.045	1368.35
468.417	1420.56
468.789	1402.03
469.161	1420.1
469.534	1462.14
469.906	1455.36
470.278	1485.41
470.65	1515.02
471.022	1511.63
471.394	1547.33
471.766	1579.87
472.138	1595.01
472.51	1623.04
472.882	1639.99
473.253	1682.02
473.625	1712.98
473.997	1708.91
474.369	1745.07
474.74	1776.25
475.112	1790.94
475.484	1829.13
475.855	1865.97
476.227	1881.33
476.598	1929.92
476.97	1992.97
477.341	2022.8
477.713	2054.66
478.084	2075
478.455	2123.59
478.827	2176.69
479.198	2190.93
479.569	2195.68
479.94	2261.44
480.311	2310.7
480.682	2404.71
481.053	2430.25
481.424	2471.15
481.795	2523.8
482.166	2558.83
482.537	2594.54
482.908	2643.12
483.279	2683.12
483.65	2780.97
484.021	2841.31
484.391	2879.05
484.762	2919.27
485.133	2944.13
485.503	3003.34
485.874	3065.26
486.244	3128.31
486.615	3237.91
486.985	3245.59
487.356	3311.81
487.726	3357.45
488.097	3439.26
488.467	3418.7
488.837	3544.57
489.207	3594.28
489.578	3664.56
489.948	3707.28
490.318	3740.27
490.688	3833.6
491.058	3858.46
491.428	3962.41
491.798	3953.14
492.168	4081.95
492.538	4119.92
492.908	4154.95
493.278	4242.85
493.648	4235.4
494.017	4282.85
494.387	4364.89
494.757	4429.29
495.126	4466.35
495.496	4494.83
495.866	4523.07
496.235	4636.06
496.605	4650.53
496.974	4659.79
497.344	4757.42
497.713	4785.44
498.082	4877.19
498.452	4886.23
498.821	4958.54
499.19	4940.69
499.559	4998.09
499.928	5031.99
500.298	5075.83
500.667	5105.66
501.036	5117.41
501.405	5210.74
501.774	5215.94
502.143	5268.14
502.512	5300.23
502.88	5361.24
503.249	5358.08
503.618	5360.57
503.987	5410.73
504.356	5448.25
504.724	5466.33
505.093	5482.14
505.462	5572.54
505.83	5615.93
506.199	5656.38
506.567	5726.88
506.936	5697.05
507.304	5779.09
507.672	5832.87
508.041	5778.18
508.409	5927.56
508.777	5884.62
509.145	5931.62
509.514	6000.55
509.882	6019.31
510.25	5998.29
510.618	6038.29
510.986	6045.29
511.354	6113.31
511.722	6195.8
512.09	6206.19
512.458	6250.03
512.826	6249.81
513.193	6256.59
513.561	6266.98
513.929	6344.27
514.297	6405.51
514.664	6429.46
515.032	6460.65
515.4	6520.76
515.767	6481.44
516.135	6505.39
516.502	6484.6
516.869	6592.62
517.237	6620.65
517.604	6561.44
517.972	6686.41
518.339	6612.06
518.706	6706.07
519.073	6697.48
519.44	6762.11
519.808	6868.77
520.175	6819.28
520.542	6871.94
520.909	6936.12
521.276	6937.47
521.643	6964.59
522.009	7022.22
522.376	7040.52
522.743	7068.54
523.11	7096.11
523.477	7176.34
523.843	7170.01
524.21	7263.57
524.577	7348.99
524.943	7269.44
525.31	7355.32
525.676	7433.96
526.043	7445.93
526.409	7511.7
526.776	7507.63
527.142	7566.61
527.508	7610.68
527.874	7624.69
528.241	7682.76
528.607	7665.82
528.973	7748.98
529.339	7819.26
529.705	7932.93
530.071	7898.35
530.437	7988.52
530.803	7989.87
531.169	8035.3
531.535	8060.16
531.901	8018.57
532.267	8099.93
532.632	8170.21
532.998	8215.41
533.364	8262.41
533.73	8255.18
534.095	8386.93
534.461	8326.14
534.826	8380.37
535.192	8447.26
535.557	8480.26
535.923	8463.99
536.288	8533.14
536.653	8538.11
537.019	8547.6
537.384	8625.34
537.749	8666.92
538.114	8682.96
538.479	8690.2
538.845	8763.19
539.21	8712.57
539.575	8795.05
539.94	8804.09
540.305	8881.15
540.67	8876.86
541.034	8880.47
541.399	8941.04
541.764	8948.49
542.129	9035.5
542.494	9037.98
542.858	9158.21
543.223	9054.48
543.587	9188.49
543.952	9259.9
544.316	9291.08
544.681	9194.36
545.045	9232.33
545.41	9414.92
545.774	9478.2
546.138	9413.79
546.503	9448.14
546.867	9458.76
547.231	9619.44
547.595	9612.43
547.959	9589.61
548.324	9598.42
548.688	9603.84
549.052	9678.42
549.416	9687.68
549.779	9692.2
550.143	9762.03
550.507	9852.2
550.871	9865.98
551.235	9879.09
551.599	9971.29
551.962	10003.38
552.326	9960.22
552.689	9980.78
553.053	9978.97
553.417	10022.82
553.78	10204.51
554.143	10103.49
554.507	10164.96
554.87	10185.52
555.234	10347.33
555.597	10330.38
555.96	10259.42
556.323	10323.6
556.686	10340.1
557.05	10437.49
557.413	10458.74
557.776	10500.77
558.139	10510.49
558.502	10549.36
558.865	10549.58
559.228	10614.89
559.59	10680.2
559.953	10686.75
560.316	10805.85
560.679	10689.01
561.041	10795.22
561.404	10859.63
561.767	10918.16
562.129	10929.23
562.492	10950.02
562.854	10974.65
563.217	11014.2
563.579	11075.9
563.941	11089.68
564.304	11149.34
564.666	11224.37
565.028	11220.52
565.39	11240.86
565.753	11253.29
566.115	11317.92
566.477	11350.46
566.839	11401.76
567.201	11470.46
567.563	11463
567.925	11571.48
568.287	11569.67
568.648	11599.05
569.01	11710
569.372	11712.71
569.734	11679.27
570.095	11848.98
570.457	11863.22
570.819	11988.41
571.18	11971.69
571.542	12033.84
571.903	12047.4
572.265	12123.55
572.626	12180.72
572.987	12166.26
573.349	12244.45
573.71	12283.1
574.071	12456.88
574.432	12554.95
574.794	12543.65
575.155	12644.89
575.516	12685.8
575.877	12752.46
576.238	12853.7
576.599	12920.37
576.96	12982.96
577.32	13036.3
577.681	13173.69
578.042	13275.84
578.403	13405.33
578.763	13533.68
579.124	13588.15
579.485	13691.19
579.845	13878.76
580.206	13920.57
580.566	14040.34
580.927	14231.52
581.287	14395.36
581.648	14558.97
582.008	14681.68
582.368	14801.9
582.728	14909.69
583.089	15075.34
583.449	15217.93
583.809	15519.62
584.169	15671.03
584.529	15790.8
584.889	16140.62
585.249	16253.61
585.609	16367.28
585.969	16760.27
586.329	16835.97
586.688	17143.31
587.048	17374.03
587.408	17599.79
587.768	17838.88
588.127	17970.4
588.487	18248.81
588.846	18614.91
589.206	18708.01
589.565	19012.18
589.925	19419.63
590.284	19585.73
590.643	19816
591.003	20179.38
591.362	20415.54
591.721	20650.56
592.08	21082.86
592.44	21342.52
592.799	21608.5
593.158	21830.41
593.517	22183.17
593.876	22557.63
594.235	22640.11
594.593	22996.03
594.952	23412.75
595.311	23667.2
595.67	23843.47
596.029	24183.12
596.387	24634.41
596.746	24838.25
597.104	25014.06
597.463	25287.05
597.822	25761.84
598.18	25913.92
598.538	26125.22
598.897	26628.03
599.255	26667.8
599.613	27300.33
599.972	27523.82
600.33	27760.2
600.688	27986.41
601.046	28367.19
601.404	28652.38
601.762	28947.97
602.12	29279.48
602.478	29475.19
602.836	29793.14
603.194	30023.42
603.552	30163.75
603.91	30304.99
604.268	30868.37
604.625	30882.83
604.983	31289.83
605.341	31442.37
605.698	31806.42
606.056	32071.95
606.413	32255.23
606.771	32496.12
607.128	32749.45
607.485	32904.02
607.843	33107.86
608.2	33591.91
608.557	33765.47
608.914	33801.63
609.272	34228.28
609.629	34459.46
609.986	34709.85
610.343	34737.87
610.7	35196.39
611.057	35236.62
611.414	35282.94
611.771	35454.69
612.127	35897.62
612.484	36042.47
612.841	36231.84
613.198	36364.72
613.554	36621.21
613.911	36857.59
614.267	36977.81
614.624	37084.25
614.98	37359.05
615.337	37696.89
615.693	37629.55
616.05	37766.27
616.406	38111.57
616.762	38073.15
617.118	38261.62
617.475	38351.79
617.831	38632.46
618.187	38544.78
618.543	38810.99
618.899	39206
619.255	39022.73
619.611	39209.17
619.967	39390.86
620.323	39489.84
620.678	39536.39
621.034	39606.9
621.39	39740.68
621.746	39814.35
622.101	40348.57
622.457	40004.17
622.812	40114.45
623.168	40357.39
623.523	40502.24
623.879	40718.05
624.234	40473.77
624.589	40763.02
624.945	40709.92
625.3	40796.02
625.655	40786.98
626.01	40935.22
626.365	41098.16
626.72	41192.62
627.075	41155.78
627.43	41206.18
627.785	41141.09
628.14	41238.94
628.495	41233.75
628.85	41377.47
629.205	41205.27
629.559	41613.85
629.914	41478.26
630.269	41488.2
630.623	41502.21
630.978	41393.97
631.332	41609.33
631.687	41836.89
632.041	41734.75
632.396	41708.31
632.75	41767.52
633.104	41755.31
633.459	41659.95
633.813	41700.85
634.167	41679.16
634.521	41685.94
634.875	41715.99
635.229	41865.59
635.583	41681.19
635.937	41738.14
636.291	41760.74
636.645	41778.36
636.999	41651.59
637.352	41846.16
637.706	41602.55
638.06	41806.39
638.413	41730
638.767	41715.32
639.121	41776.56
639.474	41473.06
639.828	41588.54
640.181	41619.27
640.534	41587.41
640.888	41545.83
641.241	41432.16
641.594	41382.67
641.947	41520.07
642.301	41577.01
642.654	41491.59
643.007	41721.64
643.36	41588.77
643.713	41494.98
644.066	41577.69
644.419	41259.51
644.771	41166.18
645.124	40829.24
645.477	40857.26
645.83	40570.94
646.182	40480.32
646.535	40243.26
646.888	40424.73
647.24	40228.35
647.593	40522.58
647.945	40281.91
648.298	40231.29
648.65	40325.07
649.002	40180.21
649.355	40331.17
649.707	40295.01
650.059	40400.1
650.411	40834.66
650.763	40831.05
651.115	41209.79
651.467	41131.38
651.819	41004.83
652.171	41042.79
652.523	40918.5
652.875	40965.28
653.227	40704.95
653.578	41151.04
653.93	40928.22
654.282	40860.65
654.633	40675.34
654.985	40974.09
655.337	40849.12
655.688	40902
656.039	40905.39
656.391	40695.46
656.742	40864.94
657.094	40695.46
657.445	41077.59
657.796	40867.43
658.147	40771.39
658.498	40742.01
658.849	40880.54
659.2	40655.46
659.551	40670.37
659.902	41003.92
660.253	40847.77
660.604	40810.93
660.955	40716.02
661.306	40842.12
661.656	40736.13
662.007	40747.21
662.358	40672.63
662.708	40711.05
663.059	40558.28
663.409	40408.68
663.76	40838.73
664.11	40708.56
664.461	40748.34
664.811	40824.49
665.161	40712.4
665.511	40627.89
665.862	40825.17
666.212	40790.59
666.562	40850.48
666.912	40606.64
667.262	40643.71
667.612	40609.58
667.962	40649.58
668.312	40648
668.662	40666.98
669.011	40579.53
669.361	40654.55
669.711	40579.3
670.06	40532.75
670.41	40477.38
670.76	40460.89
671.109	40540.88
671.459	40449.36
671.808	40338.18
672.157	40523.03
672.507	40189.03
672.856	40404.16
673.205	40437.16
673.554	40478.74
673.904	40316.71
674.253	40689.81
674.602	40311.51
674.951	39824.97
675.3	39488.26
675.649	40284.17
675.998	40139.31
676.346	40170.27
676.695	40488.46
677.044	40112.19
677.393	40128.24
677.741	40272.64
678.09	39987.23
678.438	40017.96
678.787	40004.4
679.135	40023.83
679.484	39904.74
679.832	39984.74
680.181	39664.07
680.529	39843.05
680.877	39695.71
681.225	39860.22
681.573	39911.52
681.922	39608.03
682.27	39575.48
682.618	39494.13
682.966	39528.25
683.314	39563.51
683.661	39388.15
684.009	39323.29
684.357	39180.92
684.705	39159.22
685.053	39344.98
685.4	39214.14
685.748	39070.41
686.095	38945.44
686.443	38997.65
686.79	38736.64
687.138	39014.37
687.485	38975.5
687.832	38774.15
688.18	38863.87
688.527	38523.08
688.874	38526.92
689.221	38469.3
689.568	38318.12
689.915	38200.15
690.262	38307.04
690.609	38183.21
690.956	38155.18
691.303	38057.56
691.65	37816.66
691.997	37899.37
692.344	37658.93
692.69	37702.54
693.037	37592.94
693.383	37279.27
693.73	37513.62
694.077	37267.75
694.423	37297.8
694.769	37200.63
695.116	37053.97
695.462	36950.47
695.808	36940.53
696.155	36983.91
696.501	36745.28
696.847	36798.61
697.193	36385.74
697.539	36630.03
697.885	36315.46
698.231	36289.92
698.577	36145.74
698.923	36196.59
699.269	36008.57
699.614	35913.66
699.96	35779.88
700.306	35805.41
700.651	35530.85
700.997	35563.84
701.342	35585.08
701.688	35495.82
702.033	35349.61
702.379	35423.05
702.724	35141.25
703.069	35269.38
703.415	34954.36
703.76	34937.41
704.105	34973.12
704.45	34853.8
704.795	34689.06
705.14	34590.31
705.485	34515.73
705.83	34349.86
706.175	34447.26
706.52	34350.76
706.865	34190.54
707.209	34157.1
707.554	34094.5
707.899	34060.83
708.243	33893.37
708.588	33874.39
708.932	33743.1
709.277	33686.6
709.621	33738.35
709.966	33501.29
710.31	33626.94
710.654	33225.6
710.998	33309.43
711.342	33411.13
711.687	33250.91
712.031	33099.5
712.375	32992.38
712.719	33045.49
713.063	32956.45
713.407	33056.11
713.75	32980.18
714.094	32890.01
714.438	32736.57
714.782	32672.62
715.125	32636.01
715.469	32570.47
715.812	32521.43
716.156	32255
716.499	32340.87
716.843	32329.35
717.186	32150.6
717.53	32335.45
717.873	32280.31
718.216	32126.87
718.559	31970.04
718.902	31840.32
719.246	31872.64
719.589	31657.27
719.932	31761.23
720.275	31782.02
720.617	31669.93
720.96	31562.59
721.303	31513.1
721.646	31538.63
721.989	31434.68
722.331	31480.56
722.674	31411.18
723.016	31368.92
723.359	31278.98
723.701	31292.76
724.044	31043.73
724.386	30954.24
724.729	31136.38
725.071	31104.3
725.413	30978.42
725.755	31019.1
726.097	30940.46
726.439	30679.22
726.782	30744.76
727.124	30963.73
727.465	30673.12
727.807	30700.46
728.149	30506.8
728.491	30578.89
728.833	30501.37
729.175	30442.84
729.516	30377.08
729.858	30348.16
730.199	30433.58
730.541	30240.36
730.882	30190.87
731.224	30358.55
731.565	30109.29
731.906	30160.82
732.248	30128.95
732.589	29902.07
732.93	29955.62
733.271	30020.71
733.612	30033.81
733.953	29902.97
734.294	29866.81
734.635	29768.51
734.976	29853.48
735.317	29652.58
735.658	29680.6
735.999	29743.65
736.339	29584.56
736.68	29606.26
737.021	29490.1
737.361	29389.09
737.702	29543.88
738.042	29312.93
738.383	29338.01
738.723	29276.09
739.063	29261.18
739.404	29364.91
739.744	29143.22
740.084	29178.24
740.424	29149.54
740.764	29011.02
741.104	29071.58
741.444	28885.82
741.784	28973.05
742.124	28903.68
742.464	28936.44
742.804	28881.98
743.143	28731.25
743.483	28759.05
743.823	28660.29
744.162	28555.44
744.502	28703.45
744.841	28550.01
745.181	28697.58
745.52	28420.98
745.86	28609.9
746.199	28508.43
746.538	28389.11
746.877	28435.66
747.216	28422.33
747.556	28309.57
747.895	28313.63
748.234	28181.66
748.573	28262.79
748.911	28258.04
749.25	28190.02
749.589	28006.75
749.928	28033.64
750.267	28094.88
750.605	28055.56
750.944	27895.11
751.283	27750.94
751.621	27945.96
751.96	27717.72
752.298	27686.53
752.636	27654.67
752.975	27622.35
753.313	27559.3
753.651	27579.64
753.989	27433.66
754.327	27418.74
754.666	27286.32
755.004	27266.66
755.342	27221.46
755.679	27227.56
756.017	27146.66
756.355	27178.97
756.693	27049.94
757.031	27017.4
757.368	26922.03
757.706	26971.75
758.044	26719.33
758.381	26813.11
758.719	26705.31
759.056	26677.07
759.394	26542.38
759.731	26578.99
760.068	26438.88
760.405	26303.52
760.743	26190.3
761.08	26283.63
761.417	26099.91
761.754	26088.38
762.091	25971.77
762.428	25892.45
762.765	25765.9
763.102	25919.35
763.438	25698.11
763.775	25716.41
764.112	25645.46
764.449	25689.3
764.785	25530.88
765.122	25346.71
765.458	25218.12
765.795	25164.11
766.131	25137.67
766.467	25178.8
766.804	25095.87
767.14	24890
767.476	24826.95
767.812	24783.33
768.148	24846.38
768.485	24600.29
768.821	24463.34
769.157	24376.11
769.492	24403
769.828	24343.34
770.164	24172.27
770.5	24082.56
770.836	24041.43
771.171	23922.34
771.507	23857.48
771.842	23694.09
772.178	23745.62
772.513	23651.38
772.849	23619.97
773.184	23437.83
773.519	23525.06
773.855	23339.08
774.19	23260.43
774.525	23086.43
774.86	23027.9
775.195	23037.39
775.53	22928.01
775.865	22845.3
776.2	22690.96
776.535	22641.01
776.87	22663.16
777.205	22528.93
777.539	22334.81
777.874	22396.73
778.209	22272.89
778.543	22110.18
778.878	22024.31
779.212	22083.74
779.547	21861.15
779.881	21867.93
780.215	21672.68
780.55	21874.26
780.884	21675.16
781.218	21657.99
781.552	21488.05
781.886	21468.62
782.22	21331.67
782.554	21149.98
782.888	21017.55
783.222	20972.58
783.556	20971
783.889	20892.13
784.223	20755.19
784.557	20726.04
784.89	20730.1
785.224	20645.59
785.557	20551.58
785.891	20413.5
786.224	20421.19
786.558	20458.93
786.891	20140.06
787.224	20186.16
787.557	20075.21
787.891	20014.87
788.224	19931.48
788.557	19952.27
788.89	19944.59
789.223	19920.41
789.556	19725.16
789.888	19660.53
790.221	19685.84
790.554	19395.9
790.887	19496.46
791.219	19466.86
791.552	19313.42
791.884	19216.7
792.217	19171.28
792.549	19173.08
792.882	19035.01
793.214	18915.92
793.546	18991.85
793.879	18871.85
794.211	18759.31
794.543	18905.29
794.875	18736.71
795.207	18779.65
795.539	18560.22
795.871	18635.02
796.203	18422.82
796.535	18375.36
796.867	18430.5
797.198	18228.48
797.53	18266.21
797.862	18149.83
798.193	18178.08
798.525	17991.19
798.856	18036.84
799.188	17885.66
799.519	17837.3
799.85	17720.47
800.182	17724.76
800.513	17770.41
800.844	17529.51
801.175	17696.74
801.506	17649.06
801.837	17454.71
802.168	17389.85
802.499	17370.87
802.83	17337.2
803.161	17217.65
803.491	17238.22
803.822	17198.67
804.153	17152.35
804.483	17050.88
804.814	16912.35
805.145	16935.63
805.475	16766.82
805.805	16826.93
806.136	16857.89
806.466	16800.04
806.796	16701.28
807.126	16667.61
807.457	16538.8
807.787	16624.22
808.117	16459.93
808.447	16442.53
808.777	16420.61
809.107	16365.47
809.436	16351.24
809.766	16327.96
810.096	16315.98
810.426	16227.4
810.755	16143.11
811.085	16153.05
811.414	16106.5
811.744	16026.05
812.073	15910.8
812.403	15918.03
812.732	15833.51
813.061	15849.1
813.39	15788.54
813.719	15647.3
814.049	15855.88
814.378	15771.36
814.707	15697.69
815.036	15627.87
815.365	15555.55
815.693	15458.6
816.022	15452.5
816.351	15436.46
816.68	15318.04
817.008	15351.49
817.337	15240.98
817.665	15185.62
817.994	15299.96
818.322	15207.54
818.651	15121.21
818.979	15076.24
819.307	15146.3
819.636	15078.95
819.964	14975
820.292	14958.05
820.62	15007.77
820.948	14928
821.276	15005.74
821.604	14932.52
821.932	14904.72
822.259	14981.1
822.587	14919.64
822.915	14898.62
823.243	14916.7
823.57	14902.01
823.898	14884.61
824.225	14906.53
824.553	14796.7
824.88	14894.55
825.207	14923.48
825.535	14868.79
825.862	14798.51
826.189	14875.57
826.516	14921.44
826.843	14857.26
827.17	14900.43
827.497	14831.05
827.824	14910.14
828.151	14829.47
828.478	14873.54
828.805	14998.73
829.131	14798.06
829.458	14824.72
829.785	14737.49
830.111	14826.08
830.438	14890.26
830.764	14774.33
831.09	14910.82
831.417	14786.76
831.743	14779.75
832.069	14789.24
832.395	14732.52
832.722	14835.57
833.048	14799.87
833.374	14758.06
833.7	14725.29
834.026	14807.77
834.351	14673.99
834.677	14677.61
835.003	14752.18
835.329	14659.08
835.654	14673.09
835.98	14529.36
836.306	14605.97
836.631	14550.61
836.956	14596.25
837.282	14606.2
837.607	14464.73
837.932	14383.6
838.258	14430.61
838.583	14481.46
838.908	14367.56
839.233	14350.84
839.558	14348.58
839.883	14312.65
840.208	14297.73
840.533	14288.24
840.858	14284.85
841.182	14274.23
841.507	14220.22
841.832	14149.03
842.156	14081.47
842.481	14175.47
842.805	14066.1
843.13	14045.31
843.454	14022.03
843.778	13982.03
844.103	13957.18
844.427	13949.72
844.751	13944.52
845.075	13885.99
845.399	13856.16
845.723	13714.92
846.047	13729.61
846.371	13580.46
846.695	13593.8
847.019	13506.34
847.343	13507.7
847.666	13361.71
847.99	13336.4
848.313	13327.59
848.637	13222.96
848.96	13246.91
849.284	13171.89
849.607	13112.45
849.931	13027.26
850.254	12936.19
850.577	12886.24
850.9	12805.12
851.223	12772.57
851.546	12771.22
851.869	12721.5
852.192	12793.14
852.515	12679.92
852.838	12562.41
853.161	12635.63
853.483	12505.46
853.806	12458.46
854.129	12441.28
854.451	12346.82
854.774	12309.99
855.096	12379.36
855.419	12321.29
855.741	12274.96
856.063	12221.18
856.385	12106.6
856.708	12073.16
857.03	11987.51
857.352	12069.99
857.674	12008.98
857.996	11938.92
858.318	11899.38
858.64	11932.6
858.961	11904.8
859.283	11802.88
859.605	11734.86
859.926	11832.94
860.248	11702.09
860.57	11626.84
860.891	11670.23
861.212	11629.1
861.534	11583.45
861.855	11591.81
862.176	11610.12
862.498	11521.31
862.819	11519.05
863.14	11441.99
863.461	11441.54
863.782	11431.82
864.103	11444.25
864.424	11416.68
864.745	11437.02
865.065	11328.77
865.386	11259.62
865.707	11292.84
866.027	11350.92
866.348	11262.33
866.668	11311.6
866.989	11307.75
867.309	11182.56
867.63	11247.19
867.95	11198.38
868.27	11091.49
868.59	11154.54
868.91	11051.26
869.23	11153.63
869.55	10987.08
869.87	11135.1
870.19	11056.46
870.51	11074.31
870.83	11055.1
871.15	10971.94
871.469	10905.5
871.789	10942.79
872.109	10974.43
872.428	10801.33
872.748	10839.52
873.067	10865.28
873.386	10842.23
873.706	10867.31
874.025	10782.34
874.344	10680.65
874.663	10791.38
874.982	10748.67
875.301	10724.49
875.62	10661.89
875.939	10658.51
876.258	10678.84
876.577	10677.94
876.896	10697.83
877.214	10653.76
877.533	10633.87
877.852	10673.65
878.17	10583.25
878.489	10615.57
878.807	10572.18
879.125	10515.23
879.444	10547.32
879.762	10442.01
880.08	10409.92
880.398	10389.59
880.716	10466.42
881.034	10452.41
881.352	10401.34
881.67	10402.92
881.988	10370.6
882.306	10404.27
882.624	10325.86
882.941	10279.31
883.259	10186.88
883.577	10216.48
883.894	10202.7
884.212	10170.38
884.529	10158.18
884.846	10076.83
885.164	10095.13
885.481	10075.92
885.798	10150.95
886.115	9973.78
886.432	10065.3
886.75	9993.44
887.067	10043.61
887.383	9965.42
887.7	9865.53
888.017	9831.63
888.334	9915.7
888.651	9854.91
888.967	9883.16
889.284	9847.68
889.6	9797.06
889.917	9710.06
890.233	9721.35
890.55	9710.06
890.866	9644.75
891.182	9703.5
891.498	9649.49
891.815	9630.28
892.131	9542.6
892.447	9556.39
892.763	9475.49
893.079	9424.64
893.395	9393
893.71	9450.85
894.026	9417.41
894.342	9330.86
894.657	9339.9
894.973	9336.28
895.289	9292.89
895.604	9209.05
895.92	9163.18
896.235	9128.15
896.55	9144.19
896.865	9113.46
897.181	9089.73
897.496	9062.61
897.811	9016.51
898.126	9013.35
898.441	8917.31
898.756	8929.06
899.071	8874.37
899.386	8890.64
899.7	8788.72
900.015	8792.57
900.33	8747.14
900.644	8696.97
900.959	8716.64
901.273	8669.86
901.588	8677.09
901.902	8640.48
902.216	8604.55
902.531	8558.22
902.845	8538.56
903.159	8433.03
903.473	8401.39
903.787	8415.17
904.101	8381.28
904.415	8394.16
904.729	8309.19
905.042	8306.7
905.356	8284.78
905.67	8282.52
905.984	8227.38
906.297	8199.13
906.611	8142.41
906.924	8148.97
907.237	8111.23
907.551	8074.39
907.864	8066.26
908.177	8006.15
908.491	7966.37
908.804	7939.48
909.117	7881.18
909.43	7819.03
909.743	7786.26
910.056	7816.09
910.368	7730.9
910.681	7763.44
910.994	7722.54
911.307	7760.73
911.619	7619.04
911.932	7678.47
912.244	7607.06
912.557	7577.68
912.869	7522.77
913.181	7467.18
913.494	7438.02
913.806	7431.47
914.118	7389.89
914.43	7364.13
914.742	7386.05
915.054	7286.39
915.366	7261.76
915.678	7294.53
915.99	7248.88
916.302	7188.09
916.613	7139.28
916.925	7136.56
917.236	7122.55
917.548	7083.91
917.859	7047.07
918.171	6992.84
918.482	6973.63
918.794	6923.46
919.105	6971.6
919.416	6907.64
919.727	6801.88
920.038	6855.67
920.349	6771.38
920.66	6804.82
920.971	6745.16
921.282	6732.73
921.593	6675.78
921.903	6594.21
922.214	6624.71
922.525	6580.42
922.835	6619.97
923.146	6558.95
923.456	6539.74
923.767	6490.48
924.077	6472.17
924.387	6444.38
924.697	6391.72
925.008	6408.9
925.318	6390.37
925.628	6342.69
925.938	6298.17
926.248	6217.72
926.558	6232.63
926.867	6258.62
927.177	6223.82
927.487	6156.48
927.796	6090.49
928.106	6107.21
928.416	6114.44
928.725	6116.93
929.034	6060.43
929.344	6052.3
929.653	6010.72
929.962	5999.19
930.271	5913.55
930.581	5910.16
930.89	5874.68
931.199	5847.56
931.508	5866.31
931.817	5833.1
932.125	5773.66
932.434	5784.06
932.743	5713.32
933.051	5689.37
933.36	5671.97
933.669	5612.76
933.977	5629.94
934.286	5619.99
934.594	5606.21
934.902	5558.75
935.21	5519.43
935.519	5528.7
935.827	5459.09
936.135	5506.55
936.443	5420.45
936.751	5437.85
937.059	5406.89
937.367	5386.33
937.674	5338.87
937.982	5399.66
938.29	5349.94
938.597	5343.16
938.905	5297.74
939.213	5195.37
939.52	5230.17
939.827	5204.64
940.135	5180.46
940.442	5156.73
940.749	5131.87
941.056	5134.81
941.363	5093
941.67	5076.73
941.977	5036.96
942.284	5000.35
942.591	4966.45
942.898	4965.1
943.205	4954.7
943.511	4963.97
943.818	4913.12
944.125	4919.9
944.431	4897.53
944.738	4888.04
945.044	4858.43
945.35	4837.19
945.657	4774.37
945.963	4770.52
946.269	4717.64
946.575	4734.82
946.881	4688.27
947.187	4689.4
947.493	4693.24
947.799	4669.74
948.105	4640.81
948.41	4609.17
948.716	4574.15
949.022	4610.08
949.327	4536.41
949.633	4471.78
949.938	4526.91
950.244	4486.92
950.549	4485.79
950.854	4432.91
951.16	4426.13
951.465	4437.2
951.77	4384.09
952.075	4330.08
952.38	4347.71
952.685	4382.51
952.99	4333.25
953.294	4255.06
953.599	4262.97
953.904	4242.4
954.209	4222.29
954.513	4222.74
954.818	4203.08
955.122	4206.02
955.426	4137.09
955.731	4119.24
956.035	4109.75
956.339	4086.93
956.643	4084.89
956.948	4117.66
957.252	4039.7
957.556	4043.76
957.86	4019.13
958.163	4014.61
958.467	4027.94
958.771	4001.5
959.075	3953.37
959.378	3910.66
959.682	3943.88
959.985	3887.38
960.289	3896.2
960.592	3885.58
960.896	3820.72
961.199	3847.61
961.502	3797.89
961.805	3822.3
962.108	3752.47
962.411	3752.47
962.714	3764.9
963.017	3722.42
963.32	3768.06
963.623	3733.49
963.926	3710.89
964.228	3678.58
964.531	3692.59
964.833	3687.39
965.136	3631.12
965.438	3632.93
965.741	3605.58
966.043	3594.28
966.345	3556.32
966.648	3522.2
966.95	3549.77
967.252	3502.76
967.554	3474.51
967.856	3498.02
968.158	3446.72
968.46	3444.23
968.761	3467.73
969.063	3440.62
969.365	3378.92
969.666	3401.29
969.968	3408.07
970.269	3394.06
970.571	3319.94
970.872	3348.19
971.174	3336.66
971.475	3325.14
971.776	3291.24
972.077	3298.02
972.378	3272.26
972.679	3246.27
972.98	3256.21
973.281	3236.78
973.582	3216.89
973.883	3201.07
974.183	3203.33
974.484	3190.68
974.785	3114.52
975.085	3165.59
975.386	3148.42
975.686	3152.71
975.986	3079.5
976.287	3116.33
976.587	3065.26
976.887	3063.22
977.187	3054.41
977.487	3033.39
977.787	3039.5
978.087	3027.07
978.387	2995.66
978.687	2975.54
978.987	2964.02
979.286	2945.71
979.586	2947.97
979.885	2940.29
980.185	2915.66
980.484	2906.62
980.784	2856
981.083	2860.07
981.382	2898.71
981.682	2885.6
981.981	2814.64
982.28	2850.35
982.579	2799.73
982.878	2845.15
983.177	2780.75
983.475	2736.23
983.774	2726.74
984.073	2754.08
984.372	2724.7
984.67	2752.72
984.969	2718.37
985.267	2711.14
985.566	2718.83
985.864	2684.48
986.162	2635.44
986.461	2651.94
986.759	2666.85
987.057	2594.54
987.355	2623.46
987.653	2574.42
987.951	2612.16
988.249	2566.97
988.547	2574.65
988.844	2541.43
989.142	2553.18
989.44	2529.91
989.737	2520.19
990.035	2475.67
990.332	2528.78
990.63	2480.42
990.927	2468.89
991.224	2474.77
991.521	2470.92
991.819	2448.78
992.116	2460.53
992.413	2412.62
992.71	2398.38
993.006	2414.43
993.303	2380.08
993.6	2407.42
993.897	2355.67
994.193	2390.7
994.49	2329.91
994.787	2343.02
995.083	2298.95
995.379	2308.44
995.676	2305.28
995.972	2316.8
996.268	2295.56
996.565	2244.71
996.861	2242.91
997.157	2230.48
997.453	2224.15
997.749	2245.62
998.044	2181.67
998.34	2246.07
998.636	2176.92
998.932	2197.48
999.227	2146.19
999.523	2160.88
999.818	2115.23
1000.114	2146.41
1000.409	2109.8
1000.704	2137.15
1001	2109.13
1001.295	2100.76
1001.59	2074.55
1001.885	2081.56
1002.18	2039.07
1002.475	2049.47
1002.77	2021.44
1003.065	2016.25
1003.359	2020.54
1003.654	2029.35
1003.949	1960.88
1004.243	2002.69
1004.538	1969.24
1004.832	1956.81
1005.127	1978.73
1005.421	1959.3
1005.715	1941.22
1006.009	1915.23
1006.304	1933.99
1006.598	1884.05
1006.892	1878.4
1007.186	1848.79
1007.48	1880.88
1007.773	1854.89
1008.067	1862.35
1008.361	1868.45
1008.655	1830.71
1008.948	1813.54
1009.242	1791.62
1009.535	1795.01
1009.829	1784.39
1010.122	1750.26
1010.415	1737.61
1010.708	1768.8
1011.001	1756.82
1011.295	1703.94
1011.588	1714.79
1011.881	1699.42
1012.173	1715.92
1012.466	1707.78
1012.759	1680.89
1013.052	1695.12
1013.344	1673.43
1013.637	1679.31
1013.93	1643.83
1014.222	1647.89
1014.514	1613.55
1014.807	1613.32
1015.099	1581.68
1015.391	1593.21
1015.683	1588.69
1015.976	1585.98
1016.268	1559.08
1016.56	1550.95
1016.851	1537.61
1017.143	1517.95
1017.435	1526.09
1017.727	1537.84
1018.018	1511.17
1018.31	1479.76
1018.602	1506.66
1018.893	1482.7
1019.185	1460.78
1019.476	1472.53
1019.767	1466.2
1020.058	1461.01
1020.35	1430.27
1020.641	1425.3
1020.932	1435.7
1021.223	1430.27
1021.514	1388.24
1021.804	1399.77
1022.095	1377.85
1022.386	1379.65
1022.677	1373.78
1022.967	1353.89
1023.258	1336.04
1023.548	1338.75
1023.839	1362.25
1024.129	1325.87
1024.419	1307.56
1024.709	1329.94
1025	1309.82
1025.29	1300.33
1025.58	1303.95
1025.87	1273.89
1026.16	1277.06
1026.449	1247.23
1026.739	1277.51
1027.029	1255.36
1027.319	1218.53
1027.608	1200.45
1027.898	1238.41
1028.187	1205.65
1028.477	1164.74
1028.766	1164.74
1029.055	1187.57
1029.344	1177.4
1029.634	1186.66
1029.923	1145.53
1030.212	1153.22
1030.501	1165.42
1030.79	1161.58
1031.078	1083.62
1031.367	1118.42
1031.656	1132.65
1031.945	1102.6
1032.233	1112.99
1032.522	1108.02
1032.81	1079.55
1033.099	1085.65
1033.387	1075.25
1033.675	1052.88
1033.963	1069.6
1034.251	1079.1
1034.54	1044.75
1034.828	1053.11
1035.116	1026.44
1035.403	1027.35
1035.691	1038.65
1035.979	1014.46
1036.267	1029.61
1036.554	1018.08
1036.842	1017.4
1037.129	968.36
1037.417	1001.58
1037.704	978.53
1037.992	964.52
1038.279	967.69
1038.566	974.01
1038.853	974.01
1039.14	974.01
