Data from hue_40_FLMS001491_63.txt Node
Date: Mon Feb 06 15:08:15 GMT 2017
User: dcchb
Spectrometer: FLMS00149
Trigger mode: 0
Integration Time (sec): 2.000000E-2
Scans to average: 10
Electric dark correction enabled: true
Nonlinearity correction enabled: false
Boxcar width: 0
XAxis mode: Wavelengths
Number of Pixels in Spectrum: 2048
>>>>>Begin Spectral Data<<<<<
341.393	-26.93
341.776	-26.93
342.16	-26.93
342.543	-42.53
342.927	-73.49
343.31	-82.3
343.693	-53.6
344.077	-62.64
344.46	-64.67
344.843	-49.98
345.226	-38.23
345.61	-34.62
345.993	-14.28
346.376	-12.7
346.759	25.27
347.142	24.59
347.525	20.75
347.908	54.65
348.291	72.05
348.674	108.88
349.057	106.85
349.44	133.29
349.823	153.17
350.206	169.67
350.588	205.15
350.971	218.71
351.354	231.36
351.737	239.5
352.119	246.28
352.502	271.36
352.884	266.39
353.267	261.87
353.65	279.5
354.032	309.1
354.414	316.11
354.797	305.49
355.179	327.63
355.562	321.08
355.944	345.03
356.326	321.53
356.709	340.97
357.091	335.54
357.473	352.04
357.855	355.65
358.238	341.87
358.62	340.97
359.002	337.35
359.384	345.03
359.766	339.84
360.148	344.58
360.53	344.13
360.912	354.3
361.294	326.28
361.676	314.07
362.057	333.73
362.439	322.66
362.821	343.23
363.203	355.2
363.584	343.23
363.966	334.64
364.348	335.77
364.729	305.03
365.111	330.12
365.493	342.77
365.874	328.99
366.256	316.79
366.637	318.37
367.019	340.74
367.4	325.82
367.781	326.5
368.163	318.14
368.544	324.69
368.925	337.35
369.306	326.5
369.688	308.2
370.069	314.98
370.45	318.59
370.831	312.94
371.212	338.48
371.593	329.44
371.974	331.25
372.355	309.33
372.736	318.37
373.117	319.5
373.498	328.31
373.879	346.62
374.26	340.06
374.641	319.05
375.021	335.54
375.402	338.71
375.783	330.57
376.163	337.35
376.544	338.71
376.925	320.4
377.305	323.79
377.686	341.19
378.066	333.51
378.447	339.84
378.827	343.45
379.208	344.81
379.588	339.61
379.968	348.65
380.349	334.41
380.729	341.64
381.109	363.79
381.489	355.43
381.87	347.29
382.25	349.78
382.63	347.07
383.01	351.59
383.39	348.42
383.77	356.78
384.15	352.94
384.53	346.39
384.91	350
385.29	371.02
385.67	368.54
386.049	359.72
386.429	347.75
386.809	380.51
387.189	385.26
387.568	373.06
387.948	359.27
388.328	376.44
388.707	369.44
389.087	372.83
389.466	366.05
389.846	398.59
390.225	381.42
390.605	402.88
390.984	374.19
391.363	371.02
391.743	367.63
392.122	395.88
392.501	390.23
392.881	388.2
393.26	397.91
393.639	383
394.018	381.64
394.397	404.92
394.776	385.94
395.155	386.84
395.534	399.04
395.913	404.69
396.292	388.87
396.671	396.33
397.05	403.34
397.429	413.28
397.808	410.12
398.186	411.7
398.565	394.3
398.944	410.34
399.323	385.71
399.701	404.69
400.08	412.83
400.458	409.66
400.837	431.58
401.215	430.68
401.594	430.23
401.972	440.85
402.351	419.83
402.729	427.97
403.107	418.93
403.486	448.31
403.864	445.37
404.242	450.12
404.62	460.51
404.999	439.95
405.377	448.53
405.755	445.82
406.133	432.04
406.511	451.92
406.889	454.86
407.267	450.57
407.645	489.89
408.023	453.51
408.401	452.38
408.779	459.38
409.156	446.05
409.534	461.87
409.912	451.92
410.29	466.39
410.667	467.97
411.045	486.05
411.422	503
411.8	501.41
412.178	497.57
412.555	496.89
412.933	489.66
413.31	510.45
413.687	513.39
414.065	506.16
414.442	521.98
414.819	494.86
415.197	513.16
415.574	527.63
415.951	501.87
416.328	502.32
416.705	533.95
417.082	525.14
417.46	552.71
417.837	547.97
418.214	545.03
418.591	525.37
418.967	549.55
419.344	545.03
419.721	567.4
420.098	554.75
420.475	558.14
420.852	565.37
421.228	555.65
421.605	579.38
421.982	575.31
422.358	576.21
422.735	582.99
423.111	589.55
423.488	598.36
423.864	604.24
424.241	603.78
424.617	594.07
424.994	609.89
425.37	610.11
425.746	609.66
426.123	615.31
426.499	624.8
426.875	609.66
427.251	630.9
427.627	640.62
428.003	625.7
428.379	653.95
428.756	637
429.132	661.18
429.507	642.43
429.883	639.26
430.259	673.61
430.635	674.29
431.011	669.54
431.387	672.48
431.763	673.16
432.138	702.54
432.514	713.61
432.89	707.28
433.265	722.2
433.641	714.74
434.016	705.48
434.392	719.26
434.767	747.96
435.143	743.67
435.518	750.22
435.894	758.58
436.269	762.42
436.644	754.06
437.02	783.89
437.395	782.76
437.77	773.27
438.145	768.98
438.52	797.68
438.895	783.67
439.271	806.04
439.646	805.36
440.021	829.31
440.395	828.64
440.77	836.32
441.145	820.73
441.52	846.49
441.895	837
442.27	859.37
442.645	836.55
443.019	873.16
443.394	866.83
443.769	886.26
444.143	837.9
444.518	883.1
444.892	874.06
445.267	878.8
445.641	899.14
446.016	899.37
446.39	897.79
446.764	921.74
447.139	914.96
447.513	897.34
447.887	912.7
448.262	935.75
448.636	928.97
449.01	917.45
449.384	947.5
449.758	946.37
450.132	968.52
450.506	972.14
450.88	966.94
451.254	972.36
451.628	979.37
452.002	979.14
452.376	991.8
452.75	987.73
453.123	1000.38
453.497	1005.58
453.871	1043.09
454.244	1068.18
454.618	1063.21
454.992	1068.63
455.365	1091
455.739	1078.57
456.112	1102.08
456.486	1113.37
456.859	1113.83
457.232	1150.66
457.606	1109.31
457.979	1146.59
458.352	1136.42
458.725	1180.49
459.099	1159.7
459.472	1252.35
459.845	1243.54
460.218	1240.83
460.591	1230.89
460.964	1257.78
461.337	1287.38
461.71	1306.14
462.083	1293.93
462.456	1325.8
462.829	1342.3
463.201	1341.39
463.574	1347.72
463.947	1380.03
464.32	1430.2
464.692	1421.39
465.065	1429.75
465.438	1448.51
465.81	1493.48
466.183	1496.87
466.555	1492.8
466.928	1542.52
467.3	1533.7
467.672	1553.36
468.045	1566.02
468.417	1603.53
468.789	1596.3
469.161	1652.8
469.534	1686.01
469.906	1713.36
470.278	1723.53
470.65	1767.37
471.022	1768.72
471.394	1819.34
471.766	1811.44
472.138	1852.11
472.51	1902.28
472.882	1968.49
473.253	2012.33
473.625	2028.83
473.997	2086.23
474.369	2042.84
474.74	2132.1
475.112	2161.26
475.484	2224.08
475.855	2267.69
476.227	2326
476.598	2370.52
476.97	2399.22
477.341	2460.23
477.713	2536.84
478.084	2598.99
478.455	2636.27
478.827	2661.81
479.198	2747.91
479.569	2831.75
479.94	2921.91
480.311	2988.35
480.682	3036.26
481.053	3103.6
481.424	3235.13
481.795	3275.58
482.166	3332.3
482.537	3440.77
482.908	3513.09
483.279	3591.5
483.65	3729.35
484.021	3809.8
484.391	3860.65
484.762	3951.27
485.133	4032.62
485.503	4098.15
485.874	4242.78
486.244	4290.69
486.615	4416.11
486.985	4543.57
487.356	4637.58
487.726	4698.59
488.097	4832.37
488.467	4913.05
488.837	5077.34
489.207	5173.83
489.578	5309.87
489.948	5441.62
490.318	5486.14
490.688	5623.99
491.058	5832.12
491.428	5861.5
491.798	5977.2
492.168	6085.67
492.538	6199.12
492.908	6325.89
493.278	6447.47
493.648	6512.78
494.017	6634.13
494.387	6736.28
494.757	6815.6
495.126	6981.02
495.496	7092.65
495.866	7188.24
496.235	7286.77
496.605	7371.97
496.974	7434.11
497.344	7665.29
497.713	7727.44
498.082	7780.32
498.452	7982.8
498.821	8061.44
499.19	8084.49
499.559	8228.89
499.928	8313.86
500.298	8389.57
500.667	8545.04
501.036	8598.6
501.405	8702.1
501.774	8765.6
502.143	8874.07
502.512	8922.89
502.88	9069.78
503.249	9107.51
503.618	9253.95
503.987	9286.04
504.356	9417.56
504.724	9500.5
505.093	9549.31
505.462	9582.53
505.83	9778.23
506.199	9782.07
506.567	10001.5
506.936	9975.97
507.304	10080.37
507.672	10152.91
508.041	10222.97
508.409	10404.88
508.777	10475.16
509.145	10508.83
509.514	10585.89
509.882	10738.43
510.25	10729.17
510.618	10861.59
510.986	10857.3
511.354	10955.6
511.722	11119.21
512.09	11238.53
512.458	11201.25
512.826	11311.75
513.193	11419.77
513.561	11472.88
513.929	11665.19
514.297	11676.71
514.664	11750.84
515.032	11782.7
515.4	11903.15
515.767	11952.86
516.135	12062.92
516.502	12001.68
516.869	12336.13
517.237	12332.74
517.604	12335.9
517.972	12492.28
518.339	12529.8
518.706	12529.12
519.073	12528.67
519.44	12701.77
519.808	12791.26
520.175	12889.56
520.542	13028.77
520.909	13042.55
521.276	13082.78
521.643	13205.26
522.009	13318.7
522.376	13319.83
522.743	13519.38
523.11	13637.34
523.477	13708.3
523.843	13786.49
524.21	13927.5
524.577	14023.77
524.943	14099.25
525.31	14086.14
525.676	14205.23
526.043	14368.39
526.409	14423.76
526.776	14603.87
527.142	14629.18
527.508	14761.6
527.874	14805.22
528.241	14893.13
528.607	14862.39
528.973	15060.13
529.339	15104.65
529.705	15189.16
530.071	15362.04
530.437	15370.85
530.803	15474.13
531.169	15606.55
531.535	15593.67
531.901	15616.5
532.267	15773.33
532.632	15841.12
532.998	15913.89
533.364	16057.61
533.73	16035.24
534.095	16113.88
534.461	16184.16
534.826	16326.99
535.192	16332.41
535.557	16538.73
535.923	16563.59
536.288	16607.2
536.653	16682.68
537.019	16668.67
537.384	16823.7
537.749	16885.62
538.114	16863.92
538.479	16961.55
538.845	17088.32
539.21	17083.12
539.575	17241.31
539.94	17249
540.305	17323.12
540.67	17331.03
541.034	17345.72
541.399	17510.68
541.764	17610.79
542.129	17605.37
542.494	17685.59
542.858	17773.95
543.223	17718.81
543.587	17909.09
543.952	17804.24
544.316	17982.54
544.681	17979.15
545.045	18052.36
545.41	18237.44
545.774	18241.51
546.138	18223.43
546.503	18288.06
546.867	18401.73
547.231	18539.81
547.595	18596.3
547.959	18662.97
548.324	18693.48
548.688	18642.63
549.052	18835.85
549.416	18928.5
549.779	18927.14
550.143	18947.26
550.507	19069.96
550.871	19198.32
551.235	19033.81
551.599	19267.25
551.962	19309.96
552.326	19386.57
552.689	19508.82
553.053	19319.45
553.417	19516.05
553.78	19761.7
554.143	19680.8
554.507	19746.56
554.87	19923.05
555.234	20087.34
555.597	19902.03
555.96	20007.34
556.323	20133.89
556.686	20154.91
557.05	20266.09
557.413	20313.32
557.776	20353.32
558.139	20507.44
558.502	20514.9
558.865	20617.04
559.228	20652.07
559.59	20806.19
559.953	20805.06
560.316	21072.4
560.679	21078.73
561.041	21108.78
561.404	21204.82
561.767	21459.73
562.129	21243.69
562.492	21563.46
562.854	21412.05
563.217	21484.59
563.579	21629.45
563.941	21733.62
564.304	21896.56
564.666	22016.55
565.028	22119.6
565.39	22060.62
565.753	22169.54
566.115	22233.72
566.477	22351.23
566.839	22385.81
567.201	22535.18
567.563	22540.83
567.925	22699.25
568.287	22728.17
568.648	22828.06
569.01	22881.39
569.372	23090.65
569.734	23035.51
570.095	23196.18
570.457	23315.95
570.819	23381.49
571.18	23347.37
571.542	23495.61
571.903	23574.93
572.265	23662.61
572.626	23846.56
572.987	23804.3
573.349	23893.34
573.71	24150.74
574.071	24162.94
574.432	24344.85
574.794	24484.29
575.155	24490.39
575.516	24408.81
575.877	24691.74
576.238	24779.65
576.599	24916.82
576.96	24943.71
577.32	25087.89
577.681	25175.11
578.042	25311.83
578.403	25382.79
578.763	25572.62
579.124	25799.05
579.485	25806.74
579.845	26013.06
580.206	26178.25
580.566	26299.83
580.927	26461.63
581.287	26589.09
581.648	26713.15
582.008	26847.16
582.368	26887.16
582.728	27162.86
583.089	27310.88
583.449	27350.65
583.809	27519.91
584.169	27876.06
584.529	27932.56
584.889	28202.15
585.249	28262.04
585.609	28364.41
585.969	28629.71
586.329	28726.43
586.688	28913.1
587.048	29129.81
587.408	29209.36
587.768	29363.71
588.127	29545.62
588.487	29625.17
588.846	30046.17
589.206	29951.03
589.565	30362.55
589.925	30492.94
590.284	30617.01
590.643	30864
591.003	31178.12
591.362	31320.72
591.721	31391.9
592.08	31574.72
592.44	31831.44
592.799	32009.96
593.158	32055.84
593.517	32229.62
593.876	32546.67
594.235	32733.56
594.593	32863.95
594.952	33078.41
595.311	33064.85
595.67	33334.45
596.029	33635.01
596.387	33781.44
596.746	34057.59
597.104	34014.66
597.463	34255.33
597.822	34444.25
598.18	34561.31
598.538	34716.78
598.897	34952.94
599.255	35028.87
599.613	35478.12
599.972	35542.53
600.33	35691.9
600.688	35720.6
601.046	35872.01
601.404	36153.36
601.762	36245.33
602.12	36497.98
602.478	36700.01
602.836	36689.16
603.194	36682.61
603.552	36837.18
603.91	36980.23
604.268	37226.55
604.625	37183.84
604.983	37465.87
605.341	37345.87
605.698	37547.9
606.056	37849.81
606.413	37861.33
606.771	38098.39
607.128	38275.56
607.485	38200.08
607.843	38237.6
608.2	38568.21
608.557	38685.49
608.914	38607.98
609.272	39032.38
609.629	39094.75
609.986	39395.31
610.343	39198.02
610.7	39594.62
611.057	39624.23
611.414	39621.51
611.771	39685.47
612.127	39944.67
612.484	39961.62
612.841	40207.26
613.198	40103.54
613.554	40176.98
613.911	40487.48
614.267	40545.78
614.624	40587.14
614.98	40766.57
615.337	40727.93
615.693	40831.2
616.05	40957.07
616.406	41035.04
616.762	40997.75
617.118	41053.12
617.475	41254.92
617.831	41429.15
618.187	41450.62
618.543	41567.9
618.899	41869.59
619.255	41787.56
619.611	41831.4
619.967	42047.89
620.323	41997.95
620.678	42088.79
621.034	42002.47
621.39	41968.57
621.746	42089.02
622.101	42505.05
622.457	42188.68
622.812	42290.37
623.168	42374.66
623.523	42575.79
623.879	42525.85
624.234	42338.73
624.589	42505.96
624.945	42460.76
625.3	42652.85
625.655	42770.81
626.01	42662.79
626.365	42781.66
626.72	42752.28
627.075	42762.22
627.43	42749.79
627.785	42731.94
628.14	42816.91
628.495	42834.99
628.85	42850.81
629.205	42896.23
629.559	43042.89
629.914	42823.46
630.269	42990.24
630.623	42823.69
630.978	42775.33
631.332	43029.33
631.687	43008.77
632.041	42886.51
632.396	43005.38
632.75	42795.89
633.104	42947.3
633.459	42832.96
633.813	42885.84
634.167	42802.67
634.521	42786.86
634.875	42949.11
635.229	42795.22
635.583	42713.64
635.937	42772.84
636.291	42707.99
636.645	42668.89
636.999	42627.54
637.352	42791.83
637.706	42598.61
638.06	42716.8
638.413	42597.93
638.767	42475.22
639.121	42612.62
639.474	42443.59
639.828	42473.64
640.181	42464.6
640.534	42467.32
640.888	42369.92
641.241	42168.79
641.594	42366.53
641.947	42385.06
642.301	42321.78
642.654	42432.51
643.007	42254.67
643.36	42266.19
643.713	42269.81
644.066	42255.8
644.419	42097.61
644.771	42011.51
645.124	41510.73
645.477	41545.53
645.83	41208.82
646.182	41133.11
646.535	41040.91
646.888	41104.41
647.24	40916.4
647.593	40998.2
647.945	40975.6
648.298	40767.25
648.65	40737.42
649.002	40647.02
649.355	40813.57
649.707	40763.18
650.059	40908.71
650.411	41427.79
650.763	41434.8
651.115	41820.55
651.467	41647.9
651.819	41740.78
652.171	41567
652.523	41584.4
652.875	41565.87
653.227	41406.33
653.578	41667.79
653.93	41567.23
654.282	41381.47
654.633	41367.68
654.985	41363.84
655.337	41488.58
655.688	41495.14
656.039	41447.23
656.391	41264.64
656.742	41391.19
657.094	41301.47
657.445	41436.38
657.796	41321.13
658.147	41228.93
658.498	41227.12
658.849	41310.06
659.2	41034.58
659.551	41080.69
659.902	41338.76
660.253	41197.97
660.604	41235.26
660.955	40803.4
661.306	41246.33
661.656	41077.07
662.007	41204.52
662.358	41155.71
662.708	41026.45
663.059	41100.57
663.409	40924.31
663.76	41132.44
664.11	41079.1
664.461	41140.8
664.811	40994.59
665.161	41097.41
665.511	40877.3
665.862	40912.78
666.212	40978.09
666.562	41018.54
666.912	40931.99
667.262	40901.71
667.612	40876.62
667.962	40919.11
668.312	40879.56
668.662	41070.06
669.011	40990.74
669.361	40748.94
669.711	40824.65
670.06	41001.82
670.41	40813.57
670.76	40776.06
671.109	40858.77
671.459	40822.39
671.808	40817.42
672.157	40899.9
672.507	40639.12
672.856	40609.96
673.205	40563.18
673.554	40672.56
673.904	40637.31
674.253	40884.31
674.602	40605.44
674.951	40152.8
675.3	39940.38
675.649	40699
675.998	40477.31
676.346	40559.57
676.695	40428.27
677.044	40472.79
677.393	40569.96
677.741	40445.45
678.09	40480.02
678.438	40327.03
678.787	40252.46
679.135	40270.54
679.484	40035.52
679.832	40215.17
680.181	40030.09
680.529	40186.7
680.877	39996.87
681.225	39976.53
681.573	40090.2
681.922	39917.55
682.27	39770.66
682.618	39920.94
682.966	39626.03
683.314	39821.96
683.661	39798.01
684.009	39536.32
684.357	39468.98
684.705	39322.54
685.053	39393.05
685.4	39281.41
685.748	39249.77
686.095	39164.13
686.443	39103.34
686.79	38977.46
687.138	39143.56
687.485	39021.3
687.832	38887.75
688.18	38933.62
688.527	38725.49
688.874	38698.6
689.221	38727.53
689.568	38607.76
689.915	38552.62
690.262	38530.02
690.609	38480.08
690.956	38305.84
691.303	38291.61
691.65	38178.84
691.997	38016.36
692.344	37816.59
692.69	37854.1
693.037	37787.21
693.383	37544.96
693.73	37639.19
694.077	37445.07
694.423	37474.23
694.769	37387
695.116	37281.69
695.462	37207.57
695.808	36946.33
696.155	37070.17
696.501	36780.46
696.847	36864.3
697.193	36604.64
697.539	36729.16
697.885	36434.48
698.231	36439.23
698.577	36385.67
698.923	36305.44
699.269	36130.99
699.614	36051.89
699.96	35912.91
700.306	36012.57
700.651	35844.21
700.997	35766.93
701.342	35622.52
701.688	35585.24
702.033	35413.72
702.379	35441.06
702.724	35278.58
703.069	35458.69
703.415	34904.58
703.76	35042.88
704.105	34982.31
704.45	34921.53
704.795	34708.88
705.14	34614.19
705.485	34609.9
705.83	34543.91
706.175	34521.31
706.52	34379.17
706.865	34238.83
707.209	34321.77
707.554	34160.87
707.899	34299.39
708.243	34045.16
708.588	34020.53
708.932	33754.32
709.277	33788.22
709.621	33827.77
709.966	33548.91
710.31	33653.76
710.654	33287.67
710.998	33425.29
711.342	33348.69
711.687	33368.8
712.031	33231.63
712.375	33077.73
712.719	33142.14
713.063	33033.21
713.407	33233.66
713.75	32942.82
714.094	33002.93
714.438	32773.11
714.782	32847.91
715.125	32703.5
715.469	32693.56
715.812	32576.5
716.156	32398.65
716.499	32460.35
716.843	32429.84
717.186	32234.14
717.53	32351.2
717.873	32466
718.216	32308.49
718.559	32120.69
718.902	31940.13
719.246	32060.58
719.589	31956.63
719.932	31716.19
720.275	31811.55
720.617	31612.91
720.96	31547.83
721.303	31540.15
721.646	31519.35
721.989	31404.1
722.331	31583.99
722.674	31468.96
723.016	31449.3
723.359	31439.58
723.701	31336.53
724.044	31168.63
724.386	30918.92
724.729	31194.39
725.071	31041.4
725.413	30953.04
725.755	30924.79
726.097	30833.27
726.439	30707.4
726.782	30741.75
727.124	30893.83
727.465	30627.4
727.807	30645.71
728.149	30646.38
728.491	30490.91
728.833	30520.74
729.175	30373.62
729.516	30410.23
729.858	30197.81
730.199	30333.62
730.541	30266.05
730.882	30287.52
731.224	30305.83
731.565	30008.89
731.906	30139.05
732.248	30111.26
732.589	29878.04
732.93	29827.87
733.271	29844.6
733.612	29902.9
733.953	29924.14
734.294	29787.42
734.635	29742.23
734.976	29756.69
735.317	29558.05
735.658	29626.3
735.999	29684.83
736.339	29566.19
736.68	29640.31
737.021	29425.17
737.361	29388.56
737.702	29510.59
738.042	29466.08
738.383	29333.88
738.723	29390.37
739.063	29168.23
739.404	29252.07
739.744	29099.31
740.084	29097.05
740.424	29189.7
740.764	28999.2
741.104	29186.31
741.444	28963.94
741.784	28835.36
742.124	28848.01
742.464	28861.12
742.804	28795.13
743.143	28737.28
743.483	28719.88
743.823	28570.28
744.162	28550.39
744.502	28633.78
744.841	28401.7
745.181	28581.58
745.52	28463.39
745.86	28427.01
746.199	28394.01
746.538	28274.69
746.877	28309.04
747.216	28234.92
747.556	28099.11
747.895	28254.36
748.234	28139.78
748.573	28045.32
748.911	28079.22
749.25	27896.17
749.589	27883.52
749.928	27840.13
750.267	27858.89
750.605	27721.94
750.944	27714.94
751.283	27512.91
751.621	27616.41
751.96	27455.05
752.298	27416.86
752.636	27517.65
752.975	27213.03
753.313	27302.06
753.651	27369.41
753.989	27193.82
754.327	27105.91
754.666	27045.35
755.004	27077.21
755.342	27043.54
755.679	26947.95
756.017	26814.85
756.355	26825.02
756.693	26852.81
757.031	26833.38
757.368	26506.61
757.706	26651.01
758.044	26473.84
758.381	26559.49
758.719	26391.58
759.056	26500.5
759.394	26370.11
759.731	26127.18
760.068	26237.01
760.405	26016.45
760.743	26014.87
761.08	26044.24
761.417	25889.45
761.754	25800.64
762.091	25738.26
762.428	25656.01
762.765	25609.91
763.102	25504.82
763.438	25448.78
763.775	25391.83
764.112	25316.35
764.449	25196.36
764.785	25091.28
765.122	25037.04
765.458	24984.16
765.795	24854.67
766.131	24914.78
766.467	24742.13
766.804	24540.1
767.14	24533.32
767.476	24538.3
767.812	24480.67
768.148	24452.65
768.485	24312.09
768.821	24079.1
769.157	24008.59
769.492	24012.21
769.828	24077.06
770.164	23755.94
770.5	23746.68
770.836	23800.46
771.171	23612.9
771.507	23421.94
771.842	23449.28
772.178	23396.18
772.513	23276.41
772.849	23251.78
773.184	23088.62
773.519	23134.72
773.855	23024.89
774.19	22948.28
774.525	22798.23
774.86	22800.49
775.195	22754.16
775.53	22680.94
775.865	22476.65
776.2	22391.69
776.535	22243.44
776.87	22253.38
777.205	22176.55
777.539	22116.21
777.874	22134.97
778.209	21987.4
778.543	21843
778.878	21794.19
779.212	21765.94
779.547	21669.44
779.881	21692.72
780.215	21544.93
780.55	21489.11
780.884	21282.11
781.218	21386.74
781.552	21277.59
781.886	21152.85
782.22	21066.52
782.554	20954.89
782.888	20859.97
783.222	20828.79
783.556	20691.62
783.889	20661.34
784.223	20470.61
784.557	20444.39
784.89	20451.4
785.224	20312.42
785.557	20246.2
785.891	20177.05
786.224	20054.35
786.558	20052.99
786.891	19972.09
787.224	19809.15
787.557	19899.77
787.891	19771.42
788.224	19724.64
788.557	19739.33
788.89	19550.4
789.223	19530.07
789.556	19323.29
789.888	19328.04
790.221	19338.43
790.554	19119.68
790.887	19137.99
791.219	19134.37
791.552	19064.32
791.884	18948.39
792.217	18899.8
792.549	18789.75
792.882	18759.69
793.214	18632.46
793.546	18652.35
793.879	18567.61
794.211	18419.81
794.543	18431.56
794.875	18426.37
795.207	18487.38
795.539	18330.1
795.871	18290.32
796.203	18073.38
796.535	18103.89
796.867	18025.25
797.198	17877.23
797.53	17922.88
797.862	17839.04
798.193	17908.64
798.525	17676.78
798.856	17814.63
799.188	17656.89
799.519	17531.02
799.85	17434.53
800.182	17439.5
800.513	17430.01
800.844	17251.71
801.175	17322.67
801.506	17370.8
801.837	17214.42
802.168	17204.03
802.499	17097.81
802.83	16952.73
803.161	17079.96
803.491	16979.17
803.822	16933.75
804.153	16860.53
804.483	16658.73
804.814	16579.41
805.145	16637.94
805.475	16642.23
805.805	16552.74
806.136	16546.64
806.466	16501.44
806.796	16526.08
807.126	16306.2
807.457	16422.35
807.787	16232.75
808.117	16268.91
808.447	16126.99
808.777	16224.84
809.107	16202.92
809.436	16088.12
809.766	16086.54
810.096	15892.2
810.426	16032.53
810.755	15962.02
811.085	15884.06
811.414	15839.09
811.744	15635.93
812.073	15774.68
812.403	15703.5
812.732	15589.15
813.061	15635.03
813.39	15555.03
813.719	15549.83
814.049	15540.11
814.378	15452.88
814.707	15400.46
815.036	15355.71
815.365	15331.08
815.693	15198.65
816.022	15243.85
816.351	15159.11
816.68	15041.6
817.008	15168.6
817.337	15074.36
817.665	14917.76
817.994	14995.72
818.322	14951.65
818.651	14904.2
818.979	14842.96
819.307	14938.1
819.636	14771.32
819.964	14718.67
820.292	14799.34
820.62	14841.6
820.948	14689.51
821.276	14729.29
821.604	14716.63
821.932	14703.3
822.259	14778.1
822.587	14675.73
822.915	14701.04
823.243	14707.37
823.57	14692.9
823.898	14646.35
824.225	14586.69
824.553	14576.75
824.88	14659.69
825.207	14670.31
825.535	14558.67
825.862	14640.7
826.189	14622.17
826.516	14619.01
826.843	14725.67
827.17	14667.37
827.497	14597.31
827.824	14661.27
828.151	14593.02
828.478	14539.01
828.805	14580.82
829.131	14588.95
829.458	14599.12
829.785	14487.26
830.111	14482.51
830.438	14569.07
830.764	14599.12
831.09	14528.16
831.417	14505.56
831.743	14506.47
832.069	14550.54
832.395	14600.48
832.722	14443.65
833.048	14445
833.374	14521.16
833.7	14449.3
834.026	14427.37
834.351	14424.21
834.677	14400.71
835.003	14442.06
835.329	14470.54
835.654	14387.6
835.98	14243.88
836.306	14353.25
836.631	14279.58
836.956	14249.75
837.282	14409.97
837.607	14200.71
837.932	14151.9
838.258	14235.29
838.583	14209.3
838.908	14125.01
839.233	14168.62
839.558	14067.16
839.883	14045.01
840.208	14066.48
840.533	14008.63
840.858	14027.16
841.182	14045.92
841.507	14047.5
841.832	13859.93
842.156	13873.04
842.481	13818.35
842.805	13776.54
843.13	13770.89
843.454	13777.22
843.778	13734.96
844.103	13652.71
844.427	13658.36
844.751	13621.29
845.075	13666.04
845.399	13587.4
845.723	13517.12
846.047	13473.05
846.371	13362.77
846.695	13388.53
847.019	13365.26
847.343	13215.66
847.666	13252.04
847.99	13229.44
848.313	13032.38
848.637	13115.32
848.96	12994.19
849.284	12903.12
849.607	12884.82
849.931	12819.96
850.254	12705.84
850.577	12704.93
850.9	12603.69
851.223	12640.08
851.546	12526.86
851.869	12497.26
852.192	12520.76
852.515	12336.13
852.838	12328.67
853.161	12384.04
853.483	12239.41
853.806	12252.74
854.129	12255
854.451	12158.28
854.774	12062.69
855.096	12128
855.419	11993.31
855.741	12071.5
856.063	11855.92
856.385	11852.53
856.708	11814.56
857.03	11874.45
857.352	11821.57
857.674	11814.11
857.996	11787.67
858.318	11657.96
858.64	11725.53
858.961	11662.48
859.283	11631.52
859.605	11568.69
859.926	11569.14
860.248	11464.06
860.57	11444.4
860.891	11499.99
861.212	11436.49
861.534	11422.93
861.855	11365.08
862.176	11405.53
862.498	11367.12
862.819	11341.58
863.14	11325.99
863.461	11260.23
863.782	11276.5
864.103	11147.46
864.424	11218.19
864.745	11187.69
865.065	11158.76
865.386	11121.7
865.707	11048.48
866.027	11089.16
866.348	11133.68
866.668	11049.38
866.989	10985.88
867.309	10943.4
867.63	10982.49
867.95	10972.1
868.27	10885.32
868.59	10965.55
868.91	10931.65
869.23	10942.49
869.55	10813.68
869.87	10891.65
870.19	10868.15
870.51	10864.76
870.83	10813.46
871.15	10770.52
871.469	10735.27
871.789	10837.19
872.109	10772.33
872.428	10667.7
872.748	10714.03
873.067	10685.1
873.386	10646.01
873.706	10677.42
874.025	10578.66
874.344	10588.83
874.663	10622.73
874.982	10561.04
875.301	10598.1
875.62	10546.57
875.939	10476.97
876.258	10517.65
876.577	10430.19
876.896	10416.41
877.214	10453.47
877.533	10438.78
877.852	10417.99
878.17	10420.25
878.489	10390.64
878.807	10373.92
879.125	10367.82
879.444	10422.73
879.762	10243.3
880.08	10309.97
880.398	10295.51
880.716	10259.35
881.034	10212.57
881.352	10240.59
881.67	10159.46
881.988	10176.19
882.306	10156.07
882.624	10147.04
882.941	10087.6
883.259	10090.77
883.577	10089.18
883.894	9971.45
884.212	9967.83
884.529	9993.59
884.846	10001.05
885.164	9942.3
885.481	9904.33
885.798	9946.81
886.115	9834.05
886.432	9831.34
886.75	9820.94
887.067	9814.61
887.383	9737.55
887.7	9832.02
888.017	9746.59
888.334	9648.52
888.651	9645.13
888.967	9639.93
889.284	9640.61
889.6	9563.1
889.917	9500.05
890.233	9485.81
890.55	9498.24
890.866	9498.24
891.182	9407.85
891.498	9412.14
891.815	9411.24
892.131	9366.49
892.447	9318.58
892.763	9301.63
893.079	9209.66
893.395	9205.14
893.71	9319.94
894.026	9192.71
894.342	9225.93
894.657	9114.29
894.973	9107.51
895.289	9128.08
895.604	9089.44
895.92	8970.8
896.235	9004.47
896.55	8963.79
896.865	8937.58
897.181	8901.87
897.496	8919.05
897.811	8829.78
898.126	8850.35
898.441	8779.84
898.756	8757.69
899.071	8679.5
899.386	8714.08
899.7	8634.76
900.015	8696.45
900.33	8580.75
900.644	8595.89
900.959	8604.93
901.273	8560.41
901.588	8481.77
901.902	8493.29
902.216	8423.69
902.531	8408.1
902.845	8410.13
903.159	8326.07
903.473	8303.24
903.787	8263.7
904.101	8251.72
904.415	8271.15
904.729	8186.41
905.042	8164.94
905.356	8110.7
905.67	8092.85
905.984	8121.55
906.297	8066.64
906.611	8002.23
906.924	7969.92
907.237	7940.77
907.551	7935.79
907.864	7959.52
908.177	7912.29
908.491	7852.86
908.804	7830.49
909.117	7731.28
909.43	7722.01
909.743	7694.44
910.056	7642.02
910.368	7610.38
910.681	7527.22
910.994	7601.11
911.307	7559.31
911.619	7507.78
911.932	7456.71
912.244	7348.69
912.557	7437.73
912.869	7329.26
913.181	7326.77
913.494	7298.3
913.806	7324.51
914.118	7319.54
914.43	7225.76
914.742	7251.52
915.054	7134.01
915.366	7184.85
915.678	7095.36
915.99	7110.28
916.302	7067.34
916.613	7077.96
916.925	6984.18
917.236	6981.24
917.548	6878.19
917.859	6966.1
918.171	6919.32
918.482	6881.36
918.794	6829.61
919.105	6807.69
919.416	6706
919.727	6702.83
920.038	6733.34
920.349	6655.15
920.66	6631.2
920.971	6660.35
921.282	6616.28
921.593	6588.26
921.903	6510.97
922.214	6513.23
922.525	6509.62
922.835	6482.05
923.146	6467.81
923.456	6438.66
923.767	6374.25
924.077	6367.7
924.387	6341.26
924.697	6346.68
925.008	6335.84
925.318	6238.66
925.628	6327.7
925.938	6254.93
926.248	6151.43
926.558	6174.26
926.867	6117.31
927.177	6113.7
927.487	6056.3
927.796	6073.02
928.106	6075.5
928.416	5958.9
928.725	5927.49
929.034	5923.19
929.344	5924.1
929.653	5932.23
929.962	5893.14
930.271	5812.01
930.581	5826.7
930.89	5775.62
931.199	5794.61
931.508	5750.54
931.817	5704.21
932.125	5700.37
932.434	5684.1
932.743	5650.2
933.051	5612.24
933.36	5552.81
933.669	5551
933.977	5542.86
934.286	5548.96
934.594	5476.2
934.902	5473.71
935.21	5467.84
935.519	5379.48
935.827	5376.77
936.135	5405.24
936.443	5328.18
936.751	5324.56
937.059	5315.75
937.367	5266.71
937.674	5260.61
937.982	5220.61
938.29	5259.48
938.597	5233.49
938.905	5128.41
939.213	5163.44
939.52	5146.49
939.827	5134.06
940.135	5111.24
940.442	5075.53
940.749	5010.45
941.056	5095.42
941.363	4960.28
941.67	4997.57
941.977	4997.79
942.284	4889.09
942.591	4956.21
942.898	4876.67
943.205	4942.2
943.511	4866.27
943.818	4885.03
944.125	4842.09
944.431	4779.49
944.738	4775.43
945.044	4745.37
945.35	4712.38
945.657	4722.32
945.963	4668.76
946.269	4629.89
946.575	4671.02
946.881	4655.2
947.187	4628.76
947.493	4629.44
947.799	4634.19
948.105	4579.95
948.41	4517.8
948.716	4486.85
949.022	4483.46
949.327	4497.01
949.633	4452.5
949.938	4472.61
950.244	4426.73
950.549	4390.8
950.854	4370.01
951.16	4374.31
951.465	4341.54
951.77	4324.14
952.075	4279.17
952.38	4257.47
952.685	4276.46
952.99	4248.89
953.294	4208.21
953.599	4201.66
953.904	4154.42
954.209	4178.6
954.513	4164.82
954.818	4146.97
955.122	4143.8
955.426	4075.56
955.731	4101.54
956.035	4053.86
956.339	4049.34
956.643	4056.57
956.948	4050.02
957.252	3967.31
957.556	3984.26
957.86	3943.58
958.163	3913.75
958.467	3917.59
958.771	3926.63
959.075	3931.38
959.378	3878.73
959.682	3889.35
959.985	3825.17
960.289	3814.55
960.592	3814.32
960.896	3798.28
961.199	3787.88
961.502	3710.59
961.805	3748.33
962.108	3761.67
962.411	3748.56
962.714	3663.36
963.017	3663.36
963.32	3673.53
963.623	3653.19
963.926	3645.06
964.228	3635.34
964.531	3619.3
964.833	3588.11
965.136	3551.5
965.438	3534.33
965.741	3512.86
966.043	3552.63
966.345	3550.15
966.648	3492.07
966.95	3454.56
967.252	3466.31
967.554	3470.15
967.856	3427.89
968.158	3438.06
968.46	3426.31
968.761	3400.77
969.063	3371.85
969.365	3351.06
969.666	3358.51
969.968	3338.4
970.269	3322.36
970.571	3297.95
970.872	3325.52
971.174	3238.97
971.475	3255.69
971.776	3228.35
972.077	3238.97
972.378	3200.78
972.679	3189.48
972.98	3187.44
973.281	3182.02
973.582	3179.76
973.883	3174.11
974.183	3112.64
974.484	3123.72
974.785	3102.7
975.085	3111.51
975.386	3108.35
975.686	3057.05
975.986	3054.34
976.287	3042.14
976.587	3008.92
976.887	3023.15
977.187	3013.89
977.487	3015.92
977.787	2972.08
978.087	2950.39
978.387	2909.49
978.687	2968.69
978.987	2950.84
979.286	2896.83
979.586	2888.7
979.885	2886.21
980.185	2869.03
980.484	2847.34
980.784	2822.93
981.083	2818.64
981.382	2815.02
981.682	2822.93
981.981	2814.12
982.28	2805.53
982.579	2765.53
982.878	2763.27
983.177	2695.48
983.475	2749.04
983.774	2740.68
984.073	2688.25
984.372	2698.87
984.67	2681.92
984.969	2686.44
985.267	2665.65
985.566	2646.44
985.864	2658.64
986.162	2619.78
986.461	2622.49
986.759	2631.75
987.057	2607.8
987.355	2576.84
987.653	2563.51
987.951	2532.32
988.249	2554.24
988.547	2551.98
988.844	2519.44
989.142	2524.41
989.44	2494.36
989.737	2502.94
990.035	2479.44
990.332	2459.78
990.63	2457.07
990.927	2425.88
991.224	2437.63
991.521	2421.36
991.819	2442.83
992.116	2393.12
992.413	2371.87
992.71	2380.46
993.006	2359.9
993.303	2366.45
993.6	2337.98
993.897	2320.12
994.193	2314.7
994.49	2295.72
994.787	2326.9
995.083	2292.33
995.379	2272.44
995.676	2243.74
995.972	2260.24
996.268	2234.48
996.565	2215.49
996.861	2229.5
997.157	2220.01
997.453	2186.11
997.749	2184.53
998.044	2175.49
998.34	2197.41
998.636	2169.39
998.932	2170.3
999.227	2163.29
999.523	2126.46
999.818	2091.43
1000.114	2108.15
1000.409	2104.99
1000.704	2059.11
1001	2095.27
1001.295	2061.15
1001.59	2066.8
1001.885	2035.61
1002.18	2025.89
1002.475	2009.17
1002.77	2019.57
1003.065	1979.11
1003.359	2010.07
1003.654	1970.3
1003.949	1979.79
1004.243	1953.8
1004.538	1958.78
1004.832	1928.27
1005.127	1918.1
1005.421	1898.66
1005.715	1908.61
1006.009	1885.33
1006.304	1886.91
1006.598	1879.91
1006.892	1876.97
1007.186	1846.69
1007.48	1844.88
1007.773	1862.28
1008.067	1802.17
1008.361	1799.01
1008.655	1819.8
1008.948	1787.48
1009.242	1794.71
1009.535	1750.87
1009.829	1759.23
1010.122	1744.32
1010.415	1737.77
1010.708	1718.78
1011.001	1710.65
1011.295	1719.91
1011.588	1702.74
1011.881	1719.01
1012.173	1669.52
1012.466	1683.98
1012.759	1694.15
1013.052	1650.08
1013.344	1658.22
1013.637	1635.39
1013.93	1646.02
1014.222	1617.54
1014.514	1620.25
1014.807	1629.29
1015.099	1610.54
1015.391	1590.88
1015.683	1577.32
1015.976	1564.66
1016.268	1567.83
1016.56	1549.75
1016.851	1551.78
1017.143	1520.37
1017.435	1500.48
1017.727	1485.57
1018.018	1486.92
1018.31	1458
1018.602	1506.36
1018.893	1443.54
1019.185	1465.91
1019.476	1450.99
1019.767	1461.84
1020.058	1430.65
1020.35	1430.2
1020.641	1421.62
1020.932	1394.27
1021.223	1403.08
1021.514	1396.08
1021.804	1377.32
1022.095	1345.68
1022.386	1345.91
1022.677	1365.57
1022.967	1348.85
1023.258	1343.2
1023.548	1346.59
1023.839	1320.37
1024.129	1285.35
1024.419	1302.75
1024.709	1281.96
1025	1266.59
1025.29	1273.37
1025.58	1279.02
1025.87	1260.04
1026.16	1245.57
1026.449	1241.28
1026.739	1259.81
1027.029	1217.33
1027.319	1228.4
1027.608	1221.85
1027.898	1220.26
1028.187	1216.2
1028.477	1206.48
1028.766	1181.17
1029.055	1185.69
1029.344	1150.89
1029.634	1147.27
1029.923	1160.38
1030.212	1160.38
1030.501	1107.5
1030.79	1123.32
1031.078	1106.14
1031.367	1123.09
1031.656	1112.47
1031.945	1123.54
1032.233	1091
1032.522	1080.16
1032.81	1053.49
1033.099	1064.34
1033.387	1091.45
1033.675	1033.15
1033.963	1042.87
1034.251	1032.25
1034.54	1041.51
1034.828	1017.56
1035.116	1015.98
1035.403	1034.51
1035.691	1033.83
1035.979	1022.08
1036.267	1014.85
1036.554	1000.38
1036.842	995.86
1037.129	965.13
1037.417	964.68
1037.704	970.33
1037.992	953.38
1038.279	962.19
1038.566	941.18
1038.853	941.18
1039.14	941.18
