Data from hue_20_FLMS001491_2.txt Node
Date: Mon Feb 06 15:33:32 GMT 2017
User: dcchb
Spectrometer: FLMS00149
Trigger mode: 0
Integration Time (sec): 2.000000E-2
Scans to average: 10
Electric dark correction enabled: true
Nonlinearity correction enabled: false
Boxcar width: 0
XAxis mode: Wavelengths
Number of Pixels in Spectrum: 2048
>>>>>Begin Spectral Data<<<<<
341.393	9.87
341.776	9.87
342.16	9.87
342.543	-44.59
342.927	-51.37
343.31	-62.22
343.693	-84.14
344.077	-54.76
344.46	-60.86
344.843	-54.53
345.226	-55.21
345.61	-16.57
345.993	7.61
346.376	-17.02
346.759	5.58
347.142	21.85
347.525	67.05
347.908	48.52
348.291	62.07
348.674	92.36
349.057	100.27
349.44	156.99
349.823	131.68
350.206	184.56
350.588	197.89
350.971	201.96
351.354	230.66
351.737	223.65
352.119	248.06
352.502	256.19
352.884	272.69
353.267	305.46
353.65	310.66
354.032	293.03
354.414	279.24
354.797	303.2
355.179	307.49
355.562	309.53
355.944	342.75
356.326	321.95
356.709	322.86
357.091	345.91
357.473	330.77
357.855	338.68
358.238	342.75
358.62	353.37
359.002	333.48
359.384	333.03
359.766	331.45
360.148	323.76
360.53	325.12
360.912	306.36
361.294	354.72
361.676	335.51
362.057	331.67
362.439	333.25
362.821	345.01
363.203	351.56
363.584	335.97
363.966	302.97
364.348	333.93
364.729	319.24
365.111	320.82
365.493	320.15
365.874	309.07
366.256	309.75
366.637	321.5
367.019	331.9
367.4	311.79
367.781	305.91
368.163	324.44
368.544	312.24
368.925	322.18
369.306	320.37
369.688	304.1
370.069	268.62
370.45	312.92
370.831	321.73
371.212	344.55
371.593	328.28
371.974	292.58
372.355	321.95
372.736	303.88
373.117	303.42
373.498	305.01
373.879	334.84
374.26	308.62
374.641	298.68
375.021	333.71
375.402	307.72
375.783	316.31
376.163	326.25
376.544	321.73
376.925	350.88
377.305	322.41
377.686	326.47
378.066	326.47
378.447	328.51
378.827	330.77
379.208	341.39
379.588	319.24
379.968	347.72
380.349	329.86
380.729	326.93
381.109	331.9
381.489	339.58
381.87	334.38
382.25	329.86
382.63	325.34
383.01	367.15
383.39	328.51
383.77	348.62
384.15	348.62
384.53	346.13
384.91	349.07
385.29	352.91
385.67	340.71
386.049	329.41
386.429	349.98
386.809	333.48
387.189	347.04
387.568	351.33
387.948	330.32
388.328	352.91
388.707	347.94
389.087	352.24
389.466	362.63
389.846	351.11
390.225	373.7
390.605	347.04
390.984	360.15
391.363	353.37
391.743	350.43
392.122	359.69
392.501	364.44
392.881	366.7
393.26	359.02
393.639	370.09
394.018	368.06
394.397	368.73
394.776	374.16
395.155	375.74
395.534	362.18
395.913	376.64
396.292	359.47
396.671	370.32
397.05	380.94
397.429	364.21
397.808	380.94
398.186	364.44
398.565	380.48
398.944	391.78
399.323	385.68
399.701	390.65
400.08	372.8
400.458	386.13
400.837	372.8
401.215	382.07
401.594	396.3
401.972	398.11
402.351	381.61
402.729	403.99
403.107	402.4
403.486	399.69
403.864	398.56
404.242	376.42
404.62	393.82
404.999	410.09
405.377	404.89
405.755	407.6
406.133	410.31
406.511	417.09
406.889	416.87
407.267	411.9
407.645	444.89
408.023	425.68
408.401	420.94
408.779	418.22
409.156	414.38
409.534	438.34
409.912	417.55
410.29	419.13
410.667	422.29
411.045	440.37
411.422	451.44
411.8	445.34
412.178	435.4
412.555	456.87
412.933	440.37
413.31	438.79
413.687	432.23
414.065	470.43
414.442	446.02
414.819	463.87
415.197	465
415.574	469.97
415.951	464.1
416.328	463.19
416.705	480.59
417.082	478.33
417.46	475.62
417.837	449.18
418.214	449.18
418.591	491.22
418.967	482.63
419.344	490.76
419.721	478.11
420.098	479.24
420.475	480.59
420.852	481.5
421.228	478.79
421.605	475.85
421.982	493.48
422.358	503.42
422.735	521.27
423.111	531.21
423.488	500.03
423.864	506.81
424.241	527.83
424.617	513.14
424.994	508.39
425.37	539.58
425.746	518.79
426.123	549.52
426.499	536.86
426.875	538.22
427.251	542.51
427.627	542.06
428.003	547.03
428.379	549.52
428.756	543.64
429.132	556.3
429.507	562.4
429.883	563.98
430.259	571.21
430.635	566.69
431.011	569.41
431.387	595.62
431.763	587.94
432.138	591.33
432.514	607.37
432.89	605.79
433.265	592.91
433.641	617.09
434.016	621.38
434.392	624.32
434.767	624.32
435.143	620.7
435.518	640.36
435.894	614.15
436.269	643.53
436.644	630.42
437.02	655.28
437.395	642.17
437.77	639.91
438.145	667.26
438.52	676.75
438.895	679.69
439.271	673.58
439.646	685.79
440.021	673.58
440.395	681.04
440.77	693.47
441.145	653.47
441.52	714.94
441.895	692.34
442.27	696.86
442.645	670.65
443.019	722.85
443.394	708.61
443.769	723.98
444.143	713.58
444.518	691.89
444.892	716.97
445.267	712.45
445.641	704.77
446.016	730.53
446.39	744.77
446.764	710.87
447.139	740.47
447.513	739.57
447.887	749.97
448.262	738.89
448.636	752.45
449.01	731.44
449.384	759.23
449.758	756.29
450.132	780.93
450.506	763.98
450.88	779.34
451.254	782.73
451.628	757.65
452.002	804.65
452.376	787.71
452.75	807.37
453.123	808.95
453.497	824.31
453.871	815.28
454.244	838.55
454.618	860.47
454.992	851.43
455.365	854.37
455.739	864.09
456.112	878.1
456.486	865.9
456.859	888.95
457.232	895.95
457.606	893.24
457.979	932.33
458.352	929.17
458.725	934.59
459.099	921.71
459.472	946.12
459.845	934.37
460.218	951.09
460.591	966.46
460.964	946.12
461.337	963.07
461.71	998.55
462.083	1003.74
462.456	1006.91
462.829	1025.67
463.201	1029.28
463.574	1009.85
463.947	1060.92
464.32	1066.79
464.692	1068.83
465.065	1095.72
465.438	1088.26
465.81	1107.7
466.183	1124.19
466.555	1113.12
466.928	1109.96
467.3	1121.71
467.672	1162.38
468.045	1150.63
468.417	1180.24
468.789	1167.13
469.161	1197.86
469.534	1201.71
469.906	1255.72
470.278	1266.34
470.65	1264.75
471.022	1288.71
471.394	1303.85
471.766	1339.1
472.138	1321.7
472.51	1356.5
472.882	1391.08
473.253	1376.84
473.625	1413.23
473.997	1428.82
474.369	1475.82
474.74	1478.99
475.112	1484.41
475.484	1526.67
475.855	1542.71
476.227	1568.48
476.598	1596.72
476.97	1593.11
477.341	1645.99
477.713	1640.56
478.084	1649.38
478.455	1707.46
478.827	1746.32
479.198	1788.58
479.569	1788.13
479.94	1846.21
480.311	1864.97
480.682	1923.49
481.053	1961.69
481.424	2002.36
481.795	2017.5
482.166	2022.48
482.537	2098.63
482.908	2139.08
483.279	2131.62
483.65	2160.78
484.021	2215.24
484.391	2235.58
484.762	2293.88
485.133	2317.61
485.503	2361.45
485.874	2404.61
486.244	2412.07
486.615	2490.49
486.985	2491.84
487.356	2548.79
487.726	2572.07
488.097	2651.84
488.467	2669.01
488.837	2732.96
489.207	2755.11
489.578	2794.66
489.948	2880.98
490.318	2859.06
490.688	2905.84
491.058	2926.18
491.428	2941.32
491.798	3036.69
492.168	3093.63
492.538	3056.8
492.908	3101.77
493.278	3168.21
493.648	3184.48
494.017	3227.19
494.387	3255.66
494.757	3275.78
495.126	3307.19
495.496	3355.32
495.866	3370.69
496.235	3365.49
496.605	3461.76
496.974	3467.63
497.344	3483.68
497.713	3522.32
498.082	3582.21
498.452	3603.22
498.821	3642.55
499.19	3614.07
499.559	3697.23
499.928	3725.48
500.298	3738.59
500.667	3802.77
501.036	3721.19
501.405	3812.03
501.774	3805.48
502.143	3849.77
502.512	3872.82
502.88	3922.31
503.249	3899.26
503.618	3943.33
503.987	3963.89
504.356	4009.09
504.724	3988.98
505.093	4012.48
505.462	4072.14
505.83	4088.18
506.199	4103.32
506.567	4152.59
506.936	4150.1
507.304	4165.24
507.672	4167.28
508.041	4219.93
508.409	4236.2
508.777	4294.51
509.145	4280.49
509.514	4291.79
509.882	4332.24
510.25	4357.78
510.618	4358.68
510.986	4352.81
511.354	4389.87
511.722	4434.84
512.09	4471
512.458	4452.92
512.826	4518.91
513.193	4494.73
513.561	4513.71
513.929	4530.88
514.297	4605.68
514.664	4595.29
515.032	4602.07
515.4	4622.41
515.767	4660.15
516.135	4698.11
516.502	4699.24
516.869	4712.57
517.237	4750.76
517.604	4758
517.972	4791.67
518.339	4813.59
518.706	4828.95
519.073	4821.95
519.44	4821.27
519.808	4868.95
520.175	4859.46
520.542	4877.99
520.909	4904.43
521.276	4945.34
521.643	4991.44
522.009	5041.6
522.376	5042.51
522.743	5066.46
523.11	5110.3
523.477	5146.69
523.843	5159.57
524.21	5224.65
524.577	5182.39
524.943	5266.46
525.31	5295.61
525.676	5325.67
526.043	5336.06
526.409	5402.95
526.776	5406.11
527.142	5363.63
527.508	5400.69
527.874	5459.22
528.241	5504.19
528.607	5488.6
528.973	5541.48
529.339	5573.79
529.705	5602.27
530.071	5606.11
530.437	5631.65
530.803	5635.26
531.169	5713.9
531.535	5707.35
531.901	5732.89
532.267	5793.45
532.632	5797.97
532.998	5804.97
533.364	5853.11
533.73	5887.91
534.095	5868.02
534.461	5921.58
534.826	5939.43
535.192	5952.99
535.557	6070.5
535.923	6037.28
536.288	6046.1
536.653	6027.34
537.019	6072.31
537.384	6142.82
537.749	6099.66
538.114	6108.02
538.479	6151.86
538.845	6199.77
539.21	6193.21
539.575	6194.12
539.94	6291.97
540.305	6350.72
540.67	6271.85
541.034	6335.58
541.399	6354.79
541.764	6362.93
542.129	6391.17
542.494	6429.14
542.858	6486.31
543.223	6459.65
543.587	6504.17
543.952	6502.36
544.316	6554.56
544.681	6520.89
545.045	6591.39
545.41	6669.81
545.774	6643.6
546.138	6685.18
546.503	6701
546.867	6728.34
547.231	6750.94
547.595	6769.47
547.959	6752.07
548.324	6795.68
548.688	6829.81
549.052	6864.83
549.416	6827.55
549.779	6907.77
550.143	6884.49
550.507	7017.6
550.871	6985.28
551.235	6915.91
551.599	7031.38
551.962	7053.3
552.326	7073.42
552.689	7052.63
553.053	7095.11
553.417	7130.36
553.78	7208.78
554.143	7163.13
554.507	7245.61
554.87	7219.63
555.234	7300.08
555.597	7253.98
555.96	7252.62
556.323	7326.06
556.686	7297.36
557.05	7401.32
557.413	7370.58
557.776	7429.79
558.139	7436.57
558.502	7485.38
558.865	7489
559.228	7528.32
559.59	7555.89
559.953	7578.94
560.316	7615.1
560.679	7687.64
561.041	7655.32
561.404	7705.72
561.767	7774.19
562.129	7693.29
562.492	7782.1
562.854	7797.46
563.217	7797.46
563.579	7842.89
563.941	7892.38
564.304	7895.77
564.666	7928.53
565.028	7964.69
565.39	8001.07
565.753	8037.46
566.115	8102.09
566.477	8077.68
566.839	8114.74
567.201	8175.31
567.563	8157.23
567.925	8149.09
568.287	8239.94
568.648	8277.23
569.01	8237.23
569.372	8285.81
569.734	8312.03
570.095	8413.95
570.457	8422.08
570.819	8473.38
571.18	8440.39
571.542	8539.37
571.903	8624.11
572.265	8620.27
572.626	8665.46
572.987	8723.99
573.349	8756.08
573.71	8822.07
574.071	8770.09
574.432	8829.98
574.794	8954.04
575.155	9010.99
575.516	9018.68
575.877	9075.62
576.238	9103.19
576.599	9183.87
576.96	9190.87
577.32	9280.14
577.681	9380.7
578.042	9402.39
578.403	9492.11
578.763	9593.12
579.124	9613.69
579.485	9748.37
579.845	9827.02
580.206	9911.31
580.566	9966
580.927	10133.67
581.287	10212.54
581.648	10304.29
582.008	10435.59
582.368	10550.61
582.728	10749.7
583.089	10808.46
583.449	10916.7
583.809	11100.43
584.169	11301.1
584.529	11408.44
584.889	11537.48
585.249	11760.98
585.609	11878.49
585.969	12076.22
586.329	12398.02
586.688	12491.58
587.048	12654.96
587.408	12828.29
587.768	12969.98
588.127	13252.91
588.487	13426.02
588.846	13697.2
589.206	13840.92
589.565	14142.38
589.925	14394.35
590.284	14560.22
590.643	14888.58
591.003	15084.05
591.362	15354.78
591.721	15636.81
592.08	15809.46
592.44	16146.62
592.799	16518.14
593.158	16691.92
593.517	16931.24
593.876	17275.18
594.235	17520.37
594.593	17820.48
594.952	18132.79
595.311	18232.44
595.67	18644.41
596.029	19012.54
596.387	19405.97
596.746	19644.84
597.104	19849.12
597.463	20076.46
597.822	20474.42
598.18	20581.99
598.538	20976.33
598.897	21299.93
599.255	21408.86
599.613	21966.81
599.972	22144.66
600.33	22505.33
600.688	22604.76
601.046	23032.54
601.404	23568.35
601.762	23567.9
602.12	24019.41
602.478	24266.41
602.836	24478.38
603.194	24691.26
603.552	25033.17
603.91	25181.19
604.268	25598.8
604.625	25747.5
604.983	26100.71
605.341	26236.08
605.698	26574.6
606.056	26968.71
606.413	27115.37
606.771	27384.52
607.128	27600.56
607.485	27802.14
607.843	27964.62
608.2	28409.8
608.557	28606.18
608.914	28768.89
609.272	29233.74
609.629	29320.97
609.986	29779.94
610.343	29703.56
610.7	30083.21
611.057	30334.95
611.414	30492.69
611.771	30678.22
612.127	30986.01
612.484	31203.63
612.841	31392.55
613.198	31468.71
613.554	31597.06
613.911	31990.95
614.267	32078.63
614.624	32254.67
614.98	32475.69
615.337	32783.7
615.693	32760.2
616.05	32996.12
616.406	33236.8
616.762	33197.7
617.118	33473.63
617.475	33570.57
617.831	33795.42
618.187	33881.52
618.543	34079.49
618.899	34393.38
619.255	34421.4
619.611	34460.94
619.967	34590.21
620.323	34918.56
620.678	34856.41
621.034	34937.09
621.39	35111.77
621.746	35100.25
622.101	35593.57
622.457	35381.37
622.812	35535.72
623.168	35733.91
623.523	35813.68
623.879	36059.55
624.234	35847.12
624.589	36032.65
624.945	36226.77
625.3	36313.1
625.655	36243.04
626.01	36347
626.365	36511.29
626.72	36594
627.075	36635.8
627.43	36653.2
627.785	36647.1
628.14	36857.94
628.495	36960.99
628.85	36859.98
629.205	36788.57
629.559	37153.3
629.914	36906.98
630.269	37069.24
630.623	36941.78
630.978	37169.12
631.332	37294.77
631.687	37295.9
632.041	37124.83
632.396	37296.12
632.75	37275.56
633.104	37270.14
633.459	37272.62
633.813	37224.04
634.167	37325.5
634.521	37314.2
634.875	37382.22
635.229	37407.53
635.583	37216.13
635.937	37205.28
636.291	37200.53
636.645	37359.17
636.999	37344.03
637.352	37557.81
637.706	37420.19
638.06	37407.53
638.413	37326.63
638.767	37279.18
639.121	37316.24
639.474	37186.75
639.828	37267.42
640.181	37253.87
640.534	37332.51
640.888	37183.13
641.241	37135.45
641.594	37229.46
641.947	37380.19
642.301	37221.78
642.654	37195.56
643.007	37223.81
643.36	37250.25
643.713	37188.56
644.066	37296.8
644.419	37083.7
644.771	36891.39
645.124	36619.08
645.477	36456.6
645.83	36370.05
646.182	36238.07
646.535	36160.56
646.888	36130.28
647.24	35949.27
647.593	36224.74
647.945	36190.39
648.298	36065.42
648.65	35997.63
649.002	35837.86
649.355	36016.84
649.707	36032.65
650.059	36184.06
650.411	36546.09
650.763	36619.31
651.115	37076.24
651.467	36852.29
651.819	36829.7
652.171	36797.61
652.523	36803.48
652.875	36702.24
653.227	36672.41
653.578	36892.52
653.93	36713.31
654.282	36600.32
654.633	36563.04
654.985	36717.83
655.337	36713.77
655.688	36668.12
656.039	36810.03
656.391	36459.99
656.742	36552.87
657.094	36560.32
657.445	36641.23
657.796	36605.75
658.147	36489.14
658.498	36520.78
658.849	36600.77
659.2	36558.52
659.551	36472.19
659.902	36636.25
660.253	36503.6
660.604	36547.89
660.955	36326.43
661.306	36505.86
661.656	36404.85
662.007	36456.37
662.358	36439.88
662.708	36480.55
663.059	36553.77
663.409	36306.32
663.76	36586.31
664.11	36427.9
664.461	36446.65
664.811	36450.5
665.161	36397.39
665.511	36253.67
665.862	36336.6
666.212	36464.06
666.562	36485.98
666.912	36386.77
667.262	36353.78
667.612	36249.82
667.962	36351.97
668.312	36276.94
668.662	36583.37
669.011	36368.92
669.361	36248.92
669.711	36177.06
670.06	36230.62
670.41	36187.9
670.76	36255.7
671.109	36304.06
671.459	36230.16
671.808	36339.76
672.157	36243.95
672.507	36052.77
672.856	36158.53
673.205	36069.26
673.554	36313.32
673.904	36094.35
674.253	36194.46
674.602	36224.74
674.951	35658.88
675.3	35451.65
675.649	35996.5
675.998	36025.87
676.346	36002.37
676.695	36073.56
677.044	35808.48
677.393	36090.05
677.741	36037.17
678.09	35816.16
678.438	35891.64
678.787	35807.35
679.135	35918.08
679.484	35728.93
679.832	35883.05
680.181	35612.55
680.529	35692.32
680.877	35638.31
681.225	35637.86
681.573	35698.2
681.922	35496.62
682.27	35448.71
682.618	35432.22
682.966	35324.65
683.314	35414.37
683.661	35291.88
684.009	35053.47
684.357	35063.87
684.705	35107.48
685.053	35101.61
685.4	35022.29
685.748	34788.85
686.095	34759.92
686.443	34762.86
686.79	34660.26
687.138	34675.85
687.485	34792.23
687.832	34635.63
688.18	34722.41
688.527	34323.55
688.874	34415.07
689.221	34308.41
689.568	34263.89
689.915	34237.22
690.262	34145.02
690.609	34062.76
690.956	34023.67
691.303	33952.48
691.65	33760.62
691.997	33813.28
692.344	33626.39
692.69	33558.82
693.037	33597.92
693.383	33341.65
693.73	33438.82
694.077	33284.25
694.423	33221.2
694.769	33290.13
695.116	33221.43
695.462	33011.94
695.808	32916.35
696.155	32929.01
696.501	32686.75
696.847	32708
697.193	32467.55
697.539	32686.98
697.885	32406.76
698.231	32364.05
698.577	32267.1
698.923	32291.28
699.269	32131.97
699.614	31960.67
699.96	32000.44
700.306	31949.82
700.651	31867.11
700.997	31757.06
701.342	31663.73
701.688	31642.71
702.033	31439.1
702.379	31510.74
702.724	31387.8
703.069	31446.11
703.415	30991.88
703.76	31104.42
704.105	31081.6
704.45	31143.29
704.795	30939.45
705.14	30709.63
705.485	30783.3
705.83	30636.19
706.175	30590.09
706.52	30586.24
706.865	30520.26
707.209	30487.04
707.554	30350.77
707.899	30357.78
708.243	30235.74
708.588	30143.32
708.932	29918.01
709.277	29883.89
709.621	29949.42
709.966	29812.93
710.31	29821.29
710.654	29628.53
710.998	29594.41
711.342	29611.13
711.687	29581.52
712.031	29471.02
712.375	29341.76
712.719	29381.53
713.063	29366.39
713.407	29413.62
713.75	29165.26
714.094	29163.68
714.438	29140.41
714.782	29084.59
715.125	28953.97
715.469	29015.66
715.812	28845.95
716.156	28634.43
716.499	28675.11
716.843	28820.41
717.186	28666.52
717.53	28778.38
717.873	28871.03
718.216	28640.31
718.559	28438.5
718.902	28287.32
719.246	28323.03
719.589	28210.49
719.932	28206.42
720.275	28152.41
720.617	28017.72
720.96	28158.06
721.303	28081
721.646	28034.9
721.989	27858.63
722.331	27993.32
722.674	27892.76
723.016	27839.88
723.359	27681.69
723.701	27903.15
724.044	27678.75
724.386	27466.78
724.729	27594.91
725.071	27455.48
725.413	27486.44
725.755	27518.98
726.097	27374.35
726.439	27339.78
726.782	27257.74
727.124	27408.02
727.465	27110.85
727.807	27211.87
728.149	27177.07
728.491	27144.3
728.833	27136.62
729.175	26990.63
729.516	27000.8
729.858	27024.53
730.199	26851.65
730.541	26818.66
730.882	26866.12
731.224	26868.15
731.565	26736.85
731.906	26859.79
732.248	26746.12
732.589	26633.13
732.93	26540.7
733.271	26555.84
733.612	26612.11
733.953	26496.86
734.294	26552.23
734.635	26382.06
734.976	26426.81
735.317	26305.23
735.658	26417.09
735.999	26331.21
736.339	26209.41
736.68	26246.47
737.021	26144.78
737.361	26022.97
737.702	26184.55
738.042	26134.16
738.383	25997.44
738.723	26007.38
739.063	25948.85
739.404	26048.74
739.744	25866.59
740.084	25795.41
740.424	25878.34
740.764	25757.67
741.104	25874.5
741.444	25769.42
741.784	25634.28
742.124	25698.01
742.464	25732.36
742.804	25649.88
743.143	25492.14
743.483	25508.86
743.823	25499.6
744.162	25497.56
744.502	25404.01
744.841	25359.71
745.181	25340.96
745.52	25271.13
745.86	25291.47
746.199	25243.79
746.538	25256.89
746.877	25221.41
747.216	25154.07
747.556	25063.68
747.895	25110
748.234	25003.79
748.573	24974.87
748.911	25029.1
749.25	24955.43
749.589	24797.47
749.928	24877.69
750.267	24958.37
750.605	24811.48
750.944	24824.59
751.283	24765.83
751.621	24740.75
751.96	24583.46
752.298	24664.59
752.636	24599.06
752.975	24390.47
753.313	24393.64
753.651	24517.02
753.989	24346.41
754.327	24363.36
754.666	24097.37
755.004	24246.52
755.342	24225.73
755.679	24214.89
756.017	24049.47
756.355	24182.57
756.693	23966.08
757.031	24078.39
757.368	23880.21
757.706	23881.79
758.044	23828.68
758.381	23811.28
758.719	23646.54
759.056	23831.62
759.394	23635.47
759.731	23484.74
760.068	23470.95
760.405	23340.11
760.743	23322.71
761.08	23424.4
761.417	23253.56
761.754	23260.56
762.091	23130.17
762.428	23114.58
762.765	22867.58
763.102	22941.02
763.438	22866.9
763.775	22792.55
764.112	22811.08
764.449	22856.96
764.785	22541.94
765.122	22524.53
765.458	22393.92
765.795	22416.06
766.131	22417.87
766.467	22212.23
766.804	22188.95
767.14	22028.05
767.476	22008.62
767.812	21917.55
768.148	22008.84
768.485	21856.3
768.821	21760.26
769.157	21743.99
769.492	21720.71
769.828	21642.3
770.164	21418.12
770.5	21442.98
770.836	21363.21
771.171	21162.99
771.507	21202.54
771.842	21087.06
772.178	21118.02
772.513	20970
772.849	20929.1
773.184	20796.22
773.519	20907.18
773.855	20788.31
774.19	20606.39
774.525	20558.48
774.86	20588.31
775.195	20510.12
775.53	20455.89
775.865	20301.09
776.2	20212.05
776.535	20089.57
776.87	20085.5
777.205	20008.67
777.539	19944.04
777.874	19927.54
778.209	19760.77
778.543	19772.52
778.878	19641.22
779.212	19538.62
779.547	19551.05
779.881	19461.11
780.215	19420.44
780.55	19376.37
780.884	19288.69
781.218	19128.47
781.552	19271.06
781.886	19109.48
782.22	18914.69
782.554	18918.53
782.888	18771.19
783.222	18696.84
783.556	18680.12
783.889	18568.93
784.223	18406.45
784.557	18397.86
784.89	18446.22
785.224	18393.57
785.557	18280.58
785.891	18210.98
786.224	18145.89
786.558	18111.09
786.891	17890.31
787.224	17983.19
787.557	17832.68
787.891	17774.38
788.224	17853.47
788.557	17774.6
788.89	17654.38
789.223	17715.17
789.556	17501.62
789.888	17486.7
790.221	17363.09
790.554	17325.35
790.887	17329.64
791.219	17251.45
791.552	17164.22
791.884	17162.87
792.217	17020.95
792.549	17034.06
792.882	16880.84
793.214	16856.89
793.546	16905.93
793.879	16770.34
794.211	16598.36
794.543	16715.65
794.875	16585.48
795.207	16626.84
795.539	16467.07
795.871	16609.66
796.203	16363.79
796.535	16251.48
796.867	16307.07
797.198	16166.51
797.53	16145.72
797.862	16067.53
798.193	16101.65
798.525	16000.64
798.856	16011.26
799.188	15935.56
799.519	15803.13
799.85	15757.03
800.182	15723.13
800.513	15739.4
800.844	15498.28
801.175	15613.53
801.506	15638.61
801.837	15482.23
802.168	15492.18
802.499	15478.17
802.83	15434.33
803.161	15298.51
803.491	15282.47
803.822	15311.39
804.153	15241.56
804.483	15130.83
804.814	14993.66
805.145	15071.4
805.475	15027.33
805.805	14952.98
806.136	14951.4
806.466	14889.48
806.796	14841.35
807.126	14642.26
807.457	14706.66
807.787	14651.52
808.117	14643.61
808.447	14637.28
808.777	14662.37
809.107	14543.73
809.436	14532.88
809.766	14520
810.096	14490.17
810.426	14462.83
810.755	14380.34
811.085	14317.97
811.414	14366.78
811.744	14202.04
812.073	14237.07
812.403	14157.3
812.732	14030.07
813.061	14082.04
813.39	13998.21
813.719	14028.71
814.049	14085.66
814.378	13958.21
814.707	13844.54
815.036	13896.29
815.365	13790.98
815.693	13681.38
816.022	13664.88
816.351	13651.32
816.68	13623.3
817.008	13677.08
817.337	13546.69
817.665	13527.48
817.994	13555.51
818.322	13463.3
818.651	13397.09
818.979	13358.67
819.307	13451.55
819.636	13445
819.964	13341.5
820.292	13411.78
820.62	13351.67
820.948	13264.89
821.276	13349.86
821.604	13286.36
821.932	13324.78
822.259	13295.17
822.587	13193.03
822.915	13193.48
823.243	13340.82
823.57	13238.23
823.898	13228.96
824.225	13210.2
824.553	13239.81
824.88	13230.54
825.207	13211.56
825.535	13222.63
825.862	13185.12
826.189	13169.3
826.516	13227.38
826.843	13258.56
827.17	13146.93
827.497	13285.23
827.824	13239.36
828.151	13222.18
828.478	13214.72
828.805	13256.98
829.131	13148.06
829.458	13159.58
829.785	13089.75
830.111	13077.1
830.438	13139.7
830.764	13119.36
831.09	13150.77
831.417	13078.68
831.743	13113.26
832.069	13115.52
832.395	13035.29
832.722	13105.35
833.048	13033.26
833.374	13111.9
833.7	13037.33
834.026	12997.55
834.351	13041.39
834.677	13042.98
835.003	13071.68
835.329	13032.36
835.654	12985.58
835.98	12933.15
836.306	13005.92
836.631	12859.03
836.956	12961.17
837.282	12901.51
837.607	12813.38
837.932	12791.46
838.258	12805.24
838.583	12835.52
838.908	12746.71
839.233	12769.99
839.558	12725.7
839.883	12679.82
840.208	12680.05
840.533	12702.87
840.858	12668.97
841.182	12623.1
841.507	12557.57
841.832	12496.78
842.156	12587.4
842.481	12561.18
842.805	12385.37
843.13	12424.91
843.454	12414.97
843.778	12363.22
844.103	12342.88
844.427	12267.4
844.751	12336.1
845.075	12276.22
845.399	12290.45
845.723	12262.88
846.047	12135.43
846.371	12071.7
846.695	12140.4
847.019	11936.11
847.343	11986.73
847.666	11887.53
847.99	11868.77
848.313	11839.39
848.637	11743.8
848.96	11787.42
849.284	11694.31
849.607	11632.39
849.931	11622.22
850.254	11525.05
850.577	11441.89
850.9	11405.05
851.223	11345.62
851.546	11358.27
851.869	11211.16
852.192	11298.62
852.515	11198.05
852.838	11166.87
853.161	11186.53
853.483	11123.48
853.806	10968.45
854.129	11043.48
854.451	10977.49
854.774	10902.24
855.096	10916.48
855.419	10855.01
855.741	10855.92
856.063	10785.86
856.385	10783.6
856.708	10705.18
857.03	10618.86
857.352	10670.84
857.674	10612.08
857.996	10558.75
858.318	10596.03
858.64	10591.06
858.961	10523.27
859.283	10484.85
859.605	10417.28
859.926	10459.99
860.248	10520.1
860.57	10360.56
860.891	10392.2
861.212	10278.98
861.534	10272.43
861.855	10278.53
862.176	10254.8
862.498	10210.51
862.819	10283.95
863.14	10202.37
863.461	10183.84
863.782	10164.63
864.103	10176.84
864.424	10069.27
864.745	10226.33
865.065	10083.05
865.386	10087.8
865.707	10077.4
866.027	10107.23
866.348	10039.67
866.668	9966.67
866.989	9900.91
867.309	9875.6
867.63	9945.88
867.95	10004.41
868.27	9874.47
868.59	9914.92
868.91	9916.05
869.23	9850.52
869.55	9805.55
869.87	9823.17
870.19	9796.51
870.51	9737.3
870.83	9805.55
871.15	9767.81
871.469	9719
871.789	9676.96
872.109	9647.59
872.428	9684.42
872.748	9647.13
873.067	9623.18
873.386	9629.05
873.706	9617.08
874.025	9565.33
874.344	9526.23
874.663	9565.55
874.982	9530.3
875.301	9502.96
875.62	9488.95
875.939	9458.66
876.258	9468.38
876.577	9391.09
876.896	9417.99
877.214	9360.14
877.533	9390.19
877.852	9353.13
878.17	9353.36
878.489	9360.14
878.807	9383.19
879.125	9344.99
879.444	9325.79
879.762	9271.78
880.08	9262.28
880.398	9250.76
880.716	9293.7
881.034	9246.92
881.352	9292.79
881.67	9205.34
881.988	9281.04
882.306	9174.38
882.624	9135.51
882.941	9153.59
883.259	9118.79
883.577	9082.63
883.894	9076.98
884.212	9029.75
884.529	9055.28
884.846	9011.22
885.164	8947.72
885.481	8946.59
885.798	8975.06
886.115	8952.91
886.432	8993.82
886.75	8922.63
887.067	8876.76
887.383	8887.61
887.7	8867.94
888.017	8770.55
888.334	8713.6
888.651	8799.7
888.967	8824.56
889.284	8766.48
889.6	8653.26
889.917	8639.48
890.233	8596.99
890.55	8589.31
890.866	8577.78
891.182	8546.82
891.498	8503.66
891.815	8518.12
892.131	8491.01
892.447	8459.82
892.763	8422.98
893.079	8403.78
893.395	8380.27
893.71	8408.52
894.026	8335.53
894.342	8255.31
894.657	8175.31
894.973	8232.26
895.289	8212.82
895.604	8234.97
895.92	8242.42
896.235	8099.83
896.55	8188.41
896.865	8113.61
897.181	8082.2
897.496	8088.3
897.811	8050.34
898.126	7996.78
898.441	7942.32
898.756	7929.44
899.071	7914.3
899.386	7943.45
899.7	7875.88
900.015	7792.94
900.33	7735.09
900.644	7771.7
900.959	7747.3
901.273	7803.11
901.588	7684.02
901.902	7609.67
902.216	7668.2
902.531	7589.56
902.845	7587.53
903.159	7507.75
903.473	7494.2
903.787	7495.1
904.101	7466.17
904.415	7467.3
904.729	7357.25
905.042	7398.83
905.356	7346.4
905.67	7334.88
905.984	7294.2
906.297	7244.48
906.611	7258.04
906.924	7239.97
907.237	7192.73
907.551	7216.91
907.864	7111.83
908.177	7095.34
908.491	7110.02
908.804	7030.7
909.117	7045.62
909.43	6981.67
909.743	6945.06
910.056	6998.39
910.368	6917.49
910.681	6888.79
910.994	6867.32
911.307	6830.48
911.619	6745.74
911.932	6785.51
912.244	6703.48
912.557	6728.34
912.869	6656.48
913.181	6686.76
913.494	6679.75
913.806	6650.83
914.118	6622.13
914.43	6583.03
914.742	6548.01
915.054	6518.63
915.366	6540.77
915.678	6454.9
915.99	6381
916.302	6428.91
916.613	6277.28
916.925	6328.35
917.236	6347.11
917.548	6285.87
917.859	6271.18
918.171	6284.51
918.482	6244.74
918.794	6211.07
919.105	6153.21
919.416	6068.02
919.727	6085.19
920.038	6139.65
920.349	6031.86
920.66	5940.56
920.971	5974.24
921.282	6001.35
921.593	5952.32
921.903	5910.96
922.214	5921.13
922.525	5870.28
922.835	5847.46
923.146	5847.01
923.456	5833.67
923.767	5768.82
924.077	5794.81
924.387	5742.38
924.697	5728.14
925.008	5687.46
925.318	5702.15
925.628	5668.71
925.938	5647.69
926.248	5507.81
926.558	5560.01
926.867	5546.68
927.177	5561.59
927.487	5510.52
927.796	5448.6
928.106	5461.93
928.416	5405.66
928.725	5449.96
929.034	5407.7
929.344	5363.86
929.653	5345.78
929.962	5334.7
930.271	5295.38
930.581	5266.91
930.89	5256.74
931.199	5229.4
931.508	5193.24
931.817	5169.06
932.125	5171.54
932.434	5149.17
932.743	5113.69
933.051	5077.54
933.36	5123.86
933.669	5039.34
933.977	5040.02
934.286	5004.54
934.594	5009.74
934.902	4912.79
935.21	4982.17
935.519	4901.72
935.827	4910.31
936.135	4900.59
936.443	4873.02
936.751	4859.01
937.059	4823.76
937.367	4831.44
937.674	4846.81
937.982	4778.33
938.29	4767.49
938.597	4743.99
938.905	4685.23
939.213	4680.94
939.52	4713.48
939.827	4674.38
940.135	4636.87
940.442	4630.77
940.749	4602.97
941.056	4627.83
941.363	4512.35
941.67	4567.94
941.977	4492.01
942.284	4456.08
942.591	4483.43
942.898	4441.85
943.205	4457.67
943.511	4407.95
943.818	4400.49
944.125	4400.49
944.431	4360.72
944.738	4346.93
945.044	4350.1
945.35	4327.5
945.657	4277.11
945.963	4244.79
946.269	4213.6
946.575	4290.21
946.881	4247.95
947.187	4206.6
947.493	4169.09
947.799	4142.87
948.105	4156.88
948.41	4106.94
948.716	4130.44
949.022	4089.77
949.327	4057.9
949.633	4015.87
949.938	4073.04
950.244	4020.84
950.549	4021.97
950.854	3951.46
951.16	3972.71
951.465	3941.07
951.77	3899.49
952.075	3914.85
952.38	3891.35
952.685	3878.02
952.99	3854.07
953.294	3850.9
953.599	3819.72
953.904	3842.54
954.209	3788.98
954.513	3784.24
954.818	3793.95
955.122	3746.72
955.426	3782.43
955.731	3742.66
956.035	3668.53
956.339	3692.94
956.643	3720.74
956.948	3686.39
957.252	3591.25
957.556	3605.48
957.86	3627.86
958.163	3588.31
958.467	3607.29
958.771	3572.04
959.075	3576.11
959.378	3558.25
959.682	3538.82
959.985	3518.93
960.289	3526.84
960.592	3475.09
960.896	3464.02
961.199	3452.49
961.502	3411.37
961.805	3425.83
962.108	3393.06
962.411	3409.56
962.714	3362.33
963.017	3370.46
963.32	3325.04
963.623	3326.4
963.926	3346.51
964.228	3304.93
964.531	3282.1
964.833	3277.58
965.136	3262.89
965.438	3245.49
965.741	3216.34
966.043	3219.73
966.345	3219.28
966.648	3198.04
966.95	3168.21
967.252	3125.95
967.554	3126.63
967.856	3138.38
968.158	3143.58
968.46	3120.3
968.761	3076.01
969.063	3092.96
969.365	3062.9
969.666	3020.64
969.968	3036.91
970.269	2985.16
970.571	2996.23
970.872	2999.62
971.174	2980.42
971.475	3001.88
971.776	2979.06
972.077	2938.84
972.378	2900.19
972.679	2927.76
972.98	2930.25
973.281	2896.12
973.582	2887.31
973.883	2857.26
974.183	2871.04
974.484	2862.9
974.785	2834.43
975.085	2813.19
975.386	2803.7
975.686	2826.75
975.986	2791.49
976.287	2757.37
976.587	2734.55
976.887	2759.4
977.187	2749.91
977.487	2706.75
977.787	2673.31
978.087	2713.53
978.387	2720.31
978.687	2704.27
978.987	2651.39
979.286	2638.05
979.586	2639.63
979.885	2640.09
980.185	2604.15
980.484	2603.7
980.784	2620.88
981.083	2587.66
981.382	2581.56
981.682	2566.42
981.981	2543.82
982.28	2535.23
982.579	2538.39
982.878	2559.41
983.177	2530.71
983.475	2505.85
983.774	2499.3
984.073	2492.07
984.372	2466.76
984.67	2429.7
984.969	2468.79
985.267	2450.94
985.566	2458.62
985.864	2399.64
986.162	2421.33
986.461	2397.83
986.759	2391.05
987.057	2346.53
987.355	2334.78
987.653	2383.6
987.951	2344.05
988.249	2353.77
988.547	2345.86
988.844	2344.27
989.142	2271.28
989.44	2252.98
989.737	2262.69
990.035	2274.9
990.332	2281.68
990.63	2255.24
990.927	2233.09
991.224	2202.13
991.521	2224.5
991.819	2212.98
992.116	2170.95
992.413	2178.18
992.71	2171.17
993.006	2155.35
993.303	2136.14
993.6	2159.42
993.897	2139.08
994.193	2130.95
994.49	2123.72
994.787	2126.2
995.083	2097.05
995.379	2050.04
995.676	2095.69
995.972	2097.95
996.268	2056.37
996.565	2043.49
996.861	2027.9
997.157	2030.16
997.453	2022.93
997.749	2038.07
998.044	2013.21
998.34	2018.86
998.636	1993.32
998.932	1979.09
999.227	1961.01
999.523	1934.79
999.818	1947.22
1000.114	1946.77
1000.409	1925.98
1000.704	1906.32
1001	1903.38
1001.295	1895.47
1001.59	1876.72
1001.885	1896.6
1002.18	1845.3
1002.475	1866.32
1002.77	1832.42
1003.065	1833.55
1003.359	1860.45
1003.654	1831.97
1003.949	1785.65
1004.243	1810.5
1004.538	1775.25
1004.832	1792.2
1005.127	1770.05
1005.421	1781.58
1005.715	1770.5
1006.009	1730.51
1006.304	1758.98
1006.598	1714.23
1006.892	1706.55
1007.186	1699.32
1007.48	1716.27
1007.773	1657.29
1008.067	1663.16
1008.361	1673.78
1008.655	1677.4
1008.948	1657.51
1009.242	1637.63
1009.535	1648.93
1009.829	1608.7
1010.122	1623.62
1010.415	1612.77
1010.708	1586.33
1011.001	1583.16
1011.295	1561.47
1011.588	1573.67
1011.881	1582.03
1012.173	1564.41
1012.466	1547.01
1012.759	1538.19
1013.052	1556.05
1013.344	1545.43
1013.637	1479.44
1013.93	1490.51
1014.222	1486.22
1014.514	1493
1014.807	1502.04
1015.099	1447.12
1015.391	1448.03
1015.683	1439.21
1015.976	1441.02
1016.268	1407.58
1016.56	1435.6
1016.851	1401.7
1017.143	1394.24
1017.435	1397.41
1017.727	1399.21
1018.018	1397.63
1018.31	1373
1018.602	1374.36
1018.893	1347.01
1019.185	1336.17
1019.476	1369.38
1019.767	1321.48
1020.058	1328.03
1020.35	1324.87
1020.641	1310.4
1020.932	1296.39
1021.223	1313.34
1021.514	1285.77
1021.804	1279.44
1022.095	1265.66
1022.386	1269.95
1022.677	1262.72
1022.967	1227.24
1023.258	1201.93
1023.548	1213.46
1023.839	1238.31
1024.129	1230.18
1024.419	1215.26
1024.709	1167.58
1025	1174.81
1025.29	1186.56
1025.58	1197.19
1025.87	1168.49
1026.16	1144.31
1026.449	1169.84
1026.739	1154.25
1027.029	1128.94
1027.319	1136.4
1027.608	1117.64
1027.898	1145.21
1028.187	1132.55
1028.477	1114.02
1028.766	1107.02
1029.055	1103.86
1029.344	1095.27
1029.634	1067.02
1029.923	1087.13
1030.212	1069.28
1030.501	1064.31
1030.79	1069.96
1031.078	1062.5
1031.367	1024.54
1031.656	1031.31
1031.945	1016.85
1032.233	1028.83
1032.522	995.61
1032.81	1004.65
1033.099	1010.07
1033.387	990.41
1033.675	994.93
1033.963	985.44
1034.251	984.08
1034.54	967.14
1034.828	956.97
1035.116	976.17
1035.403	960.81
1035.691	939.57
1035.979	930.98
1036.267	933.92
1036.554	943.63
1036.842	910.41
1037.129	910.87
1037.417	889.62
1037.704	911.32
1037.992	898.89
1038.279	876.97
1038.566	862.73
1038.853	862.73
1039.14	862.73
