Data from hue_32_FLMS001491_00021.txt Node
Date: Tue Feb 07 17:23:05 GMT 2017
User: dcchb
Spectrometer: FLMS00149
Trigger mode: 0
Integration Time (sec): 2.000000E-2
Scans to average: 10
Electric dark correction enabled: true
Nonlinearity correction enabled: false
Boxcar width: 0
XAxis mode: Wavelengths
Number of Pixels in Spectrum: 2048
>>>>>Begin Spectral Data<<<<<
341.393	-5.96
341.776	-5.96
342.16	-5.96
342.543	-75.34
342.927	-56.35
343.31	-69.91
343.693	-96.13
344.077	-66.52
344.46	-73.98
344.843	-69.46
345.226	-46.86
345.61	-27.2
345.993	1.72
346.376	-12.51
346.759	11.21
347.142	29.52
347.525	42.85
347.908	64.77
348.291	82.4
348.674	97.54
349.057	132.57
349.44	128.27
349.823	142.51
350.206	164.43
350.588	201.94
350.971	219.34
351.354	213.69
351.737	228.16
352.119	263.41
352.502	263.19
352.884	267.03
353.267	275.61
353.65	298.89
354.032	300.25
354.414	307.48
354.797	313.58
355.179	336.63
355.562	326.46
355.944	316.97
356.326	319.68
356.709	327.14
357.091	330.3
357.473	355.16
357.855	351.77
358.238	344.54
358.62	349.51
359.002	330.75
359.384	330.3
359.766	327.14
360.148	337.99
360.53	332.34
360.912	350.41
361.294	352
361.676	338.44
362.057	321.26
362.439	313.35
362.821	330.98
363.203	342.73
363.584	344.99
363.966	324.43
364.348	311.55
364.729	324.65
365.111	339.57
365.493	313.81
365.874	309.74
366.256	328.27
366.637	312.45
367.019	316.52
367.4	324.2
367.781	291.66
368.163	317.42
368.544	314.94
368.925	326.01
369.306	329.62
369.688	318.1
370.069	321.94
370.45	308.83
370.831	318.78
371.212	322.84
371.593	327.36
371.974	324.88
372.355	333.69
372.736	322.17
373.117	324.43
373.498	329.17
373.879	323.07
374.26	336.63
374.641	304.09
375.021	314.48
375.402	324.88
375.783	331.21
376.163	333.47
376.544	328.04
376.925	314.26
377.305	325.33
377.686	321.71
378.066	328.49
378.447	324.88
378.827	339.34
379.208	337.76
379.588	343.41
379.968	345.67
380.349	347.7
380.729	352
381.109	324.2
381.489	342.05
381.87	347.48
382.25	319.91
382.63	361.94
383.01	352.22
383.39	330.3
383.77	333.47
384.15	342.96
384.53	340.25
384.91	341.6
385.29	356.29
385.67	353.8
386.049	345.22
386.429	356.74
386.809	352.9
387.189	354.71
387.568	349.06
387.948	367.82
388.328	368.27
388.707	361.94
389.087	373.24
389.466	367.59
389.846	368.95
390.225	361.49
390.605	359
390.984	364.65
391.363	377.53
391.743	372.79
392.122	376.85
392.501	382.96
392.881	387.25
393.26	385.89
393.639	379.79
394.018	391.77
394.397	375.5
394.776	375.95
395.155	382.73
395.534	367.82
395.913	404.88
396.292	372.79
396.671	390.41
397.05	406.01
397.429	405.78
397.808	396.51
398.186	377.98
398.565	403.07
398.944	388.61
399.323	377.08
399.701	418.66
400.08	403.75
400.458	415.72
400.837	408.04
401.215	397.64
401.594	413.46
401.972	413.92
402.351	395.84
402.729	400.81
403.107	410.07
403.486	412.56
403.864	433.8
404.242	415.27
404.62	417.08
404.999	429.73
405.377	418.66
405.755	419.34
406.133	412.79
406.511	428.38
406.889	434.25
407.267	434.03
407.645	443.29
408.023	446.23
408.401	451.2
408.779	457.08
409.156	454.82
409.534	429.51
409.912	444.65
410.29	472.67
410.667	464.08
411.045	472.22
411.422	467.93
411.8	464.54
412.178	482.61
412.555	464.31
412.933	462.73
413.31	496.63
413.687	490.98
414.065	468.15
414.442	504.08
414.819	485.1
415.197	509.73
415.574	497.53
415.951	488.04
416.328	499.56
416.705	491.65
417.082	537.53
417.46	505.66
417.837	503.86
418.214	539.34
418.591	510.41
418.967	530.3
419.344	542.27
419.721	533.91
420.098	533.69
420.475	521.03
420.852	513.35
421.228	560.8
421.605	540.47
421.982	557.64
422.358	532.78
422.735	557.41
423.111	561.26
423.488	571.65
423.864	595.38
424.241	557.87
424.617	561.93
424.994	571.65
425.37	570.07
425.746	590.86
426.123	623.63
426.499	582.95
426.875	615.27
427.251	612.1
427.627	608.94
428.003	605.55
428.379	610.29
428.756	627.24
429.132	614.36
429.507	628.15
429.883	653.91
430.259	632.22
430.635	657.53
431.011	652.33
431.387	643.97
431.763	685.09
432.138	680.58
432.514	667.24
432.89	673.12
433.265	678.09
433.641	710.86
434.016	719.9
434.392	691.42
434.767	716.96
435.143	695.94
435.518	719.67
435.894	716.05
436.269	703.85
436.644	735.72
437.02	747.24
437.395	755.83
437.77	750.4
438.145	761.03
438.52	768.48
438.895	789.95
439.271	773.91
439.646	776.84
440.021	784.08
440.395	790.18
440.77	782.95
441.145	770.29
441.52	783.85
441.895	828.14
442.27	786.56
442.645	809.16
443.019	795.15
443.394	805.32
443.769	824.53
444.143	840.12
444.518	846.67
444.892	837.18
445.267	862.27
445.641	832.44
446.016	866.11
446.39	857.07
446.764	862.27
447.139	866.11
447.513	886.9
447.887	855.71
448.262	895.71
448.636	886.67
449.01	880.12
449.384	903.17
449.758	911.53
450.132	912.43
450.506	915.15
450.88	909.27
451.254	914.69
451.628	923.96
452.002	950.85
452.376	973.22
452.75	960.12
453.123	949.04
453.497	975.71
453.871	974.58
454.244	979.78
454.618	994.92
454.992	1010.51
455.365	991.98
455.739	1041.24
456.112	1035.59
456.486	1025.2
456.859	1066.78
457.232	1086.44
457.606	1047.35
457.979	1064.75
458.352	1091.64
458.725	1118.3
459.099	1115.37
459.472	1151.07
459.845	1133.67
460.218	1161.92
460.591	1166.21
460.964	1163.73
461.337	1195.82
461.71	1218.64
462.083	1237.4
462.456	1219.32
462.829	1250.28
463.201	1272.42
463.574	1260
463.947	1307.23
464.32	1313.1
464.692	1326.21
465.065	1349.71
465.438	1354.68
465.81	1356.72
466.183	1379.54
466.555	1391.29
466.928	1406.43
467.3	1396.94
467.672	1446.88
468.045	1467
468.417	1508.12
468.789	1482.14
469.161	1519.2
469.534	1542.47
469.906	1536.6
470.278	1592.64
470.65	1625.18
471.022	1648.69
471.394	1661.11
471.766	1695.69
472.138	1721
472.51	1760.77
472.882	1783.15
473.253	1827.66
473.625	1818.17
473.997	1886.19
474.369	1909.92
474.74	1927.55
475.112	1975
475.484	2020.88
475.855	2088.9
476.227	2072.18
476.598	2119.63
476.97	2186.07
477.341	2241.89
477.713	2295.45
478.084	2329.57
478.455	2353.07
478.827	2377.71
479.198	2458.16
479.569	2523.46
479.94	2577.93
480.311	2657.02
480.682	2702.44
481.053	2758.03
481.424	2870.35
481.795	2886.17
482.166	2963.91
482.537	3012.72
482.908	3102.21
483.279	3152.15
483.65	3234.86
484.021	3315.08
484.391	3374.29
484.762	3452.25
485.133	3494.51
485.503	3543.1
485.874	3685.24
486.244	3740.16
486.615	3828.06
486.985	3891.34
487.356	3966.14
487.726	4031.45
488.097	4193.7
488.467	4209.07
488.837	4327.03
489.207	4372
489.578	4492
489.948	4578.55
490.318	4678.44
490.688	4718.44
491.058	4829.62
491.428	4927.47
491.798	4985.77
492.168	5089.05
492.538	5140.8
492.908	5237.29
493.278	5380.56
493.648	5398.42
494.017	5518.64
494.387	5602.25
494.757	5636.15
495.126	5773.32
495.496	5855.13
495.866	5905.3
496.235	5998.85
496.605	6029.36
496.974	6071.62
497.344	6227.32
497.713	6315.23
498.082	6324.95
498.452	6375.34
498.821	6480.2
499.19	6490.82
499.559	6649.23
499.928	6668.44
500.298	6740.98
500.667	6797.02
501.036	6806.74
501.405	6925.83
501.774	6976.91
502.143	7092.38
502.512	7070.69
502.88	7183.46
503.249	7181.87
503.618	7239.72
503.987	7312.94
504.356	7386.84
504.724	7451.7
505.093	7504.8
505.462	7532.15
505.83	7594.07
506.199	7676.78
506.567	7823.21
506.936	7779.6
507.304	7835.64
507.672	7939.14
508.041	7966.49
508.409	8091.23
508.777	8120.38
509.145	8088.29
509.514	8165.12
509.882	8243.77
510.25	8254.16
510.618	8315.4
510.986	8317.89
511.354	8497.77
511.722	8564.21
512.09	8620.48
512.458	8619.58
512.826	8646.02
513.193	8746.13
513.561	8738.89
513.929	8817.76
514.297	8913.81
514.664	8981.37
515.032	8984.76
515.4	9067.93
515.767	9137.08
516.135	9153.8
516.502	9030.41
516.869	9340.23
517.237	9307.47
517.604	9220.69
517.972	9356.51
518.339	9418.88
518.706	9482.83
519.073	9446.9
519.44	9580.23
519.808	9609.83
520.175	9621.13
520.542	9664.97
520.909	9831.52
521.276	9791.75
521.643	9850.5
522.009	9939.54
522.376	9992.42
522.743	10078.07
523.11	10177.05
523.477	10237.84
523.843	10293.66
524.21	10270.83
524.577	10342.24
524.943	10488.45
525.31	10416.82
525.676	10570.03
526.043	10561.45
526.409	10664.72
526.776	10843.92
527.142	10821.33
527.508	10907.2
527.874	10994.43
528.241	10996.01
528.607	11022.68
528.973	11136.57
529.339	11143.35
529.705	11203.46
530.071	11264.25
530.437	11404.81
530.803	11422.67
531.169	11453.85
531.535	11419.73
531.901	11485.26
532.267	11611.14
532.632	11674.18
532.998	11697.69
533.364	11767.29
533.73	11799.83
534.095	11866.95
534.461	11888.19
534.826	11986.94
535.192	12038.02
535.557	12145.36
535.923	12107.17
536.288	12144.45
536.653	12236.2
537.019	12214.51
537.384	12261.29
537.749	12403.2
538.114	12363.66
538.479	12414.28
538.845	12478.23
539.21	12496.08
539.575	12593.93
539.94	12609.98
540.305	12792.8
540.67	12660.83
541.034	12823.98
541.399	12777.66
541.764	12886.81
542.129	12914.15
542.494	12982.85
542.858	13075.28
543.223	13084.54
543.587	13106.92
543.952	13162.51
544.316	13210.19
544.681	13201.83
545.045	13265.78
545.41	13422.16
545.774	13436.62
546.138	13494.7
546.503	13521.59
546.867	13518.66
547.231	13525.89
547.595	13673
547.959	13712.78
548.324	13747.58
548.688	13746.45
549.052	13842.04
549.416	13918.42
549.779	13824.64
550.143	13964.97
550.507	13995.03
550.871	14066.89
551.235	14090.84
551.599	14130.39
551.962	14210.62
552.326	14273.89
552.689	14346.2
553.053	14314.34
553.417	14405.41
553.78	14550.27
554.143	14427.78
554.507	14602.47
554.87	14590.49
555.234	14776.02
555.597	14634.11
555.96	14665.52
556.323	14779.87
556.686	14839.98
557.05	14883.59
557.413	14937.38
557.776	14966.3
558.139	14982.57
558.502	15061.89
558.865	15067.09
559.228	15261.21
559.59	15333.52
559.953	15293.52
560.316	15354.99
560.679	15427.08
561.041	15570.35
561.404	15557.47
561.767	15760.18
562.129	15574.2
562.492	15782.1
562.854	15727.86
563.217	15751.59
563.579	15773.96
563.941	16008.99
564.304	15980.29
564.666	16113.16
565.028	16045.82
565.39	16138.93
565.753	16286.27
566.115	16225.93
566.477	16263.22
566.839	16403.55
567.201	16484.68
567.563	16481.74
567.925	16756.54
568.287	16663.66
568.648	16645.35
569.01	16783.88
569.372	16886.25
569.734	16778.68
570.095	16983.2
570.457	17078.34
570.819	17057.32
571.18	17064.1
571.542	17217.99
571.903	17288.05
572.265	17415.5
572.626	17480.81
572.987	17404.88
573.349	17673.12
573.71	17700.24
574.071	17716.74
574.432	17842.61
574.794	18015.94
575.155	18014.13
575.516	18113.56
575.877	18332.09
576.238	18250.28
576.599	18491.63
576.96	18462.48
577.32	18631.06
577.681	18766.88
578.042	18806.65
578.403	18986.53
578.763	19186.53
579.124	19264.95
579.485	19507.65
579.845	19629
580.206	19636.24
580.566	19858.6
580.927	19917.36
581.287	20280.51
581.648	20301.98
582.008	20612.25
582.368	20765.02
582.728	20898.12
583.089	21068.74
583.449	21260.6
583.809	21397.54
584.169	21529.97
584.529	21790.75
584.889	22228.71
585.249	22174.93
585.609	22460.34
585.969	22782.82
586.329	22914.79
586.688	23235.69
587.048	23376.93
587.408	23647.2
587.768	23757.93
588.127	24039.28
588.487	24190.24
588.846	24694.86
589.206	24624.13
589.565	25046.04
589.925	25275.86
590.284	25544.55
590.643	25689.18
591.003	26199.9
591.362	26421.14
591.721	26629.72
592.08	26848.7
592.44	27284.17
592.799	27579.76
593.158	27642.58
593.517	28034.21
593.876	28353.97
594.235	28548.77
594.593	28820.63
594.952	29009.1
595.311	29223.33
595.67	29475.98
596.029	29854.27
596.387	30181.04
596.746	30376.07
597.104	30611.99
597.463	30838.2
597.822	31158.64
598.18	31170.85
598.538	31604.96
598.897	32009.24
599.255	32002.46
599.613	32530.59
599.972	32702.56
600.33	32935.77
600.688	33022.32
601.046	33377.34
601.404	33794.05
601.762	33849.87
602.12	34202.86
602.478	34531.89
602.836	34614.37
603.194	34671.32
603.552	34854.59
603.91	34857.76
604.268	35321.47
604.625	35460.45
604.983	35812.98
605.341	35860.67
605.698	36123.49
606.056	36386.08
606.413	36449.8
606.771	36744.26
607.128	36967.08
607.485	37021.77
607.843	37263.12
608.2	37607.06
608.557	37778.81
608.914	37935.64
609.272	38217.67
609.629	38309.87
609.986	38634.15
610.343	38574.04
610.7	38972.68
611.057	39065.78
611.414	39061.94
611.771	39300.35
612.127	39667.35
612.484	39680.91
612.841	40007.22
613.198	39922.48
613.554	39975.36
613.911	40195.02
614.267	40402.24
614.624	40456.48
614.98	40658.51
615.337	40793.19
615.693	40895.56
616.05	40899.63
616.406	41256.68
616.762	41249
617.118	41356.12
617.475	41486.28
617.831	41726.05
618.187	41702.55
618.543	41747.74
618.899	42111.35
619.255	42122.42
619.611	42116.32
619.967	42459.82
620.323	42617.33
620.678	42559.7
621.034	42355.19
621.39	42491.23
621.746	42676.08
622.101	43232
622.457	42906.13
622.812	43014.6
623.168	43181.6
623.523	43166.92
623.879	43257.31
624.234	43180.02
624.589	43316.29
624.945	43549.05
625.3	43575.72
625.655	43468.38
626.01	43614.36
626.365	43580.92
626.72	43678.09
627.075	43693.68
627.43	43683.96
627.785	43615.94
628.14	43686
628.495	43872.66
628.85	43927.57
629.205	43734.36
629.559	43988.14
629.914	43909.72
630.269	44024.07
630.623	43878.99
630.978	43794.24
631.332	44109.94
631.687	44273.1
632.041	43937.52
632.396	44071.75
632.75	43920.79
633.104	43978.65
633.459	43868.82
633.813	43987.23
634.167	43963.28
634.521	43901.13
634.875	43978.19
635.229	43979.32
635.583	44013.45
635.937	43847.8
636.291	43919.44
636.645	44005.76
636.999	43925.99
637.352	44009.83
637.706	43841.7
638.06	44032.66
638.413	43890.06
638.767	43919.89
639.121	43914.69
639.474	43809.84
639.828	43706.34
640.181	43752.66
640.534	43796.5
640.888	43729.84
641.241	43565.78
641.594	43628.15
641.947	43780.46
642.301	43580.01
642.654	43633.57
643.007	43674.02
643.36	43579.11
643.713	43601.25
644.066	43820.91
644.419	43530.97
644.771	43252.56
645.124	42867.94
645.477	42906.81
645.83	42533.03
646.182	42475.63
646.535	42425.01
646.888	42383.89
647.24	42342.98
647.593	42592.02
647.945	42313.15
648.298	42361.51
648.65	42184.12
649.002	42048.75
649.355	42323.1
649.707	42220.27
650.059	42467.73
650.411	42858.9
650.763	42935.51
651.115	43342.5
651.467	43072
651.819	43180.7
652.171	43103.19
652.523	43056.64
652.875	43090.08
653.227	42852.57
653.578	43077.65
653.93	43088.05
654.282	42870.2
654.633	42897.32
654.985	42893.93
655.337	42985.68
655.688	43039.46
656.039	43034.72
656.391	42723.99
656.742	42864.32
657.094	42941.16
657.445	43110.65
657.796	42840.37
658.147	42824.78
658.498	42814.83
658.849	42973.02
659.2	42833.82
659.551	42863.65
659.902	42896.19
660.253	42671.34
660.604	42830.65
660.955	42688.28
661.306	42784.55
661.656	42697.32
662.007	42664.56
662.358	42742.75
662.708	42776.87
663.059	42535.07
663.409	42422.53
663.76	42532.81
664.11	42721.5
664.461	42659.81
664.811	42722.86
665.161	42729.41
665.511	42532.58
665.862	42640.38
666.212	42700.49
666.562	42672.47
666.912	42606.7
667.262	42607.16
667.612	42669.08
667.962	42570.77
668.312	42458.91
668.662	42846.25
669.011	42568.51
669.361	42588.17
669.711	42511.57
670.06	42522.41
670.41	42452.58
670.76	42372.81
671.109	42670.66
671.459	42551.11
671.808	42540.04
672.157	42679.02
672.507	42164.91
672.856	42322.64
673.205	42328.52
673.554	42471.34
673.904	42372.59
674.253	42484.45
674.602	42410.33
674.951	41783.45
675.3	41597.69
675.649	42159.03
675.998	42232.03
676.346	42343.21
676.695	42255.53
677.044	42129.43
677.393	42173.95
677.741	42217.11
678.09	42138.47
678.438	42053.5
678.787	42057.57
679.135	42058.47
679.484	41909.32
679.832	42004.46
680.181	41709.33
680.529	41853.28
680.877	41701.19
681.225	41743.45
681.573	41816.89
681.922	41568.99
682.27	41513.85
682.618	41537.13
682.966	41383.69
683.314	41568.99
683.661	41325.61
684.009	41325.16
684.357	41201.77
684.705	41178.95
685.053	41143.01
685.4	41183.92
685.748	40947.54
686.095	40873.19
686.443	40638.85
686.79	40606.31
687.138	40789.35
687.485	40743.93
687.832	40614.67
688.18	40780.76
688.527	40390.27
688.874	40650.37
689.221	40273.88
689.568	40150.95
689.915	40078.41
690.262	40141.23
690.609	40057.62
690.956	39881.8
691.303	39960.45
691.65	39599.1
691.997	39854.01
692.344	39499.22
692.69	39499.44
693.037	39618.08
693.383	39170.86
693.73	39307.81
694.077	39182.16
694.423	39109.85
694.769	38928.38
695.116	38815.84
695.462	38806.35
695.808	38746.02
696.155	38802.28
696.501	38506.02
696.847	38508.96
697.193	38349.42
697.539	38350.32
697.885	38218.8
698.231	38235.97
698.577	38300.38
698.923	38063.55
699.269	37775.42
699.614	37662.88
699.96	37751.46
700.306	37693.61
700.651	37522.54
700.997	37386.28
701.342	37274.87
701.688	37347.41
702.033	37199.39
702.379	37138.6
702.724	37020.64
703.069	37173.85
703.415	36626.97
703.76	36740.64
704.105	36704.26
704.45	36637.82
704.795	36340.2
705.14	36323.71
705.485	36271.96
705.83	36097.05
706.175	36273.09
706.52	36051.62
706.865	35882.81
707.209	35812.98
707.554	35761.91
707.899	35737.73
708.243	35516.04
708.588	35646.89
708.932	35328.48
709.277	35318.08
709.621	35475.37
709.966	35271.08
710.31	35175.49
710.654	34911.77
710.998	34970.75
711.342	35045.1
711.687	34820.24
712.031	34702.73
712.375	34700.47
712.719	34672.9
713.063	34643.3
713.407	34740.7
713.75	34582.51
714.094	34363.98
714.438	34254.83
714.782	34299.58
715.125	34229.98
715.469	34269.75
715.812	34102.52
716.156	33946.82
716.499	34035.86
716.843	34044.67
717.186	33675.64
717.53	33960.15
717.873	33948.63
718.216	33710.22
718.559	33634.51
718.902	33274.29
719.246	33350.68
719.589	33411.47
719.932	33380.05
720.275	33275.88
720.617	33272.94
720.96	33155.65
721.303	33266.39
721.646	33174.18
721.989	33030.91
722.331	33104.13
722.674	33010.8
723.016	32940.52
723.359	32801.76
723.701	32920.86
724.044	32737.81
724.386	32476.8
724.729	32742.56
725.071	32632.96
725.413	32605.84
725.755	32551.15
726.097	32391.61
726.439	32216.02
726.782	32210.82
727.124	32388.89
727.465	32267.99
727.807	32187.32
728.149	32185.51
728.491	32103.7
728.833	32218.28
729.175	31969.92
729.516	31914.1
729.858	31798.4
730.199	31895.35
730.541	31772.64
730.882	31753.66
731.224	31754.56
731.565	31618.29
731.906	31628.01
732.248	31664.85
732.589	31510.95
732.93	31447.9
733.271	31436.15
733.612	31441.35
733.953	31399.09
734.294	31363.16
734.635	31345.53
734.976	31304.4
735.317	31203.16
735.658	31112.77
735.999	31184.86
736.339	31069.61
736.68	31057.18
737.021	30945.32
737.361	30904.87
737.702	31025.54
738.042	30909.84
738.383	30825.32
738.723	30912.77
739.063	30738.32
739.404	30885.43
739.744	30732.89
740.084	30588.26
740.424	30714.81
740.764	30659
741.104	30710.52
741.444	30520.24
741.784	30355.05
742.124	30411.77
742.464	30341.49
742.804	30284.32
743.143	30188.5
743.483	30315.28
743.823	30145.79
744.162	30027.6
744.502	30135.62
744.841	29950.99
745.181	30096.75
745.52	29828.06
745.86	29966.13
746.199	29955.51
746.538	29942.86
746.877	29899.69
747.216	29822.41
747.556	29748.29
747.895	29929.75
748.234	29608.85
748.573	29735.4
748.911	29607.05
749.25	29426.71
749.589	29494.28
749.928	29527.95
750.267	29499.93
750.605	29397.56
750.944	29376.77
751.283	29287.96
751.621	29332.93
751.96	29080.05
752.298	29140.39
752.636	29141.75
752.975	28908.31
753.313	28854.98
753.651	29043.9
753.989	28836.22
754.327	28663.12
754.666	28644.36
755.004	28633.51
755.342	28812.04
755.679	28584.7
756.017	28400.75
756.355	28551.03
756.693	28383.35
757.031	28456.79
757.368	28270.36
757.706	28341.77
758.044	28130.25
758.381	28163.92
758.719	28061.1
759.056	28091.83
759.394	28101.55
759.731	27867.88
760.068	27773.2
760.405	27685.06
760.743	27589.92
761.08	27695.23
761.417	27532.98
761.754	27445.75
762.091	27346.99
762.428	27344.06
762.765	27072.88
763.102	27213.21
763.438	27179.31
763.775	26915.14
764.112	26958.08
764.449	26990.39
764.785	26877.4
765.122	26693
765.458	26563.06
765.795	26441.48
766.131	26542.49
766.467	26365.78
766.804	26327.81
767.14	26244.87
767.476	26132.11
767.812	26073.13
768.148	26084.2
768.485	25857.09
768.821	25739.58
769.157	25799.46
769.492	25630.65
769.828	25619.58
770.164	25432.47
770.5	25408.06
770.836	25445.35
771.171	25261.17
771.507	25066.15
771.842	24984.12
772.178	24873.61
772.513	24786.38
772.849	24807.17
773.184	24670.23
773.519	24617.57
773.855	24495.32
774.19	24332.61
774.525	24349.33
774.86	24305.72
775.195	24277.02
775.53	24225.94
775.865	23957.93
776.2	23848.33
776.535	23670.71
776.87	23775.56
777.205	23638.84
777.539	23555
777.874	23583.25
778.209	23371.28
778.543	23371.05
778.878	23320.66
779.212	23327.89
779.547	23155.24
779.881	23150.94
780.215	22990.72
780.55	23035.69
780.884	22898.97
781.218	22746.44
781.552	22749.6
781.886	22535.59
782.22	22501.7
782.554	22501.47
782.888	22203.63
783.222	22095.83
783.556	22111.65
783.889	22082.72
784.223	21934.48
784.557	21915.95
784.89	21859.68
785.224	21694.03
785.557	21707.37
785.891	21650.87
786.224	21506.24
786.558	21538.78
786.891	21283.65
787.224	21243.42
787.557	21181.73
787.891	21186.48
788.224	21084.78
788.557	21076.65
788.89	20951.23
789.223	20958.91
789.556	20824
789.888	20787.17
790.221	20629.2
790.554	20370
790.887	20471.92
791.219	20396.89
791.552	20321.19
791.884	20292.72
792.217	20168.65
792.549	20222.21
792.882	20016.79
793.214	19959.16
793.546	19945.83
793.879	19794.2
794.211	19633.98
794.543	19801.2
794.875	19607.99
795.207	19678.49
795.539	19571.83
795.871	19521.44
796.203	19331.61
796.535	19257.49
796.867	19297.94
797.198	19225.17
797.53	19265.62
797.862	19100.66
798.193	19120.09
798.525	18973.43
798.856	18937.72
799.188	18857.05
799.519	18653.44
799.85	18628.58
800.182	18731.85
800.513	18611.63
800.844	18458.86
801.175	18612.08
801.506	18538.86
801.837	18359.21
802.168	18372.77
802.499	18291.64
802.83	18262.26
803.161	18137.97
803.491	18157.4
803.822	18087.35
804.153	18018.65
804.483	17994.7
804.814	17829.5
805.145	17808.94
805.475	17798.09
805.805	17763.29
806.136	17719.9
806.466	17657.76
806.796	17677.64
807.126	17495.95
807.457	17508.16
807.787	17414.37
808.117	17400.36
808.447	17294.83
808.777	17392.9
809.107	17179.8
809.436	17179.35
809.766	17194.49
810.096	17104.32
810.426	17004.44
810.755	17047.15
811.085	17030.43
811.414	16966.25
811.744	16807.61
812.073	16809.19
812.403	16746.59
812.732	16704.56
813.061	16785.24
813.39	16694.62
813.719	16587.73
814.049	16652.81
814.378	16517.67
814.707	16507.5
815.036	16490.1
815.365	16338.24
815.693	16286.04
816.022	16254.18
816.351	16220.05
816.68	16181.41
817.008	16158.13
817.337	16022.54
817.665	16070
817.994	16134.63
818.322	15974.41
818.651	15940.97
818.979	15791.14
819.307	15942.77
819.636	15815.09
819.964	15665.04
820.292	15814.19
820.62	15767.64
820.948	15849.22
821.276	15749.56
821.604	15710.46
821.932	15821.19
822.259	15672.27
822.587	15735.09
822.915	15660.97
823.243	15666.4
823.57	15649.9
823.898	15809.9
824.225	15597.02
824.553	15685.83
824.88	15581.2
825.207	15634.76
825.535	15659.39
825.862	15705.94
826.189	15552.05
826.516	15660.97
826.843	15678.37
827.17	15609.45
827.497	15667.98
827.824	15707.98
828.151	15679.28
828.478	15657.81
828.805	15713.17
829.131	15589.11
829.458	15596.34
829.785	15614.65
830.111	15627.75
830.438	15676.79
830.764	15595.66
831.09	15636.34
831.417	15536.91
831.743	15526.51
832.069	15618.04
832.395	15521.99
832.722	15600.18
833.048	15477.47
833.374	15468.89
833.7	15426.63
834.026	15449.9
834.351	15475.67
834.677	15424.82
835.003	15538.26
835.329	15461.43
835.654	15363.81
835.98	15325.84
836.306	15388.21
836.631	15300.76
836.956	15397.48
837.282	15368.32
837.607	15343.69
837.932	15190.93
838.258	15192.28
838.583	15214.66
838.908	15157.48
839.233	15111.61
839.558	15120.87
839.883	15072.51
840.208	15014.21
840.533	14985.96
840.858	14969.92
841.182	15015.11
841.507	14968.11
841.832	14872.74
842.156	14838.62
842.481	14882.91
842.805	14884.5
843.13	14865.97
843.454	14800.88
843.778	14727.89
844.103	14698.06
844.427	14576.71
844.751	14650.38
845.075	14628.68
845.399	14500.55
845.723	14510.04
846.047	14437.95
846.371	14249.71
846.695	14350.05
847.019	14226.89
847.343	14185.53
847.666	14089.26
847.99	14083.61
848.313	14017.17
848.637	13960.45
848.96	13907.8
849.284	13918.87
849.607	13853.79
849.931	13743.28
850.254	13607.02
850.577	13504.42
850.9	13503.97
851.223	13426.23
851.546	13380.35
851.869	13326.8
852.192	13359.79
852.515	13311.43
852.838	13246.8
853.161	13275.05
853.483	13175.16
853.806	13153.02
854.129	13092.9
854.451	12998.44
854.774	12942.85
855.096	12927.94
855.419	12896.07
855.741	12889.97
856.063	12803.19
856.385	12716.19
856.708	12750.31
857.03	12728.17
857.352	12688.85
857.674	12652.24
857.996	12590.09
858.318	12522.07
858.64	12521.85
858.961	12499.93
859.283	12468.29
859.605	12350.55
859.926	12475.97
860.248	12384
860.57	12319.82
860.891	12282.76
861.212	12245.92
861.534	12301.51
861.855	12104.46
862.176	12223.32
862.498	12161.63
862.819	12132.93
863.14	12182.65
863.461	11965.25
863.782	12003.67
864.103	12065.59
864.424	12012.93
864.745	11964.35
865.065	11883.67
865.386	11917.79
865.707	11791.02
866.027	11876.89
866.348	11845.93
866.668	11779.49
866.989	11793.96
867.309	11735.43
867.63	11697.69
867.95	11771.58
868.27	11661.3
868.59	11629.67
868.91	11654.07
869.23	11653.39
869.55	11588.09
869.87	11663.79
870.19	11610.46
870.51	11629.21
870.83	11631.7
871.15	11566.16
871.469	11553.74
871.789	11488.88
872.109	11508.99
872.428	11426.28
872.748	11463.34
873.067	11471.25
873.386	11355.55
873.706	11454.3
874.025	11349
874.344	11292.95
874.663	11318.04
874.982	11268.55
875.301	11218.6
875.62	11233.74
875.939	11223.57
876.258	11274.87
876.577	11223.12
876.896	11165.5
877.214	11192.84
877.533	11161.66
877.852	11149.9
878.17	11113.75
878.489	11213.63
878.807	11163.01
879.125	11057.48
879.444	11039.62
879.762	11056.57
880.08	11044.37
880.398	10989.23
880.716	10957.82
881.034	10971.15
881.352	10884.83
881.67	10898.84
881.988	10866.52
882.306	10846.41
882.624	10801.21
882.941	10768.67
883.259	10705.85
883.577	10750.14
883.894	10703.59
884.212	10734.32
884.529	10684.83
884.846	10637.6
885.164	10650.48
885.481	10583.59
885.798	10589.47
886.115	10554.44
886.432	10540.66
886.75	10465.4
887.067	10481.9
887.383	10485.29
887.7	10446.87
888.017	10386.99
888.334	10433.09
888.651	10413.43
888.967	10402.58
889.284	10311.06
889.6	10250.95
889.917	10263.37
890.233	10244.62
890.55	10137.5
890.866	10191.29
891.182	10186.31
891.498	10098.86
891.815	10043.94
892.131	9970.5
892.447	9998.75
892.763	9969.14
893.079	9943.38
893.395	9931.86
893.71	9930.73
894.026	9896.38
894.342	9837.62
894.657	9823.84
894.973	9776.38
895.289	9707
895.604	9702.71
895.92	9664.97
896.235	9578.87
896.55	9626.1
896.865	9621.36
897.181	9536.84
897.496	9502.49
897.811	9481.47
898.126	9475.37
898.441	9398.31
898.756	9370.97
899.071	9302.04
899.386	9315.6
899.7	9252.33
900.015	9215.49
900.33	9128.71
900.644	9154.02
900.959	9177.53
901.273	9150.64
901.588	9068.38
901.902	9047.59
902.216	9026.12
902.531	8931.66
902.845	8938.66
903.159	8932.79
903.473	8839.68
903.787	8843.75
904.101	8815.95
904.415	8801.72
904.729	8817.08
905.042	8706.58
905.356	8654.83
905.67	8662.51
905.984	8723.08
906.297	8664.55
906.611	8583.42
906.924	8555.85
907.237	8498.45
907.551	8493.03
907.864	8460.26
908.177	8454.16
908.491	8399.47
908.804	8339.36
909.117	8290.54
909.43	8309.98
909.743	8243.31
910.056	8206.48
910.368	8132.81
910.681	8147.5
910.994	8085.35
911.307	8109.98
911.619	7947.28
911.932	8011
912.244	7966.26
912.557	7976.2
912.869	7899.59
913.181	7891.91
913.494	7851.91
913.806	7759.26
914.118	7794.29
914.43	7669.32
914.742	7790.67
915.054	7648.98
915.366	7652.6
915.678	7636.55
915.99	7595.2
916.302	7557.23
916.613	7478.81
916.925	7484.92
917.236	7492.6
917.548	7387.29
917.859	7426.16
918.171	7395.65
918.482	7339.84
918.794	7320.17
919.105	7361.98
919.416	7210.57
919.727	7217.13
920.038	7162.89
920.349	7106.17
920.66	7152.5
920.971	7100.29
921.282	7141.42
921.593	7046.74
921.903	7027.3
922.214	6961.09
922.525	6929.9
922.835	6887.87
923.146	6895.55
923.456	6898.72
923.767	6836.35
924.077	6819.17
924.387	6765.61
924.697	6716.57
925.008	6651.72
925.318	6654.2
925.628	6659.85
925.938	6558.16
926.248	6594.09
926.558	6588.67
926.867	6525.62
927.177	6461.67
927.487	6474.32
927.796	6397.26
928.106	6394.32
928.416	6399.75
928.725	6354.78
929.034	6312.07
929.344	6346.64
929.653	6314.55
929.962	6299.41
930.271	6226.64
930.581	6222.12
930.89	6149.81
931.199	6107.1
931.508	6124.05
931.817	6116.59
932.125	6121.56
932.434	6104.39
932.743	6003.37
933.051	5997.95
933.36	6002.7
933.669	5946.88
933.977	5897.16
934.286	5894.9
934.594	5897.61
934.902	5790.95
935.21	5811.29
935.519	5783.72
935.827	5787.79
936.135	5702.59
936.443	5730.84
936.751	5706.88
937.059	5649.26
937.367	5599.54
937.674	5653.55
937.982	5612.2
938.29	5609.26
938.597	5568.81
938.905	5469.15
939.213	5472.09
939.52	5485.65
939.827	5477.51
940.135	5374.69
940.442	5424.86
940.749	5346.22
941.056	5415.14
941.363	5284.75
941.67	5306.44
941.977	5268.48
942.284	5277.52
942.591	5230.96
942.898	5211.3
943.205	5222.38
943.511	5164.53
943.818	5155.03
944.125	5105.09
944.431	5111.19
944.738	5125.2
945.044	5029.16
945.35	5052.66
945.657	5013.79
945.963	5001.59
946.269	4962.95
946.575	4975.83
946.881	4923.4
947.187	4863.29
947.493	4920.24
947.799	4863.29
948.105	4842.73
948.41	4826.46
948.716	4824.42
949.022	4795.27
949.327	4806.12
949.633	4705.1
949.938	4676.4
950.244	4710.3
950.549	4645.44
950.854	4637.76
951.16	4642.96
951.465	4649.74
951.77	4621.26
952.075	4539.23
952.38	4562.28
952.685	4555.73
952.99	4514.82
953.294	4509.18
953.599	4496.97
953.904	4462.4
954.209	4424.21
954.513	4413.36
954.818	4396.41
955.122	4386.47
955.426	4338.33
955.731	4314.38
956.035	4343.76
956.339	4282.74
956.643	4274.61
956.948	4259.24
957.252	4284.1
957.556	4244.1
957.86	4197.32
958.163	4179.01
958.467	4196.19
958.771	4196.19
959.075	4164.1
959.378	4137.21
959.682	4076.64
959.985	4061.96
960.289	4067.15
960.592	4093.37
960.896	4064.44
961.199	4028.74
961.502	4037.78
961.805	4046.14
962.108	3966.82
962.411	3961.62
962.714	3931.79
963.017	3919.36
963.32	3926.59
963.623	3880.94
963.926	3896.31
964.228	3841.4
964.531	3852.02
964.833	3835.52
965.136	3784.22
965.438	3779.02
965.741	3752.13
966.043	3755.07
966.345	3720.27
966.648	3712.81
966.95	3752.13
967.252	3682.08
967.554	3672.36
967.856	3632.81
968.158	3601.18
968.46	3557.11
968.761	3604.79
969.063	3534.06
969.365	3566.83
969.666	3524.34
969.968	3505.59
970.269	3509.2
970.571	3518.92
970.872	3495.64
971.174	3482.31
971.475	3482.99
971.776	3470.78
972.077	3414.74
972.378	3486.6
972.679	3402.99
972.98	3392.82
973.281	3379.71
973.582	3378.58
973.883	3316.21
974.183	3338.36
974.484	3334.52
974.785	3334.06
975.085	3268.08
975.386	3265.82
975.686	3273.28
975.986	3213.16
976.287	3204.8
976.587	3225.14
976.887	3207.74
977.187	3180.85
977.487	3180.4
977.787	3133.17
978.087	3131.36
978.387	3120.29
978.687	3133.62
978.987	3094.52
979.286	3109.44
979.586	3066.28
979.885	3051.81
980.185	3043.9
980.484	2993.51
980.784	2979.95
981.083	3017.01
981.382	2964.58
981.682	2985.37
981.981	2951.7
982.28	2932.49
982.579	2916.67
982.878	2926.39
983.177	2939.27
983.475	2894.3
983.774	2915.09
984.073	2865.38
984.372	2832.38
984.67	2862.44
984.969	2873.06
985.267	2866.73
985.566	2838.03
985.864	2800.29
986.162	2812.04
986.461	2738.6
986.759	2728.88
987.057	2718.04
987.355	2708.09
987.653	2711.03
987.951	2726.62
988.249	2666.51
988.547	2670.35
988.844	2685.95
989.142	2679.62
989.44	2639.85
989.737	2641.2
990.035	2620.19
990.332	2625.83
990.63	2622.9
990.927	2597.36
991.224	2603.46
991.521	2598.27
991.819	2581.99
992.116	2525.5
992.413	2525.95
992.71	2491.6
993.006	2526.4
993.303	2492.96
993.6	2470.36
993.897	2481.43
994.193	2428.1
994.49	2403.47
994.787	2431.49
995.083	2401.21
995.379	2403.47
995.676	2391.26
995.972	2364.82
996.268	2378.16
996.565	2345.39
996.861	2338.84
997.157	2358.05
997.453	2344.94
997.749	2329.12
998.044	2309.23
998.34	2296.8
998.636	2266.3
998.932	2266.52
999.227	2270.14
999.523	2252.51
999.818	2273.75
1000.114	2215
1000.409	2182.23
1000.704	2200.76
1001	2194.21
1001.295	2167.77
1001.59	2207.99
1001.885	2159.86
1002.18	2135.45
1002.475	2136.13
1002.77	2098.39
1003.065	2079.63
1003.359	2100.42
1003.654	2067.43
1003.949	2065.4
1004.243	2064.72
1004.538	2024.27
1004.832	2052.52
1005.127	2001.67
1005.421	2033.53
1005.715	1995.34
1006.009	1983.37
1006.304	1992.63
1006.598	1979.07
1006.892	1988.34
1007.186	1965.29
1007.48	1954.21
1007.773	1940.2
1008.067	1917.6
1008.361	1890.94
1008.655	1897.49
1008.948	1894.55
1009.242	1883.71
1009.535	1882.13
1009.829	1829.02
1010.122	1850.94
1010.415	1848.23
1010.708	1841.22
1011.001	1808.91
1011.295	1811.17
1011.588	1791.73
1011.881	1770.49
1012.173	1784.95
1012.466	1748.34
1012.759	1765.52
1013.052	1740.89
1013.344	1730.94
1013.637	1716.71
1013.93	1710.6
1014.222	1693.66
1014.514	1687.33
1014.807	1685.75
1015.099	1661.11
1015.391	1671.28
1015.683	1650.49
1015.976	1615.24
1016.268	1616.6
1016.56	1627.22
1016.851	1598.97
1017.143	1612.53
1017.435	1612.08
1017.727	1551.06
1018.018	1556.26
1018.31	1566.43
1018.602	1574.56
1018.893	1532.08
1019.185	1514.9
1019.476	1525.98
1019.767	1515.13
1020.058	1499.54
1020.35	1491.85
1020.641	1440.56
1020.932	1481.01
1021.223	1448.46
1021.514	1452.08
1021.804	1423.83
1022.095	1413.21
1022.386	1427
1022.677	1435.81
1022.967	1404.4
1023.258	1381.12
1023.548	1383.38
1023.839	1383.61
1024.129	1382.48
1024.419	1339.32
1024.709	1351.29
1025	1344.96
1025.29	1348.81
1025.58	1332.76
1025.87	1318.07
1026.16	1288.69
1026.449	1325.08
1026.739	1293.21
1027.029	1278.98
1027.319	1274.01
1027.608	1289.37
1027.898	1275.14
1028.187	1240.33
1028.477	1237.4
1028.766	1224.06
1029.055	1268.36
1029.344	1229.49
1029.634	1231.75
1029.923	1201.69
1030.212	1194.01
1030.501	1193.1
1030.79	1169.38
1031.078	1140
1031.367	1156.5
1031.656	1143.39
1031.945	1150.17
1032.233	1153.11
1032.522	1124.86
1032.81	1125.31
1033.099	1132.09
1033.387	1108.36
1033.675	1114.01
1033.963	1108.36
1034.251	1093.9
1034.54	1083.95
1034.828	1078.3
1035.116	1065.65
1035.403	1020.91
1035.691	1050.96
1035.979	1052.09
1036.267	1055.48
1036.554	1012.54
1036.842	1022.04
1037.129	1016.16
1037.417	1013.45
1037.704	993.34
1037.992	1002.15
1038.279	972.77
1038.566	1012.09
1038.853	1012.09
1039.14	1012.09
