Data from hue_300_FLMS001491_00028.txt Node
Date: Tue Feb 07 15:50:31 GMT 2017
User: dcchb
Spectrometer: FLMS00149
Trigger mode: 0
Integration Time (sec): 2.000000E-2
Scans to average: 10
Electric dark correction enabled: true
Nonlinearity correction enabled: false
Boxcar width: 0
XAxis mode: Wavelengths
Number of Pixels in Spectrum: 2048
>>>>>Begin Spectral Data<<<<<
341.393	-17.43
341.776	-17.43
342.16	-17.43
342.543	-53.36
342.927	-77.54
343.31	-47.03
343.693	-77.54
344.077	-66.92
344.46	-70.76
344.843	-61.27
345.226	-47.48
345.61	-23.08
345.993	-20.37
346.376	-8.16
346.759	12.85
347.142	31.38
347.525	59.63
347.908	53.53
348.291	74.32
348.674	79.74
349.057	111.16
349.44	136.69
349.823	133.53
350.206	162.23
350.588	191.83
350.971	204.03
351.354	215.56
351.737	211.04
352.119	233.41
352.502	240.64
352.884	271.38
353.267	279.74
353.65	286.07
354.032	280.42
354.414	277.25
354.797	312.28
355.179	314.77
355.562	326.06
355.944	320.87
356.326	331.71
356.709	335.33
357.091	314.77
357.473	326.97
357.855	338.95
358.238	328.55
358.62	357.48
359.002	331.71
359.384	344.37
359.766	348.89
360.148	323.81
360.53	323.13
360.912	305.73
361.294	339.17
361.676	309.34
362.057	300.75
362.439	327.65
362.821	326.52
363.203	309.12
363.584	313.64
363.966	302.34
364.348	314.09
364.729	319.74
365.111	323.81
365.493	302.56
365.874	329.68
366.256	310.47
366.637	317.48
367.019	288.1
367.4	314.09
367.781	314.54
368.163	295.11
368.544	296.24
368.925	307.31
369.306	307.99
369.688	281.09
370.069	303.47
370.45	291.49
370.831	303.92
371.212	301.43
371.593	331.04
371.974	302.34
372.355	301.66
372.736	315.9
373.117	310.25
373.498	298.95
373.879	325.61
374.26	312.73
374.641	289.91
375.021	306.86
375.402	304.14
375.783	323.58
376.163	322
376.544	321.09
376.925	338.27
377.305	321.77
377.686	326.06
378.066	330.58
378.447	318.38
378.827	329.68
379.208	355.89
379.588	322.9
379.968	335.56
380.349	339.17
380.729	326.06
381.109	354.99
381.489	345.5
381.87	335.33
382.25	325.61
382.63	350.02
383.01	336.23
383.39	333.3
383.77	334.88
384.15	328.78
384.53	325.16
384.91	328.32
385.29	352.28
385.67	351.83
386.049	339.4
386.429	364.71
386.809	351.83
387.189	337.14
387.568	362
387.948	341.66
388.328	335.33
388.707	359.28
389.087	348.44
389.466	356.57
389.846	361.54
390.225	363.13
390.605	355.22
390.984	349.34
391.363	363.35
391.743	388.21
392.122	368.55
392.501	370.81
392.881	389.57
393.26	373.07
393.639	385.95
394.018	359.28
394.397	390.24
394.776	376.23
395.155	387.76
395.534	389.11
395.913	375.1
396.292	383.01
396.671	410.81
397.05	394.09
397.429	385.95
397.808	377.36
398.186	391.83
398.565	409.23
398.944	404.03
399.323	410.36
399.701	402
400.08	397.7
400.458	422.79
400.837	427.31
401.215	416.68
401.594	411.71
401.972	397.48
402.351	430.69
402.729	423.46
403.107	431.37
403.486	415.33
403.864	445.84
404.242	435.89
404.62	437.25
404.999	441.09
405.377	486.74
405.755	462.56
406.133	454.2
406.511	481.32
406.889	468.43
407.267	458.72
407.645	455.55
408.023	498.04
408.401	499.39
408.779	475.67
409.156	498.49
409.534	502.11
409.912	494.2
410.29	500.3
410.667	513.4
411.045	527.87
411.422	509.79
411.8	536
412.178	547.08
412.555	545.49
412.933	573.29
413.31	569.22
413.687	586.85
414.065	577.58
414.442	600.18
414.819	622.33
415.197	609.67
415.574	630.46
415.951	647.64
416.328	621.65
416.705	634.08
417.082	649.67
417.46	653.06
417.837	655.77
418.214	668.88
418.591	690.12
418.967	672.04
419.344	693.06
419.721	692.83
420.098	725.83
420.475	710.69
420.852	726.73
421.228	748.65
421.605	726.28
421.982	760.86
422.358	774.87
422.735	759.05
423.111	789.33
423.488	791.36
423.864	794.53
424.241	823
424.617	814.19
424.994	821.19
425.37	817.35
425.746	824.58
426.123	833.4
426.499	862.1
426.875	863.68
427.251	879.95
427.627	901.42
428.003	911.59
428.379	929.66
428.756	898.48
429.132	931.02
429.507	955.2
429.883	961.98
430.259	976.44
430.635	958.14
431.011	985.03
431.387	979.83
431.763	1022.09
432.138	1022.09
432.514	1040.62
432.89	1052.37
433.265	1068.42
433.641	1067.29
434.016	1095.08
434.392	1092.37
434.767	1128.53
435.143	1123.78
435.518	1128.98
435.894	1149.77
436.269	1152.94
436.644	1167.4
437.02	1173.95
437.395	1194.06
437.77	1201.52
438.145	1192.48
438.52	1220.5
438.895	1208.3
439.271	1220.73
439.646	1255.31
440.021	1261.18
440.395	1273.61
440.77	1258.92
441.145	1259.15
441.52	1294.18
441.895	1301.18
442.27	1290.11
442.645	1287.17
443.019	1296.89
443.394	1296.43
443.769	1315.64
444.143	1311.12
444.518	1310.9
444.892	1345.47
445.267	1371.46
445.641	1335.98
446.016	1338.02
446.39	1331.01
446.764	1345.25
447.139	1342.31
447.513	1381.86
447.887	1354.06
448.262	1392.48
448.636	1389.77
449.01	1403.78
449.384	1391.35
449.758	1383.21
450.132	1432.02
450.506	1408.97
450.88	1460.5
451.254	1435.19
451.628	1454.85
452.002	1458.92
452.376	1464.57
452.75	1484.68
453.123	1485.58
453.497	1479.93
453.871	1503.44
454.244	1514.28
454.618	1505.24
454.992	1526.03
455.365	1540.04
455.739	1548.63
456.112	1549.08
456.486	1575.07
456.859	1554.51
457.232	1583.66
457.606	1585.69
457.979	1598.8
458.352	1619.14
458.725	1634.28
459.099	1667.72
459.472	1678.57
459.845	1690.55
460.218	1656.2
460.591	1718.34
460.964	1716.08
461.337	1723.77
461.71	1718.34
462.083	1752.02
462.456	1750.21
462.829	1768.96
463.201	1786.59
463.574	1769.42
463.947	1844.44
464.32	1828.62
464.692	1839.7
465.065	1830.88
465.438	1888.51
465.81	1878.57
466.183	1886.48
466.555	1906.59
466.928	1885.35
467.3	1917.89
467.672	1931.45
468.045	1976.64
468.417	1971.67
468.789	1956.98
469.161	1986.13
469.534	2034.04
469.906	2033.36
470.278	2066.13
470.65	2049.41
471.022	2120.14
471.394	2140.25
471.766	2130.76
472.138	2133.7
472.51	2194.26
472.882	2194.04
473.253	2218.67
473.625	2232.91
473.997	2290.08
474.369	2279.69
474.74	2272.91
475.112	2290.98
475.484	2308.39
475.855	2352
476.227	2417.99
476.598	2420.7
476.97	2433.13
477.341	2488.95
477.713	2461.83
478.084	2505.22
478.455	2566.68
478.827	2545.89
479.198	2581.6
479.569	2585.67
479.94	2661.14
480.311	2654.37
480.682	2728.71
481.053	2775.94
481.424	2775.49
481.795	2820.01
482.166	2799.22
482.537	2837.41
482.908	2925.77
483.279	2892.1
483.65	2942.95
484.021	2970.74
484.391	3013.23
484.762	3061.36
485.133	3027.01
485.503	3079.66
485.874	3113.56
486.244	3132.32
486.615	3119.89
486.985	3161.92
487.356	3211.64
487.726	3255.93
488.097	3301.58
488.467	3296.61
488.837	3328.02
489.207	3367.11
489.578	3425.42
489.948	3403.72
490.318	3433.33
490.688	3448.02
491.058	3507.22
491.428	3512.87
491.798	3481.69
492.168	3591.52
492.538	3573.21
492.908	3659.08
493.278	3655.69
493.648	3629.71
494.017	3671.51
494.387	3700.21
494.757	3737.73
495.126	3752.64
495.496	3757.84
495.866	3746.31
496.235	3778.4
496.605	3848.46
496.974	3822.02
497.344	3879.64
497.713	3862.47
498.082	3898.4
498.452	3928.23
498.821	3925.29
499.19	3964.61
499.559	3960.09
499.928	4011.39
500.298	3976.14
500.667	4022.69
501.036	4007.78
501.405	4041.9
501.774	4030.15
502.143	4104.04
502.512	4046.19
502.88	4143.59
503.249	4119.41
503.618	4092.75
503.987	4132.74
504.356	4122.8
504.724	4141.11
505.093	4171.84
505.462	4204.15
505.83	4245.28
506.199	4225.85
506.567	4240.54
506.936	4234.89
507.304	4302.91
507.672	4271.27
508.041	4286.19
508.409	4347.2
508.777	4344.94
509.145	4353.76
509.514	4368.9
509.882	4391.95
510.25	4346.07
510.618	4406.86
510.986	4429.69
511.354	4426.07
511.722	4454.54
512.09	4512.85
512.458	4513.53
512.826	4486.18
513.193	4548.78
513.561	4538.16
513.929	4562.79
514.297	4555.11
514.664	4577.7
515.032	4539.06
515.4	4587.2
515.767	4591.94
516.135	4627.87
516.502	4599.62
516.869	4661.09
517.237	4625.61
517.604	4618.61
517.972	4672.84
518.339	4672.84
518.706	4708.1
519.073	4659.51
519.44	4730.69
519.808	4764.82
520.175	4724.37
520.542	4820.41
520.909	4753.29
521.276	4774.31
521.643	4819.51
522.009	4855.66
522.376	4845.95
522.743	4853.4
523.11	4882.33
523.477	4925.49
523.843	4908.09
524.21	4937.92
524.577	4981.31
524.943	4994.19
525.31	5049.33
525.676	5077.35
526.043	5031.25
526.409	5124.13
526.776	5153.73
527.142	5161.64
527.508	5150.57
527.874	5182.43
528.241	5243.45
528.607	5205.03
528.973	5256.56
529.339	5261.53
529.705	5323.22
530.071	5253.39
530.437	5354.18
530.803	5368.87
531.169	5419.04
531.535	5392.82
531.901	5415.87
532.267	5380.17
532.632	5490.67
532.998	5449.55
533.364	5492.48
533.73	5524.12
534.095	5585.36
534.461	5576.55
534.826	5567.73
535.192	5645.25
535.557	5665.13
535.923	5692.7
536.288	5687.96
536.653	5718.01
537.019	5708.75
537.384	5724.12
537.749	5788.07
538.114	5805.02
538.479	5821.29
538.845	5825.36
539.21	5834.17
539.575	5898.35
539.94	5861.96
540.305	5975.86
540.67	5918.69
541.034	5982.41
541.399	5991.9
541.764	5999.36
542.129	6016.76
542.494	6042.75
542.858	6132.92
543.223	6068.29
543.587	6193.71
543.952	6111.68
544.316	6155.52
544.681	6205.91
545.045	6196.64
545.41	6251.11
545.774	6283.2
546.138	6290.88
546.503	6331.1
546.867	6291.11
547.231	6388.28
547.595	6410.42
547.959	6356.41
548.324	6348.05
548.688	6389.86
549.052	6487.71
549.416	6469.63
549.779	6473.7
550.143	6489.74
550.507	6573.58
550.871	6619.23
551.235	6601.83
551.599	6577.43
551.962	6655.16
552.326	6669.63
552.689	6706.24
553.053	6625.79
553.417	6637.76
553.78	6786.69
554.143	6750.3
554.507	6734.71
554.87	6748.95
555.234	6887.7
555.597	6790.08
555.96	6848.38
556.323	6780.81
556.686	6858.77
557.05	6891.32
557.413	6890.19
557.776	6898.1
558.139	7022.39
558.502	6975.61
558.865	6967.02
559.228	7058.77
559.59	7027.36
559.953	7047.24
560.316	7077.3
560.679	7085.44
561.041	7156.39
561.404	7160.69
561.767	7179.44
562.129	7206.79
562.492	7248.82
562.854	7258.31
563.217	7234.13
563.579	7279.55
563.941	7267.13
564.304	7384.86
564.666	7332.21
565.028	7380.12
565.39	7485.88
565.753	7394.58
566.115	7473.22
566.477	7537.4
566.839	7490.17
567.201	7541.69
567.563	7610.85
567.925	7616.27
568.287	7668.92
568.648	7627.12
569.01	7703.5
569.372	7728.81
569.734	7737.17
570.095	7789.37
570.457	7860.1
570.819	7886.54
571.18	7873.89
571.542	7921.12
571.903	7943.04
572.265	8002.7
572.626	8032.53
572.987	8065.3
573.349	8131.96
573.71	8209.02
574.071	8162.92
574.432	8262.35
574.794	8344.84
575.155	8327.66
575.516	8377.83
575.877	8519.52
576.238	8555
576.599	8683.59
576.96	8677.71
577.32	8763.81
577.681	8834.77
578.042	8954.76
578.403	9016.46
578.763	9099.17
579.124	9168.09
579.485	9334.87
579.845	9373.28
580.206	9547.29
580.566	9589.55
580.927	9787.51
581.287	9911.12
581.648	9986.83
582.008	10161.51
582.368	10268.4
582.728	10505.23
583.089	10630.43
583.449	10763.76
583.809	10968.04
584.169	11190.19
584.529	11221.15
584.889	11563.96
585.249	11713.11
585.609	11922.6
585.969	12188.13
586.329	12352.19
586.688	12572.75
587.048	12850.71
587.408	13012.28
587.768	13314.65
588.127	13525.94
588.487	13752.6
588.846	14089.32
589.206	14339.48
589.565	14581.28
589.925	14913.7
590.284	15052.01
590.643	15435.05
591.003	15668.03
591.362	15975.14
591.721	16183.5
592.08	16508.69
592.44	16870.04
592.799	17101.22
593.158	17364.03
593.517	17766.28
593.876	18082.66
594.235	18332.6
594.593	18573.27
594.952	18977.1
595.311	19209.18
595.67	19595.61
596.029	20008.49
596.387	20322.15
596.746	20563.5
597.104	20715.36
597.463	21110.15
597.822	21456.13
598.18	21690.02
598.538	22044.14
598.897	22430.12
599.255	22519.83
599.613	23089.99
599.972	23231.9
600.33	23515.29
600.688	23827.82
601.046	24249.05
601.404	24488.37
601.762	24696.95
602.12	25175.35
602.478	25407.89
602.836	25646.3
603.194	25799.29
603.552	26144.37
603.91	26271.82
604.268	26531.93
604.625	26817.57
604.983	27086.72
605.341	27222.53
605.698	27583.88
606.056	27928.95
606.413	28098.89
606.771	28458.88
607.128	28741.81
607.485	28784.75
607.843	29090.28
608.2	29311.97
608.557	29744.95
608.914	29715.57
609.272	30090.48
609.629	30313.3
609.986	30674.19
610.343	30708.54
610.7	31155.99
611.057	31398.24
611.414	31504.91
611.771	31595.53
612.127	31968.4
612.484	32073.93
612.841	32224.66
613.198	32298.78
613.554	32482.96
613.911	32874.36
614.267	32805.89
614.624	33159.33
614.98	33274.8
615.337	33574.91
615.693	33695.81
616.05	33698.75
616.406	34133.54
616.762	34052.18
617.118	34253.31
617.475	34347.77
617.831	34589.8
618.187	34804.71
618.543	34869.34
618.899	35204.02
619.255	35124.47
619.611	35181.65
619.967	35295.09
620.323	35602.2
620.678	35501.86
621.034	35541.64
621.39	35787.05
621.746	35893.94
622.101	36207.83
622.457	36112.24
622.812	36327.15
623.168	36384.78
623.523	36500.71
623.879	36639.91
624.234	36528.73
624.589	36808.72
624.945	36836.97
625.3	36906.57
625.655	36955.16
626.01	37041.26
626.365	37021.82
626.72	37190.86
627.075	37372.77
627.43	37436.28
627.785	37269.27
628.14	37448.48
628.495	37502.04
628.85	37631.75
629.205	37405.09
629.559	37803.05
629.914	37616.61
630.269	37700.45
630.623	37534.13
630.978	37580.23
631.332	37918.3
631.687	37923.04
632.041	37768.24
632.396	37800.79
632.75	37714.69
633.104	38059.54
633.459	37845.3
633.813	37889.14
634.167	37956.49
634.521	37940.9
634.875	38029.03
635.229	37900.44
635.583	37836.49
635.937	37872.2
636.291	37849.6
636.645	37966.43
636.999	37835.36
637.352	38041.01
637.706	37845.53
638.06	38029.93
638.413	37799.2
638.767	37777.74
639.121	37947.9
639.474	37762.37
639.828	37799.66
640.181	37997.62
640.534	37973.21
640.888	37835.59
641.241	37635.82
641.594	37766.21
641.947	38004.85
642.301	37852.76
642.654	37736.61
643.007	37842.14
643.36	37805.53
643.713	37622.94
644.066	37878.52
644.419	37700.9
644.771	37534.58
645.124	37206.45
645.477	37183.4
645.83	36996.74
646.182	36881.71
646.535	36776.41
646.888	36822.28
647.24	36607.6
647.593	36969.62
647.945	36850.08
648.298	36677.65
648.65	36646.01
649.002	36489.63
649.355	36774.15
649.707	36732.79
650.059	36710.42
650.411	37278.31
650.763	37365.32
651.115	37725.31
651.467	37494.81
651.819	37553.11
652.171	37531.41
652.523	37388.14
652.875	37393.34
653.227	37265.88
653.578	37525.76
653.93	37381.81
654.282	37331.19
654.633	37137.98
654.985	37280.12
655.337	37312.21
655.688	37447.8
656.039	37617.06
656.391	37352.66
656.742	37228.6
657.094	37295.49
657.445	37400.57
657.796	37337.97
658.147	37393.56
658.498	37336.17
658.849	37182.95
659.2	37255.49
659.551	37150.41
659.902	37369.84
660.253	37263.62
660.604	37343.85
660.955	37137.3
661.306	37289.16
661.656	37161.25
662.007	37097.98
662.358	37233.34
662.708	37206.23
663.059	37221.14
663.409	37011.65
663.76	37216.39
664.11	37155.38
664.461	37209.84
664.811	37250.29
665.161	37194.93
665.511	37062.95
665.862	37024.08
666.212	37140.46
666.562	37288.48
666.912	37233.57
667.262	37241.03
667.612	37220.91
667.962	37170.97
668.312	37116.74
668.662	37430.17
669.011	37178.88
669.361	37147.47
669.711	37171.88
670.06	37014.37
670.41	36969.62
670.76	37021.15
671.109	37051.88
671.459	37041.03
671.808	37027.92
672.157	36848.49
672.507	36838.33
672.856	36875.16
673.205	36933.24
673.554	36926.23
673.904	36969.62
674.253	37108.15
674.602	36878.78
674.951	36434.49
675.3	36170.09
675.649	36805.11
675.998	36723.98
676.346	36798.55
676.695	36878.78
677.044	36662.06
677.393	36686.69
677.741	36763.75
678.09	36707.03
678.438	36633.36
678.787	36655.28
679.135	36749.74
679.484	36413.93
679.832	36502.06
680.181	36329.19
680.529	36366.47
680.877	36393.37
681.225	36399.24
681.573	36548.16
681.922	36217.78
682.27	36224.1
682.618	36166.7
682.966	36029.98
683.314	36206.48
683.661	36020.04
684.009	35885.36
684.357	35848.97
684.705	35793.38
685.053	35830.22
685.4	35827.96
685.748	35581.18
686.095	35583.67
686.443	35485.14
686.79	35485.37
687.138	35499.83
687.485	35453.95
687.832	35314.52
688.18	35450.34
688.527	35126.51
688.874	35120.4
689.221	35087.41
689.568	34957.47
689.915	34974.19
690.262	34934.65
690.609	34751.37
690.956	34709.57
691.303	34675.9
691.65	34490.82
691.997	34644.03
692.344	34332.85
692.69	34283.36
693.037	34322.01
693.383	33983.48
693.73	34245.17
694.077	34131.73
694.423	33991.39
694.769	33954.11
695.116	33797.05
695.462	33826.88
695.808	33687.9
696.155	33743.49
696.501	33406.33
696.847	33408.36
697.193	33283.16
697.539	33399.55
697.885	33131.76
698.231	33000.23
698.577	33069.16
698.923	33037.07
699.269	32919.11
699.614	32629.17
699.96	32695.61
700.306	32643.63
700.651	32425.11
700.997	32421.72
701.342	32412.45
701.688	32379.69
702.033	32245.23
702.379	32086.36
702.724	32034.16
703.069	32100.37
703.415	31817.44
703.76	31711
704.105	31757.55
704.45	31730.89
704.795	31480.5
705.14	31362.76
705.485	31382.65
705.83	31322.09
706.175	31345.59
706.52	31279.83
706.865	31104.46
707.209	31124.8
707.554	31134.75
707.899	31157.8
708.243	30818.37
708.588	30796.9
708.932	30584.25
709.277	30732.5
709.621	30626.74
709.966	30426.52
710.31	30489.34
710.654	30278.72
710.998	30300.64
711.342	30265.84
711.687	30248.89
712.031	30032.4
712.375	30015
712.719	30045.51
713.063	29946.53
713.407	29953.76
713.75	29878.06
714.094	29822.69
714.438	29715.57
714.782	29654.11
715.125	29476.26
715.469	29733.88
715.812	29375.47
716.156	29304.29
716.499	29428.8
716.843	29472.64
717.186	29193.55
717.53	29362.82
717.873	29403.49
718.216	29268.35
718.559	29061.58
718.902	29005.08
719.246	29019.32
719.589	28975.71
719.932	28881.02
720.275	28951.07
720.617	28751.31
720.96	28702.72
721.303	28687.35
721.646	28714.7
721.989	28539.33
722.331	28547.24
722.674	28544.98
723.016	28562.16
723.359	28460.47
723.701	28510.63
724.044	28242.84
724.386	28209.4
724.729	28290.75
725.071	28254.6
725.413	28152.45
725.755	28135.05
726.097	27996.3
726.439	28040.14
726.782	27875.85
727.124	27870.43
727.465	27827.26
727.807	27924.21
728.149	27781.16
728.491	27762.63
728.833	27818.68
729.175	27617.32
729.516	27649.64
729.858	27503.88
730.199	27647.38
730.541	27519.47
730.882	27501.62
731.224	27662.52
731.565	27455.3
731.906	27348.18
732.248	27344.56
732.589	27196.54
732.93	27187.96
733.271	27221.63
733.612	27205.81
733.953	27178.24
734.294	27099.15
734.635	26992.48
734.976	27059.6
735.317	26899.6
735.658	27015.53
735.999	26920.39
736.339	26945.93
736.68	27032.71
737.021	26907.74
737.361	26690.57
737.702	26932.37
738.042	26790.68
738.383	26717.01
738.723	26759.27
739.063	26589.56
739.404	26766.95
739.744	26653.96
740.084	26588.88
740.424	26581.65
740.764	26549.33
741.104	26540.06
741.444	26501.2
741.784	26371.71
742.124	26414.19
742.464	26366.51
742.804	26375.1
743.143	26271.37
743.483	26204.48
743.823	26114.31
744.162	26180.53
744.502	26235.67
744.841	26131.26
745.181	26257.36
745.52	26113.64
745.86	26046.07
746.199	26079.74
746.538	25919.74
746.877	26006.29
747.216	25980.31
747.556	25818.73
747.895	25892.62
748.234	25807.88
748.573	25805.39
748.911	25821.67
749.25	25684.27
749.589	25738.73
749.928	25666.19
750.267	25685.4
750.605	25610.15
750.944	25545.74
751.283	25558.62
751.621	25493.09
751.96	25468.23
752.298	25479.75
752.636	25470.04
752.975	25239.08
753.313	25194.11
753.651	25329.93
753.989	25356.14
754.327	25125.64
754.666	25228.23
755.004	25126.77
755.342	25226.65
755.679	25046.32
756.017	24936.04
756.355	25071.85
756.693	24891.75
757.031	24947.79
757.368	24779.43
757.706	24849.26
758.044	24762.94
758.381	24820.79
758.719	24776.5
759.056	24705.76
759.394	24681.58
759.731	24479.1
760.068	24512.32
760.405	24402.49
760.743	24442.27
761.08	24427.35
761.417	24344.64
761.754	24276.62
762.091	24273.23
762.428	24106.68
762.765	24112.56
763.102	24079.56
763.438	23983.52
763.775	23780.36
764.112	23886.35
764.449	23844.77
764.785	23740.36
765.122	23592.57
765.458	23648.62
765.795	23558.9
766.131	23470.09
766.467	23306.25
766.804	23258.57
767.14	23149.65
767.476	23271.22
767.812	22996.2
768.148	23027.39
768.485	22907.84
768.821	22888.86
769.157	22739.94
769.492	22741.07
769.828	22663.1
770.164	22525.93
770.5	22474.64
770.836	22399.61
771.171	22420.17
771.507	22285.26
771.842	22134.98
772.178	22191.25
772.513	22131.82
772.849	22077.58
773.184	21958.49
773.519	21934.31
773.855	21752.39
774.19	21714.88
774.525	21711.94
774.86	21694.99
775.195	21647.09
775.53	21554.43
775.865	21363.93
776.2	21370.48
776.535	21093.65
776.87	21154.67
777.205	21105.63
777.539	20942.47
777.874	21058.18
778.209	20943.6
778.543	20841.46
778.878	20648.47
779.212	20690.73
779.547	20532.09
779.881	20550.17
780.215	20446.89
780.55	20438.3
780.884	20245.32
781.218	20316.5
781.552	20209.61
781.886	20095.26
782.22	19954.25
782.554	19965.55
782.888	19707.25
783.222	19780.02
783.556	19765.78
783.889	19623.18
784.223	19390.65
784.557	19380.71
784.89	19516.97
785.224	19346.13
785.557	19234.95
785.891	19321.27
786.224	19102.07
786.558	19116.98
786.891	18895.52
787.224	18910.43
787.557	18862.53
787.891	18823.66
788.224	18723.77
788.557	18786.14
788.89	18663.89
789.223	18690.1
789.556	18538.47
789.888	18466.38
790.221	18388.41
790.554	18265.48
790.887	18249.44
791.219	18081.3
791.552	18147.07
791.884	18077.69
792.217	18004.47
792.549	17952.72
792.882	17834.31
793.214	17740.97
793.546	17713.86
793.879	17644.25
794.211	17505.95
794.543	17612.16
794.875	17480.19
795.207	17579.17
795.539	17404.71
795.871	17475.22
796.203	17270.25
796.535	17258.05
796.867	17216.69
797.198	17113.65
797.53	17080.43
797.862	16911.62
798.193	16997.49
798.525	16905.06
798.856	16950.94
799.188	16651.74
799.519	16655.35
799.85	16630.95
800.182	16626.2
800.513	16595.69
800.844	16477.05
801.175	16521.35
801.506	16450.61
801.837	16318.19
802.168	16448.35
802.499	16338.53
802.83	16214.69
803.161	16169.49
803.491	16136.72
803.822	16162.03
804.153	15991.87
804.483	15953.22
804.814	15868.93
805.145	15838.2
805.475	15845.43
805.805	15795.71
806.136	15737.86
806.466	15732.44
806.796	15733.12
807.126	15590.07
807.457	15597.08
807.787	15518.66
808.117	15452.45
808.447	15436.4
808.777	15509.62
809.107	15372
809.436	15328.61
809.766	15287.71
810.096	15301.72
810.426	15160.25
810.755	15192.11
811.085	15139.23
811.414	15109.18
811.744	14955.51
812.073	14959.8
812.403	15021.95
812.732	14890.2
813.061	14857.43
813.39	14800.94
813.719	14714.61
814.049	14844.55
814.378	14800.49
814.707	14678.23
815.036	14741.96
815.365	14696.31
815.693	14469.87
816.022	14532.92
816.351	14380.61
816.68	14376.77
817.008	14406.82
817.337	14289.99
817.665	14320.27
817.994	14324.79
818.322	14232.14
818.651	14249.99
818.979	14141.75
819.307	14181.75
819.636	14168.64
819.964	14093.84
820.292	14088.41
820.62	14098.13
820.948	14010.68
821.276	14124.57
821.604	14001.41
821.932	14043.67
822.259	14102.2
822.587	13910.79
822.915	13976.55
823.243	13986.27
823.57	13919.38
823.898	13947.18
824.225	13913.73
824.553	13897.69
824.88	13985.14
825.207	14025.59
825.535	13972.49
825.862	13977.23
826.189	13921.41
826.516	14000.73
826.843	14026.72
827.17	13944.01
827.497	13994.41
827.824	13986.95
828.151	13963.9
828.478	13909.66
828.805	14024.01
829.131	13961.64
829.458	13941.07
829.785	13828.53
830.111	13948.76
830.438	13975.42
830.764	13927.29
831.09	13892.04
831.417	13804.58
831.743	13891.58
832.069	13875.77
832.395	13814.98
832.722	13897.69
833.048	13773.39
833.374	13914.41
833.7	13740.85
834.026	13785.6
834.351	13816.11
834.677	13838.25
835.003	13786.28
835.329	13700.85
835.654	13692.95
835.98	13644.36
836.306	13617.24
836.631	13610.69
836.956	13737.69
837.282	13676.67
837.607	13573.4
837.932	13626.51
838.258	13597.58
838.583	13577.92
838.908	13407.53
839.233	13501.54
839.558	13433.74
839.883	13372.5
840.208	13395.55
840.533	13353.74
840.858	13410.69
841.182	13376.34
841.507	13343.58
841.832	13223.8
842.156	13211.15
842.481	13209.57
842.805	13256.8
843.13	13193.3
843.454	13182
843.778	13025.17
844.103	13063.36
844.427	13008.67
844.751	13043.92
845.075	12966.41
845.399	12904.94
845.723	12824.04
846.047	12835.57
846.371	12759.18
846.695	12780.65
847.019	12643.03
847.343	12569.36
847.666	12518.51
847.99	12520.09
848.313	12554.9
848.637	12437.38
848.96	12454.56
849.284	12332.53
849.607	12283.26
849.931	12228.35
850.254	12131.86
850.577	12115.36
850.9	12023.84
851.223	11949.71
851.546	12013.89
851.869	11881.47
852.192	11991.75
852.515	11774.8
852.838	11728.7
853.161	11789.27
853.483	11708.82
853.806	11702.71
854.129	11654.81
854.451	11605.54
854.774	11591.53
855.096	11533.23
855.419	11514.25
855.741	11505.88
856.063	11426.11
856.385	11370.07
856.708	11386.79
857.03	11290.75
857.352	11382.27
857.674	11299.79
857.996	11188.6
858.318	11155.84
858.64	11186.8
858.961	11124.65
859.283	11128.72
859.605	11061.38
859.926	11028.83
860.248	11035.16
860.57	11027.03
860.891	10915.16
861.212	10905.67
861.534	10879.91
861.855	10840.82
862.176	10858.9
862.498	10844.88
862.819	10895.28
863.14	10746.36
863.461	10786.13
863.782	10726.24
864.103	10720.82
864.424	10711.1
864.745	10647.15
865.065	10724.21
865.386	10670.43
865.707	10608.51
866.027	10571.22
866.348	10615.29
866.668	10655.74
866.989	10531.67
867.309	10524.44
867.63	10513.14
867.95	10451
868.27	10405.35
868.59	10418
868.91	10415.74
869.23	10432.47
869.55	10418
869.87	10469.53
870.19	10323.77
870.51	10354.95
870.83	10396.53
871.15	10254.39
871.469	10376.65
871.789	10258.69
872.109	10302.75
872.428	10247.39
872.748	10221.4
873.067	10227.27
873.386	10227.05
873.706	10242.64
874.025	10166.71
874.344	10114.51
874.663	10151.34
874.982	10066.37
875.301	10050.1
875.62	10061.4
875.939	10011.01
876.258	10086.94
876.577	10009.2
876.896	10048.97
877.214	9987.28
877.533	9955.64
877.852	9942.08
878.17	10000.84
878.489	9930.11
878.807	9930.11
879.125	9886.27
879.444	9890.79
879.762	9855.31
880.08	9860.05
880.398	9773.73
880.716	9744.8
881.034	9759.72
881.352	9822.99
881.67	9720.85
881.988	9712.71
882.306	9670.9
882.624	9643.11
882.941	9602.21
883.259	9612.15
883.577	9570.57
883.894	9530.12
884.212	9545.71
884.529	9552.49
884.846	9517.24
885.164	9483.56
885.481	9467.52
885.798	9438.14
886.115	9430.01
886.432	9406.73
886.75	9440.4
887.067	9396.33
887.383	9354.3
887.7	9347.75
888.017	9261.65
888.334	9345.71
888.651	9262.55
888.967	9231.82
889.284	9194.08
889.6	9282.44
889.917	9153.86
890.233	9154.53
890.55	9099.62
890.866	9151.6
891.182	9152.27
891.498	9026.18
891.815	8963.58
892.131	8995.67
892.447	8954.31
892.763	8938.04
893.079	8885.84
893.395	8847.42
893.71	8830.02
894.026	8834.32
894.342	8785.28
894.657	8763.58
894.973	8729.23
895.289	8716.58
895.604	8701.44
895.92	8600.88
896.235	8592.06
896.55	8570.14
896.865	8506.19
897.181	8503.93
897.496	8552.29
897.811	8447.21
898.126	8425.96
898.441	8423.48
898.756	8372.63
899.071	8372.41
899.386	8293.99
899.7	8295.12
900.015	8211.28
900.33	8160.44
900.644	8171.06
900.959	8297.15
901.273	8126.99
901.588	8092.87
901.902	8057.84
902.216	8094.67
902.531	8042.47
902.845	7929.71
903.159	7916.83
903.473	7938.07
903.787	7933.55
904.101	7872.31
904.415	7823.72
904.729	7772.65
905.042	7823.27
905.356	7769.71
905.67	7695.14
905.984	7790.28
906.297	7718.41
906.611	7651.52
906.924	7674.12
907.237	7604.52
907.551	7543.95
907.864	7530.17
908.177	7494.01
908.491	7475.03
908.804	7461.7
909.117	7410.17
909.43	7379.44
909.743	7407.01
910.056	7334.69
910.368	7358.42
910.681	7278.2
910.994	7234.36
911.307	7215.15
911.619	7133.34
911.932	7118.65
912.244	7171.99
912.557	7116.39
912.869	7061.03
913.181	6993.91
913.494	7024.65
913.806	6920.02
914.118	6890.64
914.43	6895.61
914.742	6940.13
915.054	6901.71
915.366	6832.56
915.678	6804.09
915.99	6761.6
916.302	6663.53
916.613	6727.93
916.925	6710.3
917.236	6627.37
917.548	6612.23
917.859	6640.25
918.171	6572.45
918.482	6520.7
918.794	6522.29
919.105	6459.24
919.416	6452.91
919.727	6462.4
920.038	6461.72
920.349	6354.15
920.66	6382.18
920.971	6385.57
921.282	6324.55
921.593	6272.58
921.903	6235.97
922.214	6190.32
922.525	6238
922.835	6165.69
923.146	6120.04
923.456	6132.47
923.767	6130.66
924.077	6101.05
924.387	6049.98
924.697	6005.69
925.008	6050.21
925.318	5936.76
925.628	5987.16
925.938	5912.36
926.248	5870.1
926.558	5832.36
926.867	5873.49
927.177	5862.64
927.487	5773.61
927.796	5727.96
928.106	5715.3
928.416	5698.58
928.725	5684.79
929.034	5703.78
929.344	5653.83
929.653	5604.57
929.962	5556.66
930.271	5590.56
930.581	5604.12
930.89	5554.63
931.199	5558.02
931.508	5527.74
931.817	5499.71
932.125	5462.2
932.434	5423.11
932.743	5427.17
933.051	5396.21
933.36	5315.76
933.669	5344.01
933.977	5255.2
934.286	5277.57
934.594	5286.61
934.902	5255.88
935.21	5198.48
935.519	5170.23
935.827	5184.24
936.135	5151.47
936.443	5107.86
936.751	5074.41
937.059	5100.85
937.367	5011.82
937.674	5059.95
937.982	5002.78
938.29	4991.48
938.597	4978.15
938.905	4922.78
939.213	4932.5
939.52	4923.01
939.827	4915.1
940.135	4847.53
940.442	4864.48
940.749	4819.28
941.056	4836.68
941.363	4783.57
941.67	4765.72
941.977	4758.72
942.284	4711.94
942.591	4674.88
942.898	4661.54
943.205	4676.91
943.511	4619.06
943.818	4627.19
944.125	4597.14
944.431	4580.19
944.738	4597.82
945.044	4512.85
945.35	4563.02
945.657	4489.35
945.963	4441.66
946.269	4416.58
946.575	4460.87
946.881	4497.48
947.187	4383.81
947.493	4362.34
947.799	4356.92
948.105	4353.3
948.41	4287.99
948.716	4282.12
949.022	4277.6
949.327	4284.6
949.633	4232.63
949.938	4255.45
950.244	4217.04
950.549	4144.95
950.854	4172.29
951.16	4168
951.465	4154.89
951.77	4118.51
952.075	4128.68
952.38	4083.48
952.685	4077.83
952.99	4034.22
953.294	4036.93
953.599	4003.26
953.904	3970.26
954.209	3972.75
954.513	3967.33
954.818	3944.5
955.122	3919.64
955.426	3911.06
955.731	3884.84
956.035	3912.86
956.339	3868.57
956.643	3867.44
956.948	3858.63
957.252	3797.84
957.556	3805.52
957.86	3770.49
958.163	3789.7
958.467	3734.11
958.771	3711.06
959.075	3711.06
959.378	3698.86
959.682	3700.21
959.985	3664.06
960.289	3706.09
960.592	3681.91
960.896	3616.15
961.199	3613.21
961.502	3575.02
961.805	3539.99
962.108	3525.08
962.411	3560.1
962.714	3504.51
963.017	3508.13
963.32	3484.4
963.623	3495.93
963.926	3487.11
964.228	3474.23
964.531	3438.53
964.833	3458.41
965.136	3418.19
965.438	3377.28
965.741	3349.49
966.043	3353.1
966.345	3324.18
966.648	3349.04
966.95	3324.18
967.252	3271.98
967.554	3295.25
967.856	3309.49
968.158	3284.18
968.46	3244.41
968.761	3246.44
969.063	3208.47
969.365	3177.97
969.666	3191.53
969.968	3166.67
970.269	3194.92
970.571	3152.21
970.872	3106.56
971.174	3115.82
971.475	3068.14
971.776	3102.26
972.077	3104.75
972.378	3059.78
972.679	3038.99
972.98	3021.59
973.281	3022.27
973.582	3005.54
973.883	3009.84
974.183	3005.09
974.484	2991.76
974.785	2954.47
975.085	2934.36
975.386	2953.34
975.686	2928.03
975.986	2916.96
976.287	2909.95
976.587	2891.42
976.887	2872.44
977.187	2902.95
977.487	2831.54
977.787	2840.12
978.087	2813.91
978.387	2800.12
978.687	2800.12
978.987	2778.43
979.286	2791.31
979.586	2747.92
979.885	2722.16
980.185	2731.65
980.484	2727.58
980.784	2714.02
981.083	2716.51
981.382	2682.61
981.682	2671.77
981.981	2657.98
982.28	2641.48
982.579	2629.28
982.878	2626.8
983.177	2632.67
983.475	2602.16
983.774	2583.18
984.073	2574.14
984.372	2570.53
984.67	2560.81
984.969	2581.82
985.267	2514.93
985.566	2511.77
985.864	2463.86
986.162	2491.88
986.461	2493.24
986.759	2460.02
987.057	2460.47
987.355	2469.96
987.653	2467.03
987.951	2420.02
988.249	2406.91
988.547	2424.09
988.844	2380.02
989.142	2416.63
989.44	2368.27
989.737	2378.44
990.035	2370.98
990.332	2324.2
990.63	2296.18
990.927	2303.64
991.224	2312.91
991.521	2296.41
991.819	2279.69
992.116	2280.82
992.413	2261.16
992.71	2253.02
993.006	2260.25
993.303	2228.39
993.6	2239.69
993.897	2235.62
994.193	2196.75
994.49	2205.79
994.787	2166.92
995.083	2167.6
995.379	2163.76
995.676	2175.51
995.972	2166.92
996.268	2114.94
996.565	2133.7
996.861	2096.41
997.157	2098.9
997.453	2094.38
997.749	2062.29
998.044	2063.87
998.34	2034.72
998.636	2046.02
998.932	2028.39
999.227	2034.27
999.523	2000.6
999.818	2032.69
1000.114	2004.66
1000.409	1973.48
1000.704	1975.06
1001	1954.27
1001.295	1976.42
1001.59	1945.91
1001.885	1957.89
1002.18	1919.92
1002.475	1914.27
1002.77	1937.1
1003.065	1892.58
1003.359	1887.38
1003.654	1855.52
1003.949	1854.84
1004.243	1852.8
1004.538	1836.99
1004.832	1833.14
1005.127	1839.02
1005.421	1797.66
1005.715	1780.72
1006.009	1764.67
1006.304	1753.82
1006.598	1782.75
1006.892	1766.7
1007.186	1766.03
1007.48	1756.08
1007.773	1731.23
1008.067	1739.81
1008.361	1709.76
1008.655	1720.6
1008.948	1703.43
1009.242	1707.05
1009.535	1679.25
1009.829	1663.88
1010.122	1664.79
1010.415	1629.08
1010.708	1639.48
1011.001	1636.54
1011.295	1618.91
1011.588	1640.38
1011.881	1600.38
1012.173	1577.33
1012.466	1571.23
1012.759	1566.48
1013.052	1569.42
1013.344	1546.82
1013.637	1552.02
1013.93	1555.19
1014.222	1532.36
1014.514	1536.2
1014.807	1532.36
1015.099	1492.59
1015.391	1495.3
1015.683	1477
1015.976	1467.73
1016.268	1495.75
1016.56	1484
1016.851	1454.4
1017.143	1442.65
1017.435	1434.28
1017.727	1418.01
1018.018	1435.41
1018.31	1393.83
1018.602	1404.68
1018.893	1401.52
1019.185	1373.95
1019.476	1355.64
1019.767	1376.66
1020.058	1387.51
1020.35	1362.42
1020.641	1340.5
1020.932	1328.75
1021.223	1303.67
1021.514	1336.89
1021.804	1295.98
1022.095	1290.11
1022.386	1274.51
1022.677	1301.63
1022.967	1280.62
1023.258	1249.43
1023.548	1247.17
1023.839	1248.3
1024.129	1264.8
1024.419	1201.75
1024.709	1216.44
1025	1223.67
1025.29	1218.47
1025.58	1208.53
1025.87	1217.79
1026.16	1186.38
1026.449	1182.31
1026.739	1164.23
1027.029	1153.39
1027.319	1138.92
1027.608	1167.85
1027.898	1141.64
1028.187	1139.15
1028.477	1140.73
1028.766	1115.87
1029.055	1121.07
1029.344	1096.44
1029.634	1109.32
1029.923	1085.37
1030.212	1100.28
1030.501	1091.47
1030.79	1068.19
1031.078	1061.86
1031.367	1056.67
1031.656	1019.61
1031.945	1044.69
1032.233	1039.04
1032.522	1022.77
1032.81	1002.43
1033.099	1008.53
1033.387	991.13
1033.675	999.72
1033.963	1004.69
1034.251	1001.98
1034.54	976.44
1034.828	966.73
1035.116	962.21
1035.403	976.67
1035.691	971.25
1035.979	961.98
1036.267	930.12
1036.554	939.83
1036.842	925.37
1037.129	960.85
1037.417	940.06
1037.704	929.66
1037.992	908.65
1038.279	931.47
1038.566	907.97
1038.853	907.97
1039.14	907.97
