Data from hue_36_FLMS001491_00033.txt Node
Date: Tue Feb 07 17:29:43 GMT 2017
User: dcchb
Spectrometer: FLMS00149
Trigger mode: 0
Integration Time (sec): 2.000000E-2
Scans to average: 10
Electric dark correction enabled: true
Nonlinearity correction enabled: false
Boxcar width: 0
XAxis mode: Wavelengths
Number of Pixels in Spectrum: 2048
>>>>>Begin Spectral Data<<<<<
341.393	-33.93
341.776	-33.93
342.16	-33.93
342.543	-60.37
342.927	-77.54
343.31	-81.16
343.693	-73.02
344.077	-79.12
344.46	-56.07
344.843	-33.93
345.226	-46.81
345.61	-47.94
345.993	-27.15
346.376	-15.4
346.759	23.02
347.142	19.41
347.525	53.3
347.908	74.09
348.291	86.3
348.674	95.34
349.057	109.12
349.44	110.48
349.823	152.74
350.206	167.42
350.588	203.36
350.971	227.08
351.354	211.27
351.737	230.25
352.119	240.87
352.502	272.28
352.884	280.87
353.267	290.36
353.65	297.14
354.032	292.39
354.414	324.03
354.797	301.66
355.179	310.47
355.562	316.8
355.944	327.65
356.326	329
356.709	319.06
357.091	340.3
357.473	367.65
357.855	365.39
358.238	343.92
358.62	346.18
359.002	367.19
359.384	350.02
359.766	347.08
360.148	333.75
360.53	342.34
360.912	330.81
361.294	321.77
361.676	336.01
362.057	339.4
362.439	328.78
362.821	339.62
363.203	338.95
363.584	328.1
363.966	316.8
364.348	318.38
364.729	322.68
365.111	312.73
365.493	318.61
365.874	326.06
366.256	326.52
366.637	299.17
367.019	330.13
367.4	297.37
367.781	324.71
368.163	314.09
368.544	322.22
368.925	324.93
369.306	322.22
369.688	325.61
370.069	316.8
370.45	330.36
370.831	303.01
371.212	313.18
371.593	309.57
371.974	317.48
372.355	325.61
372.736	307.53
373.117	312.28
373.498	309.12
373.879	308.89
374.26	333.75
374.641	335.1
375.021	318.16
375.402	320.42
375.783	322.9
376.163	331.04
376.544	308.44
376.925	322.68
377.305	324.26
377.686	316.8
378.066	313.86
378.447	301.43
378.827	318.16
379.208	319.96
379.588	333.97
379.968	329
380.349	352.96
380.729	347.31
381.109	333.3
381.489	320.19
381.87	335.1
382.25	326.29
382.63	314.77
383.01	342.34
383.39	341.43
383.77	338.27
384.15	348.89
384.53	332.39
384.91	331.04
385.29	325.61
385.67	345.73
386.049	353.63
386.429	341.43
386.809	355.44
387.189	334.43
387.568	372.62
387.948	326.74
388.328	354.31
388.707	354.76
389.087	373.07
389.466	341.43
389.846	347.31
390.225	369.23
390.605	355.44
390.984	355.22
391.363	380.53
391.743	366.74
392.122	361.54
392.501	382.11
392.881	366.52
393.26	361.54
393.639	353.18
394.018	368.1
394.397	368.32
394.776	367.87
395.155	369.91
395.534	391.15
395.913	370.13
396.292	384.37
396.671	392.28
397.05	385.27
397.429	381.2
397.808	369.91
398.186	378.94
398.565	396.12
398.944	396.35
399.323	390.7
399.701	384.14
400.08	379.17
400.458	405.38
400.837	383.46
401.215	392.5
401.594	378.27
401.972	387.76
402.351	394.76
402.729	385.95
403.107	402.9
403.486	390.47
403.864	399.74
404.242	373.3
404.62	408.1
404.999	410.58
405.377	416.91
405.755	405.84
406.133	426.4
406.511	410.36
406.889	427.53
407.267	417.81
407.645	404.48
408.023	438.15
408.401	429.79
408.779	409.68
409.156	428.21
409.534	438.6
409.912	423.01
410.29	424.14
410.667	436.12
411.045	454.2
411.422	454.88
411.8	428.66
412.178	427.76
412.555	468.43
412.933	447.87
413.31	451.03
413.687	453.52
414.065	464.59
414.442	456.91
414.819	467.08
415.197	479.51
415.574	467.76
415.951	457.81
416.328	463.91
416.705	466.63
417.082	468.89
417.46	487.64
417.837	475.21
418.214	474.76
418.591	485.38
418.967	511.37
419.344	489
419.721	490.35
420.098	497.36
420.475	486.96
420.852	512.05
421.228	494.2
421.605	504.14
421.982	501.65
422.358	512.5
422.735	503.46
423.111	489.45
423.488	534.65
423.864	525.16
424.241	531.26
424.617	528.09
424.994	525.38
425.37	518.6
425.746	535.32
426.123	534.19
426.499	524.7
426.875	530.13
427.251	545.95
427.627	566.06
428.003	545.49
428.379	548.66
428.756	567.41
429.132	576.68
429.507	579.39
429.883	578.49
430.259	581.65
430.635	580.07
431.011	576
431.387	579.84
431.763	614.64
432.138	596.57
432.514	606.28
432.89	599.05
433.265	613.97
433.641	626.4
434.016	615.1
434.392	618.49
434.767	634.76
435.143	625.27
435.518	643.57
435.894	646.51
436.269	645.83
436.644	671.14
437.02	659.39
437.395	677.47
437.77	666.62
438.145	660.52
438.52	664.81
438.895	680.86
439.271	670.01
439.646	690.58
440.021	701.2
440.395	682.67
440.77	688.09
441.145	708.43
441.52	693.06
441.895	686.73
442.27	689.9
442.645	715.89
443.019	720.18
443.394	718.82
443.769	741.42
444.143	726.28
444.518	709.78
444.892	738.48
445.267	720.63
445.641	705.94
446.016	726.28
446.39	745.94
446.764	747.52
447.139	748.65
447.513	756.11
447.887	750.69
448.262	770.57
448.636	764.25
449.01	768.99
449.384	791.36
449.758	771.02
450.132	785.94
450.506	805.83
450.88	789.33
451.254	792.27
451.628	813.51
452.002	805.6
452.376	797.92
452.75	840.63
453.123	834.98
453.497	824.13
453.871	867.07
454.244	862.32
454.618	863.23
454.992	860.97
455.365	865.26
455.739	895.09
456.112	899.38
456.486	909.1
456.859	906.16
457.232	914.98
457.606	915.65
457.979	931.47
458.352	960.17
458.725	985.71
459.099	970.12
459.472	957.23
459.845	969.44
460.218	994.3
460.591	980.96
460.964	1001.98
461.337	1015.09
461.71	1005.6
462.083	1051.02
462.456	1043.79
462.829	1064.12
463.201	1091.24
463.574	1071.81
463.947	1097.57
464.32	1111.35
464.692	1105.93
465.065	1108.42
465.438	1164.46
465.81	1176.66
466.183	1180.51
466.555	1174.18
466.928	1191.8
467.3	1173.05
467.672	1218.24
468.045	1239.26
468.417	1262.09
468.789	1264.35
469.161	1301.63
469.534	1326.94
469.906	1341.63
470.278	1354.74
470.65	1370.56
471.022	1406.71
471.394	1422.76
471.766	1434.96
472.138	1471.57
472.51	1494.4
472.882	1509.31
473.253	1548.86
473.625	1604.22
473.997	1616.43
474.369	1651.23
474.74	1641.74
475.112	1731.23
475.484	1744.33
475.855	1762.41
476.227	1813.26
476.598	1872.01
476.97	1888.28
477.341	1943.88
477.713	1993.82
478.084	2024.78
478.455	2112.23
478.827	2133.02
479.198	2208.28
479.569	2246.47
479.94	2320.59
480.311	2340.93
480.682	2431.77
481.053	2489.17
481.424	2548.15
481.795	2606.91
482.166	2675.16
482.537	2776.17
482.908	2856.85
483.279	2912.89
483.65	2989.72
484.021	3032.66
484.391	3121.02
484.762	3183.84
485.133	3255.25
485.503	3366.21
485.874	3453.67
486.244	3525.3
486.615	3643.49
486.985	3715.58
487.356	3777.5
487.726	3833.09
488.097	4005.74
488.467	4029.47
488.837	4147.21
489.207	4239.86
489.578	4372.51
489.948	4388.33
490.318	4543.36
490.688	4608.89
491.058	4719.4
491.428	4826.51
491.798	4908.54
492.168	5056.56
492.538	5068.09
492.908	5187.86
493.278	5318.48
493.648	5411.58
494.017	5495.42
494.387	5586.49
494.757	5722.08
495.126	5747.84
495.496	5872.36
495.866	5951.68
496.235	6078.91
496.605	6124.33
496.974	6183.76
497.344	6330.2
497.713	6370.88
498.082	6440.71
498.452	6577.65
498.821	6628.5
499.19	6738.1
499.559	6853.35
499.928	6914.14
500.298	6985.1
500.667	7054.02
501.036	7105.32
501.405	7255.15
501.774	7286.11
502.143	7337.86
502.512	7479.55
502.88	7563.16
503.249	7575.59
503.618	7696.72
503.987	7692.88
504.356	7805.64
504.724	7863.49
505.093	7908.69
505.462	7958.63
505.83	8054.68
506.199	8211.96
506.567	8306.87
506.936	8330.15
507.304	8415.12
507.672	8461.22
508.041	8532.18
508.409	8629.12
508.777	8707.09
509.145	8754.09
509.514	8771.04
509.882	8858.27
510.25	8925.61
510.618	8938.27
510.986	9052.84
511.354	9112.95
511.722	9135.32
512.09	9276.11
512.458	9281.54
512.826	9351.59
513.193	9452.6
513.561	9439.5
513.929	9572.6
514.297	9632.71
514.664	9708.42
515.032	9748.19
515.4	9846.27
515.767	9856.66
516.135	9958.13
516.502	9906.83
516.869	10006.49
517.237	10052.59
517.604	10094.17
517.972	10274.28
518.339	10336.65
518.706	10326.48
519.073	10315.41
519.44	10406.25
519.808	10511.33
520.175	10521.73
520.542	10684.44
520.909	10615.96
521.276	10724.44
521.643	10742.51
522.009	10905.9
522.376	10923.3
522.743	11030.64
523.11	11119
523.477	11197.19
523.843	11202.39
524.21	11394.7
524.577	11459.56
524.943	11468.82
525.31	11536.84
525.676	11647.8
526.043	11715.6
526.409	11727.8
526.776	11915.59
527.142	11882.15
527.508	11999.66
527.874	12035.36
528.241	12141.35
528.607	12230.38
528.973	12262.47
529.339	12258.41
529.705	12409.81
530.071	12527.33
530.437	12485.07
530.803	12592.86
531.169	12631.28
531.535	12648.23
531.901	12800.99
532.267	12899.07
532.632	12857.71
532.998	12943.13
533.364	13010.48
533.73	13090.48
534.095	13090.25
534.461	13174.99
534.826	13250.02
535.192	13301.09
535.557	13320.53
535.923	13421.09
536.288	13372.05
536.653	13605.72
537.019	13566.39
537.384	13577.02
537.749	13577.02
538.114	13622.21
538.479	13729.1
538.845	13885.26
539.21	13785.82
539.575	13955.76
539.94	13978.59
540.305	14005.71
540.67	14061.3
541.034	14046.38
541.399	14227.62
541.764	14247.28
542.129	14232.14
542.494	14284.34
542.858	14390.55
543.223	14449.08
543.587	14511.23
543.952	14473.94
544.316	14548.74
544.681	14583.09
545.045	14699.47
545.41	14739.7
545.774	14813.82
546.138	14852.69
546.503	14904.21
546.867	14933.36
547.231	15056.3
547.595	15084.09
547.959	15074.6
548.324	15151.89
548.688	15213.81
549.052	15252.45
549.416	15365.9
549.779	15336.29
550.143	15288.16
550.507	15468.27
550.871	15615.38
551.235	15498.32
551.599	15611.31
551.962	15638.2
552.326	15709.16
552.689	15800.69
553.053	15794.81
553.417	15913.45
553.78	15990.74
554.143	15933.11
554.507	16047.01
554.87	16082.49
555.234	16258.3
555.597	16172.65
555.96	16221.69
556.323	16288.13
556.686	16282.48
557.05	16476.6
557.413	16461.23
557.776	16538.75
558.139	16702.36
558.502	16704.84
558.865	16766.31
559.228	16777.38
559.59	16904.61
559.953	16893.76
560.316	17108
560.679	17069.81
561.041	17098.96
561.404	17299.4
561.767	17345.73
562.129	17295.79
562.492	17460.08
562.854	17458.5
563.217	17461.43
563.579	17519.96
563.941	17646.97
564.304	17722.44
564.666	17850.35
565.028	17789.79
565.39	17823.23
565.753	17948.43
566.115	18037.69
566.477	18138.7
566.839	18138.03
567.201	18230.9
567.563	18238.14
567.925	18380.05
568.287	18505.47
568.648	18466.6
569.01	18573.04
569.372	18691.23
569.734	18606.71
570.095	18770.33
570.457	18923.54
570.819	18917.21
571.18	19019.81
571.542	19069.07
571.903	19152.46
572.265	19258
572.626	19325.57
572.987	19305.23
573.349	19514.94
573.71	19617.99
574.071	19669.74
574.432	19749.06
574.794	19925.1
575.155	19923.29
575.516	19986.34
575.877	20163.74
576.238	20144.75
576.599	20252.77
576.96	20350.62
577.32	20475.82
577.681	20522.82
578.042	20818.18
578.403	20793.55
578.763	20926.88
579.124	20952.64
579.485	21237.38
579.845	21423.36
580.206	21558.27
580.566	21689.57
580.927	21733.64
581.287	21985.16
581.648	22006.17
582.008	22330.91
582.368	22412.49
582.728	22688.87
583.089	22732.93
583.449	22958.01
583.809	23118.01
584.169	23318.68
584.529	23430.09
584.889	23685.9
585.249	23790.76
585.609	23889.29
585.969	24129.73
586.329	24294.93
586.688	24536.28
587.048	24778.76
587.408	24848.13
587.768	25078.41
588.127	25451.96
588.487	25600.43
588.846	25921.32
589.206	25911.38
589.565	26080.87
589.925	26550.46
590.284	26593.4
590.643	26851.47
591.003	27072.48
591.362	27417.1
591.721	27528.97
592.08	27778.68
592.44	28122.85
592.799	28205.11
593.158	28394.48
593.517	28515.38
593.876	28728.71
594.235	28967.12
594.593	29182.26
594.952	29516.03
595.311	29682.81
595.67	29852.52
596.029	30160.31
596.387	30414.77
596.746	30638.71
597.104	30717.58
597.463	30979.04
597.822	31242.09
598.18	31346.49
598.538	31485.7
598.897	31896.99
599.255	31730.89
599.613	32386.92
599.972	32339.69
600.33	32614.93
600.688	32663.97
601.046	32904.19
601.404	33246.78
601.762	33379.66
602.12	33640.67
602.478	33744.85
602.836	34007.21
603.194	33870.04
603.552	34188
603.91	34164.72
604.268	34424.15
604.625	34520.42
604.983	34858.26
605.341	34783.46
605.698	35147.52
606.056	35289.21
606.413	35417.35
606.771	35575.53
607.128	35637.68
607.485	35683.1
607.843	35770.1
608.2	36108.4
608.557	36263.88
608.914	36292.35
609.272	36553.13
609.629	36728.72
609.986	36927.59
610.343	36944.09
610.7	37267.92
611.057	37293.68
611.414	37294.58
611.771	37452.32
612.127	37798.3
612.484	37897.96
612.841	38005.98
613.198	37900.9
613.554	38086.88
613.911	38390.6
614.267	38297.5
614.624	38492.97
614.98	38673.31
615.337	38735.68
615.693	38756.69
616.05	38881.44
616.406	39186.74
616.762	39088.89
617.118	39181.77
617.475	39203.23
617.831	39359.61
618.187	39473.74
618.543	39486.39
618.899	39815.87
619.255	39833.73
619.611	40005.7
619.967	40040.73
620.323	40098.8
620.678	40013.83
621.034	39989.43
621.39	40015.19
621.746	40131.35
622.101	40593.48
622.457	40359.36
622.812	40470.09
623.168	40587.61
623.523	40640.94
623.879	40752.12
624.234	40582.41
624.589	40752.8
624.945	40993.02
625.3	40948.27
625.655	41117.53
626.01	41001.83
626.365	40971.32
626.72	41007.03
627.075	41045.9
627.43	41216.52
627.785	41035.95
628.14	41108.27
628.495	41353.91
628.85	41136.74
629.205	41155.05
629.559	41390.52
629.914	41327.02
630.269	41298.09
630.623	41276.4
630.978	41084.99
631.332	41268.94
631.687	41329.96
632.041	41228.49
632.396	41336.96
632.75	41254.48
633.104	41251.09
633.459	41055.62
633.813	41214.03
634.167	41230.07
634.521	41152.56
634.875	41268.27
635.229	41121.83
635.583	41151.43
635.937	41122.05
636.291	41061.94
636.645	41186.23
636.999	41149.4
637.352	41113.47
637.706	41000.48
638.06	41248.83
638.413	41157.08
638.767	41080.25
639.121	41102.39
639.474	40908.95
639.828	40938.33
640.181	41026.01
640.534	40946.24
640.888	40837.32
641.241	40595.74
641.594	40965.9
641.947	41000.7
642.301	40907.14
642.654	40855.85
643.007	40952.79
643.36	40854.26
643.713	40766.13
644.066	40972.68
644.419	40639.81
644.771	40381.96
645.124	39980.84
645.477	40043.21
645.83	39795.99
646.182	39788.98
646.535	39786.27
646.888	39729.1
647.24	39621.53
647.593	39658.14
647.945	39581.3
648.298	39513.74
648.65	39444.58
649.002	39339.05
649.355	39516.9
649.707	39439.61
650.059	39654.97
650.411	40090.9
650.763	40168.86
651.115	40548.51
651.467	40344.9
651.819	40378.12
652.171	40311
652.523	40234.39
652.875	40187.62
653.227	40029.2
653.578	40401.85
653.93	40313.26
654.282	39952.59
654.633	39942.88
654.985	40034.4
655.337	40044.79
655.688	40176.99
656.039	40164.11
656.391	39870.34
656.742	40068.07
657.094	39997.56
657.445	40129.09
657.796	40137.67
658.147	39971.35
658.498	39975.19
658.849	40068.97
659.2	39944.68
659.551	39867.85
659.902	40038.92
660.253	39958.02
660.604	39964.8
660.955	39816.1
661.306	39994.17
661.656	39749.44
662.007	39839.15
662.358	39830.11
662.708	39888.19
663.059	39815.42
663.409	39612.04
663.76	39904.91
664.11	39849.77
664.461	39990.78
664.811	39865.82
665.161	39892.48
665.511	39690.23
665.862	39645.03
666.212	39826.04
666.562	39818.13
666.912	39719.15
667.262	39653.84
667.612	39815.65
667.962	39753.73
668.312	39653.84
668.662	39951.46
669.011	39794.18
669.361	39664.24
669.711	39604.81
670.06	39644.13
670.41	39500.85
670.76	39511.02
671.109	39638.48
671.459	39611.59
671.808	39552.38
672.157	39622.88
672.507	39440.06
672.856	39496.11
673.205	39603.45
673.554	39433.74
673.904	39448.43
674.253	39758.47
674.602	39602.55
674.951	39113.97
675.3	38839.4
675.649	39500.63
675.998	39458.37
676.346	39525.49
676.695	39512.83
677.044	39322.78
677.393	39349.9
677.741	39261.31
678.09	39240.3
678.438	39293.18
678.787	39294.98
679.135	39329.56
679.484	38871.04
679.832	39231.71
680.181	39003.92
680.529	38961.89
680.877	38983.35
681.225	38925.95
681.573	39051.83
681.922	38786.3
682.27	38673.98
682.618	38655.68
682.966	38580.43
683.314	38765.73
683.661	38566.64
684.009	38372.75
684.357	38361.45
684.705	38367.78
685.053	38358.96
685.4	38382.47
685.748	38264.05
686.095	38040.78
686.443	38019.99
686.79	37877.62
687.138	38127.78
687.485	37989.03
687.832	37874.46
688.18	37976.83
688.527	37775.02
688.874	37698.19
689.221	37617.06
689.568	37639.21
689.915	37537.74
690.262	37395.37
690.609	37308.14
690.956	37313.34
691.303	37182.72
691.65	37120.13
691.997	37041.48
692.344	36800.36
692.69	36802.85
693.037	36826.35
693.383	36537.99
693.73	36688.27
694.077	36333.03
694.423	36429.3
694.769	36328.28
695.116	36222.07
695.462	36226.82
695.808	35919.93
696.155	36156.99
696.501	35771.23
696.847	35844.45
697.193	35736.21
697.539	35748.18
697.885	35525.14
698.231	35301.87
698.577	35384.13
698.923	35314.52
699.269	35245.6
699.614	35049.22
699.96	34952.27
700.306	35036.79
700.651	34760.19
700.997	34751.37
701.342	34748.66
701.688	34660.08
702.033	34510.02
702.379	34513.64
702.724	34558.39
703.069	34524.26
703.415	34115.91
703.76	34111.62
704.105	34058.29
704.45	34010.38
704.795	33773.1
705.14	33791.63
705.485	33842.02
705.83	33614.91
706.175	33670.72
706.52	33521.8
706.865	33384.63
707.209	33397.06
707.554	33387.34
707.899	33374.01
708.243	33163.62
708.588	33096.28
708.932	32862.16
709.277	33007.69
709.621	32986.68
709.966	32694.71
710.31	32786
710.654	32566.12
710.998	32584.43
711.342	32582.84
711.687	32569.06
712.031	32432.34
712.375	32192.57
712.719	32294.26
713.063	32226.7
713.407	32174.49
713.75	32085.23
714.094	32033.71
714.438	31846.59
714.782	31879.59
715.125	31893.14
715.469	31803.66
715.812	31619.25
716.156	31455.42
716.499	31497.22
716.843	31578.35
717.186	31370.67
717.53	31439.82
717.873	31473.72
718.216	31457
718.559	31300.84
718.902	31018.59
719.246	31228.76
719.589	30973.39
719.932	31087.74
720.275	30915.77
720.617	30980.4
720.96	30787.41
721.303	30854.08
721.646	30822.21
721.989	30578.38
722.331	30690.69
722.674	30510.81
723.016	30649.56
723.359	30579.05
723.701	30617.7
724.044	30313.75
724.386	30331.6
724.729	30264.26
725.071	30305.16
725.413	30268.78
725.755	30315.56
726.097	30100.65
726.439	30036.7
726.782	30005.06
727.124	30116.47
727.465	30071.95
727.807	29930.26
728.149	29872.86
728.491	29772.97
728.833	29888.23
729.175	29686.42
729.516	29643.71
729.858	29685.74
730.199	29608.68
730.541	29537.05
730.882	29605.07
731.224	29704.73
731.565	29332.99
731.906	29543.83
732.248	29422.47
732.589	29314.46
732.93	29205.98
733.271	29088.25
733.612	29238.75
733.953	29227.45
734.294	29008.93
734.635	29033.78
734.976	29175.25
735.317	28940.91
735.658	28879.21
735.999	28895.71
736.339	28839.89
736.68	28858.2
737.021	28882.83
737.361	28699.78
737.702	28837.18
738.042	28786.11
738.383	28560.8
738.723	28749.72
739.063	28605.1
739.404	28710.4
739.744	28524.19
740.084	28299.79
740.424	28405.78
740.764	28398.55
741.104	28450.52
741.444	28342.96
741.784	28294.14
742.124	28232.22
742.464	28276.06
742.804	28183.41
743.143	27992.91
743.483	28065.9
743.823	27807.83
744.162	27910.42
744.502	28009.4
744.841	27887.15
745.181	27935.28
745.52	27801.73
745.86	27932.12
746.199	27831.78
746.538	27716.98
746.877	27756.98
747.216	27838.34
747.556	27665.46
747.895	27699.58
748.234	27480.38
748.573	27481.96
748.911	27511.56
749.25	27485.35
749.589	27320.84
749.928	27304.56
750.267	27305.02
750.605	27342.76
750.944	27146.83
751.283	27039.26
751.621	27246.04
751.96	27010.79
752.298	27035.87
752.636	27024.35
752.975	26880.85
753.313	26775.09
753.651	26893.73
753.989	26758.36
754.327	26654.41
754.666	26616.45
755.004	26717.01
755.342	26639.27
755.679	26701.19
756.017	26413.29
756.355	26407.41
756.693	26410.58
757.031	26418.49
757.368	26242.45
757.706	26182.79
758.044	26178.94
758.381	26304.36
758.719	25926.07
759.056	26001.1
759.394	25957.26
759.731	25748.22
760.068	25665.06
760.405	25743.7
760.743	25648.56
761.08	25611.95
761.417	25503.48
761.754	25435.24
762.091	25372.19
762.428	25278.18
762.765	25209.48
763.102	25222.59
763.438	25068.69
763.775	24997.28
764.112	25086.32
764.449	24981.24
764.785	24873.44
765.122	24742.37
765.458	24696.72
765.795	24616.27
766.131	24594.13
766.467	24486.33
766.804	24321.14
767.14	24325.43
767.476	24289.28
767.812	24142.39
768.148	24185.32
768.485	24028.04
768.821	23878.44
769.157	23881.38
769.492	23803.41
769.828	23829.18
770.164	23492.91
770.5	23473.25
770.836	23583.31
771.171	23330.21
771.507	23368.17
771.842	23181.96
772.178	23116.65
772.513	23120.27
772.849	23031
773.184	22928.63
773.519	22903.32
773.855	22760.73
774.19	22674.63
774.525	22536.55
774.86	22542.66
775.195	22564.12
775.53	22458.59
775.865	22259.27
776.2	22109.22
776.535	21956.68
776.87	22045.49
777.205	21927.08
777.539	21786.29
777.874	21873.97
778.209	21741.32
778.543	21652.74
778.878	21577.94
779.212	21462.46
779.547	21450.48
779.881	21515.11
780.215	21236.02
780.55	21261.33
780.884	21136.14
781.218	21099.08
781.552	21071.51
781.886	20888.69
782.22	20920.78
782.554	20788.35
782.888	20576.38
783.222	20539.54
783.556	20456.16
783.889	20507.68
784.223	20290.06
784.557	20296.84
784.89	20208.71
785.224	20066.56
785.557	19988.6
785.891	20007.36
786.224	20011.2
786.558	19978.2
786.891	19739.34
787.224	19667.7
787.557	19733.69
787.891	19690.98
788.224	19617.31
788.557	19528.5
788.89	19415.05
789.223	19460.93
789.556	19282.85
789.888	19237.21
790.221	19187.26
790.554	19064.56
790.887	19053.48
791.219	19019.13
791.552	18917.44
791.884	18672.25
792.217	18848.52
792.549	18625.24
792.882	18506.6
793.214	18462.09
793.546	18508.64
793.879	18422.09
794.211	18288.3
794.543	18401.3
794.875	18152.71
795.207	18296.44
795.539	18221.19
795.871	18147.74
796.203	18034.53
796.535	17897.81
796.867	17920.18
797.198	17783.23
797.53	17801.31
797.862	17692.16
798.193	17686.06
798.525	17617.14
798.856	17616.91
799.188	17493.52
799.519	17324.04
799.85	17272.51
800.182	17307.31
800.513	17218.5
800.844	17200.88
801.175	17168.33
801.506	17134.21
801.837	17103.02
802.168	17043.59
802.499	16970.82
802.83	16946.64
803.161	16833.88
803.491	16848.12
803.822	16776.25
804.153	16658.29
804.483	16489.93
804.814	16592.3
805.145	16547.11
805.475	16491.29
805.805	16404.29
806.136	16397.05
806.466	16409.94
806.796	16342.82
807.126	16145.08
807.457	16255.36
807.787	16131.75
808.117	16109.15
808.447	16068.93
808.777	16027.8
809.107	15977.18
809.436	15895.15
809.766	15868.71
810.096	15801.59
810.426	15778.54
810.755	15788.71
811.085	15775.38
811.414	15681.14
811.744	15660.8
812.073	15572.9
812.403	15520.47
812.732	15412.9
813.061	15474.82
813.39	15421.49
813.719	15395.27
814.049	15434.14
814.378	15362.05
814.707	15337.42
815.036	15385.33
815.365	15216.07
815.693	15120.25
816.022	15032.8
816.351	15016.53
816.68	15000.93
817.008	15013.36
817.337	14965.23
817.665	14846.14
817.994	14837.1
818.322	14851.56
818.651	14751.9
818.979	14765.69
819.307	14804.1
819.636	14676.87
819.964	14677.78
820.292	14736.31
820.62	14643.2
820.948	14670.77
821.276	14607.5
821.604	14619.93
821.932	14555.52
822.259	14556.88
822.587	14602.07
822.915	14607.72
823.243	14611.56
823.57	14532.7
823.898	14569.98
824.225	14486.37
824.553	14508.29
824.88	14458.57
825.207	14530.21
825.535	14504.68
825.862	14441.4
826.189	14487.27
826.516	14506.71
826.843	14590.77
827.17	14557.1
827.497	14519.82
827.824	14520.95
828.151	14509.19
828.478	14429.42
828.805	14517.78
829.131	14464.22
829.458	14436.2
829.785	14334.28
830.111	14427.84
830.438	14551.45
830.764	14496.99
831.09	14416.54
831.417	14361.63
831.743	14521.62
832.069	14418.8
832.395	14342.65
832.722	14441.17
833.048	14338.13
833.374	14444.34
833.7	14288.18
834.026	14275.08
834.351	14417.9
834.677	14322.31
835.003	14318.92
835.329	14302.42
835.654	14260.84
835.98	14297.45
836.306	14328.86
836.631	14104.91
836.956	14194.4
837.282	14267.39
837.607	14127.96
837.932	14200.28
838.258	14153.27
838.583	14141.07
838.908	13995.76
839.233	13937.68
839.558	13950.34
839.883	13935.42
840.208	13969.55
840.533	13897.91
840.858	13847.07
841.182	13956.89
841.507	13819.5
841.832	13791.47
842.156	13790.34
842.481	13764.36
842.805	13662.44
843.13	13680.29
843.454	13720.51
843.778	13620.4
844.103	13548.99
844.427	13564.81
844.751	13580.63
845.075	13451.82
845.399	13489.11
845.723	13368.66
846.047	13445.72
846.371	13316.23
846.695	13342.45
847.019	13200.75
847.343	13163.24
847.666	13029.23
847.99	13082.79
848.313	13038.27
848.637	13001.89
848.96	12909.46
849.284	12906.07
849.607	12797.83
849.931	12826.08
850.254	12668.34
850.577	12626.08
850.9	12468.8
851.223	12536.37
851.546	12367.33
851.869	12398.74
852.192	12550.6
852.515	12319.87
852.838	12315.13
853.161	12341.57
853.483	12239.88
853.806	12119.43
854.129	12114.46
854.451	12082.14
854.774	12020.45
855.096	12038.07
855.419	11977.74
855.741	11791.98
856.063	11851.19
856.385	11807.8
856.708	11769.83
857.03	11725.99
857.352	11745.65
857.674	11637.18
857.996	11650.06
858.318	11542.72
858.64	11612.1
858.961	11534.58
859.283	11521.25
859.605	11452.78
859.926	11455.49
860.248	11406.45
860.57	11407.13
860.891	11416.62
861.212	11285.78
861.534	11240.35
861.855	11239.45
862.176	11354.25
862.498	11231.77
862.819	11255.5
863.14	11224.76
863.461	11197.42
863.782	11087.59
864.103	11152.67
864.424	11035.84
864.745	11087.36
865.065	11156.29
865.386	11011.21
865.707	10990.64
866.027	11008.27
866.348	10952.68
866.668	11024.54
866.989	10987.25
867.309	10841.27
867.63	10914.04
867.95	10931.66
868.27	10770.76
868.59	10893.24
868.91	10872.45
869.23	10771.89
869.55	10756.3
869.87	10797.2
870.19	10802.63
870.51	10773.47
870.83	10789.07
871.15	10699.58
871.469	10728.96
871.789	10722.63
872.109	10722.85
872.428	10655.74
872.748	10691.22
873.067	10711.33
873.386	10584.78
873.706	10549.3
874.025	10545.01
874.344	10461.84
874.663	10519.24
874.982	10484.22
875.301	10521.73
875.62	10409.19
875.939	10363.09
876.258	10416.65
876.577	10391.11
876.896	10442.41
877.214	10390.21
877.533	10442.64
877.852	10293.49
878.17	10359.47
878.489	10357.89
878.807	10301.17
879.125	10302.75
879.444	10320.6
879.762	10232.25
880.08	10202.42
880.398	10263.2
880.716	10241.51
881.034	10197.67
881.352	10203.09
881.67	10123.77
881.988	10104.34
882.306	10141.4
882.624	10075.87
882.941	9946.83
883.259	10090.33
883.577	10000.16
883.894	9981.86
884.212	9933.95
884.529	9892.59
884.846	9918.13
885.164	9912.93
885.481	9882.88
885.798	9858.24
886.115	9830
886.432	9783.9
886.75	9747.29
887.067	9728.98
887.383	9709.55
887.7	9708.87
888.017	9579.15
888.334	9686.95
888.651	9594.52
888.967	9630.23
889.284	9581.87
889.6	9573.51
889.917	9433.62
890.233	9425.26
890.55	9472.04
890.866	9436.79
891.182	9382.32
891.498	9405.37
891.815	9349.33
892.131	9330.12
892.447	9312.95
892.763	9289.45
893.079	9220.75
893.395	9179.39
893.71	9162.89
894.026	9118.6
894.342	9200.41
894.657	9127.42
894.973	9053.52
895.289	9028.43
895.604	9051.49
895.92	8992.28
896.235	8940.98
896.55	8974.88
896.865	8863.47
897.181	8855.56
897.496	8859.63
897.811	8818.72
898.126	8813.3
898.441	8773.75
898.756	8742.57
899.071	8626.86
899.386	8733.53
899.7	8597.03
900.015	8566.07
900.33	8509.35
900.644	8552.52
900.959	8509.13
901.273	8458.28
901.588	8450.15
901.902	8348.68
902.216	8395.01
902.531	8363.14
902.845	8366.53
903.159	8291.96
903.473	8268
903.787	8220.77
904.101	8156.14
904.415	8155.24
904.729	8165.18
905.042	8138.29
905.356	8115.46
905.67	8019.42
905.984	8105.3
906.297	8041.79
906.611	7936.94
906.924	7966.99
907.237	7854.23
907.551	7943.94
907.864	7784.17
908.177	7886.32
908.491	7785.76
908.804	7762.93
909.117	7710.05
909.43	7708.47
909.743	7652.43
910.056	7608.36
910.368	7607.23
910.681	7569.72
910.994	7558.42
911.307	7490.17
911.619	7427.57
911.932	7438.65
912.244	7395.03
912.557	7422.83
912.869	7372.43
913.181	7317.29
913.494	7317.07
913.806	7292.89
914.118	7266.67
914.43	7205.43
914.742	7217.64
915.054	7146
915.366	7115.72
915.678	7130.63
915.99	7017.19
916.302	7016.74
916.613	6973.57
916.925	6944.42
917.236	6904.2
917.548	6889.28
917.859	6872.33
918.171	6849.96
918.482	6867.36
918.794	6801.6
919.105	6786.91
919.416	6727.25
919.727	6710.08
920.038	6680.47
920.349	6664.2
920.66	6634.37
920.971	6603.64
921.282	6564.77
921.593	6529.74
921.903	6463.53
922.214	6491.78
922.525	6409.97
922.835	6421.95
923.146	6385.34
923.456	6318.22
923.767	6348.28
924.077	6275.96
924.387	6277.09
924.697	6257.66
925.008	6237.55
925.318	6202.07
925.628	6199.36
925.938	6211.56
926.248	6117.78
926.558	6092.24
926.867	6082.3
927.177	6093.6
927.487	6041.17
927.796	5996.65
928.106	6008.4
928.416	6014.95
928.725	5922.53
929.034	5913.71
929.344	5909.87
929.653	5892.7
929.962	5796.2
930.271	5796.88
930.581	5797.33
930.89	5756.2
931.199	5754.4
931.508	5733.83
931.817	5701.52
932.125	5686.15
932.434	5697.45
932.743	5570.22
933.051	5559.83
933.36	5539.71
933.669	5523.44
933.977	5497
934.286	5515.31
934.594	5509.21
934.902	5397.12
935.21	5397.8
935.519	5420.85
935.827	5347.4
936.135	5365.03
936.443	5275.77
936.751	5288.87
937.059	5301.08
937.367	5284.8
937.674	5268.76
937.982	5246.84
938.29	5160.74
938.597	5191.7
938.905	5135.2
939.213	5177.01
939.52	5100.18
939.827	5083
940.135	5053.85
940.442	5019.73
940.749	5025.38
941.056	4999.16
941.363	4932.5
941.67	4996.45
941.977	4916.9
942.284	4908.54
942.591	4923.23
942.898	4883.23
943.205	4850.01
943.511	4821.77
943.818	4817.7
944.125	4781.31
944.431	4796.91
944.738	4742.45
945.044	4741.32
945.35	4728.21
945.657	4677.36
945.963	4689.57
946.269	4630.58
946.575	4652.28
946.881	4610.7
947.187	4630.81
947.493	4586.74
947.799	4529.57
948.105	4552.62
948.41	4480.76
948.716	4470.36
949.022	4471.27
949.327	4430.59
949.633	4421.78
949.938	4404.6
950.244	4441.66
950.549	4359.18
950.854	4351.95
951.16	4331.61
951.465	4353.53
951.77	4287.99
952.075	4266.53
952.38	4222.69
952.685	4247.32
952.99	4215.45
953.294	4203.93
953.599	4227.43
953.904	4150.6
954.209	4173.42
954.513	4151.95
954.818	4078.06
955.122	4101.78
955.426	4067.66
955.731	4067.21
956.035	4054.55
956.339	4038.06
956.643	4043.93
956.948	4015.91
957.252	3994.67
957.556	3952.18
957.86	3930.49
958.163	3924.61
958.467	3903.82
958.771	3891.85
959.075	3883.03
959.378	3810.94
959.682	3872.86
959.985	3826.54
960.289	3811.85
960.592	3797.61
960.896	3782.7
961.199	3735.47
961.502	3731.63
961.805	3742.92
962.108	3751.96
962.411	3715.13
962.714	3684.62
963.017	3723.04
963.32	3651.18
963.623	3633.1
963.926	3589.03
964.228	3610.72
964.531	3567.34
964.833	3573.66
965.136	3568.69
965.438	3555.81
965.741	3552.87
966.043	3503.38
966.345	3476.94
966.648	3490.5
966.95	3493.21
967.252	3399.88
967.554	3431.29
967.856	3419.09
968.158	3437.17
968.46	3372.09
968.761	3377.74
969.063	3418.41
969.365	3330.05
969.666	3268.59
969.968	3288.25
970.269	3310.62
970.571	3278.76
970.872	3292.77
971.174	3258.87
971.475	3241.92
971.776	3250.96
972.077	3238.08
972.378	3234.24
972.679	3192.88
972.98	3181.58
973.281	3120.79
973.582	3158.53
973.883	3140.45
974.183	3128.48
974.484	3073.79
974.785	3079.89
975.085	3056.16
975.386	3107.46
975.686	3055.03
975.986	3014.58
976.287	3022.49
976.587	2994.7
976.887	2962.15
977.187	3006.22
977.487	2989.72
977.787	2976.84
978.087	2974.13
978.387	2951.98
978.687	2946.79
978.987	2916.05
979.286	2875.15
979.586	2871.76
979.885	2877.18
980.185	2865.89
980.484	2859.11
980.784	2790.41
981.083	2822.72
981.382	2813.91
981.682	2808.49
981.981	2773.91
982.28	2771.42
982.579	2735.72
982.878	2715.38
983.177	2741.82
983.475	2710.41
983.774	2700.92
984.073	2692.78
984.372	2662.73
984.67	2709.96
984.969	2680.35
985.267	2594.93
985.566	2621.6
985.864	2620.92
986.162	2589.28
986.461	2593.8
986.759	2605.33
987.057	2575.27
987.355	2565.33
987.653	2544.76
987.951	2537.76
988.249	2542.28
988.547	2484.43
988.844	2495.73
989.142	2513.35
989.44	2483.75
989.737	2501.83
990.035	2476.29
990.332	2413.92
990.63	2435.84
990.927	2453.92
991.224	2379.12
991.521	2407.37
991.819	2385.45
992.116	2377.99
992.413	2394.71
992.71	2357.2
993.006	2350.42
993.303	2367.14
993.6	2325.33
993.897	2316.3
994.193	2309.06
994.49	2296.86
994.787	2289.18
995.083	2322.4
995.379	2272.45
995.676	2253.47
995.972	2224.32
996.268	2223.87
996.565	2223.19
996.861	2208.95
997.157	2256.18
997.453	2194.49
997.749	2209.63
998.044	2151.78
998.34	2144.32
998.636	2168.28
998.932	2129.18
999.227	2149.29
999.523	2137.77
999.818	2075.4
1000.114	2122.18
1000.409	2079.69
1000.704	2068.84
1001	2074.49
1001.295	2050.99
1001.59	2063.42
1001.885	2029.75
1002.18	1998.11
1002.475	1999.47
1002.77	2012.35
1003.065	1953.82
1003.359	1964.21
1003.654	1982.97
1003.949	1953.14
1004.243	1926.93
1004.538	1915.4
1004.832	1925.34
1005.127	1905.23
1005.421	1893.26
1005.715	1916.76
1006.009	1885.8
1006.304	1866.14
1006.598	1831.79
1006.892	1851
1007.186	1856.87
1007.48	1818.91
1007.773	1838.34
1008.067	1804.67
1008.361	1806.48
1008.655	1797.44
1008.948	1771.45
1009.242	1799.02
1009.535	1757.67
1009.829	1744.56
1010.122	1742.75
1010.415	1728.97
1010.708	1714.05
1011.001	1731.23
1011.295	1706.37
1011.588	1721.96
1011.881	1697.55
1012.173	1658.23
1012.466	1653.26
1012.759	1659.14
1013.052	1637.89
1013.344	1645.13
1013.637	1638.57
1013.93	1610.1
1014.222	1613.04
1014.514	1608.74
1014.807	1589.76
1015.099	1588.4
1015.391	1564.9
1015.683	1514.28
1015.976	1555.64
1016.268	1517.45
1016.56	1522.87
1016.851	1532.81
1017.143	1521.51
1017.435	1485.81
1017.727	1503.21
1018.018	1488.97
1018.31	1471.8
1018.602	1458.69
1018.893	1483.77
1019.185	1437.22
1019.476	1419.14
1019.767	1458.01
1020.058	1453.27
1020.35	1415.3
1020.641	1406.04
1020.932	1415.98
1021.223	1366.26
1021.514	1406.26
1021.804	1361.29
1022.095	1369.43
1022.386	1326.26
1022.677	1331.01
1022.967	1326.49
1023.258	1328.98
1023.548	1317.45
1023.839	1319.71
1024.129	1293.72
1024.419	1287.62
1024.709	1299.82
1025	1271.58
1025.29	1244.46
1025.58	1248.98
1025.87	1243.1
1026.16	1232.93
1026.449	1236.32
1026.739	1235.87
1027.029	1216.21
1027.319	1196.1
1027.608	1215.98
1027.898	1170.34
1028.187	1200.84
1028.477	1205.36
1028.766	1166.04
1029.055	1157
1029.344	1155.2
1029.634	1162.43
1029.923	1144.35
1030.212	1130.34
1030.501	1121.75
1030.79	1122.2
1031.078	1112.26
1031.367	1112.71
1031.656	1110.68
1031.945	1079.94
1032.233	1083.79
1032.522	1061.86
1032.81	1068.42
1033.099	1061.19
1033.387	1080.17
1033.675	1072.49
1033.963	1056.67
1034.251	1032.49
1034.54	1036.1
1034.828	1010.34
1035.116	1032.94
1035.403	1006.05
1035.691	1025.48
1035.979	993.39
1036.267	1010.57
1036.554	974.86
1036.842	985.26
1037.129	971.25
1037.417	952.72
1037.704	968.53
1037.992	948.87
1038.279	953.39
1038.566	953.17
1038.853	953.17
1039.14	953.17
