Data from hue_190_FLMS001491_00043.txt Node
Date: Tue Feb 07 16:45:20 GMT 2017
User: dcchb
Spectrometer: FLMS00149
Trigger mode: 0
Integration Time (sec): 2.000000E-2
Scans to average: 10
Electric dark correction enabled: true
Nonlinearity correction enabled: false
Boxcar width: 0
XAxis mode: Wavelengths
Number of Pixels in Spectrum: 2048
>>>>>Begin Spectral Data<<<<<
341.393	-25.99
341.776	-25.99
342.16	-25.99
342.543	-61.02
342.927	-79.09
343.31	-73.67
343.693	-63.28
344.077	-81.35
344.46	-65.99
344.843	-80.9
345.226	-57.4
345.61	-8.59
345.993	-6.33
346.376	-3.39
346.759	-2.26
347.142	25.99
347.525	59.66
347.908	54.01
348.291	103.95
348.674	96.72
349.057	102.82
349.44	145.53
349.823	134.23
350.206	152.99
350.588	184.4
350.971	215.14
351.354	217.85
351.737	251.97
352.119	240.67
352.502	263.27
352.884	270.95
353.267	275.47
353.65	287.68
354.032	314.79
354.414	306.21
354.797	298.3
355.179	321.57
355.562	328.13
355.944	329.03
356.326	320.44
356.709	348.01
357.091	335.58
357.473	331.06
357.855	340.56
358.238	341.91
358.62	343.27
359.002	331.06
359.384	324.29
359.766	335.81
360.148	321.35
360.53	323.61
360.912	341.69
361.294	327.45
361.676	310.27
362.057	339.2
362.439	317.51
362.821	326.09
363.203	329.93
363.584	308.92
363.966	322.25
364.348	336.49
364.729	319.54
365.111	297.17
365.493	322.7
365.874	328.13
366.256	334.45
366.637	306.21
367.019	283.61
367.4	323.83
367.781	316.15
368.163	300.56
368.544	291.52
368.925	324.51
369.306	321.12
369.688	325.42
370.069	309.14
370.45	300.56
370.831	344.17
371.212	317.51
371.593	300.56
371.974	307.11
372.355	310.5
372.736	340.33
373.117	307.79
373.498	314.57
373.879	307.79
374.26	308.92
374.641	332.19
375.021	342.14
375.402	324.96
375.783	319.09
376.163	329.71
376.544	317.73
376.925	315.92
377.305	331.29
377.686	333.55
378.066	327
378.447	300.78
378.827	330.84
379.208	299.2
379.588	343.95
379.968	334.68
380.349	331.06
380.729	350.27
381.109	327.45
381.489	326.32
381.87	321.57
382.25	334.68
382.63	336.71
383.01	339.65
383.39	341.46
383.77	346.66
384.15	335.58
384.53	344.85
384.91	327.9
385.29	355.47
385.67	333.55
386.049	342.82
386.429	346.21
386.809	348.47
387.189	353.66
387.568	348.01
387.948	345.75
388.328	374.68
388.707	365.19
389.087	344.62
389.466	356.83
389.846	361.57
390.225	360.22
390.605	357.28
390.984	357.73
391.363	354.11
391.743	354.11
392.122	370.39
392.501	353.21
392.881	385.98
393.26	369.71
393.639	376.71
394.018	371.29
394.397	372.19
394.776	389.14
395.155	371.29
395.534	379.88
395.913	379.88
396.292	391.18
396.671	362.93
397.05	401.12
397.429	379.2
397.808	382.81
398.186	391.18
398.565	383.72
398.944	402.02
399.323	385.53
399.701	402.7
400.08	395.7
400.458	405.19
400.837	419.65
401.215	423.49
401.594	423.94
401.972	410.61
402.351	411.74
402.729	418.07
403.107	431.18
403.486	439.08
403.864	430.05
404.242	436.15
404.62	441.8
404.999	415.36
405.377	423.27
405.755	462.81
406.133	463.04
406.511	455.36
406.889	472.08
407.267	480.44
407.645	445.19
408.023	454.45
408.401	491.51
408.779	471.85
409.156	461
409.534	494.45
409.912	486.31
410.29	517.27
410.667	518.63
411.045	515.01
411.422	556.37
411.8	537.39
412.178	517.05
412.555	534
412.933	552.53
413.31	547.78
413.687	568.12
414.065	588.91
414.442	606.54
414.819	611.74
415.197	583.94
415.574	600.21
415.951	628.23
416.328	634.79
416.705	634.11
417.082	628.01
417.46	645.41
417.837	672.07
418.214	658.29
418.591	652.64
418.967	663.03
419.344	688.8
419.721	707.78
420.098	709.13
420.475	720.88
420.852	732.64
421.228	743.94
421.605	755.01
421.982	751.17
422.358	788.68
422.735	778.96
423.111	782.35
423.488	831.39
423.864	804.72
424.241	835.68
424.617	850.6
424.994	863.03
425.37	857.38
425.746	855.57
426.123	887.89
426.499	914.55
426.875	909.58
427.251	929.47
427.627	961.33
428.003	954.33
428.379	963.36
428.756	966.08
429.132	999.97
429.507	994.55
429.883	996.58
430.259	1026.19
430.635	1025.74
431.011	1042.91
431.387	1053.76
431.763	1067.54
432.138	1091.72
432.514	1101.21
432.89	1107.77
433.265	1122.46
433.641	1189.35
434.016	1191.16
434.392	1203.36
434.767	1231.15
435.143	1229.8
435.518	1271.6
435.894	1295.33
436.269	1297.37
436.644	1342.56
437.02	1319.74
437.395	1356.57
437.77	1364.26
438.145	1419.62
438.52	1442.45
438.895	1469.57
439.271	1458.94
439.646	1504.82
440.021	1499.17
440.395	1530.58
440.77	1536
441.145	1533.74
441.52	1591.6
441.895	1599.73
442.27	1647.87
442.645	1613.74
443.019	1688.09
443.394	1673.18
443.769	1699.16
444.143	1700.52
444.518	1721.08
444.892	1741.2
445.267	1743.01
445.641	1792.27
446.016	1790.46
446.39	1814.87
446.764	1851.93
447.139	1788.65
447.513	1858.71
447.887	1827.97
448.262	1853.96
448.636	1899.61
449.01	1907.52
449.384	1915.43
449.758	1938.25
450.132	1959.04
450.506	1950.23
450.88	1975.77
451.254	2001.76
451.628	2037.69
452.002	2074.3
452.376	2045.14
452.75	2065.26
453.123	2084.69
453.497	2141.19
453.871	2120.62
454.244	2190
454.618	2173.73
454.992	2244.69
455.365	2232.03
455.739	2291.24
456.112	2277.68
456.486	2320.39
456.859	2349.32
457.232	2390.22
457.606	2430.44
457.979	2454.62
458.352	2489.2
458.725	2487.39
459.099	2533.49
459.472	2591.57
459.845	2599.71
460.218	2629.76
460.591	2624.34
460.964	2673.15
461.337	2723.32
461.71	2777.78
462.083	2822.98
462.456	2826.82
462.829	2843.09
463.201	2899.81
463.574	2858.91
463.947	2934.39
464.32	3019.36
464.692	3015.51
465.065	3072.91
465.438	3082.18
465.81	3155.17
466.183	3176.19
466.555	3266.58
466.928	3286.47
467.3	3248.28
467.672	3358.1
468.045	3387.03
468.417	3411.21
468.789	3443.98
469.161	3507.25
469.534	3569.4
469.906	3617.53
470.278	3655.5
470.65	3726.68
471.022	3734.14
471.394	3819.79
471.766	3885.77
472.138	3950.86
472.51	3987.24
472.882	4074.02
473.253	4130.06
473.625	4154.24
473.997	4269.49
474.369	4262.49
474.74	4364.41
475.112	4444.63
475.484	4539.54
475.855	4584.29
476.227	4618.64
476.598	4768.24
476.97	4792.42
477.341	4912.19
477.713	4955.58
478.084	4998.51
478.455	5155.8
478.827	5140.88
479.198	5303.59
479.569	5323.25
479.94	5505.62
480.311	5515.79
480.682	5678.95
481.053	5763.01
481.424	5883.69
481.795	5909
482.166	5997.13
482.537	6140.18
482.908	6262.21
483.279	6274.19
483.65	6393.28
484.021	6530
484.391	6586.72
484.762	6700.16
485.133	6740.16
485.503	6842.76
485.874	6982.42
486.244	7028.29
486.615	7176.99
486.985	7233.93
487.356	7388.05
487.726	7469.18
488.097	7575.62
488.467	7658.56
488.837	7789.4
489.207	7893.58
489.578	7994.14
489.948	8040.69
490.318	8145.55
490.688	8170.63
491.058	8310.74
491.428	8408.59
491.798	8492.66
492.168	8637.96
492.538	8659.21
492.908	8738.08
493.278	8878.18
493.648	8906.88
494.017	8928.13
494.387	9054.23
494.757	9169.48
495.126	9155.01
495.496	9282.69
495.866	9276.59
496.235	9333.31
496.605	9454.67
496.974	9486.3
497.344	9609.24
497.713	9587.09
498.082	9661.44
498.452	9779.18
498.821	9762.91
499.19	9766.07
499.559	9826.86
499.928	9885.39
500.298	9918.61
500.667	10005.61
501.036	9962.9
501.405	10086.06
501.774	10041.09
502.143	10181.43
502.512	10168.32
502.88	10235.89
503.249	10267.98
503.618	10249.22
503.987	10275.21
504.356	10340.97
504.724	10387.07
505.093	10386.39
505.462	10380.29
505.83	10432.49
506.199	10495.09
506.567	10606.95
506.936	10569.89
507.304	10585.48
507.672	10688.08
508.041	10693.28
508.409	10715.2
508.777	10800.17
509.145	10836.78
509.514	10760.85
509.882	10813.27
510.25	10862.54
510.618	10843.33
510.986	10819.38
511.354	10962.88
511.722	10984.8
512.09	10971.69
512.458	10996.77
512.826	10998.81
513.193	11042.2
513.561	11053.95
513.929	11069.54
514.297	11095.3
514.664	11137.33
515.032	11118.58
515.4	11162.42
515.767	11206.94
516.135	11190.89
516.502	11181.85
516.869	11222.08
517.237	11191.57
517.604	11134.4
517.972	11180.95
518.339	11258.24
518.706	11222.3
519.073	11191.57
519.44	11230.21
519.808	11279.93
520.175	11258.69
520.542	11363.09
520.909	11267.27
521.276	11272.7
521.643	11328.97
522.009	11390.89
522.376	11300.04
522.743	11376.42
523.11	11410.32
523.477	11467.72
523.843	11463.88
524.21	11450.77
524.577	11549.3
524.943	11456.42
525.31	11476.31
525.676	11613.93
526.043	11556.98
526.409	11549.53
526.776	11618.68
527.142	11507.04
527.508	11529.87
527.874	11496.65
528.241	11559.02
528.607	11471.56
528.973	11507.72
529.339	11476.99
529.705	11555.4
530.071	11491.68
530.437	11455.97
530.803	11442.64
531.169	11382.98
531.535	11381.17
531.901	11253.49
532.267	11393.15
532.632	11320.83
532.998	11231.34
533.364	11281.06
533.73	11156.54
534.095	11257.11
534.461	11179.14
534.826	11184.79
535.192	11113.83
535.557	11170.78
535.923	11106.37
536.288	11117.67
536.653	10981.18
537.019	10978.24
537.384	10910.9
537.749	10898.7
538.114	10825.48
538.479	10681.3
538.845	10748.64
539.21	10676.33
539.575	10670
539.94	10670.45
540.305	10616.22
540.67	10525.37
541.034	10587.97
541.399	10509.78
541.764	10426.84
542.129	10393.17
542.494	10426.39
542.858	10308.43
543.223	10228.21
543.587	10327.41
543.952	10155.21
544.316	10142.11
544.681	10072.05
545.045	10060.75
545.41	10021.43
545.774	9941.43
546.138	9893.75
546.503	9787.09
546.867	9727.43
547.231	9812.85
547.595	9754.09
547.959	9735.56
548.324	9590.03
548.688	9580.54
549.052	9491.73
549.416	9554.55
549.779	9482.01
550.143	9492.86
550.507	9431.62
550.871	9327.89
551.235	9371.28
551.599	9331.96
551.962	9289.93
552.326	9174
552.689	9204.96
553.053	9076.15
553.417	9072.53
553.78	9114.56
554.143	9013.1
554.507	9040.67
554.87	8982.36
555.234	9071.17
555.597	8898.07
555.96	8832.99
556.323	8841.12
556.686	8811.29
557.05	8799.77
557.413	8793.44
557.776	8758.87
558.139	8737.4
558.502	8689.72
558.865	8659.43
559.228	8686.1
559.59	8666.89
559.953	8667.57
560.316	8636.16
560.679	8644.52
561.041	8609.27
561.404	8575.14
561.767	8568.59
562.129	8575.59
562.492	8567.46
562.854	8540.34
563.217	8521.36
563.579	8507.35
563.941	8446.78
564.304	8528.82
564.666	8552.77
565.028	8500.12
565.39	8526.33
565.753	8506.22
566.115	8525.2
566.477	8507.8
566.839	8472.77
567.201	8463.05
567.563	8507.8
567.925	8475.48
568.287	8505.99
568.648	8497.86
569.01	8502.6
569.372	8526.56
569.734	8493.56
570.095	8500.12
570.457	8498.53
570.819	8543.96
571.18	8465.09
571.542	8465.99
571.903	8492.21
572.265	8521.81
572.626	8473.9
572.987	8436.16
573.349	8481.58
573.71	8421.7
574.071	8465.31
574.432	8452.89
574.794	8511.19
575.155	8467.12
575.516	8471.42
575.877	8495.82
576.238	8517.97
576.599	8451.98
576.96	8472.32
577.32	8411.08
577.681	8498.31
578.042	8449.95
578.403	8447.91
578.763	8499.21
579.124	8428.7
579.485	8426.67
579.845	8505.09
580.206	8432.77
580.566	8406.56
580.927	8409.95
581.287	8418.08
581.648	8369.05
582.008	8435.94
582.368	8360.46
582.728	8529.27
583.089	8387.35
583.449	8355.71
583.809	8372.44
584.169	8436.39
584.529	8348.93
584.889	8359.33
585.249	8262.38
585.609	8298.54
585.969	8404.3
586.329	8321.59
586.688	8281.59
587.048	8260.35
587.408	8276.62
587.768	8244.98
588.127	8214.7
588.487	8209.95
588.846	8311.65
589.206	8200.91
589.565	8212.89
589.925	8256.96
590.284	8210.41
590.643	8196.85
591.003	8241.14
591.362	8237.52
591.721	8230.52
592.08	8199.56
592.44	8230.97
592.799	8124.76
593.158	8119.33
593.517	8131.31
593.876	8191.42
594.235	8169.5
594.593	8121.82
594.952	8156.62
595.311	8014.25
595.67	8107.58
596.029	8121.14
596.387	8097.41
596.746	8123.18
597.104	8093.8
597.463	8096.96
597.822	8043.4
598.18	8060.13
598.538	8027.36
598.897	8071.43
599.255	8005.89
599.613	8102.84
599.972	8047.92
600.33	8044.99
600.688	8042.05
601.046	8047.25
601.404	8053.12
601.762	8064.42
602.12	8089.96
602.478	8078.66
602.836	8061.03
603.194	8021.94
603.552	8009.28
603.91	8018.77
604.268	7976.51
604.625	8007.02
604.983	8029.62
605.341	7954.37
605.698	7988.94
606.056	8030.52
606.413	7943.52
606.771	8027.13
607.128	8055.61
607.485	7983.74
607.843	7956.17
608.2	7988.49
608.557	8071.2
608.914	8008.83
609.272	8053.35
609.629	8104.65
609.986	7978.1
610.343	8032.78
610.7	8110.07
611.057	7975.38
611.414	8014.25
611.771	8055.38
612.127	8049.05
612.484	8098.54
612.841	8082.73
613.198	8039.34
613.554	8054.25
613.911	8108.04
614.267	8104.87
614.624	8046.79
614.98	8101.48
615.337	8155.04
615.693	8105.78
616.05	8068.04
616.406	8110.52
616.762	8115.04
617.118	8095.15
617.475	8056.51
617.831	8094.48
618.187	8193.68
618.543	8158.2
618.899	8143.74
619.255	8115.72
619.611	8132.44
619.967	8150.52
620.323	8189.62
620.678	8142.16
621.034	8142.16
621.39	8113.91
621.746	8163.18
622.101	8241.37
622.457	8106
622.812	8138.54
623.168	8215.15
623.523	8146.68
623.879	8178.99
624.234	8105.1
624.589	8131.76
624.945	8127.47
625.3	8143.06
625.655	8149.39
626.01	8194.81
626.365	8124.76
626.72	8128.83
627.075	8110.07
627.43	8160.01
627.785	8114.36
628.14	8105.55
628.495	8130.86
628.85	8075.72
629.205	8080.24
629.559	8085.66
629.914	8062.61
630.269	8021.48
630.623	8124.08
630.978	8108.94
631.332	8115.72
631.687	8045.44
632.041	7989.39
632.396	8102.61
632.75	8025.33
633.104	8016.29
633.459	7996.85
633.813	7990.98
634.167	8007.93
634.521	7996.17
634.875	8044.53
635.229	7968.38
635.583	7946.23
635.937	7869.4
636.291	7941.94
636.645	7908.94
636.999	7892.45
637.352	7879.79
637.706	7810.64
638.06	7922.28
638.413	7843.64
638.767	7843.41
639.121	7872.34
639.474	7767.25
639.828	7834.82
640.181	7786.24
640.534	7806.35
640.888	7729.51
641.241	7769.51
641.594	7766.8
641.947	7861.49
642.301	7795.05
642.654	7776.07
643.007	7764.77
643.36	7780.13
643.713	7781.94
644.066	7740.81
644.419	7749.4
644.771	7635.28
645.124	7654.49
645.477	7557.32
645.83	7555.73
646.182	7542.63
646.535	7484.1
646.888	7563.64
647.24	7488.84
647.593	7492.91
647.945	7474.15
648.298	7459.24
648.65	7511.89
649.002	7417.43
649.355	7513.47
649.707	7535.85
650.059	7571.78
650.411	7556.41
650.763	7641.16
651.115	7678.22
651.467	7651.1
651.819	7732
652.171	7671.44
652.523	7649.52
652.875	7687.26
653.227	7605
653.578	7693.58
653.93	7652.68
654.282	7675.5
654.633	7644.54
654.985	7706.69
655.337	7633.7
655.688	7659.69
656.039	7738.1
656.391	7626.24
656.742	7668.05
657.094	7742.85
657.445	7687.26
657.796	7654.04
658.147	7690.87
658.498	7668.72
658.849	7675.73
659.2	7675.28
659.551	7709.4
659.902	7725.67
660.253	7742.17
660.604	7746.46
660.955	7720.7
661.306	7736.29
661.656	7717.31
662.007	7745.11
662.358	7722.28
662.708	7726.35
663.059	7749.85
663.409	7677.09
663.76	7714.6
664.11	7776.97
664.461	7772.45
664.811	7753.47
665.161	7750.53
665.511	7728.84
665.862	7785.78
666.212	7786.69
666.562	7702.62
666.912	7721.83
667.262	7716.63
667.612	7792.34
667.962	7813.81
668.312	7756.41
668.662	7781.72
669.011	7732.45
669.361	7736.29
669.711	7763.19
670.06	7725.22
670.41	7697.2
670.76	7716.86
671.109	7777.2
671.459	7684.54
671.808	7730.19
672.157	7778.1
672.507	7724.77
672.856	7644.09
673.205	7740.36
673.554	7748.04
673.904	7697.65
674.253	7739.68
674.602	7653.58
674.951	7599.12
675.3	7538.33
675.649	7708.72
675.998	7731.1
676.346	7594.38
676.695	7661.04
677.044	7616.07
677.393	7619.01
677.741	7671.89
678.09	7575.39
678.438	7615.62
678.787	7603.64
679.135	7569.29
679.484	7550.08
679.832	7638.44
680.181	7507.83
680.529	7499.92
680.877	7516.19
681.225	7493.59
681.573	7495.85
681.922	7510.76
682.27	7491.1
682.618	7439.13
682.966	7418.56
683.314	7436.87
683.661	7386.7
684.009	7330.65
684.357	7353.93
684.705	7365.23
685.053	7360.71
685.4	7369.07
685.748	7252.01
686.095	7283.42
686.443	7283.2
686.79	7205.69
687.138	7292.24
687.485	7209.08
687.832	7178.79
688.18	7152.13
688.527	7179.92
688.874	7106.71
689.221	7086.14
689.568	7084.79
689.915	7006.82
690.262	7035.75
690.609	7064
690.956	7016.09
691.303	7014.73
691.65	6939.03
691.997	6924.11
692.344	6910.55
692.69	6957.56
693.037	6911.91
693.383	6838.69
693.73	6817.22
694.077	6846.15
694.423	6787.17
694.769	6769.54
695.116	6730.9
695.462	6725.7
695.808	6674.85
696.155	6649.32
696.501	6598.7
696.847	6613.84
697.193	6584.23
697.539	6579.49
697.885	6513.73
698.231	6522.99
698.577	6503.78
698.923	6534.52
699.269	6443.22
699.614	6441.86
699.96	6404.35
700.306	6434.86
700.651	6380.17
700.997	6347.18
701.342	6331.13
701.688	6287.29
702.033	6292.94
702.379	6249.33
702.724	6191.25
703.069	6243.68
703.415	6165.26
703.76	6161.19
704.105	6185.37
704.45	6212.94
704.795	6083.68
705.14	6129.1
705.485	6099.27
705.83	6072.16
706.175	6125.94
706.52	6024.93
706.865	5998.94
707.209	6034.42
707.554	5951.71
707.899	5923.91
708.243	5935.21
708.588	5927.53
708.932	5846.63
709.277	5882.33
709.621	5878.04
709.966	5812.5
710.31	5846.63
710.654	5768.21
710.998	5802.11
711.342	5823.58
711.687	5738.83
712.031	5719.62
712.375	5700.19
712.719	5778.38
713.063	5744.93
713.407	5753.07
713.75	5732.96
714.094	5751.71
714.438	5667.87
714.782	5697.03
715.125	5663.81
715.469	5642.56
715.812	5632.85
716.156	5565.5
716.499	5606.41
716.843	5607.31
717.186	5603.92
717.53	5626.52
717.873	5575.67
718.216	5575.22
718.559	5534.09
718.902	5537.71
719.246	5528.67
719.589	5564.15
719.932	5515.56
720.275	5561.44
720.617	5529.57
720.96	5521.89
721.303	5541.55
721.646	5459.07
721.989	5485.96
722.331	5490.48
722.674	5459.29
723.016	5470.82
723.359	5445.05
723.701	5454.77
724.044	5435.11
724.386	5450.7
724.729	5478.95
725.071	5473.75
725.413	5476.24
725.755	5447.99
726.097	5382.91
726.439	5417.48
726.782	5412.06
727.124	5464.72
727.465	5391.72
727.807	5379.75
728.149	5363.93
728.491	5393.08
728.833	5432.4
729.175	5375
729.516	5405.96
729.858	5406.19
730.199	5375.68
730.541	5395.11
730.882	5409.12
731.224	5407.54
731.565	5387.2
731.906	5386.53
732.248	5455.68
732.589	5382.46
732.93	5338.62
733.271	5383.81
733.612	5399.41
733.953	5453.19
734.294	5395.56
734.635	5417.03
734.976	5440.53
735.317	5404.15
735.658	5403.02
735.999	5410.25
736.339	5406.86
736.68	5492.28
737.021	5465.62
737.361	5433.3
737.702	5459.74
738.042	5452.74
738.383	5410.48
738.723	5509.46
739.063	5454.32
739.404	5513.75
739.744	5462.46
740.084	5507.65
740.424	5529.57
740.764	5533.19
741.104	5510.36
741.444	5509.46
741.784	5544.94
742.124	5584.26
742.464	5580.19
742.804	5592.4
743.143	5666.52
743.483	5685.05
743.823	5638.04
744.162	5629.23
744.502	5718.27
744.841	5684.82
745.181	5780.41
745.52	5800.07
745.86	5806.4
746.199	5825.16
746.538	5812.28
746.877	5941.54
747.216	5921.88
747.556	5971.59
747.895	6024.47
748.234	6024.25
748.573	6155.09
748.911	6153.51
749.25	6250.46
749.589	6188.31
749.928	6291.36
750.267	6408.65
750.605	6471.47
750.944	6481.41
751.283	6551.92
751.621	6654.29
751.96	6720.73
752.298	6808.41
752.636	6881.63
752.975	7000.72
753.313	7080.27
753.651	7175.18
753.989	7290.88
754.327	7418.79
754.666	7512.8
755.004	7611.55
755.342	7720.47
755.679	7886.35
756.017	8033.46
756.355	8145.32
756.693	8180.12
757.031	8339.22
757.368	8497.18
757.706	8630.96
758.044	8798.86
758.381	8985.98
758.719	9069.82
759.056	9287.44
759.394	9404.5
759.731	9471.39
760.068	9665.06
760.405	9867.31
760.743	9974.88
761.08	10134.42
761.417	10345.72
761.754	10517.01
762.091	10645.37
762.428	10794.74
762.765	10938.02
763.102	11271.12
763.438	11336.2
763.775	11439.02
764.112	11740.93
764.449	11902.96
764.785	12037.65
765.122	12107.7
765.458	12304.08
765.795	12453.46
766.131	12677.41
766.467	12855.03
766.804	12893.9
767.14	12960.11
767.476	13269.26
767.812	13349.03
768.148	13542.47
768.485	13596.48
768.821	13637.16
769.157	13881.67
769.492	14013.64
769.828	14169.57
770.164	14271.26
770.5	14391.49
770.836	14523.23
771.171	14659.5
771.507	14719.16
771.842	14763.68
772.178	14894.98
772.513	15036.44
772.849	15084.8
773.184	15180.84
773.519	15326.6
773.855	15414.06
774.19	15426.94
774.525	15584.67
774.86	15654.28
775.195	15679.36
775.53	15596.43
775.865	15769.3
776.2	15785.35
776.535	15816.53
776.87	15850.2
777.205	15943.31
777.539	15990.77
777.874	16096.98
778.209	16059.69
778.543	16128.16
778.878	16140.37
779.212	16211.33
779.547	16178.33
779.881	16397.08
780.215	16246.35
780.55	16355.73
780.884	16355.05
781.218	16436.18
781.552	16403.18
781.886	16437.31
782.22	16428.49
782.554	16427.14
782.888	16365.9
783.222	16311.44
783.556	16345.78
783.889	16505.1
784.223	16287.71
784.557	16461.49
784.89	16431.21
785.224	16368.61
785.557	16372.9
785.891	16435.05
786.224	16400.7
786.558	16360.7
786.891	16353.24
787.224	16283.19
787.557	16331.32
787.891	16386.01
788.224	16316.63
788.557	16380.36
788.89	16280.02
789.223	16332.45
789.556	16233.92
789.888	16268.27
790.221	16230.31
790.554	16145.79
790.887	16191.89
791.219	16133.59
791.552	16150.99
791.884	16072.57
792.217	16055.17
792.549	16128.16
792.882	15999.35
793.214	15926.81
793.546	15998.9
793.879	15954.16
794.211	15834.84
794.543	15907.6
794.875	15964.1
795.207	15919.13
795.539	15872.35
795.871	15859.47
796.203	15741.51
796.535	15692.92
796.867	15743.54
797.198	15588.06
797.53	15630.55
797.862	15640.49
798.193	15633.71
798.525	15554.17
798.856	15547.61
799.188	15379.26
799.519	15360.05
799.85	15246.6
800.182	15359.37
800.513	15291.58
800.844	15236.44
801.175	15387.39
801.506	15376.32
801.837	15235.08
802.168	15164.57
802.499	15175.19
802.83	15093.61
803.161	15035.08
803.491	15023.56
803.822	15033.5
804.153	14994.86
804.483	14942.43
804.814	14902.88
805.145	14877.57
805.475	14763.23
805.805	14797.58
806.136	14824.92
806.466	14807.97
806.796	14821.31
807.126	14721.65
807.457	14611.37
807.787	14653.63
808.117	14622.89
808.447	14534.53
808.777	14590.35
809.107	14549.9
809.436	14516.91
809.766	14507.87
810.096	14398.49
810.426	14365.72
810.755	14448.43
811.085	14360.53
811.414	14390.81
811.744	14327.31
812.073	14241.66
812.403	14254.09
812.732	14141.1
813.061	14183.36
813.39	14170.47
813.719	14147.65
814.049	14136.58
814.378	14126.63
814.707	13978.62
815.036	14078.5
815.365	14012.74
815.693	13954.21
816.022	13921.22
816.351	13878.51
816.68	13776.13
817.008	13794.44
817.337	13794.67
817.665	13722.58
817.994	13717.61
818.322	13752.63
818.651	13667.89
818.979	13653.2
819.307	13759.86
819.636	13716.7
819.964	13602.13
820.292	13612.98
820.62	13659.53
820.948	13594.22
821.276	13591.96
821.604	13549.25
821.932	13640.55
822.259	13597.83
822.587	13600.32
822.915	13560.1
823.243	13592.64
823.57	13581.34
823.898	13578.17
824.225	13523.71
824.553	13582.47
824.88	13573.88
825.207	13650.04
825.535	13597.16
825.862	13570.49
826.189	13555.35
826.516	13648.23
826.843	13652.3
827.17	13589.02
827.497	13675.8
827.824	13614.56
828.151	13714.44
828.478	13647.1
828.805	13697.94
829.131	13591.06
829.458	13626.53
829.785	13475.13
830.111	13605.74
830.438	13718.51
830.764	13639.19
831.09	13617.95
831.417	13528.23
831.743	13679.19
832.069	13665.63
832.395	13564.84
832.722	13579.3
833.048	13594.67
833.374	13578.4
833.7	13533.43
834.026	13521.68
834.351	13474.9
834.677	13550.6
835.003	13565.29
835.329	13576.14
835.654	13526.88
835.98	13414.79
836.306	13499.98
836.631	13447.33
836.956	13514.9
837.282	13494.33
837.607	13412.08
837.932	13431.29
838.258	13434
838.583	13376.15
838.908	13245.75
839.233	13351.06
839.558	13226.09
839.883	13197.62
840.208	13217.05
840.533	13203.95
840.858	13198.3
841.182	13162.14
841.507	13145.64
841.832	13202.59
842.156	13106.55
842.481	13118.98
842.805	13107.45
843.13	13106.32
843.454	13047.79
843.778	12994.69
844.103	12975.93
844.427	12914.01
844.751	12871.3
845.075	12908.81
845.399	12801.02
845.723	12714.24
846.047	12751.76
846.371	12637.86
846.695	12664.75
847.019	12547.01
847.343	12467.02
847.666	12481.71
847.99	12485.55
848.313	12334.59
848.637	12311.77
848.96	12300.24
849.284	12206.46
849.607	12114.26
849.931	12205.78
850.254	11988.39
850.577	11977.54
850.9	11988.39
851.223	11963.98
851.546	11798.79
851.869	11775.74
852.192	11863.19
852.515	11764.89
852.838	11721.73
853.161	11663.87
853.483	11596.76
853.806	11545.01
854.129	11612.58
854.451	11547.49
854.774	11513.6
855.096	11448.06
855.419	11386.59
855.741	11360.83
856.063	11290.78
856.385	11292.81
856.708	11236.09
857.03	11185.47
857.352	11225.02
857.674	11165.36
857.996	11152.02
858.318	11068.41
858.64	11084.91
858.961	11038.35
859.283	10975.3
859.605	10935.98
859.926	10996.77
860.248	10889.43
860.57	10821.64
860.891	10888.08
861.212	10886.49
861.534	10818.02
861.855	10727.85
862.176	10742.99
862.498	10783.22
862.819	10820.28
863.14	10667.06
863.461	10693.05
863.782	10718.59
864.103	10630.45
864.424	10583
864.745	10650.12
865.065	10544.13
865.386	10511.36
865.707	10582.09
866.027	10522.21
866.348	10522.44
866.668	10505.49
866.989	10420.74
867.309	10379.61
867.63	10468.65
867.95	10404.25
868.27	10381.2
868.59	10373.29
868.91	10363.57
869.23	10374.42
869.55	10282.44
869.87	10329.22
870.19	10258.94
870.51	10302.55
870.83	10324.93
871.15	10202.9
871.469	10288.09
871.789	10331.48
872.109	10229.11
872.428	10180.52
872.748	10230.69
873.067	10199.96
873.386	10223.01
873.706	10165.16
874.025	10122.22
874.344	10087.64
874.663	10024.6
874.982	10056.23
875.301	10148.43
875.62	10022.11
875.939	10016.69
876.258	10054.65
876.577	10027.98
876.896	10029.79
877.214	9968.55
877.533	9974.43
877.852	9973.52
878.17	9973.3
878.489	9888.78
878.807	9902.56
879.125	9856.69
879.444	9910.93
879.762	9755.45
880.08	9808.56
880.398	9789.8
880.716	9736.02
881.034	9729.69
881.352	9795.45
881.67	9731.04
881.988	9725.17
882.306	9656.24
882.624	9561.78
882.941	9596.58
883.259	9634.55
883.577	9579.64
883.894	9578.73
884.212	9532.86
884.529	9487.21
884.846	9511.16
885.164	9481.33
885.481	9437.49
885.798	9484.72
886.115	9390.71
886.432	9373.54
886.75	9406.31
887.067	9367.44
887.383	9324.73
887.7	9324.73
888.017	9302.81
888.334	9273.43
888.651	9201.34
888.967	9258.29
889.284	9197.72
889.6	9193.88
889.917	9103.94
890.233	9124.05
890.55	9086.77
890.866	9160.89
891.182	9032.3
891.498	9065.98
891.815	8947.11
892.131	8943.72
892.447	8906.21
892.763	8908.24
893.079	8866.21
893.395	8830.5
893.71	8787.57
894.026	8804.74
894.342	8780.11
894.657	8668.7
894.973	8681.13
895.289	8672.31
895.604	8611.07
895.92	8592.32
896.235	8577.85
896.55	8581.47
896.865	8509.61
897.181	8503.51
897.496	8525.65
897.811	8499.44
898.126	8464.18
898.441	8363.85
898.756	8375.6
899.071	8318.65
899.386	8263.29
899.7	8165.89
900.015	8218.54
900.33	8138.09
900.644	8196.62
900.959	8146.45
901.273	8081.14
901.588	8063.29
901.902	8037.75
902.216	8071.65
902.531	8007.02
902.845	7949.17
903.159	7936.29
903.473	7876.4
903.787	7797.54
904.101	7880.47
904.415	7781.04
904.729	7786.01
905.042	7759.12
905.356	7676.86
905.67	7668.27
905.984	7703.53
906.297	7681.61
906.611	7651.1
906.924	7566.35
907.237	7574.26
907.551	7544.43
907.864	7498.56
908.177	7445.91
908.491	7398.45
908.804	7382.86
909.117	7357.77
909.43	7242.3
909.743	7215.4
910.056	7263.09
910.368	7277.32
910.681	7251.33
910.994	7200.71
911.307	7154.39
911.619	7087.72
911.932	7151
912.244	7013.15
912.557	7046.59
912.869	6981.74
913.181	6964.79
913.494	6963.21
913.806	6953.04
914.118	6865.36
914.43	6839.82
914.742	6860.61
915.054	6778.8
915.366	6748.98
915.678	6763.89
915.99	6678.47
916.302	6675.08
916.613	6687.28
916.925	6695.42
917.236	6611.8
917.548	6597.79
917.859	6555.53
918.171	6547.4
918.482	6503.11
918.794	6424.92
919.105	6521.41
919.416	6465.14
919.727	6435.54
920.038	6434.86
920.349	6367.74
920.66	6337.46
920.971	6305.14
921.282	6284.35
921.593	6273.28
921.903	6252.49
922.214	6185.37
922.525	6136.11
922.835	6158.71
923.146	6148.09
923.456	6136.34
923.767	6063.12
924.077	6066.96
924.387	6038.94
924.697	6009.79
925.008	6001.65
925.318	5909.45
925.628	5931.82
925.938	5949.67
926.248	5887.53
926.558	5884.59
926.867	5814.08
927.177	5795.1
927.487	5784.48
927.796	5760.07
928.106	5754.42
928.416	5741.54
928.725	5702.45
929.034	5666.97
929.344	5637.82
929.653	5649.57
929.962	5633.75
930.271	5588.55
930.581	5532.96
930.89	5503.58
931.199	5526.18
931.508	5465.84
931.817	5504.94
932.125	5425.85
932.434	5405.06
932.743	5418.39
933.051	5399.18
933.36	5403.25
933.669	5347.88
933.977	5319.18
934.286	5302.01
934.594	5330.48
934.902	5251.61
935.21	5260.2
935.519	5181.78
935.827	5172.75
936.135	5146.98
936.443	5166.64
936.751	5162.8
937.059	5124.16
937.367	5127.32
937.674	5084.84
937.982	5075.8
938.29	5053.88
938.597	4974.11
938.905	4952.86
939.213	4944.05
939.52	4893.43
939.827	4934.79
940.135	4860.21
940.442	4867.44
940.749	4883.26
941.056	4862.47
941.363	4814.34
941.67	4760.55
941.977	4783.15
942.284	4742.7
942.591	4725.3
942.898	4674.68
943.205	4702.7
943.511	4657.28
943.818	4632.65
944.125	4619.31
944.431	4586.09
944.738	4561.46
945.044	4563.95
945.35	4507.23
945.657	4542.93
945.963	4436.72
946.269	4472.65
946.575	4514.91
946.881	4427
947.187	4430.62
947.493	4421.35
947.799	4417.74
948.105	4395.36
948.41	4371.86
948.716	4342.48
949.022	4274.69
949.327	4343.16
949.633	4266.33
949.938	4253.45
950.244	4236.72
950.549	4236.95
950.854	4233.56
951.16	4229.95
951.465	4198.31
951.77	4177.07
952.075	4159.44
952.38	4177.29
952.685	4123.28
952.99	4074.47
953.294	4068.37
953.599	4069.05
953.904	4061.59
954.209	4043.06
954.513	4000.8
954.818	3991.99
955.122	3978.2
955.426	3984.98
955.731	3940.46
956.035	3924.87
956.339	3899.56
956.643	3870.86
956.948	3891.88
957.252	3867.24
957.556	3842.38
957.86	3841.48
958.163	3835.83
958.467	3772.33
958.771	3803.97
959.075	3737.3
959.378	3753.35
959.682	3737.98
959.985	3714.48
960.289	3699.11
960.592	3689.39
960.896	3698.21
961.199	3622.28
961.502	3619.11
961.805	3638.32
962.108	3606.91
962.411	3569.85
962.714	3563.07
963.017	3540.92
963.32	3569.4
963.623	3544.09
963.926	3539.79
964.228	3455.05
964.531	3532.56
964.833	3485.56
965.136	3487.14
965.438	3425.67
965.741	3454.6
966.043	3413.47
966.345	3410.31
966.648	3364.88
966.95	3331.66
967.252	3335.05
967.554	3330.31
967.856	3356.52
968.158	3250.08
968.46	3285.79
968.761	3331.21
969.063	3279.24
969.365	3233.36
969.666	3221.38
969.968	3252.12
970.269	3229.52
970.571	3211.67
970.872	3219.12
971.174	3168.73
971.475	3185.68
971.776	3131.44
972.077	3130.31
972.378	3113.59
972.679	3094.38
972.98	3103.42
973.281	3100.94
973.582	3102.07
973.883	3058
974.183	3043.54
974.484	3046.47
974.785	2997.66
975.085	2980.26
975.386	2995.4
975.686	2986.59
975.986	2924.44
976.287	2977.32
976.587	2938.45
976.887	2923.31
977.187	2931
977.487	2914.5
977.787	2838.34
978.087	2854.61
978.387	2825.91
978.687	2860.72
978.987	2874.05
979.286	2828.63
979.586	2795.86
979.885	2776.65
980.185	2759.48
980.484	2778.23
980.784	2770.32
981.083	2764.45
981.382	2715.86
981.682	2731.91
981.981	2726.03
982.28	2708.18
982.579	2656.2
982.878	2685.35
983.177	2643.09
983.475	2675.64
983.774	2613.26
984.073	2636.54
984.372	2629.76
984.67	2659.14
984.969	2571.01
985.267	2616.88
985.566	2558.8
985.864	2560.16
986.162	2556.77
986.461	2532.81
986.759	2535.75
987.057	2528.07
987.355	2502.31
987.653	2442.65
987.951	2466.6
988.249	2459.37
988.547	2471.12
988.844	2437.68
989.142	2473.16
989.44	2414.17
989.737	2433.61
990.035	2393.38
990.332	2390.45
990.63	2345.25
990.927	2379.15
991.224	2360.16
991.521	2331.46
991.819	2323.1
992.116	2324.68
992.413	2309.77
992.71	2269.54
993.006	2293.27
993.303	2290.79
993.6	2267.51
993.897	2256.21
994.193	2279.04
994.49	2242.43
994.787	2221.18
995.083	2193.16
995.379	2183.22
995.676	2191.58
995.972	2201.75
996.268	2161.98
996.565	2160.85
996.861	2171.24
997.157	2134.18
997.453	2155.42
997.749	2142.09
998.044	2100.28
998.34	2106.84
998.636	2106.61
998.932	2075.2
999.227	2059.61
999.523	2042.88
999.818	2002.89
1000.114	2068.19
1000.409	1995.65
1000.704	2023.68
1001	2050.12
1001.295	1995.88
1001.59	1978.03
1001.885	1935.54
1002.18	1958.37
1002.475	1934.19
1002.77	1948.2
1003.065	1909.33
1003.359	1924.47
1003.654	1923.57
1003.949	1873.62
1004.243	1897.8
1004.538	1902.1
1004.832	1895.09
1005.127	1900.97
1005.421	1848.99
1005.715	1844.92
1006.009	1841.08
1006.304	1825.71
1006.598	1777.81
1006.892	1779.84
1007.186	1790.91
1007.48	1770.12
1007.773	1799.27
1008.067	1755.21
1008.361	1749.11
1008.655	1745.72
1008.948	1728.99
1009.242	1728.09
1009.535	1712.95
1009.829	1708.43
1010.122	1674.98
1010.415	1664.36
1010.708	1671.14
1011.001	1663.23
1011.295	1642.44
1011.588	1612.39
1011.881	1630.24
1012.173	1616
1012.466	1600.86
1012.759	1608.55
1013.052	1580.98
1013.344	1592.73
1013.637	1603.35
1013.93	1563.12
1014.222	1575.78
1014.514	1567.19
1014.807	1554.76
1015.099	1535.33
1015.391	1513.41
1015.683	1495.55
1015.976	1524.93
1016.268	1505.05
1016.56	1519.06
1016.851	1503.69
1017.143	1487.42
1017.435	1441.09
1017.727	1458.49
1018.018	1442.9
1018.31	1406.74
1018.602	1438.61
1018.893	1431.37
1019.185	1444.71
1019.476	1396.57
1019.767	1417.14
1020.058	1387.53
1020.35	1377.14
1020.641	1341.89
1020.932	1325.84
1021.223	1334.65
1021.514	1331.04
1021.804	1334.88
1022.095	1309.57
1022.386	1321.77
1022.677	1297.14
1022.967	1296.92
1023.258	1291.04
1023.548	1285.62
1023.839	1284.94
1024.129	1267.54
1024.419	1279.97
1024.709	1239.97
1025	1242.68
1025.29	1229.35
1025.58	1243.58
1025.87	1207.43
1026.16	1198.61
1026.449	1208.1
1026.739	1192.51
1027.029	1177.82
1027.319	1152.06
1027.608	1181.66
1027.898	1159.07
1028.187	1178.95
1028.477	1170.59
1028.766	1136.69
1029.055	1110.03
1029.344	1148.22
1029.634	1128.78
1029.923	1103.25
1030.212	1104.15
1030.501	1101.67
1030.79	1091.04
1031.078	1087.88
1031.367	1098.05
1031.656	1075
1031.945	1052.4
1032.233	1054.66
1032.522	1046.53
1032.81	1049.46
1033.099	1045.17
1033.387	1009.46
1033.675	1051.95
1033.963	1006.3
1034.251	1019.18
1034.54	1007.88
1034.828	982.57
1035.116	972.18
1035.403	966.3
1035.691	973.08
1035.979	978.51
1036.267	966.98
1036.554	970.82
1036.842	961.1
1037.129	952.07
1037.417	943.03
1037.704	932.63
1037.992	903.48
1038.279	940.54
1038.566	896.47
1038.853	896.47
1039.14	896.47
