Data from hue_40_FLMS001491_59.txt Node
Date: Mon Feb 06 15:08:07 GMT 2017
User: dcchb
Spectrometer: FLMS00149
Trigger mode: 0
Integration Time (sec): 2.000000E-2
Scans to average: 10
Electric dark correction enabled: true
Nonlinearity correction enabled: false
Boxcar width: 0
XAxis mode: Wavelengths
Number of Pixels in Spectrum: 2048
>>>>>Begin Spectral Data<<<<<
341.393	3.87
341.776	3.87
342.16	3.87
342.543	-77.03
342.927	-82.68
343.31	-65.73
343.693	-80.2
344.077	-64.83
344.46	-66.18
344.843	-48.56
345.226	-46.3
345.61	-25.06
345.993	-26.64
346.376	-7.43
346.759	15.85
347.142	11.33
347.525	34.6
347.908	66.02
348.291	89.29
348.674	104.88
349.057	108.95
349.44	137.2
349.823	142.17
350.206	150.53
350.588	211.77
350.971	211.77
351.354	206.58
351.737	240.02
352.119	264.2
352.502	247.71
352.884	275.95
353.267	289.96
353.65	273.69
354.032	309.4
354.414	321.38
354.797	291.32
355.179	306.91
355.562	314.82
355.944	327.48
356.326	322.05
356.709	327.7
357.091	326.8
357.473	339.68
357.855	345.56
358.238	343.97
358.62	353.69
359.002	341.49
359.384	331.54
359.766	345.56
360.148	362.05
360.53	359.57
360.912	324.77
361.294	326.35
361.676	322.05
362.057	348.04
362.439	316.18
362.821	322.28
363.203	332.9
363.584	317.76
363.966	325.9
364.348	317.53
364.729	327.25
365.111	313.69
365.493	327.7
365.874	338.32
366.256	318.21
366.637	332.45
367.019	325.67
367.4	321.6
367.781	317.76
368.163	327.03
368.544	305.1
368.925	318.44
369.306	326.57
369.688	318.89
370.069	294.94
370.45	315.05
370.831	323.64
371.212	312.79
371.593	320.02
371.974	309.62
372.355	317.53
372.736	333.8
373.117	319.79
373.498	347.36
373.879	338.55
374.26	339.45
374.641	312.56
375.021	322.73
375.402	319.79
375.783	333.13
376.163	338.1
376.544	343.3
376.925	327.25
377.305	344.43
377.686	322.96
378.066	321.83
378.447	303.98
378.827	317.31
379.208	338.1
379.588	329.96
379.968	331.54
380.349	350.53
380.729	337.19
381.109	329.96
381.489	340.81
381.87	324.31
382.25	345.78
382.63	323.64
383.01	327.48
383.39	344.65
383.77	329.51
384.15	337.65
384.53	340.58
384.91	378.1
385.29	355.5
385.67	347.82
386.049	342.84
386.429	353.24
386.809	381.04
387.189	372
387.568	367.7
387.948	374.26
388.328	355.73
388.707	371.09
389.087	353.24
389.466	362.5
389.846	352.11
390.225	394.14
390.605	373.13
390.984	355.95
391.363	383.07
391.743	362.05
392.122	374.03
392.501	385.1
392.881	389.85
393.26	385.55
393.639	381.94
394.018	375.84
394.397	383.07
394.776	365.89
395.155	373.35
395.534	382.39
395.913	375.39
396.292	390.3
396.671	409.73
397.05	400.02
397.429	405.89
397.808	397.53
398.186	397.08
398.565	408.61
398.944	402.73
399.323	395.05
399.701	400.92
400.08	408.15
400.458	401.15
400.837	402.28
401.215	416.74
401.594	406.8
401.972	416.51
402.351	401.6
402.729	407.7
403.107	381.94
403.486	419.9
403.864	423.97
404.242	435.95
404.62	418.1
404.999	430.3
405.377	430.3
405.755	419
406.133	435.05
406.511	427.14
406.889	424.65
407.267	423.07
407.645	441.15
408.023	437.76
408.401	470.75
408.779	452.45
409.156	445.89
409.534	435.95
409.912	468.72
410.29	450.64
410.667	451.99
411.045	457.64
411.422	468.72
411.8	484.99
412.178	472.11
412.555	474.59
412.933	481.6
413.31	503.74
413.687	485.44
414.065	494.7
414.442	513.91
414.819	484.31
415.197	501.26
415.574	495.83
415.951	509.17
416.328	497.42
416.705	528.38
417.082	513.69
417.46	525.89
417.837	530.41
418.214	519.56
418.591	531.54
418.967	506.68
419.344	513.01
419.721	537.19
420.098	523.63
420.475	540.35
420.852	530.41
421.228	546.45
421.605	559.79
421.982	537.19
422.358	558.88
422.735	546.45
423.111	559.11
423.488	539.22
423.864	560.24
424.241	568.37
424.617	569.5
424.994	566.12
425.37	557.08
425.746	563.4
426.123	594.81
426.499	593.23
426.875	588.04
427.251	595.27
427.627	605.21
428.003	578.54
428.379	600.24
428.756	602.5
429.132	595.94
429.507	618.32
429.883	622.16
430.259	628.94
430.635	651.76
431.011	640.46
431.387	652.21
431.763	659.45
432.138	652.21
432.514	650.41
432.89	674.13
433.265	704.42
433.641	684.53
434.016	677.52
434.392	708.26
434.767	689.5
435.143	700.57
435.518	722.04
435.894	700.12
436.269	737.86
436.644	717.98
437.02	737.86
437.395	722.27
437.77	738.77
438.145	748.48
438.52	743.74
438.895	763.17
439.271	757.97
439.646	759.33
440.021	764.08
440.395	788.48
440.77	776.28
441.145	770.18
441.52	809.5
441.895	805.43
442.27	791.42
442.645	807.69
443.019	817.41
443.394	800.23
443.769	812.66
444.143	809.95
444.518	808.14
444.892	816.5
445.267	827.13
445.641	850.63
446.016	831.87
446.39	814.92
446.764	830.74
447.139	879.78
447.513	861.25
447.887	869.61
448.262	878.88
448.636	843.85
449.01	878.65
449.384	877.75
449.758	869.16
450.132	895.82
450.506	911.87
450.88	887.01
451.254	894.02
451.628	923.39
452.002	899.21
452.376	909.83
452.75	959.55
453.123	955.03
453.497	940.79
453.871	947.12
454.244	979.21
454.618	1001.36
454.992	981.47
455.365	995.48
455.739	998.87
456.112	1010.85
456.486	1023.5
456.859	1030.96
457.232	1074.12
457.606	1050.4
457.979	1052.43
458.352	1061.02
458.725	1082.49
459.099	1109.15
459.472	1131.07
459.845	1145.76
460.218	1112.54
460.591	1125.65
460.964	1133.33
461.337	1188.25
461.71	1221.24
462.083	1200.45
462.456	1219.43
462.829	1233.67
463.201	1208.81
463.574	1230.96
463.947	1224.4
464.32	1276.15
464.692	1289.26
465.065	1312.31
465.438	1306.43
465.81	1348.69
466.183	1341.46
466.555	1384.62
466.928	1379.2
467.3	1397.51
467.672	1417.17
468.045	1437.5
468.417	1465.75
468.789	1507.11
469.161	1498.29
469.534	1545.3
469.906	1557.05
470.278	1578.74
470.65	1627.78
471.022	1620.32
471.394	1696.71
471.766	1697.61
472.138	1705.75
472.51	1723.6
472.882	1795.01
473.253	1809.7
473.625	1856.48
473.997	1919.98
474.369	1956.59
474.74	1969.47
475.112	1994.55
475.484	2066.64
475.855	2111.84
476.227	2105.51
476.598	2211.72
476.97	2203.59
477.341	2297.82
477.713	2344.6
478.084	2388.67
478.455	2445.84
478.827	2486.29
479.198	2566.97
479.569	2587.76
479.94	2730.8
480.311	2742.33
480.682	2839.73
481.053	2928.76
481.424	2983.23
481.795	3063.68
482.166	3131.25
482.537	3212.37
482.908	3324.91
483.279	3339.83
483.65	3408.75
484.021	3561.29
484.391	3624.79
484.762	3688.29
485.133	3735.3
485.503	3839.48
485.874	3999.7
486.244	4100.26
486.615	4194.27
486.985	4264.32
487.356	4367.82
487.726	4469.29
488.097	4629.29
488.467	4713.8
488.837	4830.18
489.207	4925.32
489.578	5044.64
489.948	5173.68
490.318	5292.77
490.688	5323.96
491.058	5459.09
491.428	5579.54
491.798	5653.21
492.168	5863.15
492.538	5862.92
492.908	6018.4
493.278	6124.39
493.648	6209.81
494.017	6351.27
494.387	6512.4
494.757	6585.39
495.126	6712.17
495.496	6770.7
495.866	6867.19
496.235	6984.7
496.605	7174.53
496.974	7213.4
497.344	7339.72
497.713	7457.69
498.082	7566.16
498.452	7662.43
498.821	7753.27
499.19	7762.08
499.559	7899.03
499.928	8064.9
500.298	8104.45
500.667	8189.42
501.036	8243.2
501.405	8388.28
501.774	8435.96
502.143	8604.55
502.512	8598.67
502.88	8767.03
503.249	8813.36
503.618	8972.45
503.987	8965.67
504.356	9040.47
504.724	9152.78
505.093	9252.44
505.462	9309.61
505.83	9383.28
506.199	9505.32
506.567	9675.93
506.936	9719.77
507.304	9737.63
507.672	9859.2
508.041	9968.58
508.409	9997.96
508.777	10149.37
509.145	10158.86
509.514	10205.18
509.882	10336.93
510.25	10351.39
510.618	10499.64
510.986	10525.85
511.354	10640.43
511.722	10802.68
512.09	10835
512.458	10924.94
512.826	11065.27
513.193	11084.93
513.561	11117.48
513.929	11187.3
514.297	11327.19
514.664	11466.39
515.032	11438.37
515.4	11524.02
515.767	11582.55
516.135	11634.98
516.502	11680.4
516.869	11808.76
517.237	11890.56
517.604	11901.64
517.972	11989.09
518.339	12164
518.706	12092.82
519.073	12176.66
519.44	12364.9
519.808	12420.04
520.175	12457.33
520.542	12630.2
520.909	12662.52
521.276	12758.79
521.643	12804.44
522.009	12883.53
522.376	12929.18
522.743	13030.42
523.11	13099.8
523.477	13279.23
523.843	13367.13
524.21	13488.26
524.577	13502.72
524.943	13584.3
525.31	13632.21
525.676	13793.56
526.043	13839.89
526.409	13851.64
526.776	14130.5
527.142	14116.04
527.508	14222.93
527.874	14311.29
528.241	14389.93
528.607	14453.66
528.973	14563.26
529.339	14565.29
529.705	14762.13
530.071	14833.31
530.437	14906.08
530.803	15044.38
531.169	15119.18
531.535	15054.55
531.901	15120.31
532.267	15196.01
532.632	15339.74
532.998	15366.86
533.364	15482.11
533.73	15442.33
534.095	15638.94
534.461	15717.58
534.826	15774.98
535.192	15812.72
535.557	15977.01
535.923	15928.42
536.288	16066.27
536.653	16116.67
537.019	16124.35
537.384	16258.81
537.749	16278.47
538.114	16331.35
538.479	16292.26
538.845	16478.69
539.21	16445.7
539.575	16475.08
539.94	16537.22
540.305	16694.05
540.67	16759.14
541.034	16843.88
541.399	16888.4
541.764	16967.94
542.129	16912.8
542.494	17023.08
542.858	17138.33
543.223	17146.7
543.587	17290.65
543.952	17197.77
544.316	17424.43
544.681	17360.7
545.045	17454.03
545.41	17567.25
545.774	17597.08
546.138	17598.89
546.503	17710.07
546.867	17676.63
547.231	17941.93
547.595	17892.44
547.959	17928.14
548.324	17985.09
548.688	18044.75
549.052	18207.46
549.416	18229.38
549.779	18282.26
550.143	18330.39
550.507	18416.95
550.871	18489.26
551.235	18512.08
551.599	18617.62
551.962	18580.33
552.326	18719.54
552.689	18840.89
553.053	18694.9
553.417	18788.01
553.78	19033.43
554.143	18971.73
554.507	19074.1
554.87	19065.97
555.234	19362.01
555.597	19127.21
555.96	19243.82
556.323	19433.19
556.686	19450.14
557.05	19526.52
557.413	19557.48
557.776	19618.04
558.139	19766.06
558.502	19807.19
558.865	19894.42
559.228	19992.95
559.59	19986.62
559.953	19985.04
560.316	20195.43
560.679	20246.95
561.041	20432.03
561.404	20369.66
561.767	20602.65
562.129	20518.81
562.492	20702.99
562.854	20710.22
563.217	20695.98
563.579	20881.74
563.941	21012.81
564.304	20977.1
564.666	21079.7
565.028	21141.17
565.39	21286.02
565.753	21328.73
566.115	21471.33
566.477	21572.79
566.839	21574.15
567.201	21723.98
567.563	21706.35
567.925	21912.22
568.287	21900.24
568.648	21956.74
569.01	22126.68
569.372	22204.64
569.734	22135.72
570.095	22301.59
570.457	22439.21
570.819	22513.11
571.18	22461.58
571.542	22658.42
571.903	22772.31
572.265	22958.29
572.626	22889.6
572.987	22998.52
573.349	23247.78
573.71	23138.18
574.071	23138.4
574.432	23327.32
574.794	23619.07
575.155	23529.13
575.516	23601.67
575.877	23760.08
576.238	23816.58
576.599	23933.64
576.96	24051.37
577.32	24078.94
577.681	24216.57
578.042	24410.91
578.403	24468.76
578.763	24758.93
579.124	24752.15
579.485	25006.6
579.845	25148.29
580.206	25304
580.566	25440.72
580.927	25438.91
581.287	25762.51
581.648	25776.3
582.008	25936.97
582.368	26038.44
582.728	26297.87
583.089	26332.9
583.449	26410.86
583.809	26776.05
584.169	26908.93
584.529	27002.71
584.889	27277.96
585.249	27340.33
585.609	27495.12
585.969	27693.31
586.329	27924.72
586.688	28219.63
587.048	28196.57
587.408	28280.19
587.768	28499.17
588.127	28738.03
588.487	28855.31
588.846	29169.66
589.206	29266.15
589.565	29484.45
589.925	29871.56
590.284	29831.56
590.643	30115.62
591.003	30328.5
591.362	30513.35
591.721	30621.82
592.08	30815.94
592.44	31116.05
592.799	31313.1
593.158	31402.59
593.517	31704.51
593.876	31841.22
594.235	31906.76
594.593	32173.87
594.952	32370.7
595.311	32438.5
595.67	32723.24
596.029	33010.46
596.387	33148.54
596.746	33395.31
597.104	33433.27
597.463	33474.63
597.822	33846.14
598.18	33795.52
598.538	34011.34
598.897	34367.71
599.255	34316.87
599.613	35029.84
599.972	34903.07
600.33	35176.05
600.688	35085.21
601.046	35357.97
601.404	35668.92
601.762	35744.17
602.12	36078.63
602.478	36092.64
602.836	36305.97
603.194	36179.87
603.552	36391.39
603.91	36359.3
604.268	36682.23
604.625	36741.44
604.983	36954.08
605.341	36912.5
605.698	37211.25
606.056	37241.99
606.413	37429.1
606.771	37600.62
607.128	37703.44
607.485	37761.3
607.843	37703.44
608.2	38150.66
608.557	38357.44
608.914	38202.41
609.272	38566.7
609.629	38679.92
609.986	38889.4
610.343	38747.94
610.7	39137.3
611.057	39290.07
611.414	39220.92
611.771	39226.34
612.127	39575.94
612.484	39567.35
612.841	39882.6
613.198	39694.8
613.554	39807.8
613.911	39998.75
614.267	40239.65
614.624	40175.24
614.98	40352.64
615.337	40570.03
615.693	40574.33
616.05	40539.08
616.406	40760.31
616.762	40702.46
617.118	40761.89
617.475	40902
617.831	41102.45
618.187	41121.43
618.543	41270.13
618.899	41416.79
619.255	41457.47
619.611	41431.48
619.967	41582.66
620.323	41782.88
620.678	41537.24
621.034	41639.39
621.39	41664.7
621.746	41589.22
622.101	42123.67
622.457	41774.07
622.812	41981.52
623.168	42130.67
623.523	42262.65
623.879	42237.11
624.234	41904.69
624.589	42203.66
624.945	42335.86
625.3	42420.61
625.655	42336.77
626.01	42449.08
626.365	42484.33
626.72	42518.23
627.075	42544.45
627.43	42460.15
627.785	42610.21
628.14	42519.36
628.495	42503.54
628.85	42533.15
629.205	42544.9
629.559	42723.2
629.914	42606.37
630.269	42683.43
630.623	42621.51
630.978	42616.31
631.332	42886.36
631.687	42817.43
632.041	42565.01
632.396	42775.4
632.75	42588.29
633.104	42663.31
633.459	42540.38
633.813	42409.31
634.167	42444.34
634.521	42650.21
634.875	42572.24
635.229	42435.07
635.583	42389.42
635.937	42377.22
636.291	42419.03
636.645	42484.33
636.999	42395.75
637.352	42377.9
637.706	42194.4
638.06	42372.7
638.413	42344.45
638.767	42281.63
639.121	42370.67
639.474	42204.57
639.828	42239.37
640.181	42274.17
640.534	42158.69
640.888	42126.38
641.241	41956.21
641.594	42141.97
641.947	42246.15
642.301	42000.05
642.654	42097.45
643.007	42140.84
643.36	42037.12
643.713	41996.21
644.066	42168.86
644.419	41752.38
644.771	41637.58
645.124	41183.35
645.477	41240.98
645.83	40999.85
646.182	40833.53
646.535	40754.44
646.888	40766.87
647.24	40606.87
647.593	40803.93
647.945	40739.3
648.298	40677.38
648.65	40585.85
649.002	40402.58
649.355	40645.51
649.707	40512.18
650.059	40666.76
650.411	41064.26
650.763	41200.07
651.115	41571.14
651.467	41541.31
651.819	41425.61
652.171	41321.2
652.523	41257.7
652.875	41210.7
653.227	41192.17
653.578	41272.84
653.93	41268.32
654.282	41156.01
654.633	41028.55
654.985	41170.92
655.337	41072.39
655.688	41162.11
656.039	41209.11
656.391	40885.28
656.742	40949.23
657.094	41072.85
657.445	41147.19
657.796	41114.43
658.147	41017.25
658.498	41015.22
658.849	41067.2
659.2	40932.74
659.551	40786.53
659.902	40989.91
660.253	41069.23
660.604	41116.24
660.955	40652.52
661.306	41018.61
661.656	40977.93
662.007	40977.26
662.358	40923.25
662.708	40880.76
663.059	40922.57
663.409	40674.66
663.76	40982.91
664.11	40761.67
664.461	40829.46
664.811	40935
665.161	40826.07
665.511	40549.92
665.862	40816.36
666.212	40756.24
666.562	40824.72
666.912	40759.86
667.262	40685.74
667.612	40717.83
667.962	40803.7
668.312	40577.04
668.662	40873.53
669.011	40778.84
669.361	40668.11
669.711	40598.73
670.06	40614.78
670.41	40534.33
670.76	40515.8
671.109	40677.6
671.459	40725.06
671.808	40527.1
672.157	40599.19
672.507	40326.88
672.856	40335.69
673.205	40467.66
673.554	40652.52
673.904	40323.49
674.253	40577.27
674.602	40502.24
674.951	39991.52
675.3	39724.18
675.649	40386.54
675.998	40317.61
676.346	40377.72
676.695	40476.48
677.044	40139.09
677.393	40288.91
677.741	40392.86
678.09	40097.28
678.438	40243.04
678.787	40153.32
679.135	40243.72
679.484	39976.6
679.832	40173.89
680.181	39730.73
680.529	39907.23
680.877	39888.92
681.225	39916.27
681.573	40011.41
681.922	39772.09
682.27	39740
682.618	39890.5
682.966	39580.91
683.314	39680.57
683.661	39639.66
684.009	39273.35
684.357	39371.87
684.705	39264.76
685.053	39237.87
685.4	39207.36
685.748	39055.27
686.095	39041.71
686.443	38912.68
686.79	38815.96
687.138	38919.23
687.485	38921.49
687.832	38777.99
688.18	38909.29
688.527	38596.08
688.874	38608.73
689.221	38360.6
689.568	38444.22
689.915	38406.48
690.262	38224.56
690.609	38125.81
690.956	38145.92
691.303	38107.73
691.65	37823.21
691.997	37906.6
692.344	37503.67
692.69	37460.29
693.037	37677
693.383	37306.62
693.73	37465.48
694.077	37294.64
694.423	37197.24
694.769	36990.47
695.116	36958.15
695.462	37088.09
695.808	36937.59
696.155	36960.19
696.501	36755.22
696.847	36660.99
697.193	36332.41
697.539	36641.78
697.885	36366.3
698.231	36229.13
698.577	36220.09
698.923	36149.13
699.269	35941.23
699.614	35854.45
699.96	35830.5
700.306	35642.71
700.651	35512.09
700.997	35412.66
701.342	35431.86
701.688	35433.9
702.033	35211.53
702.379	35286.56
702.724	35203.17
703.069	35250.17
703.415	34786.68
703.76	34789.17
704.105	34879.11
704.45	34965.66
704.795	34571.1
705.14	34533.58
705.485	34537.2
705.83	34296.08
706.175	34445
706.52	34265.79
706.865	34175.63
707.209	34141.73
707.554	33955.07
707.899	34124.33
708.243	33955.29
708.588	33733.38
708.932	33655.19
709.277	33646.38
709.621	33626.04
709.966	33456.32
710.31	33572.93
710.654	33310.79
710.998	33241.87
711.342	33222.43
711.687	33200.74
712.031	33000.52
712.375	32943.34
712.719	33017.47
713.063	32856.79
713.407	32959.61
713.75	32758.26
714.094	32664.03
714.438	32669.45
714.782	32672.39
715.125	32436.24
715.469	32583.13
715.812	32323.7
716.156	32147.88
716.499	32200.54
716.843	32308.78
717.186	32025.85
717.53	32211.38
717.873	32253.64
718.216	32081.9
718.559	31850.04
718.902	31694.56
719.246	31766.42
719.589	31738.18
719.932	31569.37
720.275	31565.75
720.617	31546.09
720.96	31480.56
721.303	31411.63
721.646	31435.59
721.989	31261.81
722.331	31363.5
722.674	31265.42
723.016	31171.86
723.359	31169.83
723.701	31259.55
724.044	30979.55
724.386	30899.33
724.729	30965.77
725.071	30835.6
725.413	30893.45
725.755	30896.62
726.097	30765.77
726.439	30581.15
726.782	30668.37
727.124	30694.36
727.465	30574.82
727.807	30482.62
728.149	30436.97
728.491	30256.86
728.833	30432.45
729.175	30400.13
729.516	30281.94
729.858	30225.22
730.199	30256.41
730.541	30145
730.882	30140.25
731.224	30189.29
731.565	29938.22
731.906	29977.09
732.248	30044.66
732.589	29827.04
732.93	29716.08
733.271	29657.78
733.612	29906.13
733.953	29727.38
734.294	29706.14
734.635	29513.6
734.976	29681.73
735.317	29419.59
735.658	29392.25
735.999	29451.01
736.339	29470.67
736.68	29431.12
737.021	29308.64
737.361	29272.03
737.702	29350.44
738.042	29253.27
738.383	29244.68
738.723	29218.24
739.063	29102.09
739.404	29072.94
739.744	28952.26
740.084	28960.4
740.424	28923.56
740.764	28790.46
741.104	28969.44
741.444	28894.86
741.784	28618.26
742.124	28753.17
742.464	28719.95
742.804	28662.55
743.143	28689.9
743.483	28565.15
743.823	28299.17
744.162	28385.04
744.502	28376.46
744.841	28358.15
745.181	28452.16
745.52	28278.61
745.86	28264.14
746.199	28138.5
746.538	28036.35
746.877	28194.32
747.216	28214.43
747.556	27962.68
747.895	28091.94
748.234	27899.18
748.573	27947.09
748.911	27874.55
749.25	27750.94
749.589	27650.83
749.928	27755.91
750.267	27858.05
750.605	27702.58
750.944	27542.35
751.283	27621.22
751.621	27641.79
751.96	27424.39
752.298	27372.87
752.636	27401.34
752.975	27299.65
753.313	27302.14
753.651	27437.72
753.989	27135.81
754.327	27153.66
754.666	26930.17
755.004	26992.99
755.342	27008.58
755.679	26964.29
756.017	26775.82
756.355	26831.19
756.693	26847.91
757.031	26772.21
757.368	26579.67
757.706	26562.27
758.044	26435.94
758.381	26566.11
758.719	26275.27
759.056	26390.75
759.394	26309.62
759.731	26111.88
760.068	26150.53
760.405	26059.68
760.743	26011.1
761.08	26078.89
761.417	25914.38
761.754	25854.72
762.091	25737.88
762.428	25693.59
762.765	25557.55
763.102	25639.13
763.438	25379.25
763.775	25296.54
764.112	25309.19
764.449	25459.47
764.785	25216.09
765.122	25016.09
765.458	24904.91
765.795	24940.16
766.131	24885.02
766.467	24830.79
766.804	24783.56
767.14	24563.45
767.476	24621.75
767.812	24440.29
768.148	24505.82
768.485	24351.03
768.821	24150.35
769.157	24232.84
769.492	24195.1
769.828	24129.11
770.164	23927.08
770.5	23905.84
770.836	23862
771.171	23671.72
771.507	23667.43
771.842	23449.81
772.178	23474.89
772.513	23449.36
772.849	23279.19
773.184	23216.14
773.519	23269.25
773.855	23057.28
774.19	23029.93
774.525	22920.1
774.86	22855.02
775.195	22863.16
775.53	22671.07
775.865	22586.33
776.2	22422.49
776.535	22308.37
776.87	22373.9
777.205	22295.26
777.539	22090.75
777.874	22151.54
778.209	21961.26
778.543	21935.95
778.878	21748.61
779.212	21808.04
779.547	21746.8
779.881	21685.33
780.215	21519.91
780.55	21552.91
780.884	21404.21
781.218	21257.1
781.552	21361.95
781.886	21178.23
782.22	21051.23
782.554	21065.92
782.888	20905.92
783.222	20739.82
783.556	20697.56
783.889	20669.77
784.223	20464.8
784.557	20432.03
784.89	20462.32
785.224	20424.12
785.557	20285.37
785.891	20218.25
786.224	20143.68
786.558	20172.83
786.891	19885.16
787.224	19937.81
787.557	19903.69
787.891	19802.22
788.224	19848.32
788.557	19851.71
788.89	19674.54
789.223	19687.87
789.556	19491.95
789.888	19530.14
790.221	19328.33
790.554	19343.47
790.887	19202.91
791.219	19097.38
791.552	19173.31
791.884	19026.42
792.217	18908.68
792.549	18949.36
792.882	18760.66
793.214	18682.25
793.546	18704.62
793.879	18698.07
794.211	18375.82
794.543	18636.83
794.875	18418.98
795.207	18430.73
795.539	18273.67
795.871	18322.94
796.203	18154.58
796.535	18143.05
796.867	18024.64
797.198	18001.36
797.53	17905.09
797.862	17821.93
798.193	17848.37
798.525	17706
798.856	17763.63
799.188	17594.14
799.519	17581.49
799.85	17454.94
800.182	17484.54
800.513	17482.28
800.844	17297.65
801.175	17302.62
801.506	17471.89
801.837	17282.96
802.168	17203.64
802.499	17200.93
802.83	17092.01
803.161	17038.68
803.491	17065.57
803.822	17005
804.153	16918.23
804.483	16788.51
804.814	16707.39
805.145	16652.25
805.475	16629.65
805.805	16563.66
806.136	16551.68
806.466	16590.33
806.796	16463.78
807.126	16391.24
807.457	16364.34
807.787	16360.28
808.117	16285.02
808.447	16217.45
808.777	16334.74
809.107	16108.53
809.436	16057.69
809.766	16043.45
810.096	16072.83
810.426	15955.09
810.755	15993.73
811.085	15938.59
811.414	15947.18
811.744	15738.6
812.073	15836.45
812.403	15785.83
812.732	15653.85
813.061	15670.8
813.39	15535.44
813.719	15504.03
814.049	15623.35
814.378	15506.74
814.707	15395.56
815.036	15409.11
815.365	15391.94
815.693	15173.19
816.022	15263.36
816.351	15218.61
816.68	15061.33
817.008	15118.73
817.337	15002.35
817.665	14925.06
817.994	15046.64
818.322	15023.14
818.651	14912.18
818.979	14791.96
819.307	14906.08
819.636	14847.77
819.964	14735.46
820.292	14857.94
820.62	14774.56
820.948	14650.04
821.276	14748.34
821.604	14676.25
821.932	14757.38
822.259	14607.33
822.587	14609.14
822.915	14691.39
823.243	14724.61
823.57	14698.4
823.898	14690.26
824.225	14597.38
824.553	14630.15
824.88	14618.4
825.207	14673.54
825.535	14638.51
825.862	14664.95
826.189	14661.79
826.516	14716.25
826.843	14748.12
827.17	14626.31
827.497	14698.85
827.824	14691.39
828.151	14696.36
828.478	14647.33
828.805	14714.67
829.131	14513.54
829.458	14580.21
829.785	14587.67
830.111	14652.07
830.438	14662.24
830.764	14593.99
831.09	14585.41
831.417	14518.52
831.743	14556.71
832.069	14599.19
832.395	14527.1
832.722	14633.32
833.048	14475.35
833.374	14474.9
833.7	14370.05
834.026	14548.12
834.351	14441.68
834.677	14477.84
835.003	14485.07
835.329	14425.64
835.654	14429.71
835.98	14343.61
836.306	14402.36
836.631	14328.24
836.956	14402.59
837.282	14362.59
837.607	14234.68
837.932	14260.22
838.258	14265.42
838.583	14175.7
838.908	14149.26
839.233	14168.24
839.558	14181.12
839.883	14077.4
840.208	14030.62
840.533	13978.87
840.858	14010.51
841.182	14003.05
841.507	13977.06
841.832	13931.41
842.156	13899.78
842.481	13893.9
842.805	13870.4
843.13	13853.9
843.454	13726.22
843.778	13699.1
844.103	13748.82
844.427	13711.08
844.751	13672.66
845.075	13643.29
845.399	13499.56
845.723	13469.05
846.047	13577.07
846.371	13454.36
846.695	13357.64
847.019	13263.18
847.343	13244.43
847.666	13190.19
847.99	13194.03
848.313	13174.15
848.637	13029.06
848.96	13015.51
849.284	12989.07
849.607	12889.41
849.931	12960.82
850.254	12779.35
850.577	12748.85
850.9	12638.11
851.223	12659.58
851.546	12549.3
851.869	12467.95
852.192	12523.09
852.515	12378.69
852.838	12349.08
853.161	12399.7
853.483	12361.96
853.806	12296.2
854.129	12298.01
854.451	12193.15
854.774	12124
855.096	12120.61
855.419	12066.6
855.741	11969.43
856.063	11941.64
856.385	11872.26
856.708	11898.7
857.03	11886.04
857.352	11868.42
857.674	11810.57
857.996	11758.59
858.318	11679.5
858.64	11693.28
858.961	11622.77
859.283	11610.8
859.605	11528.31
859.926	11553.4
860.248	11549.78
860.57	11505.94
860.891	11407.86
861.212	11472.49
861.534	11430.69
861.855	11341.88
862.176	11412.16
862.498	11407.41
862.819	11364.48
863.14	11330.58
863.461	11254.65
863.782	11201.54
864.103	11265.49
864.424	11281.99
864.745	11191.37
865.065	11172.84
865.386	11142.11
865.707	11096.69
866.027	11094.88
866.348	11100.53
866.668	11080.64
866.989	11067.76
867.309	10951.83
867.63	10985.95
867.95	11000.19
868.27	11016.46
868.59	10886.97
868.91	10937.82
869.23	10809.24
869.55	10831.83
869.87	10921.55
870.19	10813.3
870.51	10847.88
870.83	10858.5
871.15	10718.16
871.469	10806.52
871.789	10771.72
872.109	10781.89
872.428	10728.79
872.748	10792.06
873.067	10684.49
873.386	10676.58
873.706	10648.79
874.025	10640.88
874.344	10538.73
874.663	10619.86
874.982	10543.03
875.301	10492.18
875.62	10526.08
875.939	10584.83
876.258	10507.77
876.577	10508
876.896	10465.97
877.214	10442.01
877.533	10446.31
877.852	10392.98
878.17	10406.99
878.489	10354.56
878.807	10471.84
879.125	10384.61
879.444	10357.95
879.762	10304.16
880.08	10280.44
880.398	10275.01
880.716	10296.93
881.034	10192.75
881.352	10196.14
881.67	10219.19
881.988	10212.19
882.306	10164.05
882.624	10157.05
882.941	10072.08
883.259	10120.44
883.577	10085.86
883.894	10000.44
884.212	10026.43
884.529	9990.27
884.846	9977.62
885.164	9939.2
885.481	9969.26
885.798	9875.02
886.115	9802.26
886.432	9873.21
886.75	9799.77
887.067	9830.73
887.383	9763.84
887.7	9772.65
888.017	9702.15
888.334	9746.66
888.651	9771.75
888.967	9656.05
889.284	9593.22
889.6	9556.39
889.917	9538.99
890.233	9519.78
890.55	9460.12
890.866	9505.32
891.182	9462.15
891.498	9423.51
891.815	9404.07
892.131	9323.4
892.447	9300.57
892.763	9333.79
893.079	9308.03
893.395	9263.06
893.71	9238.2
894.026	9226.68
894.342	9167.02
894.657	9187.81
894.973	9128.83
895.289	9200.92
895.604	9162.95
895.92	9044.99
896.235	8996.85
896.55	8982.39
896.865	8969.96
897.181	8907.36
897.496	8945.1
897.811	8859.46
898.126	8882.05
898.441	8785.56
898.756	8755.28
899.071	8756.18
899.386	8814.03
899.7	8656.07
900.015	8698.78
900.33	8629.63
900.644	8600.48
900.959	8579.92
901.273	8588.28
901.588	8463.08
901.902	8473.48
902.216	8450.2
902.531	8400.03
902.845	8427.83
903.159	8329.3
903.473	8336.08
903.787	8310.09
904.101	8231.9
904.415	8207.27
904.729	8249.75
905.042	8135.18
905.356	8134.73
905.67	8083.88
905.984	8137.22
906.297	8105.8
906.611	7989.42
906.924	7975.64
907.237	7943.1
907.551	7884.79
907.864	7897
908.177	7868.75
908.491	7868.07
908.804	7814.51
909.117	7786.49
909.43	7729.99
909.743	7657
910.056	7678.02
910.368	7625.14
910.681	7589.43
910.994	7593.5
911.307	7523.22
911.619	7471.92
911.932	7482.09
912.244	7460.62
912.557	7391.25
912.869	7414.07
913.181	7356.9
913.494	7353.73
913.806	7281.19
914.118	7292.27
914.43	7244.13
914.742	7229.44
915.054	7179.5
915.366	7188.77
915.678	7110.35
915.99	7108.77
916.302	7011.82
916.613	7064.25
916.925	6940.64
917.236	6989.9
917.548	6950.81
917.859	6979.96
918.171	6873.52
918.482	6890.92
918.794	6795.33
919.105	6773.18
919.416	6777.7
919.727	6738.38
920.038	6733.86
920.349	6659.97
920.66	6648.22
920.971	6684.82
921.282	6618.61
921.593	6563.92
921.903	6535.45
922.214	6572.96
922.525	6472.63
922.835	6455
923.146	6478.05
923.456	6470.59
923.767	6374.78
924.077	6356.92
924.387	6361.67
924.697	6344.04
925.008	6310.37
925.318	6222.24
925.628	6234.44
925.938	6232.86
926.248	6195.12
926.558	6130.26
926.867	6142.47
927.177	6075.35
927.487	6057.72
927.796	6056.82
928.106	6068.12
928.416	6004.84
928.725	5951.06
929.034	5930.04
929.344	5917.84
929.653	5932.3
929.962	5905.64
930.271	5847.56
930.581	5857.5
930.89	5796.71
931.199	5758.29
931.508	5706.32
931.817	5708.13
932.125	5657.73
932.434	5655.02
932.743	5588.13
933.051	5606.43
933.36	5598.53
933.669	5568.02
933.977	5512.88
934.286	5534.35
934.594	5462.03
934.902	5395.37
935.21	5417.96
935.519	5419.77
935.827	5397.4
936.135	5389.72
936.443	5379.32
936.751	5227.69
937.059	5317.85
937.367	5288.02
937.674	5302.26
937.982	5260.45
938.29	5245.99
938.597	5252.55
938.905	5194.47
939.213	5139.78
939.52	5117.63
939.827	5134.81
940.135	5070.86
940.442	5086
940.749	5041.93
941.056	5083.51
941.363	4957.64
941.67	5005.77
941.977	4949.5
942.284	4926.45
942.591	4973.91
942.898	4902.05
943.205	4949.5
943.511	4836.06
943.818	4852.56
944.125	4848.49
944.431	4820.47
944.738	4835.83
945.044	4763.07
945.35	4746.34
945.657	4715.16
945.963	4693.46
946.269	4646.23
946.575	4654.6
946.881	4615.5
947.187	4640.13
947.493	4598.33
947.799	4580.02
948.105	4544.77
948.41	4538.89
948.716	4495.28
949.022	4529.4
949.327	4490.76
949.633	4446.69
949.938	4462.51
950.244	4501.83
950.549	4396.75
950.854	4361.5
951.16	4339.35
951.465	4315.62
951.77	4310.2
952.075	4274.04
952.38	4292.12
952.685	4276.3
952.99	4245.34
953.294	4241.5
953.599	4237.2
953.904	4152.24
954.209	4165.79
954.513	4138.22
954.818	4122.18
955.122	4147.72
955.426	4130.09
955.731	4075.63
956.035	4087.15
956.339	4043.31
956.643	4031.33
956.948	4019.36
957.252	3953.82
957.556	3962.86
957.86	3970.09
958.163	3957.44
958.467	3908.17
958.771	3933.03
959.075	3956.76
959.378	3929.64
959.682	3868.85
959.985	3811.68
960.289	3828.18
960.592	3811.23
960.896	3789.31
961.199	3800.83
961.502	3757.67
961.805	3752.02
962.108	3709.08
962.411	3720.38
962.714	3705.02
963.017	3725.81
963.32	3681.51
963.623	3662.53
963.926	3624.57
964.228	3638.35
964.531	3623.21
964.833	3622.31
965.136	3600.16
965.438	3562.65
965.741	3531.23
966.043	3528.07
966.345	3491.69
966.648	3480.39
966.95	3488.75
967.252	3477.9
967.554	3467.06
967.856	3441.29
968.158	3448.07
968.46	3415.08
968.761	3364.23
969.063	3375.31
969.365	3359.26
969.666	3338.47
969.968	3310.45
970.269	3306.83
970.571	3316.78
970.872	3273.16
971.174	3286.04
971.475	3269.77
971.776	3234.29
972.077	3209.21
972.378	3195.42
972.679	3259.15
972.98	3184.8
973.281	3207.63
973.582	3140.06
973.883	3147.52
974.183	3083.79
974.484	3097.12
974.785	3070
975.085	3067.74
975.386	3117.69
975.686	3069.1
975.986	3033.17
976.287	3033.85
976.587	3025.03
976.887	2989.55
977.187	2999.95
977.487	3002.44
977.787	2947.97
978.087	2956.11
978.387	2917.24
978.687	2932.15
978.987	2897.58
979.286	2911.36
979.586	2876.11
979.885	2857.58
980.185	2860.07
980.484	2872.72
980.784	2829.56
981.083	2798.37
981.382	2838.82
981.682	2826.62
981.981	2806.28
982.28	2792.5
982.579	2724.93
982.878	2775.55
983.177	2756.57
983.475	2751.14
983.774	2730.13
984.073	2692.16
984.372	2694.42
984.67	2696.68
984.969	2663.91
985.267	2674.08
985.566	2659.39
985.864	2600.41
986.162	2641.09
986.461	2611.94
986.759	2590.24
987.057	2607.42
987.355	2557.02
987.653	2590.69
987.951	2571.49
988.249	2510.7
988.547	2573.52
988.844	2526.97
989.142	2518.15
989.44	2472.51
989.737	2507.98
990.035	2475.22
990.332	2448.78
990.63	2455.1
990.927	2426.18
991.224	2386.18
991.521	2462.79
991.819	2381.21
992.116	2383.24
992.413	2394.99
992.71	2344.15
993.006	2392.06
993.303	2326.75
993.6	2344.83
993.897	2319.52
994.193	2328.33
994.49	2311.38
994.787	2300.53
995.083	2316.13
995.379	2297.37
995.676	2240.42
995.972	2253.53
996.268	2265.96
996.565	2247.88
996.861	2267.99
997.157	2246.07
997.453	2212.85
997.749	2164.49
998.044	2199.07
998.34	2162.23
998.636	2167.65
998.932	2141.21
999.227	2141.67
999.523	2145.51
999.818	2112.29
1000.114	2086.75
1000.409	2102.12
1000.704	2075.91
1001	2053.08
1001.295	2059.86
1001.59	2054.44
1001.885	2044.95
1002.18	2035.45
1002.475	2003.59
1002.77	1972.41
1003.065	2002.69
1003.359	1980.32
1003.654	1980.77
1003.949	1966.08
1004.243	1966.3
1004.538	1905.74
1004.832	1929.7
1005.127	1937.38
1005.421	1915.68
1005.715	1908.68
1006.009	1901.22
1006.304	1876.36
1006.598	1853.99
1006.892	1870.04
1007.186	1840.43
1007.48	1821.9
1007.773	1801.11
1008.067	1825.52
1008.361	1808.12
1008.655	1774.67
1008.948	1789.36
1009.242	1770.38
1009.535	1751.85
1009.829	1723.37
1010.122	1737.38
1010.415	1752.98
1010.708	1736.25
1011.001	1717.27
1011.295	1716.14
1011.588	1695.58
1011.881	1670.27
1012.173	1687.22
1012.466	1672.53
1012.759	1658.97
1013.052	1672.07
1013.344	1630.04
1013.637	1613.55
1013.93	1622.81
1014.222	1628.01
1014.514	1618.74
1014.807	1623.49
1015.099	1570.16
1015.391	1577.16
1015.683	1567.9
1015.976	1550.27
1016.268	1549.59
1016.56	1536.03
1016.851	1503.27
1017.143	1508.69
1017.435	1529.03
1017.727	1494.23
1018.018	1493.55
1018.31	1467.79
1018.602	1475.02
1018.893	1458.75
1019.185	1488.12
1019.476	1463.04
1019.767	1426.66
1020.058	1429.14
1020.35	1405.87
1020.641	1411.97
1020.932	1416.04
1021.223	1383.95
1021.514	1401.8
1021.804	1390.95
1022.095	1371.52
1022.386	1349.82
1022.677	1352.54
1022.967	1375.81
1023.258	1342.14
1023.548	1299.88
1023.839	1287.23
1024.129	1318.19
1024.419	1306.66
1024.709	1282.25
1025	1258.75
1025.29	1268.92
1025.58	1239.09
1025.87	1250.16
1026.16	1240.45
1026.449	1250.16
1026.739	1235.7
1027.029	1228.92
1027.319	1231.41
1027.608	1223.05
1027.898	1195.48
1028.187	1190.51
1028.477	1205.42
1028.766	1165.87
1029.055	1157.74
1029.344	1163.39
1029.634	1173.1
1029.923	1150.73
1030.212	1145.53
1030.501	1125.65
1030.79	1120.68
1031.078	1107.12
1031.367	1117.74
1031.656	1101.02
1031.945	1091.98
1032.233	1073.67
1032.522	1097.17
1032.81	1075.71
1033.099	1047.01
1033.387	1050.85
1033.675	1061.24
1033.963	1047.46
1034.251	1049.72
1034.54	1040.45
1034.828	1034.8
1035.116	1019.66
1035.403	1021.47
1035.691	1009.49
1035.979	997.74
1036.267	997.52
1036.554	973.11
1036.842	984.18
1037.129	964.52
1037.417	989.61
1037.704	976.73
1037.992	957.74
1038.279	960.45
1038.566	946.9
1038.853	946.9
1039.14	946.9
