Data from hue_330_FLMS001491_68.txt Node
Date: Mon Feb 06 15:45:44 GMT 2017
User: dcchb
Spectrometer: FLMS00149
Trigger mode: 0
Integration Time (sec): 2.000000E-2
Scans to average: 10
Electric dark correction enabled: true
Nonlinearity correction enabled: false
Boxcar width: 0
XAxis mode: Wavelengths
Number of Pixels in Spectrum: 2048
>>>>>Begin Spectral Data<<<<<
341.393	2.22
341.776	2.22
342.16	2.22
342.543	-55.63
342.927	-73.94
343.31	-80.49
343.693	-45.69
344.077	-86.14
344.46	-49.53
344.843	-41.4
345.226	-59.48
345.61	-39.59
345.993	-15.86
346.376	-12.02
346.759	16
347.142	26.4
347.525	49
347.908	49.45
348.291	71.14
348.674	111.59
349.057	106.62
349.44	129.67
349.823	128.09
350.206	140.74
350.588	186.39
350.971	213.74
351.354	220.52
351.737	230.01
352.119	246.28
352.502	255.77
352.884	265.49
353.267	282.66
353.65	277.01
354.032	286.5
354.414	308.42
354.797	300.97
355.179	311.36
355.562	328.31
355.944	334.86
356.326	315.43
356.709	318.59
357.091	327.86
357.473	330.57
357.855	336.45
358.238	334.64
358.62	339.61
359.002	333.73
359.384	310.68
359.766	318.37
360.148	345.94
360.53	335.32
360.912	325.82
361.294	324.24
361.676	314.75
362.057	322.21
362.439	334.64
362.821	324.92
363.203	305.49
363.584	319.05
363.966	323.11
364.348	331.25
364.729	297.35
365.111	307.97
365.493	314.3
365.874	330.57
366.256	305.71
366.637	313.62
367.019	321.31
367.4	317.69
367.781	286.96
368.163	306.39
368.544	331.7
368.925	321.53
369.306	303.45
369.688	317.69
370.069	288.54
370.45	294.64
370.831	296.9
371.212	320.63
371.593	295.54
371.974	313.4
372.355	310.46
372.736	310.91
373.117	289.22
373.498	328.31
373.879	307.52
374.26	309.78
374.641	311.36
375.021	318.82
375.402	309.78
375.783	286.28
376.163	286.5
376.544	295.54
376.925	320.4
377.305	310.23
377.686	326.5
378.066	319.5
378.447	337.12
378.827	320.18
379.208	313.17
379.588	305.94
379.968	338.03
380.349	324.24
380.729	330.12
381.109	305.03
381.489	313.4
381.87	315.66
382.25	328.76
382.63	344.13
383.01	336.9
383.39	333.06
383.77	332.15
384.15	324.24
384.53	340.51
384.91	335.09
385.29	375.77
385.67	344.13
386.049	332.83
386.429	341.64
386.809	336.9
387.189	330.8
387.568	335.32
387.948	355.65
388.328	333.28
388.707	345.49
389.087	345.03
389.466	345.71
389.846	334.41
390.225	352.49
390.605	340.06
390.984	381.42
391.363	359.72
391.743	371.7
392.122	367.18
392.501	394.52
392.881	362.66
393.26	366.73
393.639	359.27
394.018	363.34
394.397	376.44
394.776	373.96
395.155	361.08
395.534	363.56
395.913	370.57
396.292	364.47
396.671	394.3
397.05	373.06
397.429	367.63
397.808	377.12
398.186	381.19
398.565	398.37
398.944	392.94
399.323	397.69
399.701	386.39
400.08	369.21
400.458	369.44
400.837	395.88
401.215	385.94
401.594	392.72
401.972	376.44
402.351	392.94
402.729	389.78
403.107	390.68
403.486	400.4
403.864	395.2
404.242	421.42
404.62	403.79
404.999	405.82
405.377	405.6
405.755	430.68
406.133	420.29
406.511	412.15
406.889	426.16
407.267	430.68
407.645	436.78
408.023	420.51
408.401	410.57
408.779	435.43
409.156	432.94
409.534	465.48
409.912	419.16
410.29	454.63
410.667	442.66
411.045	465.71
411.422	468.87
411.8	461.19
412.178	477.23
412.555	477.23
412.933	486.5
413.31	491.02
413.687	507.51
414.065	508.64
414.442	502.09
414.819	532.6
415.197	524.24
415.574	529.66
415.951	538.47
416.328	530.79
416.705	535.76
417.082	558.59
417.46	529.44
417.837	552.94
418.214	557.68
418.591	544.58
418.967	559.72
419.344	582.09
419.721	588.19
420.098	602.43
420.475	580.96
420.852	583.67
421.228	612.37
421.605	589.55
421.982	608.3
422.358	615.53
422.735	627.96
423.111	601.3
423.488	645.14
423.864	626.83
424.241	656.21
424.617	634.74
424.994	667.74
425.37	665.48
425.746	646.27
426.123	673.84
426.499	662.99
426.875	689.88
427.251	688.75
427.627	701.41
428.003	704.8
428.379	715.65
428.756	714.29
429.132	714.97
429.507	732.14
429.883	723.1
430.259	743.67
430.635	741.63
431.011	772.82
431.387	754.51
431.763	770.33
432.138	801.52
432.514	783.89
432.89	773.72
433.265	840.39
433.641	804.23
434.016	818.69
434.392	828.18
434.767	839.48
435.143	834.96
435.518	835.19
435.894	860.05
436.269	894.4
436.644	879.26
437.02	881.97
437.395	886.49
437.77	909.99
438.145	925.36
438.52	931.68
438.895	925.13
439.271	906.15
439.646	946.37
440.021	940.27
440.395	961.51
440.77	927.84
441.145	953.38
441.52	940.5
441.895	964.45
442.27	968.29
442.645	973.94
443.019	961.74
443.394	963.55
443.769	986.37
444.143	996.77
444.518	1016.2
444.892	994.51
445.267	1002.64
445.641	1034.28
446.016	995.64
446.39	1001.51
446.764	1013.72
447.139	1027.05
447.513	1018.46
447.887	1034.28
448.262	1026.6
448.636	1014.39
449.01	1050.78
449.384	1040.83
449.758	1051.46
450.132	1043.09
450.506	1075.64
450.88	1054.39
451.254	1058.46
451.628	1060.04
452.002	1100.72
452.376	1099.82
452.75	1094.84
453.123	1105.92
453.497	1097.78
453.871	1112.7
454.244	1149.08
454.618	1131
454.992	1125.13
455.365	1135.07
455.739	1172.58
456.112	1163.99
456.486	1206.25
456.859	1196.31
457.232	1225.46
457.606	1199.25
457.979	1195.41
458.352	1253.26
458.725	1205.8
459.099	1224.56
459.472	1249.19
459.845	1258.91
460.218	1259.81
460.591	1262.07
460.964	1299.81
461.337	1305.46
461.71	1311.34
462.083	1344.78
462.456	1312.24
462.829	1346.14
463.201	1323.99
463.574	1326.02
463.947	1369.41
464.32	1384.33
464.692	1380.49
465.065	1405.34
465.438	1427.72
465.81	1443.31
466.183	1412.8
466.555	1473.59
466.928	1469.07
467.3	1482.18
467.672	1473.37
468.045	1501.16
468.417	1532.12
468.789	1501.16
469.161	1552.23
469.534	1526.25
469.906	1574.61
470.278	1574.83
470.65	1599.92
471.022	1631.1
471.394	1622.97
471.766	1642.63
472.138	1663.87
472.51	1681.5
472.882	1714.94
473.253	1689.63
473.625	1739.57
473.997	1777.54
474.369	1770.53
474.74	1805.79
475.112	1821.83
475.484	1849.63
475.855	1854.15
476.227	1883.3
476.598	1855.5
476.97	1879.46
477.341	1983.63
477.713	1933.92
478.084	1994.71
478.455	2021.6
478.827	2002.16
479.198	2065.44
479.569	2075.61
479.94	2134.36
480.311	2119.45
480.682	2181.37
481.053	2197.87
481.424	2224.98
481.795	2255.94
482.166	2259.56
482.537	2325.32
482.908	2330.97
483.279	2355.15
483.65	2375.04
484.021	2420.23
484.391	2419.33
484.762	2468.14
485.133	2464.98
485.503	2511.98
485.874	2540.23
486.244	2537.29
486.615	2591.53
486.985	2594.24
487.356	2678.53
487.726	2678.98
488.097	2717.85
488.467	2735.03
488.837	2734.8
489.207	2792.88
489.578	2831.3
489.948	2863.16
490.318	2893.21
490.688	2885.76
491.058	2914.68
491.428	2934.34
491.798	2975.25
492.168	3030.16
492.538	3028.58
492.908	3056.6
493.278	3093.66
493.648	3110.84
494.017	3122.36
494.387	3165.07
494.757	3188.12
495.126	3162.59
495.496	3212.75
495.866	3243.94
496.235	3244.39
496.605	3280.32
496.974	3286.42
497.344	3321.9
497.713	3350.83
498.082	3333.2
498.452	3402.81
498.821	3426.99
499.19	3391.96
499.559	3398.29
499.928	3438.51
500.298	3471.28
500.667	3516.93
501.036	3482.35
501.405	3495.68
501.774	3503.59
502.143	3502.46
502.512	3560.54
502.88	3561.9
503.249	3576.81
503.618	3548.56
503.987	3601.9
504.356	3635.12
504.724	3620.43
505.093	3636.02
505.462	3621.78
505.83	3656.36
506.199	3690.03
506.567	3716.02
506.936	3708.56
507.304	3749.01
507.672	3769.35
508.041	3761.44
508.409	3762.34
508.777	3812.51
509.145	3811.38
509.514	3796.47
509.882	3783.59
510.25	3830.14
510.618	3867.65
510.986	3862.45
511.354	3833.3
511.722	3911.49
512.09	3917.37
512.458	3885.96
512.826	3938.39
513.193	3912.85
513.561	3939.52
513.929	3967.99
514.297	3962.57
514.664	3986.07
515.032	3955.33
515.4	4010.93
515.767	4029.68
516.135	4053.18
516.502	4008.67
516.869	4049.79
517.237	4062.45
517.604	4053.41
517.972	4064.94
518.339	4094.54
518.706	4084.6
519.073	4130.7
519.44	4092.05
519.808	4173.86
520.175	4113.07
520.542	4217.47
520.909	4186.29
521.276	4177.02
521.643	4217.02
522.009	4216.57
522.376	4218.15
522.743	4258.38
523.11	4297.25
523.477	4310.35
523.843	4318.26
524.21	4328.66
524.577	4365.94
524.943	4389.22
525.31	4341.76
525.676	4408.88
526.043	4446.62
526.409	4461.31
526.776	4490.24
527.142	4528.88
527.508	4560.52
527.874	4533.85
528.241	4584.24
528.607	4504.47
528.973	4578.14
529.339	4608.88
529.705	4631.25
530.071	4706.27
530.437	4645.26
530.803	4697.46
531.169	4765.26
531.535	4688.65
531.901	4784.24
532.267	4736.78
532.632	4771.36
532.998	4807.51
533.364	4799.38
533.73	4822.43
534.095	4831.47
534.461	4858.36
534.826	4930.9
535.192	4933.61
535.557	4973.61
535.923	4942.88
536.288	5002.09
536.653	5035.76
537.019	5001.86
537.384	4988.53
537.749	5087.51
538.114	5064.01
538.479	5088.86
538.845	5150.78
539.21	5096.09
539.575	5144.23
539.94	5148.75
540.305	5241.4
540.67	5160.05
541.034	5267.39
541.399	5265.58
541.764	5289.31
542.129	5267.16
542.494	5299.48
542.858	5345.35
543.223	5336.77
543.587	5331.34
543.952	5404.79
544.316	5431.45
544.681	5427.39
545.045	5405.24
545.41	5447.05
545.774	5497.89
546.138	5554.84
546.503	5549.19
546.867	5525.24
547.231	5606.59
547.595	5594.61
547.959	5605.01
548.324	5591.9
548.688	5648.17
549.052	5663.31
549.416	5673.25
549.779	5691.56
550.143	5720.26
550.507	5795.96
550.871	5763.42
551.235	5754.83
551.599	5819.24
551.962	5796.64
552.326	5829.63
552.689	5828.73
553.053	5796.87
553.417	5853.14
553.78	5873.25
554.143	5888.16
554.507	5933.36
554.87	5938.11
555.234	5947.6
555.597	5954.83
555.96	5945.79
556.323	5960.7
556.686	5978.33
557.05	6023.3
557.413	6084.32
557.776	6097.42
558.139	6134.49
558.502	6108.95
558.865	6115.5
559.228	6210.19
559.59	6265.33
559.953	6176.74
560.316	6288.38
560.679	6222.17
561.041	6293.8
561.404	6277.31
561.767	6325.89
562.129	6324.31
562.492	6347.14
562.854	6308.72
563.217	6340.36
563.579	6384.65
563.941	6414.25
564.304	6457.19
564.666	6543.97
565.028	6485.44
565.39	6508.94
565.753	6569.05
566.115	6581.03
566.477	6591.65
566.839	6586.45
567.201	6639.56
567.563	6625.32
567.925	6669.84
568.287	6666.9
568.648	6679.33
569.01	6754.13
569.372	6825.31
569.734	6803.62
570.095	6783.28
570.457	6805.88
570.819	6876.61
571.18	6873.68
571.542	6965.65
571.903	6969.04
572.265	7029.6
572.626	7102.82
572.987	7077.96
573.349	7082.03
573.71	7219.88
574.071	7183.27
574.432	7236.38
574.794	7327
575.155	7286.32
575.516	7404.28
575.877	7376.26
576.238	7529.03
576.599	7589.14
576.96	7633.88
577.32	7671.85
577.681	7776.93
578.042	7851.73
578.403	7866.87
578.763	8061.89
579.124	8088.78
579.485	8155.45
579.845	8220.08
580.206	8379.4
580.566	8432.96
580.927	8581.88
581.287	8717.47
581.648	8761.31
582.008	8934.41
582.368	9014.64
582.728	9233.16
583.089	9319.03
583.449	9398.81
583.809	9632.7
584.169	9861.85
584.529	9959.92
584.889	10167.83
585.249	10295.73
585.609	10482.62
585.969	10783.85
586.329	10885.77
586.688	11126.67
587.048	11244.63
587.408	11500.45
587.768	11616.83
588.127	11889.81
588.487	12125.29
588.846	12427.88
589.206	12649.12
589.565	12851.82
589.925	13111.93
590.284	13356.22
590.643	13634.85
591.003	13892.93
591.362	14194.39
591.721	14417.21
592.08	14653.13
592.44	14964.31
592.799	15278.65
593.158	15502.83
593.517	15799.54
593.876	16037.05
594.235	16335.57
594.593	16637.26
594.952	16939.85
595.311	17218.49
595.67	17555.43
596.029	17867.74
596.387	18200.83
596.746	18482.86
597.104	18672.46
597.463	18942.06
597.822	19333.91
598.18	19516.96
598.538	19888.02
598.897	20195.58
599.255	20297.05
599.613	20901.1
599.972	20985.17
600.33	21285.05
600.688	21562.33
601.046	21807.75
601.404	22055.87
601.762	22444.11
602.12	22795.52
602.478	23015.17
602.836	23286.35
603.194	23451.32
603.552	23734.25
603.91	23961.81
604.268	24332.2
604.625	24515.02
604.983	24774.67
605.341	24848.57
605.698	25320.42
606.056	25517.7
606.413	25695.1
606.771	26115.66
607.128	26239.72
607.485	26415.31
607.843	26598.13
608.2	27003.99
608.557	27298.67
608.914	27364.21
609.272	27740.92
609.629	27918.77
609.986	28205.54
610.343	28275.15
610.7	28724.85
611.057	28764.4
611.414	28937.5
611.771	29146.99
612.127	29444.61
612.484	29656.35
612.841	29819.06
613.198	29883.69
613.554	30050.24
613.911	30381.53
614.267	30400.06
614.624	30653.39
614.98	30933.61
615.337	31106.26
615.693	31242.75
616.05	31299.47
616.406	31666.24
616.762	31651.1
617.118	31800.93
617.475	31986.46
617.831	32331.08
618.187	32371.54
618.543	32436.84
618.899	32755.93
619.255	32770.4
619.611	32859.21
619.967	33054.46
620.323	33318.63
620.678	33278.18
621.034	33289.25
621.39	33351.17
621.746	33335.8
622.101	33969.91
622.457	33679.75
622.812	33815.79
623.168	34051.72
623.523	34147.76
623.879	34336.46
624.234	34085.84
624.589	34346.85
624.945	34462.1
625.3	34609.9
625.655	34601.76
626.01	34750.91
626.365	34746.39
626.72	34866.84
627.075	34965.14
627.43	34952.48
627.785	34943.45
628.14	35128.98
628.495	35125.81
628.85	35185.25
629.205	35062.54
629.559	35319.48
629.914	35243.32
630.269	35416.43
630.623	35416.43
630.978	35364
631.332	35569.87
631.687	35602.64
632.041	35363.32
632.396	35603.77
632.75	35401.51
633.104	35646.25
633.459	35346.82
633.813	35513.15
634.167	35494.17
634.521	35565.8
634.875	35528.06
635.229	35543.88
635.583	35651.22
635.937	35525.58
636.291	35477.67
636.645	35641.51
636.999	35614.39
637.352	35672.92
637.706	35659.81
638.06	35664.56
638.413	35708.62
638.767	35618
639.121	35570.77
639.474	35541.62
639.828	35494.84
640.181	35622.07
640.534	35696.19
640.888	35469.76
641.241	35414.39
641.594	35566.93
641.947	35563.54
642.301	35504.79
642.654	35571.9
643.007	35586.37
643.36	35534.39
643.713	35484.45
644.066	35591.56
644.419	35476.31
644.771	35197
645.124	35041.75
645.477	34872.94
645.83	34788.65
646.182	34612.83
646.535	34629.33
646.888	34482.44
647.24	34328.32
647.593	34631.14
647.945	34473.4
648.298	34448.77
648.65	34395.21
649.002	34324.7
649.355	34460.97
649.707	34371.26
650.059	34656.67
650.411	34835.65
650.763	35016.21
651.115	35251.69
651.467	35167.62
651.819	35117.45
652.171	35068.64
652.523	35203.1
652.875	35223.66
653.227	34937.8
653.578	35185.25
653.93	35089.66
654.282	34984.8
654.633	34927.63
654.985	34964.69
655.337	35042.65
655.688	35010.56
656.039	35079.04
656.391	34875.42
656.742	34828.87
657.094	34927.4
657.445	35054.4
657.796	34981.41
658.147	34967.17
658.498	34921.98
658.849	35111.58
659.2	34901.86
659.551	34763.79
659.902	34945.48
660.253	34908.64
660.604	34940.06
660.955	34757.69
661.306	34872.94
661.656	34750
662.007	34932.37
662.358	34764.24
662.708	34694.41
663.059	34620.06
663.409	34543.46
663.76	34806.73
664.11	34858.25
664.461	34780.51
664.811	34718.82
665.161	34735.32
665.511	34748.65
665.862	34893.96
666.212	34987.51
666.562	34863.67
666.912	34815.09
667.262	34747.52
667.612	34685.83
667.962	34790.46
668.312	34661.65
668.662	34854.41
669.011	34819.38
669.361	34739.61
669.711	34784.81
670.06	34500.52
670.41	34645.83
670.76	34572.16
671.109	34674.07
671.459	34665.49
671.808	34616.45
672.157	34647.41
672.507	34312.95
672.856	34469.11
673.205	34517.24
673.554	34612.15
673.904	34397.7
674.253	34671.81
674.602	34429.56
674.951	33964.26
675.3	33808.11
675.649	34313.41
675.998	34381.88
676.346	34395.44
676.695	34505.72
677.044	34035.45
677.393	34322.22
677.741	34355.44
678.09	34240.64
678.438	34145.73
678.787	34289.68
679.135	34283.58
679.484	34164.94
679.832	34245.84
680.181	34042.45
680.529	34079.51
680.877	33994.54
681.225	34010.81
681.573	34068.21
681.922	33852.17
682.27	33742.8
682.618	33810.59
682.966	33718.39
683.314	33857.6
683.661	33754.1
684.009	33564.5
684.357	33577.61
684.705	33475.46
685.053	33578.74
685.4	33383.71
685.748	33289.48
686.095	33343.94
686.443	33159.54
686.79	33108.69
687.138	33190.27
687.485	33265.07
687.832	33093.1
688.18	33068.92
688.527	32904.4
688.874	32858.75
689.221	32743.05
689.568	32800
689.915	32762.49
690.262	32779.66
690.609	32694.69
690.956	32517.07
691.303	32466.9
691.65	32328.83
691.997	32431.42
692.344	32217.19
692.69	32030.98
693.037	32069.62
693.383	31887.71
693.73	32120.47
694.077	31977.87
694.423	31865.79
694.769	31802.96
695.116	31682.51
695.462	31668.5
695.808	31546.92
696.155	31619.01
696.501	31277.1
696.847	31377.66
697.193	31106.03
697.539	31156.65
697.885	30882.76
698.231	30942.42
698.577	30957.79
698.923	30853.84
699.269	30730.22
699.614	30553.96
699.96	30486.16
700.306	30525.71
700.651	30375.88
700.997	30377.92
701.342	30203.46
701.688	30203.01
702.033	30178.37
702.379	30127.3
702.724	30126.85
703.069	30111.03
703.415	29778.84
703.76	29892.73
704.105	29704.49
704.45	29754.43
704.795	29469.92
705.14	29504.49
705.485	29494.32
705.83	29345.17
706.175	29292.29
706.52	29374.55
706.865	29256.36
707.209	29099.08
707.554	29093.2
707.899	29137.95
708.243	28973.66
708.588	28848.69
708.932	28698.41
709.277	28685.53
709.621	28697.73
709.966	28446.44
710.31	28598.3
710.654	28308.37
710.998	28373.9
711.342	28463.39
711.687	28332.55
712.031	28188.59
712.375	28086.22
712.719	28139.1
713.063	27957.41
713.407	28137.07
713.75	27958.77
714.094	28075.15
714.438	27878.77
714.782	27853.01
715.125	27730.08
715.469	27795.38
715.812	27544.77
716.156	27479.01
716.499	27547.48
716.843	27602.62
717.186	27391.78
717.53	27568.27
717.873	27425.23
718.216	27369.86
718.559	27324.66
718.902	27073.37
719.246	27150.2
719.589	27110.66
719.932	26976.2
720.275	27007.16
720.617	27088.74
720.96	26873.15
721.303	26934.39
721.646	26903.43
721.989	26695.98
722.331	26707.05
722.674	26655.3
723.016	26722.64
723.359	26668.18
723.701	26629.99
724.044	26540.5
724.386	26387.06
724.729	26460.28
725.071	26368.53
725.413	26354.74
725.755	26285.59
726.097	26283.56
726.439	26082.66
726.782	26156.56
727.124	26194.75
727.465	26163.34
727.807	26089.89
728.149	26029.78
728.491	25996.11
728.833	25967.18
729.175	25903.46
729.516	25965.83
729.858	25893.06
730.199	25752.5
730.541	25776.46
730.882	25760.64
731.224	25733.07
731.565	25580.75
731.906	25605.16
732.248	25681.32
732.589	25526.29
732.93	25436.35
733.271	25532.17
733.612	25431.61
733.953	25436.12
734.294	25442.23
734.635	25302.57
734.976	25293.98
735.317	25195.45
735.658	25220.99
735.999	25181.67
736.339	25123.59
736.68	25049.47
737.021	25139.18
737.361	24930.38
737.702	25107.55
738.042	25037.49
738.383	24893.77
738.723	24886.08
739.063	24882.47
739.404	24850.83
739.744	24823.94
740.084	24686.99
740.424	24703.26
740.764	24682.7
741.104	24688.35
741.444	24581.23
741.784	24606.32
742.124	24554.57
742.464	24516.15
742.804	24544.4
743.143	24309.6
743.483	24408.13
743.823	24383.5
744.162	24287
744.502	24255.59
744.841	24221.02
745.181	24215.14
745.52	24164.29
745.86	24185.99
746.199	24078.42
746.538	24198.64
746.877	24251.98
747.216	24144.18
747.556	24075.48
747.895	24042.04
748.234	24000.91
748.573	23998.87
748.911	23793.23
749.25	23866.9
749.589	23793.23
749.928	23771.54
750.267	23757.98
750.605	23739.45
750.944	23646.34
751.283	23579.45
751.621	23640.92
751.96	23601.82
752.298	23361.38
752.636	23485.44
752.975	23257.2
753.313	23216.3
753.651	23366.8
753.989	23154.15
754.327	23180.37
754.666	23058.56
755.004	23114.6
755.342	23011.56
755.679	23023.53
756.017	22931.56
756.355	22988.51
756.693	22779.7
757.031	22843.65
757.368	22696.76
757.706	22726.14
758.044	22601.4
758.381	22574.73
758.719	22496.99
759.056	22555.3
759.394	22452.93
759.731	22282.99
760.068	22283.21
760.405	22318.24
760.743	22143.56
761.08	22145.59
761.417	22088.87
761.754	21915.54
762.091	21847.07
762.428	21840.51
762.765	21749.67
763.102	21721.65
763.438	21686.62
763.775	21591.71
764.112	21610.01
764.449	21563.91
764.785	21483.91
765.122	21428.32
765.458	21226.07
765.795	21230.13
766.131	21125.73
766.467	21134.77
766.804	20940.65
767.14	20937.03
767.476	20917.83
767.812	20778.62
768.148	20852.06
768.485	20715.57
768.821	20617.95
769.157	20582.69
769.492	20530.27
769.828	20513.54
770.164	20387.67
770.5	20300.21
770.836	20194.45
771.171	20149.71
771.507	20139.54
771.842	19925.08
772.178	20020
772.513	20024.74
772.849	19876.27
773.184	19777.74
773.519	19758.76
773.855	19598.09
774.19	19569.39
774.525	19567.13
774.86	19467.47
775.195	19426.57
775.53	19328.71
775.865	19248.94
776.2	19138.66
776.535	18906.13
776.87	19091.89
777.205	18996.07
777.539	18848.5
777.874	18854.15
778.209	18733.48
778.543	18660.94
778.878	18556.98
779.212	18521.5
779.547	18479.47
779.881	18492.58
780.215	18360.15
780.55	18421.62
780.884	18258.69
781.218	18206.26
781.552	18221.85
781.886	18150.89
782.22	18025.7
782.554	17897.79
782.888	17798.13
783.222	17721.3
783.556	17654.63
783.889	17625.26
784.223	17495.32
784.557	17358.82
784.89	17424.36
785.224	17387.07
785.557	17245.61
785.891	17227.98
786.224	17201.54
786.558	17172.39
786.891	17042
787.224	16989.57
787.557	16893.52
787.891	16972.62
788.224	16821.89
788.557	16786.18
788.89	16734.43
789.223	16695.34
789.556	16522.69
789.888	16598.39
790.221	16543.48
790.554	16395.23
790.887	16369.7
791.219	16320.66
791.552	16285.18
791.884	16241.56
792.217	16227.1
792.549	16086.09
792.882	15974.45
793.214	15938.75
793.546	15982.14
793.879	15843.61
794.211	15806.32
794.543	15832.76
794.875	15755.48
795.207	15769.71
795.539	15671.86
795.871	15700.11
796.203	15528.14
796.535	15407.91
796.867	15424.18
797.198	15340.12
797.53	15336.5
797.862	15174.25
798.193	15233.91
798.525	15184.64
798.856	15157.3
799.188	15022.61
799.519	14917.53
799.85	14862.17
800.182	14875.5
800.513	14819.45
800.844	14779.23
801.175	14839.12
801.506	14783.75
801.837	14688.16
802.168	14723.64
802.499	14643.64
802.83	14573.13
803.161	14537.65
803.491	14462.63
803.822	14470.99
804.153	14426.47
804.483	14292.46
804.814	14266.7
805.145	14152.81
805.475	14201.17
805.805	14193.03
806.136	14132.69
806.466	14105.12
806.796	14213.37
807.126	13993.71
807.457	13911.23
807.787	13984.22
808.117	13858.35
808.447	13858.35
808.777	13853.15
809.107	13842.08
809.436	13786.49
809.766	13735.19
810.096	13624.68
810.426	13638.24
810.755	13694.74
811.085	13642.08
811.414	13597.34
811.744	13494.07
812.073	13504.24
812.403	13417.23
812.732	13356.89
813.061	13390.79
813.39	13312.38
813.719	13292.94
814.049	13357.8
814.378	13245.94
814.707	13136.34
815.036	13132.27
815.365	13150.12
815.693	12976.34
816.022	13050.01
816.351	12962.78
816.68	12935.21
817.008	12966.4
817.337	12856.57
817.665	12801.43
817.994	12823.8
818.322	12769.57
818.651	12654.77
818.979	12642.79
819.307	12781.99
819.636	12665.16
819.964	12579.74
820.292	12662.22
820.62	12654.09
820.948	12586.52
821.276	12607.08
821.604	12584.94
821.932	12641.66
822.259	12583.13
822.587	12556.01
822.915	12470.59
823.243	12547.42
823.57	12535.45
823.898	12492.74
824.225	12473.3
824.553	12496.35
824.88	12499.97
825.207	12575.67
825.535	12483.02
825.862	12567.99
826.189	12434.21
826.516	12521.44
826.843	12496.35
827.17	12483.92
827.497	12556.92
827.824	12513.3
828.151	12517.14
828.478	12502.68
828.805	12500.87
829.131	12462
829.458	12390.14
829.785	12401.44
830.111	12502.91
830.438	12512.62
830.764	12505.17
831.09	12396.02
831.417	12391.95
831.743	12478.05
832.069	12430.82
832.395	12381.78
832.722	12366.41
833.048	12434.66
833.374	12412.74
833.7	12336.81
834.026	12375.9
834.351	12430.37
834.677	12318.96
835.003	12308.56
835.329	12396.24
835.654	12302.46
835.98	12313.08
836.306	12314.66
836.631	12213.87
836.956	12231.5
837.282	12258.84
837.607	12231.5
837.932	12150.37
838.258	12084.39
838.583	12173.65
838.908	12028.57
839.233	12143.37
839.558	12078.06
839.883	12015.46
840.208	12008.46
840.533	12024.27
840.858	11916.71
841.182	11962.13
841.507	11937.27
841.832	11873.32
842.156	11885.29
842.481	11755.35
842.805	11816.82
843.13	11751.06
843.454	11810.49
843.778	11713.55
844.103	11748.12
844.427	11584.96
844.751	11652.98
845.075	11608.92
845.399	11642.14
845.723	11535.47
846.047	11575.02
846.371	11504.97
846.695	11526.21
847.019	11347.91
847.343	11381.13
847.666	11286.89
847.99	11165.99
848.313	11205.76
848.637	11159.66
848.96	11107.91
849.284	11106.56
849.607	11012.32
849.931	10983.62
850.254	10823.63
850.577	10904.53
850.9	10780.01
851.223	10791.76
851.546	10767.13
851.869	10630.64
852.192	10650.53
852.515	10658.89
852.838	10613.01
853.161	10617.98
853.483	10495.73
853.806	10417.08
854.129	10493.47
854.451	10349.52
854.774	10332.57
855.096	10281.5
855.419	10250.54
855.741	10283.3
856.063	10159.46
856.385	10197.43
856.708	10138.45
857.03	10118.56
857.352	10073.82
857.674	10027.94
857.996	10044.21
858.318	9964.67
858.64	9970.32
858.961	9972.8
859.283	9893.26
859.605	9837.67
859.926	9855.97
860.248	9870.88
860.57	9871.34
860.891	9854.39
861.212	9785.24
861.534	9778.01
861.855	9762.86
862.176	9747.5
862.498	9682.41
862.819	9731.23
863.14	9610.1
863.461	9609.87
863.782	9617.11
864.103	9679.48
864.424	9518.58
864.745	9622.53
865.065	9551.12
865.386	9524.45
865.707	9467.05
866.027	9451.01
866.348	9505.24
866.668	9462.99
866.989	9425.92
867.309	9360.39
867.63	9376.21
867.95	9366.72
868.27	9367.17
868.59	9366.27
868.91	9390.22
869.23	9367.17
869.55	9328.3
869.87	9293.72
870.19	9211.47
870.51	9348.19
870.83	9313.39
871.15	9307.06
871.469	9188.42
871.789	9220.05
872.109	9254.4
872.428	9142.32
872.748	9186.61
873.067	9162.88
873.386	9211.69
873.706	9140.96
874.025	9109.55
874.344	9140.73
874.663	9098.93
874.982	9071.36
875.301	9117.91
875.62	9006.27
875.939	9054.18
876.258	9030.23
876.577	8968.31
876.896	9017.35
877.214	8892.61
877.533	8958.82
877.852	8907.07
878.17	8914.75
878.489	8910.68
878.807	8889.89
879.125	8875.43
879.444	8881.53
879.762	8846.28
880.08	8874.07
880.398	8829.33
880.716	8786.62
881.034	8760.41
881.352	8750.46
881.67	8678.6
881.988	8755.21
882.306	8719.5
882.624	8664.14
882.941	8645.15
883.259	8576
883.577	8560.18
883.894	8613.74
884.212	8547.3
884.529	8579.62
884.846	8504.59
885.164	8554.31
885.481	8503.46
885.798	8547.98
886.115	8451.71
886.432	8457.36
886.75	8422.11
887.067	8426.85
887.383	8390.92
887.7	8391.15
888.017	8344.37
888.334	8378.72
888.651	8252.4
888.967	8263.92
889.284	8204.26
889.6	8232.96
889.917	8161.32
890.233	8198.84
890.55	8127.2
890.866	8165.84
891.182	8108.9
891.498	8040.88
891.815	8081.78
892.131	8067.32
892.447	8011.72
892.763	8025.06
893.079	8000.65
893.395	7964.95
893.71	7884.72
894.026	7900.31
894.342	7872.29
894.657	7801.11
894.973	7905.06
895.289	7793.2
895.604	7774.22
895.92	7693.77
896.235	7697.83
896.55	7706.42
896.865	7701.9
897.181	7658.51
897.496	7667.55
897.811	7643.15
898.126	7612.86
898.441	7529.7
898.756	7569.48
899.071	7524.28
899.386	7535.8
899.7	7468.91
900.015	7413.32
900.33	7396.15
900.644	7331.06
900.959	7385.07
901.273	7301.46
901.588	7288.81
901.902	7279.54
902.216	7241.8
902.531	7249.26
902.845	7193.21
903.159	7136.95
903.473	7135.14
903.787	7067.79
904.101	7060.11
904.415	7064.18
904.729	7033.9
905.042	7003.62
905.356	6971.07
905.67	6943.05
905.984	6905.09
906.297	6894.92
906.611	6907.12
906.924	6881.81
907.237	6784.41
907.551	6747.35
907.864	6770.63
908.177	6820.8
908.491	6704.19
908.804	6665.32
909.117	6699.89
909.43	6626
909.743	6648.82
910.056	6593.23
910.368	6568.15
910.681	6517.53
910.994	6466.68
911.307	6440.92
911.619	6430.97
911.932	6456.74
912.244	6351.43
912.557	6374.93
912.869	6355.5
913.181	6387.36
913.494	6336.29
913.806	6284.76
914.118	6284.76
914.43	6192.11
914.742	6191.89
915.054	6141.49
915.366	6136.97
915.678	6074.83
915.99	6053.81
916.302	6028.27
916.613	6000.48
916.925	5997.09
917.236	5994.83
917.548	5974.26
917.859	5931.55
918.171	5881.16
918.482	5847.26
918.794	5857.88
919.105	5910.31
919.416	5795.06
919.727	5789.18
920.038	5841.84
920.349	5750.09
920.66	5731.11
920.971	5707.83
921.282	5714.16
921.593	5632.58
921.903	5628.74
922.214	5624.22
922.525	5593.48
922.835	5561.85
923.146	5560.26
923.456	5506.48
923.767	5506.03
924.077	5475.97
924.387	5472.81
924.697	5483.66
925.008	5435.07
925.318	5364.34
925.628	5362.53
925.938	5363.21
926.248	5315.3
926.558	5284.79
926.867	5307.61
927.177	5222.65
927.487	5219.03
927.796	5170.22
928.106	5244.79
928.416	5189.88
928.725	5102.65
929.034	5123.89
929.344	5150.33
929.653	5118.92
929.962	5007.06
930.271	5024.23
930.581	5019.71
930.89	5039.6
931.199	4934.74
931.508	4953.73
931.817	4961.41
932.125	4921.41
932.434	4902.43
932.743	4894.29
933.051	4813.62
933.36	4809.32
933.669	4802.54
933.977	4752.83
934.286	4782.43
934.594	4728.87
934.902	4700.4
935.21	4696.11
935.519	4684.81
935.827	4659.95
936.135	4658.14
936.443	4600.51
936.751	4645.94
937.059	4564.36
937.367	4530.23
937.674	4579.27
937.982	4524.58
938.29	4487.52
938.597	4474.87
938.905	4457.47
939.213	4440.74
939.52	4433.97
939.827	4421.76
940.135	4402.1
940.442	4379.05
940.749	4389.67
941.056	4373.85
941.363	4309.9
941.67	4351.93
941.977	4242.11
942.284	4267.64
942.591	4267.64
942.898	4259.73
943.205	4243.69
943.511	4216.8
943.818	4175.44
944.125	4174.09
944.431	4146.52
944.738	4092.05
945.044	4101.77
945.35	4098.83
945.657	4082.34
945.963	4023.58
946.269	4088.66
946.575	4057.7
946.881	4022.68
947.187	3953.07
947.493	3953.75
947.799	3993.75
948.105	3967.31
948.41	3930.48
948.716	3922.34
949.022	3925.05
949.327	3886.18
949.633	3823.13
949.938	3838.5
950.244	3842.79
950.549	3844.6
950.854	3792.4
951.16	3823.36
951.465	3741.55
951.77	3744.49
952.075	3699.97
952.38	3698.17
952.685	3686.19
952.99	3650.71
953.294	3684.61
953.599	3623.82
953.904	3635.12
954.209	3613.87
954.513	3619.75
954.818	3578.85
955.122	3579.3
955.426	3579.52
955.731	3537.72
956.035	3516.7
956.339	3525.97
956.643	3525.97
956.948	3471.96
957.252	3474.89
957.556	3428.12
957.86	3444.84
958.163	3400.55
958.467	3415.91
958.771	3408.68
959.075	3403.71
959.378	3348.57
959.682	3352.64
959.985	3371.17
960.289	3291.62
960.592	3316.25
960.896	3284.62
961.199	3276.26
961.502	3257.5
961.805	3296.37
962.108	3256.37
962.411	3244.62
962.714	3211.85
963.017	3198.29
963.32	3183.6
963.623	3154.68
963.926	3142.47
964.228	3146.77
964.531	3166.88
964.833	3097.5
965.136	3099.54
965.438	3063.38
965.741	3040.78
966.043	3028.58
966.345	3049.82
966.648	3047.56
966.95	2988.35
967.252	2991.74
967.554	2984.96
967.856	2962.14
968.158	2945.42
968.46	2954.91
968.761	2941.35
969.063	2948.81
969.365	2915.14
969.666	2917.17
969.968	2873.1
970.269	2862.03
970.571	2829.49
970.872	2848.47
971.174	2866.32
971.475	2846.66
971.776	2804.18
972.077	2829.26
972.378	2827.68
972.679	2783.16
972.98	2765.08
973.281	2758.3
973.582	2746.55
973.883	2744.07
974.183	2708.36
974.484	2724.41
974.785	2690.73
975.085	2672.2
975.386	2693.67
975.686	2700.23
975.986	2664.75
976.287	2672.66
976.587	2615.71
976.887	2616.16
977.187	2592.88
977.487	2609.38
977.787	2578.19
978.087	2587.91
978.387	2603.73
978.687	2569.83
978.987	2521.47
979.286	2528.03
979.586	2497.52
979.885	2505.88
980.185	2496.16
980.484	2484.19
980.784	2507.69
981.083	2469.05
981.382	2455.03
981.682	2467.24
981.981	2402.61
982.28	2404.87
982.579	2407.35
982.878	2425.88
983.177	2415.26
983.475	2383.4
983.774	2374.36
984.073	2366.45
984.372	2319.9
984.67	2331.65
984.969	2320.12
985.267	2321.48
985.566	2331.2
985.864	2290.74
986.162	2327.58
986.461	2255.49
986.759	2301.14
987.057	2259.56
987.355	2247.13
987.653	2245.77
987.951	2210.75
988.249	2236.96
988.547	2246.23
988.844	2206.45
989.142	2214.36
989.44	2210.75
989.737	2179.79
990.035	2123.74
990.332	2147.25
990.63	2133.69
990.927	2151.09
991.224	2131.65
991.521	2124.87
991.819	2122.61
992.116	2093.91
992.413	2091.2
992.71	2059.79
993.006	2077.87
993.303	2094.37
993.6	2075.16
993.897	2035.84
994.193	2020.92
994.49	2016.63
994.787	2001.49
995.083	2001.26
995.379	1984.31
995.676	2001.71
995.972	1968.04
996.268	1973.69
996.565	1965.33
996.861	1935.5
997.157	1952
997.453	1940.47
997.749	1929.17
998.044	1878.55
998.34	1910.87
998.636	1859.12
998.932	1891.21
999.227	1870.19
999.523	1876.74
999.818	1851.21
1000.114	1857.08
1000.409	1831.32
1000.704	1817.08
1001	1819.34
1001.295	1801.49
1001.59	1780.02
1001.885	1799.46
1002.18	1769.18
1002.475	1777.76
1002.77	1775.5
1003.065	1770.53
1003.359	1763.08
1003.654	1728.73
1003.949	1734.6
1004.243	1712
1004.538	1692.34
1004.832	1703.19
1005.127	1716.97
1005.421	1695.28
1005.715	1658.22
1006.009	1663.64
1006.304	1654.38
1006.598	1611.67
1006.892	1639.01
1007.186	1592.46
1007.48	1603.76
1007.773	1588.62
1008.067	1634.26
1008.361	1613.02
1008.655	1570.76
1008.948	1593.59
1009.242	1545.23
1009.535	1574.61
1009.829	1542.29
1010.122	1530.09
1010.415	1539.13
1010.708	1549.75
1011.001	1525.57
1011.295	1508.84
1011.588	1502.29
1011.881	1486.7
1012.173	1488.96
1012.466	1461.61
1012.759	1471.33
1013.052	1469.75
1013.344	1448.73
1013.637	1423.2
1013.93	1418.9
1014.222	1418
1014.514	1415.29
1014.807	1407.6
1015.099	1370.09
1015.391	1401.95
1015.683	1390.2
1015.976	1369.64
1016.268	1391.79
1016.56	1397.21
1016.851	1360.15
1017.143	1326.25
1017.435	1359.92
1017.727	1340.49
1018.018	1327.83
1018.31	1309.75
1018.602	1338.23
1018.893	1290.77
1019.185	1316.99
1019.476	1288.74
1019.767	1284.22
1020.058	1254.84
1020.35	1262.07
1020.641	1244.67
1020.932	1256.65
1021.223	1243.77
1021.514	1228.4
1021.804	1215.97
1022.095	1210.1
1022.386	1213.94
1022.677	1213.26
1022.967	1163.99
1023.258	1176.88
1023.548	1175.07
1023.839	1173.03
1024.129	1186.14
1024.419	1154.96
1024.709	1126.26
1025	1129.42
1025.29	1138.91
1025.58	1120.83
1025.87	1136.42
1026.16	1132.36
1026.449	1108.86
1026.739	1078.8
1027.029	1090.32
1027.319	1083.32
1027.608	1087.61
1027.898	1078.35
1028.187	1076.99
1028.477	1058.69
1028.766	1067.05
1029.055	1047.61
1029.344	1037.67
1029.634	1043.09
1029.923	1027.5
1030.212	1008.29
1030.501	1004
1030.79	1002.64
1031.078	971.46
1031.367	1017.56
1031.656	1000.38
1031.945	986.6
1032.233	976.88
1032.522	968.75
1032.81	976.88
1033.099	953.38
1033.387	949.54
1033.675	945.7
1033.963	938.92
1034.251	927.62
1034.54	937.79
1034.828	928.29
1035.116	898.01
1035.403	924.68
1035.691	913.15
1035.979	903.89
1036.267	874.74
1036.554	884.91
1036.842	889.65
1037.129	902.08
1037.417	868.86
1037.704	882.65
1037.992	866.38
1038.279	874.28
1038.566	874.96
1038.853	874.96
1039.14	874.96
