Data from hue_180_FLMS001491_00011.txt Node
Date: Tue Feb 07 16:46:36 GMT 2017
User: dcchb
Spectrometer: FLMS00149
Trigger mode: 0
Integration Time (sec): 2.000000E-2
Scans to average: 10
Electric dark correction enabled: true
Nonlinearity correction enabled: false
Boxcar width: 0
XAxis mode: Wavelengths
Number of Pixels in Spectrum: 2048
>>>>>Begin Spectral Data<<<<<
341.393	-15.42
341.776	-15.42
342.16	-15.42
342.543	-55.2
342.927	-78.47
343.31	-68.3
343.693	-64.46
344.077	-61.3
344.46	-55.2
344.843	-37.8
345.226	-26.5
345.61	-32.6
345.993	-33.5
346.376	0.62
346.759	-6.61
347.142	33.84
347.525	39.94
347.908	45.14
348.291	88.75
348.674	81.75
349.057	96.21
349.44	119.49
349.823	149.32
350.206	172.59
350.588	196.32
350.971	179.15
351.354	236.77
351.737	200.16
352.119	240.39
352.502	274.96
352.884	262.76
353.267	261.41
353.65	278.13
354.032	289.88
354.414	291.01
354.797	309.77
355.179	320.84
355.562	331.46
355.944	310.67
356.326	336.66
356.709	345.7
357.091	342.53
357.473	334.62
357.855	346.38
358.238	335.75
358.62	330.1
359.002	337.79
359.384	313.83
359.766	334.17
360.148	336.66
360.53	344.34
360.912	328.97
361.294	336.66
361.676	342.53
362.057	321.07
362.439	318.81
362.821	328.07
363.203	341.86
363.584	326.26
363.966	318.58
364.348	319.26
364.729	309.31
365.111	299.14
365.493	321.29
365.874	295.53
366.256	294.63
366.637	331.46
367.019	323.78
367.4	326.49
367.781	280.61
368.163	321.52
368.544	311.35
368.925	295.08
369.306	306.83
369.688	297.56
370.069	300.27
370.45	317.68
370.831	308.18
371.212	317.9
371.593	307.05
371.974	319.03
372.355	301.18
372.736	333.72
373.117	316.32
373.498	313.83
373.879	304.57
374.26	310.9
374.641	319.26
375.021	311.8
375.402	314.06
375.783	336.66
376.163	311.35
376.544	345.47
376.925	316.77
377.305	325.13
377.686	318.13
378.066	316.77
378.447	333.49
378.827	325.13
379.208	332.59
379.588	323.78
379.968	322.19
380.349	335.08
380.729	322.87
381.109	334.62
381.489	323.78
381.87	330.56
382.25	336.21
382.63	335.53
383.01	331.91
383.39	336.43
383.77	343.66
384.15	346.6
384.53	344.57
384.91	319.94
385.29	355.41
385.67	351.12
386.049	362.42
386.429	348.18
386.809	326.71
387.189	337.56
387.568	349.09
387.948	332.14
388.328	352.93
388.707	356.54
389.087	357.67
389.466	358.35
389.846	366.71
390.225	356.77
390.605	342.99
390.984	355.41
391.363	340.5
391.743	355.64
392.122	386.6
392.501	350.22
392.881	376.66
393.26	378.24
393.639	375.07
394.018	365.13
394.397	374.4
394.776	386.6
395.155	373.94
395.534	386.15
395.913	388.86
396.292	395.64
396.671	368.52
397.05	389.54
397.429	394.06
397.808	380.72
398.186	383.66
398.565	395.64
398.944	404.23
399.323	392.02
399.701	409.2
400.08	406.49
400.458	420.5
400.837	416.2
401.215	402.64
401.594	432.02
401.972	407.39
402.351	425.24
402.729	418.01
403.107	445.13
403.486	437.9
403.864	425.92
404.242	447.16
404.62	432.25
404.999	434.96
405.377	452.81
405.755	428.86
406.133	442.64
406.511	458.46
406.889	486.71
407.267	451.23
407.645	480.83
408.023	467.05
408.401	467.5
408.779	463.43
409.156	498.01
409.534	495.75
409.912	491.23
410.29	521.06
410.667	498.24
411.045	525.35
411.422	527.39
411.8	531.23
412.178	553.15
412.555	551.34
412.933	545.47
413.31	547.5
413.687	568.52
414.065	569.42
414.442	579.14
414.819	588.85
415.197	585.92
415.574	599.93
415.951	615.52
416.328	592.02
416.705	627.95
417.082	622.3
417.46	655.75
417.837	644.45
418.214	633.6
418.591	660.49
418.967	676.54
419.344	675.63
419.721	691.68
420.098	690.77
420.475	686.48
420.852	721.96
421.228	710.43
421.605	700.49
421.982	716.53
422.358	743.2
422.735	758.57
423.111	759.92
423.488	771
423.864	792.92
424.241	797.44
424.617	814.84
424.994	816.42
425.37	823.65
425.746	829.07
426.123	814.84
426.499	853.48
426.875	836.98
427.251	883.76
427.627	890.54
428.003	877.43
428.379	915.17
428.756	903.65
429.132	922.18
429.507	900.26
429.883	943.87
430.259	980.93
430.635	965.34
431.011	975.74
431.387	993.14
431.763	1029.07
432.138	1018.45
432.514	1014.38
432.89	1060.03
433.265	1050.99
433.641	1059.12
434.016	1075.17
434.392	1085.56
434.767	1139.57
435.143	1139.35
435.518	1171.89
435.894	1173.92
436.269	1185
436.644	1200.82
437.02	1206.01
437.395	1229.06
437.77	1256.18
438.145	1276.07
438.52	1290.08
438.895	1311.77
439.271	1334.15
439.646	1340.25
440.021	1371.43
440.395	1395.61
440.77	1369.63
441.145	1409.17
441.52	1453.69
441.895	1434.71
442.27	1461.15
442.645	1452.56
443.019	1502.5
443.394	1492.56
443.769	1490.3
444.143	1516.51
444.518	1515.16
444.892	1571.65
445.267	1578.43
445.641	1571.88
446.016	1572.78
446.39	1599.68
446.764	1630.86
447.139	1609.17
447.513	1649.17
447.887	1658.88
448.262	1639
448.636	1672.44
449.01	1681.93
449.384	1692.55
449.758	1720.12
450.132	1738.88
450.506	1755.15
450.88	1720.58
451.254	1791.76
451.628	1800.12
452.002	1813.68
452.376	1816.17
452.75	1844.64
453.123	1857.3
453.497	1888.03
453.871	1878.76
454.244	1944.75
454.618	1969.84
454.992	1968.71
455.365	1978.65
455.739	2063.62
456.112	2035.82
456.486	2062.04
456.859	2071.3
457.232	2153.79
457.606	2114.24
457.979	2168.93
458.352	2182.71
458.725	2234.91
459.099	2245.08
459.472	2282.14
459.845	2302.26
460.218	2330.96
460.591	2373.89
460.964	2377.73
461.337	2402.59
461.71	2475.58
462.083	2525.07
462.456	2497.96
462.829	2538.86
463.201	2548.35
463.574	2562.36
463.947	2620.89
464.32	2647.56
464.692	2710.83
465.065	2678.52
465.438	2785.18
465.81	2814.78
466.183	2842.13
466.555	2907.21
466.928	2951.5
467.3	2944.95
467.672	3002.58
468.045	3070.82
468.417	3049.13
468.789	3127.32
469.161	3169.35
469.534	3215.23
469.906	3279.63
470.278	3318.95
470.65	3345.17
471.022	3428.78
471.394	3511.26
471.766	3572.73
472.138	3595.78
472.51	3670.36
472.882	3748.09
473.253	3742.22
473.625	3833.52
473.997	3933.17
474.369	3942.66
474.74	4014.08
475.112	4102.43
475.484	4171.13
475.855	4245.48
476.227	4292.94
476.598	4424.69
476.97	4448.41
477.341	4578.58
477.713	4666.49
478.084	4723.66
478.455	4867.39
478.827	4913.26
479.198	5037.78
479.569	5056.08
479.94	5244.1
480.311	5293.36
480.682	5386.24
481.053	5542.62
481.424	5617.65
481.795	5697.19
482.166	5790.07
482.537	5880.92
482.908	6044.08
483.279	6100.12
483.65	6247.01
484.021	6339.44
484.391	6438.64
484.762	6574.91
485.133	6520.68
485.503	6752.08
485.874	6906.65
486.244	6999.76
486.615	7111.39
486.985	7248.79
487.356	7338.73
487.726	7390.03
488.097	7562
488.467	7592.06
488.837	7838.38
489.207	7940.98
489.578	8035.89
489.948	8098.49
490.318	8270.46
490.688	8266.39
491.058	8424.13
491.428	8546.84
491.798	8594.75
492.168	8838.58
492.538	8777.79
492.908	8947.96
493.278	9072.02
493.648	9058.24
494.017	9222.53
494.387	9257.78
494.757	9377.1
495.126	9484.67
495.496	9561.95
495.866	9610.99
496.235	9676.75
496.605	9800.36
496.974	9779.8
497.344	9943.64
497.713	9964.65
498.082	10032.67
498.452	10154.93
498.821	10194.7
499.19	10189.51
499.559	10326.9
499.928	10363.51
500.298	10440.57
500.667	10469.5
501.036	10470.18
501.405	10580.91
501.774	10542.94
502.143	10576.84
502.512	10687.35
502.88	10730.96
503.249	10735.71
503.618	10829.72
503.987	10870.62
504.356	10938.64
504.724	10959.2
505.093	10978.64
505.462	11096.6
505.83	11110.16
506.199	11155.36
506.567	11197.39
506.936	11199.88
507.304	11297.95
507.672	11352.87
508.041	11371.85
508.409	11397.16
508.777	11447.33
509.145	11554.22
509.514	11559.41
509.882	11587.44
510.25	11493.2
510.618	11600.54
510.986	11642.35
511.354	11725.74
511.722	11703.36
512.09	11749.92
512.458	11781.55
512.826	11831.5
513.193	11821.78
513.561	11848.22
513.929	11821.33
514.297	11925.28
514.664	11999.85
515.032	11944.04
515.4	12035.33
515.767	12051.38
516.135	12047.54
516.502	11962.57
516.869	12187.87
517.237	12173.63
517.604	12088.89
517.972	12156.23
518.339	12200.07
518.706	12083.92
519.073	12174.54
519.44	12274.87
519.808	12281.2
520.175	12286.85
520.542	12385.15
520.909	12429
521.276	12314.87
521.643	12355.32
522.009	12397.81
522.376	12429.67
522.743	12457.92
523.11	12556
523.477	12523.91
523.843	12537.24
524.21	12606.84
524.577	12568.43
524.943	12631.25
525.31	12590.57
525.676	12680.29
526.043	12680.06
526.409	12678.03
526.776	12740.63
527.142	12680.74
527.508	12733.62
527.874	12784.69
528.241	12683.45
528.607	12774.07
528.973	12765.48
529.339	12678.25
529.705	12668.76
530.071	12814.3
530.437	12753.73
530.803	12776.78
531.169	12768.65
531.535	12638.71
531.901	12656.79
532.267	12657.24
532.632	12678.93
532.998	12628.54
533.364	12615.43
533.73	12546.96
534.095	12677.35
534.461	12560.07
534.826	12638.71
535.192	12596.22
535.557	12549.9
535.923	12382.44
536.288	12455.89
536.653	12415.89
537.019	12329.56
537.384	12319.17
537.749	12346.96
538.114	12232.62
538.479	12263.8
538.845	12270.58
539.21	12218.15
539.575	12127.99
539.94	12070.59
540.305	12174.54
540.67	12074.43
541.034	11982.45
541.399	12024.49
541.764	11967.31
542.129	11896.81
542.494	11860.87
542.858	11859.74
543.223	11739.3
543.587	11758.73
543.952	11656.81
544.316	11670.6
544.681	11564.39
545.045	11556.93
545.41	11549.92
545.774	11549.92
546.138	11412.07
546.503	11432.86
546.867	11314.22
547.231	11395.58
547.595	11309.02
547.959	11303.15
548.324	11214.56
548.688	11187.45
549.052	11211.17
549.416	11077.84
549.779	11038.52
550.143	11037.85
550.507	10964.4
550.871	11033.55
551.235	10910.39
551.599	10974.34
551.962	10912.88
552.326	10892.09
552.689	10835.14
553.053	10685.54
553.417	10685.99
553.78	10797.17
554.143	10705.65
554.507	10710.4
554.87	10723.73
555.234	10775.25
555.597	10577.07
555.96	10596.73
556.323	10592.21
556.686	10488.93
557.05	10509.95
557.413	10469.72
557.776	10537.07
558.139	10545.2
558.502	10469.95
558.865	10425.66
559.228	10394.47
559.59	10512.44
559.953	10401.25
560.316	10483.74
560.679	10403.96
561.041	10391.31
561.404	10414.81
561.767	10431.53
562.129	10346.34
562.492	10456.84
562.854	10387.92
563.217	10371.42
563.579	10358.77
563.941	10368.71
564.304	10380.01
564.666	10345.21
565.028	10310.86
565.39	10393.12
565.753	10344.08
566.115	10400.8
566.477	10404.19
566.839	10410.07
567.201	10398.77
567.563	10369.16
567.925	10388.14
568.287	10340.46
568.648	10379.56
569.01	10427.47
569.372	10429.05
569.734	10382.27
570.095	10445.32
570.457	10416.62
570.819	10399.22
571.18	10417.3
571.542	10470.85
571.903	10414.58
572.265	10474.92
572.626	10461.82
572.987	10476.28
573.349	10451.87
573.71	10542.04
574.071	10451.87
574.432	10487.8
574.794	10500.23
575.155	10498.65
575.516	10448.93
575.877	10469.72
576.238	10505.66
576.599	10509.72
576.96	10500.23
577.32	10405.32
577.681	10499.33
578.042	10512.66
578.403	10466.56
578.763	10480.57
579.124	10435.15
579.485	10526.45
579.845	10511.98
580.206	10431.76
580.566	10511.08
580.927	10522.6
581.287	10535.94
581.648	10439.44
582.008	10478.54
582.368	10570.06
582.728	10503.17
583.089	10456.62
583.449	10469.5
583.809	10438.99
584.169	10423.17
584.529	10344.08
584.889	10446.67
585.249	10381.82
585.609	10349.73
585.969	10427.69
586.329	10341.37
586.688	10403.29
587.048	10354.47
587.408	10327.36
587.768	10323.29
588.127	10337.3
588.487	10243.52
588.846	10360.35
589.206	10295.27
589.565	10207.58
589.925	10260.92
590.284	10345.89
590.643	10270.63
591.003	10283.06
591.362	10357.19
591.721	10275.15
592.08	10267.47
592.44	10242.84
592.799	10239
593.158	10243.74
593.517	10213.91
593.876	10175.27
594.235	10177.75
594.593	10152.9
594.952	10271.09
595.311	10162.61
595.67	10132.33
596.029	10162.61
596.387	10231.09
596.746	10179.79
597.104	10184.76
597.463	10102.28
597.822	10159
598.18	10114.25
598.538	10105.89
598.897	10174.82
599.255	10032
599.613	10149.96
599.972	10093.69
600.33	10125.1
600.688	10063.18
601.046	10137.98
601.404	10137.76
601.762	10141.37
602.12	10211.88
602.478	10121.03
602.836	10091.2
603.194	10193.12
603.552	10123.52
603.91	10054.14
604.268	10096.85
604.625	10145.44
604.983	10115.61
605.341	10084.42
605.698	10107.47
606.056	10144.08
606.413	10107.93
606.771	10145.44
607.128	10203.74
607.485	10075.16
607.843	10099.11
608.2	10153.57
608.557	10125.55
608.914	10159
609.272	10155.83
609.629	10194.7
609.986	10236.96
610.343	10182.5
610.7	10184.76
611.057	10130.75
611.414	10170.52
611.771	10191.09
612.127	10198.77
612.484	10235.15
612.841	10226.79
613.198	10140.69
613.554	10149.06
613.911	10272.44
614.267	10218.66
614.624	10187.92
614.98	10250.3
615.337	10281.26
615.693	10299.33
616.05	10285.55
616.406	10403.74
616.762	10244.19
617.118	10201.94
617.475	10297.3
617.831	10375.26
618.187	10299.11
618.543	10320.35
618.899	10299.56
619.255	10312.44
619.611	10314.47
619.967	10436.28
620.323	10306.34
620.678	10337.07
621.034	10349.95
621.39	10340.01
621.746	10272.44
622.101	10402.38
622.457	10323.97
622.812	10350.63
623.168	10379.33
623.523	10357.19
623.879	10400.35
624.234	10345.21
624.589	10407.58
624.945	10364.64
625.3	10399.22
625.655	10335.72
626.01	10333.46
626.365	10382.27
626.72	10309.73
627.075	10361.7
627.43	10283.29
627.785	10302.05
628.14	10314.25
628.495	10276.96
628.85	10275.61
629.205	10287.13
629.559	10239.45
629.914	10211.88
630.269	10255.95
630.623	10229.05
630.978	10263.85
631.332	10281.71
631.687	10276.96
632.041	10235.61
632.396	10236.51
632.75	10118.77
633.104	10241.93
633.459	10163.97
633.813	10165.33
634.167	10119.45
634.521	10096.85
634.875	10128.49
635.229	10116.51
635.583	10032
635.937	10078.55
636.291	10038.32
636.645	10008.27
636.999	10050.07
637.352	10009.4
637.706	9964.2
638.06	10033.35
638.413	10003.07
638.767	9974.14
639.121	9988.61
639.474	9939.34
639.828	9942.28
640.181	9979.12
640.534	9960.59
640.888	9876.52
641.241	9852.34
641.594	9871.1
641.947	9934.37
642.301	9899.8
642.654	9861.38
643.007	9812.11
643.36	9808.95
643.713	9810.31
644.066	9844.43
644.419	9776.86
644.771	9741.38
645.124	9654.6
645.477	9610.09
645.83	9599.01
646.182	9539.81
646.535	9532.12
646.888	9511.33
647.24	9452.58
647.593	9477.66
647.945	9434.5
648.298	9445.34
648.65	9521.5
649.002	9404.44
649.355	9488.73
649.707	9442.63
650.059	9557.43
650.411	9626.81
650.763	9668.39
651.115	9722.4
651.467	9685.79
651.819	9780.48
652.171	9705.23
652.523	9649.86
652.875	9745
653.227	9687.15
653.578	9746.35
653.93	9683.08
654.282	9586.13
654.633	9712.46
654.985	9730.99
655.337	9701.84
655.688	9664.1
656.039	9711.1
656.391	9651.89
656.742	9657.09
657.094	9665.9
657.445	9774.6
657.796	9705.9
658.147	9625
658.498	9721.72
658.849	9672.68
659.2	9693.7
659.551	9685.79
659.902	9691.67
660.253	9764.21
660.604	9715.39
660.955	9753.59
661.306	9761.95
661.656	9787.93
662.007	9786.8
662.358	9746.35
662.708	9726.92
663.059	9703.87
663.409	9637.88
663.76	9798.33
664.11	9759.69
664.461	9746.58
664.811	9777.09
665.161	9785.9
665.511	9741.83
665.862	9735.73
666.212	9848.95
666.562	9796.75
666.912	9726.92
667.262	9697.32
667.612	9792.45
667.962	9774.38
668.312	9721.27
668.662	9797.88
669.011	9726.47
669.361	9697.77
669.711	9742.06
670.06	9747.03
670.41	9778.44
670.76	9746.13
671.109	9746.81
671.459	9751.33
671.808	9625.45
672.157	9700.93
672.507	9669.52
672.856	9648.73
673.205	9660.25
673.554	9704.55
673.904	9656.19
674.253	9667.94
674.602	9716.75
674.951	9545.91
675.3	9532.35
675.649	9653.7
675.998	9619.35
676.346	9585
676.695	9620.71
677.044	9611.22
677.393	9550.88
677.741	9535.96
678.09	9625
678.438	9514.95
678.787	9527.38
679.135	9475.17
679.484	9469.3
679.832	9445.57
680.181	9410.54
680.529	9421.16
680.877	9447.6
681.225	9379.13
681.573	9472.24
681.922	9373.03
682.27	9356.31
682.618	9406.93
682.966	9306.14
683.314	9303.65
683.661	9325.35
684.009	9267.95
684.357	9246.48
684.705	9253.26
685.053	9253.49
685.4	9220.94
685.748	9170.78
686.095	9160.83
686.443	9189.08
686.79	9126.48
687.138	9152.02
687.485	9086.48
687.832	9098.24
688.18	9073.15
688.527	9048.75
688.874	8951.57
689.221	8945.92
689.568	8943.21
689.915	8919.48
690.262	8928.97
690.609	8909.31
690.956	8804.68
691.303	8857.11
691.65	8804.23
691.997	8780.73
692.344	8816.43
692.69	8714.06
693.037	8672.71
693.383	8598.59
693.73	8636.33
694.077	8602.66
694.423	8580.28
694.769	8545.71
695.116	8517.46
695.462	8521.3
695.808	8401.08
696.155	8471.59
696.501	8373.51
696.847	8446.28
697.193	8311.59
697.539	8349.78
697.885	8236.11
698.231	8234.98
698.577	8215.09
698.923	8196.56
699.269	8170.12
699.614	8217.35
699.96	8143.68
700.306	8076.12
700.651	8117.92
700.997	7994.99
701.342	7983.24
701.688	8018.94
702.033	7981.2
702.379	7914.76
702.724	7946.85
703.069	7969
703.415	7833.18
703.76	7842.9
704.105	7795.22
704.45	7765.39
704.795	7707.09
705.14	7683.81
705.485	7714.32
705.83	7650.36
706.175	7681.32
706.52	7597.48
706.865	7626.86
707.209	7610.82
707.554	7548.45
707.899	7536.69
708.243	7555.23
708.588	7416.47
708.932	7422.12
709.277	7444.95
709.621	7422.12
709.966	7351.16
710.31	7363.82
710.654	7267.78
710.998	7373.31
711.342	7297.15
711.687	7288.34
712.031	7270.94
712.375	7197.04
712.719	7178.51
713.063	7229.81
713.407	7251.73
713.75	7194.78
714.094	7136.93
714.438	7152.98
714.782	7193.2
715.125	7168.57
715.469	7129.25
715.812	7023.71
716.156	7108.68
716.499	7057.39
716.843	7045.41
717.186	7049.7
717.53	7047.67
717.873	7068.68
718.216	7022.13
718.559	7013.77
718.902	7046.54
719.246	7043.83
719.589	6905.07
719.932	6964.73
720.275	6934.68
720.617	6960.89
720.96	6915.69
721.303	6942.36
721.646	6963.83
721.989	6887.9
722.331	6901.91
722.674	6889.48
723.016	6883.38
723.359	6899.88
723.701	6889.25
724.044	6857.84
724.386	6839.76
724.729	6872.08
725.071	6882.93
725.413	6886.54
725.755	6871.4
726.097	6848.35
726.439	6817.17
726.782	6774.68
727.124	6779.43
727.465	6834.34
727.807	6811.52
728.149	6763.16
728.491	6781.69
728.833	6801.8
729.175	6794.79
729.516	6747.34
729.858	6782.14
730.199	6783.49
730.541	6748.92
730.882	6732.87
731.224	6815.58
731.565	6696.72
731.906	6724.51
732.248	6749.37
732.589	6746.43
732.93	6707.56
733.271	6716.15
733.612	6757.73
733.953	6774.45
734.294	6800.89
734.635	6706.21
734.976	6751.18
735.317	6785.75
735.658	6716.83
735.999	6766.32
736.339	6764.96
736.68	6794.57
737.021	6771.97
737.361	6731.52
737.702	6768.81
738.042	6754.57
738.383	6780.56
738.723	6804.96
739.063	6807
739.404	6821.01
739.744	6796.15
740.084	6815.81
740.424	6882.02
740.764	6809.71
741.104	6896.71
741.444	6821.69
741.784	6894.23
742.124	6920.21
742.464	6912.3
742.804	6958.86
743.143	6925.86
743.483	6996.82
743.823	6947.78
744.162	6983.04
744.502	7053.77
744.841	7094.67
745.181	7067.1
745.52	7108.01
745.86	7163.6
746.199	7124.05
746.538	7278.62
746.877	7317.72
747.216	7316.36
747.556	7306.87
747.895	7432.74
748.234	7409.69
748.573	7501.44
748.911	7523.36
749.25	7599.52
749.589	7566.52
749.928	7700.08
750.267	7785.28
750.605	7866.86
750.944	7918.15
751.283	7871.83
751.621	8034.08
751.96	8140.52
752.298	8219.16
752.636	8259.39
752.975	8378.71
753.313	8429.55
753.651	8584.35
753.989	8670.9
754.327	8824.34
754.666	8828.19
755.004	8954.74
755.342	9144.11
755.679	9232.7
756.017	9324.9
756.355	9517.89
756.693	9613.02
757.031	9781.16
757.368	9853.92
757.706	9992.68
758.044	10093.24
758.381	10308.82
758.719	10396.51
759.056	10604.18
759.394	10771.41
759.731	10850.28
760.068	11035.59
760.405	11167.33
760.743	11311.74
761.08	11490.94
761.417	11632.63
761.754	11799.41
762.091	12048.89
762.428	12188.32
762.765	12264.48
763.102	12515.55
763.438	12654.3
763.775	12741.98
764.112	12921.64
764.449	13128.64
764.785	13286.83
765.122	13374.28
765.458	13522.3
765.795	13709.87
766.131	13877.09
766.467	13981.5
766.804	14174.03
767.14	14235.28
767.476	14414.48
767.812	14536.28
768.148	14639.78
768.485	14790.06
768.821	14883.62
769.157	15074.12
769.492	15218.98
769.828	15337.39
770.164	15387.79
770.5	15486.09
770.836	15678.4
771.171	15675.01
771.507	15833.65
771.842	15788.45
772.178	15943.03
772.513	16064.61
772.849	16222.12
773.184	16211.27
773.519	16339.4
773.855	16484.26
774.19	16479.74
774.525	16577.13
774.86	16678.6
775.195	16757.02
775.53	16823.68
775.865	16741.42
776.2	16833.4
776.535	16772.61
776.87	16834.53
777.205	16993.62
777.539	16994.98
777.874	17135.99
778.209	16971.25
778.543	17138.93
778.878	17014.86
779.212	17151.58
779.547	17141.41
779.881	17187.06
780.215	17195.42
780.55	17201.75
780.884	17224.12
781.218	17190.68
781.552	17215.54
781.886	17249.89
782.22	17277
782.554	17304.35
782.888	17284.46
783.222	17239.04
783.556	17181.64
783.889	17192.49
784.223	17116.1
784.557	17234.29
784.89	17241.3
785.224	17182.54
785.557	17138.93
785.891	17118.14
786.224	17106.16
786.558	17171.7
786.891	17093.73
787.224	17103.45
787.557	17036.11
787.891	17100.96
788.224	17072.26
788.557	17124.46
788.89	17067.97
789.223	17076.78
789.556	17005.82
789.888	16994.3
790.221	16996.11
790.554	16816
790.887	16918.37
791.219	16894.87
791.552	16744.14
791.884	16751.14
792.217	16783.01
792.549	16765.83
792.882	16697.58
793.214	16602.9
793.546	16718.37
793.879	16571.71
794.211	16545.27
794.543	16648.77
794.875	16578.72
795.207	16596.34
795.539	16505.05
795.871	16519.74
796.203	16427.76
796.535	16369
796.867	16299.18
797.198	16176.92
797.53	16301.44
797.862	16184.6
798.193	16205.39
798.525	16102.34
798.856	16210.36
799.188	15964.5
799.519	15997.26
799.85	15965.4
800.182	15982.35
800.513	15960.65
800.844	15819.87
801.175	15922.24
801.506	15915.46
801.837	15770.6
802.168	15791.17
802.499	15709.59
802.83	15648.57
803.161	15671.4
803.491	15649.48
803.822	15631.85
804.153	15629.14
804.483	15516.15
804.814	15381.23
805.145	15417.84
805.475	15391.4
805.805	15406.54
806.136	15331.74
806.466	15461.01
806.796	15317.96
807.126	15296.94
807.457	15141.69
807.787	15214.68
808.117	15151.41
808.447	15115.25
808.777	15168.58
809.107	15037.97
809.436	15020.79
809.766	14998.87
810.096	15007.23
810.426	14872.55
810.755	14982.37
811.085	14935.82
811.414	14754.36
811.744	14786.22
812.073	14765.2
812.403	14757.52
812.732	14731.08
813.061	14738.77
813.39	14596.17
813.719	14581.48
814.049	14656.96
814.378	14596.4
814.707	14482.27
815.036	14576.74
815.365	14448.6
815.693	14361.15
816.022	14358.66
816.351	14325.67
816.68	14331.09
817.008	14368.83
817.337	14277.31
817.665	14091.55
817.994	14305.1
818.322	14241.15
818.651	14110.31
818.979	14084.77
819.307	14141.49
819.636	14095.62
819.964	14114.6
820.292	14064.66
820.62	14143.53
820.948	14103.75
821.276	14152.57
821.604	14055.17
821.932	14019.46
822.259	14088.61
822.587	14045.9
822.915	14031.89
823.243	14064.66
823.57	13880.48
823.898	14045.68
824.225	14051.55
824.553	14009.29
824.88	13988.5
825.207	14019.24
825.535	14073.92
825.862	14075.51
826.189	13993.7
826.516	14169.51
826.843	14141.94
827.17	14093.81
827.497	14045
827.824	14153.47
828.151	14194.6
828.478	14090.42
828.805	14207.93
829.131	14141.94
829.458	14061.95
829.785	14028.95
830.111	14089.06
830.438	14125.45
830.764	14027.82
831.09	14166.8
831.417	13979.46
831.743	14147.14
832.069	14025.34
832.395	13975.17
832.722	14005.22
833.048	14012.68
833.374	13998.22
833.7	13922.74
834.026	13974.94
834.351	14011.33
834.677	13983.3
835.003	13949.41
835.329	13912.57
835.654	13882.52
835.98	13841.84
836.306	13876.19
836.631	13820.82
836.956	13858.79
837.282	13960.93
837.607	13798
837.932	13724.33
838.258	13758
838.583	13815.4
838.908	13725.46
839.233	13770.65
839.558	13699.92
839.883	13670.77
840.208	13611.56
840.533	13642.3
840.858	13551.68
841.182	13565.69
841.507	13627.83
841.832	13485.01
842.156	13521.4
842.481	13433.26
842.805	13445.69
843.13	13385.13
843.454	13382.64
843.778	13374.96
844.103	13322.08
844.427	13248.86
844.751	13324.34
845.075	13255.19
845.399	13220.61
845.723	13174.74
846.047	13122.76
846.371	13105.81
846.695	13020.17
847.019	12969.77
847.343	12909.66
847.666	12792.83
847.99	12776.56
848.313	12765.26
848.637	12675.09
848.96	12704.69
849.284	12698.59
849.607	12652.27
849.931	12548.09
850.254	12381.09
850.577	12437.81
850.9	12347.19
851.223	12296.12
851.546	12231.26
851.869	12135.44
852.192	12198.27
852.515	12141.09
852.838	12089.34
853.161	12021.55
853.483	12044.6
853.806	12002.11
854.129	11887.09
854.451	11843.47
854.774	11820.42
855.096	11631.28
855.419	11687.32
855.741	11740.65
856.063	11617.49
856.385	11572.52
856.708	11516.48
857.03	11524.16
857.352	11534.1
857.674	11469.02
857.996	11443.26
858.318	11413.65
858.64	11430.38
858.961	11306.31
859.283	11278.74
859.605	11274.22
859.926	11344.5
860.248	11254.56
860.57	11166.66
860.891	11179.08
861.212	11158.52
861.534	11101.8
861.855	11010.95
862.176	11104.51
862.498	11082.59
862.819	10987.68
863.14	10904.97
863.461	11008.69
863.782	10972.99
864.103	11028.81
864.424	10939.54
864.745	10903.39
865.065	10829.26
865.386	10837.62
865.707	10820.45
866.027	10850.96
866.348	10805.54
866.668	10873.78
866.989	10858.87
867.309	10699.78
867.63	10800.79
867.95	10735.71
868.27	10676.27
868.59	10709.27
868.91	10642.6
869.23	10673.11
869.55	10607.12
869.87	10709.72
870.19	10664.52
870.51	10652.77
870.83	10622.49
871.15	10522.83
871.469	10609.16
871.789	10632.21
872.109	10641.47
872.428	10473.34
872.748	10494.13
873.067	10479.89
873.386	10516.96
873.706	10388.14
874.025	10358.54
874.344	10387.69
874.663	10349.95
874.982	10402.38
875.301	10330.29
875.62	10320.12
875.939	10349.28
876.258	10329.84
876.577	10276.06
876.896	10315.6
877.214	10274.7
877.533	10221.37
877.852	10213.69
878.17	10151.09
878.489	10240.58
878.807	10200.81
879.125	10172.78
879.444	10160.13
879.762	10123.97
880.08	10156.51
880.398	10118.1
880.716	10069.28
881.034	9981.6
881.352	10074.03
881.67	10043.97
881.988	9992.22
882.306	9909.06
882.624	9924.88
882.941	9876.75
883.259	9851.21
883.577	9837.42
883.894	9833.81
884.212	9806.01
884.529	9780.25
884.846	9751.55
885.164	9747.94
885.481	9668.39
885.798	9675.17
886.115	9663.19
886.432	9653.7
886.75	9656.86
887.067	9647.83
887.383	9599.01
887.7	9607.15
888.017	9559.69
888.334	9541.39
888.651	9576.41
888.967	9507.49
889.284	9446.7
889.6	9469.53
889.917	9350.66
890.233	9358.57
890.55	9326.25
890.866	9331
891.182	9311.56
891.498	9288.29
891.815	9233.37
892.131	9199.25
892.447	9189.76
892.763	9163.77
893.079	9166.26
893.395	9052.36
893.71	9096.65
894.026	9087.84
894.342	9030.44
894.657	8935.08
894.973	8917.9
895.289	8973.27
895.604	8910.67
895.92	8884.23
896.235	8793.38
896.55	8762.2
896.865	8816.21
897.181	8727.17
897.496	8756.55
897.811	8659.15
898.126	8666.16
898.441	8635.87
898.756	8598.81
899.071	8549.32
899.386	8535.99
899.7	8473.62
900.015	8472.72
900.33	8417.12
900.644	8373.06
900.959	8361.76
901.273	8353.17
901.588	8320.63
901.902	8232.72
902.216	8248.31
902.531	8187.98
902.845	8152.95
903.159	8141.42
903.473	8108.66
903.787	8112.27
904.101	7991.6
904.415	8074.31
904.729	7993.86
905.042	7942.11
905.356	7987.3
905.67	7959.51
905.984	7880.87
906.297	7851.71
906.611	7814.2
906.924	7819.85
907.237	7734.2
907.551	7754.32
907.864	7678.84
908.177	7702.34
908.491	7677.26
908.804	7620.53
909.117	7519.97
909.43	7505.28
909.743	7502.57
910.056	7438.39
910.368	7423.93
910.681	7441.33
910.994	7348.45
911.307	7372.18
911.619	7224.84
911.932	7308.68
912.244	7224.61
912.557	7208.57
912.869	7174.44
913.181	7116.82
913.494	7175.8
913.806	7092.41
914.118	7046.76
914.43	7067.78
914.742	7001.12
915.054	7022.13
915.366	6964.28
915.678	6964.96
915.99	6970.16
916.302	6802.93
916.613	6821.69
916.925	6808.35
917.236	6851.06
917.548	6734.23
917.859	6769.71
918.171	6722.93
918.482	6697.85
918.794	6689.71
919.105	6692.2
919.416	6581.69
919.727	6588.47
920.038	6581.92
920.349	6553.44
920.66	6511.41
920.971	6512.99
921.282	6480.9
921.593	6415.82
921.903	6436.38
922.214	6414.92
922.525	6357.52
922.835	6307.35
923.146	6275.71
923.456	6255.82
923.767	6230.06
924.077	6218.54
924.387	6226.22
924.697	6182.83
925.008	6126.79
925.318	6162.49
925.628	6117.97
925.938	6034.36
926.248	6052.89
926.558	6044.76
926.867	5984.64
927.177	5988.94
927.487	5953.23
927.796	5943.74
928.106	5876.4
928.416	5854.7
928.725	5891.31
929.034	5776.29
929.344	5856.29
929.653	5819.9
929.962	5717.08
930.271	5726.57
930.581	5730.64
930.89	5678.44
931.199	5662.62
931.508	5673.01
931.817	5631.66
932.125	5578.33
932.434	5618.78
932.743	5495.84
933.051	5460.59
933.36	5481.16
933.669	5473.02
933.977	5471.44
934.286	5409.07
934.594	5428.5
934.902	5384.43
935.21	5326.58
935.519	5377.66
935.827	5339.46
936.135	5346.7
936.443	5278.67
936.751	5256.53
937.059	5276.87
937.367	5223.76
937.674	5227.83
937.982	5142.86
938.29	5179.47
938.597	5173.14
938.905	5115.74
939.213	5095.63
939.52	5037.55
939.827	5051.11
940.135	4990.55
940.442	5020.83
940.749	5024.22
941.056	4991.9
941.363	4884.79
941.67	4905.13
941.977	4854.96
942.284	4821.06
942.591	4920.49
942.898	4850.89
943.205	4804.56
943.511	4804.79
943.818	4763.21
944.125	4662.42
944.431	4774.51
944.738	4745.58
945.044	4728.63
945.35	4625.13
945.657	4682.53
945.963	4619.03
946.269	4650.44
946.575	4646.83
946.881	4536.77
947.187	4540.16
947.493	4481.63
947.799	4524.34
948.105	4501.75
948.41	4428.75
948.716	4494.97
949.022	4459.71
949.327	4443.89
949.633	4367.51
949.938	4378.13
950.244	4381.52
950.549	4329.55
950.854	4323.45
951.16	4326.84
951.465	4307.85
951.77	4240.28
952.075	4271.92
952.38	4266.5
952.685	4207.74
952.99	4188.53
953.294	4162.77
953.599	4147.41
953.904	4165.03
954.209	4111.93
954.513	4136.78
954.818	4092.72
955.122	4086.39
955.426	4127.97
955.731	4073.28
956.035	4018.37
956.339	4033.06
956.643	4002.1
956.948	4006.39
957.252	4010.46
957.556	3922.33
957.86	3938.15
958.163	3883.91
958.467	3901.54
958.771	3918.94
959.075	3878.71
959.378	3841.88
959.682	3784.25
959.985	3806.85
960.289	3822.22
960.592	3775.44
960.896	3767.98
961.199	3790.13
961.502	3723.01
961.805	3665.38
962.108	3690.69
962.411	3657.93
962.714	3667.19
963.017	3644.82
963.32	3655.89
963.623	3638.72
963.926	3625.84
964.228	3622.45
964.531	3605.5
964.833	3580.19
965.136	3524.6
965.438	3534.77
965.741	3515.33
966.043	3507.87
966.345	3479.85
966.648	3474.43
966.95	3429.91
967.252	3438.5
967.554	3443.69
967.856	3385.84
968.158	3366.41
968.46	3362.34
968.761	3339.74
969.063	3352.4
969.365	3335.22
969.666	3311.95
969.968	3309.69
970.269	3293.64
970.571	3304.04
970.872	3282.34
971.174	3240.08
971.475	3243.93
971.776	3193.53
972.077	3213.87
972.378	3200.76
972.679	3194.21
972.98	3168.67
973.281	3188.56
973.582	3146.08
973.883	3112.63
974.183	3119.18
974.484	3151.95
974.785	3084.16
975.085	3083.48
975.386	3076.7
975.686	3048.68
975.986	3023.82
976.287	3025.4
976.587	3003.25
976.887	2957.83
977.187	2952.18
977.487	2953.99
977.787	2928.23
978.087	2931.62
978.387	2897.04
978.687	2952.86
978.987	2909.7
979.286	2872.64
979.586	2896.36
979.885	2857.95
980.185	2821.56
980.484	2824.05
980.784	2819.3
981.083	2808.68
981.382	2765.75
981.682	2780.66
981.981	2757.39
982.28	2723.04
982.579	2743.6
982.878	2777.72
983.177	2695.47
983.475	2726.88
983.774	2724.17
984.073	2692.08
984.372	2649.37
984.67	2678.29
984.969	2616.15
985.267	2662.47
985.566	2612.76
985.864	2613.89
986.162	2588.58
986.461	2561.23
986.759	2569.59
987.057	2518.52
987.355	2571.63
987.653	2570.72
987.951	2553.77
988.249	2537.28
988.547	2500.22
988.844	2505.19
989.142	2487.79
989.44	2451.63
989.737	2424.96
990.035	2439.88
990.332	2409.82
990.63	2391.29
990.927	2411.18
991.224	2389.94
991.521	2395.13
991.819	2403.72
992.116	2389.26
992.413	2361.24
992.71	2364.18
993.006	2345.42
993.303	2330.5
993.6	2367.56
993.897	2310.17
994.193	2322.59
994.49	2284.4
994.787	2237.4
995.083	2251.41
995.379	2276.95
995.676	2279.21
995.972	2228.59
996.268	2217.29
996.565	2207.12
996.861	2211.86
997.157	2210.96
997.453	2155.82
997.749	2155.14
998.044	2147.68
998.34	2132.32
998.636	2115.14
998.932	2126.22
999.227	2125.09
999.523	2106.78
999.818	2085.99
1000.114	2097.52
1000.409	2057.06
1000.704	2038.76
1001	2021.36
1001.295	2064.3
1001.59	2039.21
1001.885	2006.67
1002.18	1976.39
1002.475	2010.29
1002.77	1996.05
1003.065	2004.41
1003.359	1948.14
1003.654	1934.58
1003.949	1940.23
1004.243	1956.5
1004.538	1924.64
1004.832	1920.57
1005.127	1901.81
1005.421	1891.87
1005.715	1903.85
1006.009	1854.81
1006.304	1843.74
1006.598	1860.01
1006.892	1805.32
1007.186	1815.49
1007.48	1811.42
1007.773	1817.97
1008.067	1779.11
1008.361	1774.36
1008.655	1746.79
1008.948	1779.56
1009.242	1748.15
1009.535	1757.41
1009.829	1699.79
1010.122	1740.69
1010.415	1713.57
1010.708	1692.1
1011.001	1707.24
1011.295	1692.1
1011.588	1670.18
1011.881	1691.2
1012.173	1647.58
1012.466	1634.48
1012.759	1639.67
1013.052	1657.08
1013.344	1657.75
1013.637	1592.67
1013.93	1618.88
1014.222	1611.88
1014.514	1605.78
1014.807	1562.16
1015.099	1583.18
1015.391	1543.18
1015.683	1542.28
1015.976	1532.11
1016.268	1531.2
1016.56	1488.72
1016.851	1512.45
1017.143	1478.55
1017.435	1530.07
1017.727	1470.19
1018.018	1469.28
1018.31	1476.51
1018.602	1442.17
1018.893	1434.71
1019.185	1443.3
1019.476	1411.66
1019.767	1433.13
1020.058	1405.33
1020.35	1408.27
1020.641	1386.57
1020.932	1384.99
1021.223	1373.01
1021.514	1356.29
1021.804	1366.69
1022.095	1366.01
1022.386	1329.85
1022.677	1353.58
1022.967	1316.97
1023.258	1294.37
1023.548	1328.27
1023.839	1304.77
1024.129	1301.6
1024.419	1281.72
1024.709	1256.86
1025	1278.78
1025.29	1259.57
1025.58	1257.76
1025.87	1251.44
1026.16	1243.3
1026.449	1216.41
1026.739	1219.35
1027.029	1204.66
1027.319	1221.83
1027.608	1196.07
1027.898	1185.68
1028.187	1192.68
1028.477	1160.14
1028.766	1174.6
1029.055	1122.4
1029.344	1154.26
1029.634	1165.11
1029.923	1113.36
1030.212	1114.72
1030.501	1106.58
1030.79	1090.31
1031.078	1080.82
1031.367	1087.82
1031.656	1097.54
1031.945	1077.2
1032.233	1072.91
1032.522	1083.53
1032.81	1062.97
1033.099	1050.99
1033.387	1030.42
1033.675	1058.67
1033.963	1037.2
1034.251	1022.52
1034.54	1025.45
1034.828	1019.13
1035.116	1005.57
1035.403	998.79
1035.691	990.88
1035.979	992.69
1036.267	975.06
1036.554	982.97
1036.842	968.51
1037.129	980.03
1037.417	958.79
1037.704	926.92
1037.992	958.34
1038.279	938.9
1038.566	943.87
1038.853	943.87
1039.14	943.87
