Data from hue_180_FLMS001491_00055.txt Node
Date: Tue Feb 07 16:47:11 GMT 2017
User: dcchb
Spectrometer: FLMS00149
Trigger mode: 0
Integration Time (sec): 2.000000E-2
Scans to average: 10
Electric dark correction enabled: true
Nonlinearity correction enabled: false
Boxcar width: 0
XAxis mode: Wavelengths
Number of Pixels in Spectrum: 2048
>>>>>Begin Spectral Data<<<<<
341.393	-24.08
341.776	-24.08
342.16	-24.08
342.543	-54.81
342.927	-74.93
343.31	-84.87
343.693	-69.73
344.077	-61.82
344.46	-73.35
344.843	-58.88
345.226	-38.09
345.61	-40.8
345.993	-15.95
346.376	2.13
346.759	30.15
347.142	24.73
347.525	42.81
347.908	61.57
348.291	70.61
348.674	83.94
349.057	127.55
349.44	116.03
349.823	148.12
350.206	185.86
350.588	193.77
350.971	217.95
351.354	207.55
351.737	222.47
352.119	241.9
352.502	254.1
352.884	258.85
353.267	274.44
353.65	271.96
354.032	287.1
354.414	316.02
354.797	309.24
355.179	342.24
355.562	307.89
355.944	339.07
356.326	311.73
356.709	334.33
357.091	335.01
357.473	358.96
357.855	340.65
358.238	347.21
358.62	322.35
359.002	319.64
359.384	324.38
359.766	320.54
360.148	317.6
360.53	333.2
360.912	336.81
361.294	334.78
361.676	331.39
362.057	333.42
362.439	336.59
362.821	336.81
363.203	329.81
363.584	302.46
363.966	311.5
364.348	318.73
364.729	318.06
365.111	322.58
365.493	319.64
365.874	313.08
366.256	296.59
366.637	315.12
367.019	288.9
367.4	315.34
367.781	303.59
368.163	319.19
368.544	296.81
368.925	309.92
369.306	309.24
369.688	325.51
370.069	304.27
370.45	289.13
370.831	309.24
371.212	294.33
371.593	301.56
371.974	317.15
372.355	302.46
372.736	286.87
373.117	295.91
373.498	299.07
373.879	305.63
374.26	292.52
374.641	322.12
375.021	317.83
375.402	304.05
375.783	310.83
376.163	307.66
376.544	315.12
376.925	319.19
377.305	299.3
377.686	308.79
378.066	318.06
378.447	339.3
378.827	317.6
379.208	335.46
379.588	323.25
379.968	304.95
380.349	306.31
380.729	325.97
381.109	320.32
381.489	326.42
381.87	341.11
382.25	350.6
382.63	339.3
383.01	327.32
383.39	338.17
383.77	319.86
384.15	325.51
384.53	329.81
384.91	329.36
385.29	350.6
385.67	346.08
386.049	351.73
386.429	342.01
386.809	335.23
387.189	336.59
387.568	339.3
387.948	351.5
388.328	352.63
388.707	343.82
389.087	346.3
389.466	370.71
389.846	364.61
390.225	343.37
390.605	364.38
390.984	337.94
391.363	368.68
391.743	366.87
392.122	352.63
392.501	366.64
392.881	357.83
393.26	356.25
393.639	352.41
394.018	368.9
394.397	370.94
394.776	365.74
395.155	373.87
395.534	383.59
395.913	377.04
396.292	368
396.671	372.74
397.05	370.71
397.429	369.13
397.808	392.86
398.186	399.64
398.565	388.56
398.944	390.15
399.323	402.35
399.701	389.24
400.08	415.68
400.458	398.96
400.837	399.41
401.215	394.66
401.594	415.46
401.972	412.52
402.351	417.04
402.729	410.26
403.107	421.1
403.486	408.68
403.864	432.18
404.242	410.94
404.62	418.62
404.999	416.81
405.377	424.04
405.755	450.93
406.133	448.22
406.511	454.32
406.889	422.69
407.267	444.38
407.645	461.1
408.023	470.37
408.401	471.72
408.779	450.03
409.156	467.66
409.534	452.74
409.912	485.74
410.29	511.72
410.667	488.9
411.045	511.05
411.422	509.01
411.8	511.5
412.178	520.09
412.555	530.03
412.933	533.87
413.31	532.51
413.687	568.67
414.065	557.6
414.442	563.02
414.819	572.74
415.197	560.31
415.574	577.03
415.951	548.79
416.328	581.55
416.705	640.31
417.082	615.9
417.46	617.48
417.837	629.69
418.214	638.73
418.591	651.16
418.967	669.91
419.344	660.42
419.721	654.09
420.098	659.52
420.475	670.82
420.852	693.64
421.228	708.55
421.605	721.21
421.982	712.62
422.358	715.79
422.735	722.11
423.111	731.38
423.488	772.96
423.864	729.12
424.241	791.94
424.617	789.68
424.994	792.85
425.37	788.1
425.746	825.61
426.123	837.82
426.499	855.9
426.875	845.05
427.251	860.19
427.627	879.17
428.003	856.8
428.379	888.21
428.756	898.15
429.132	911.94
429.507	916.46
429.883	944.48
430.259	918.94
430.635	966.4
431.011	939.28
431.387	989.68
431.763	982.45
432.138	990.58
432.514	1011.6
432.89	993.07
433.265	1049.11
433.641	1055.66
434.016	1059.73
434.392	1097.7
434.767	1087.98
435.143	1103.35
435.518	1140.63
435.894	1154.19
436.269	1173.4
436.644	1182.44
437.02	1219.5
437.395	1204.14
437.77	1223.8
438.145	1257.69
438.52	1266.28
438.895	1303.34
439.271	1278.03
439.646	1349.89
440.021	1341.76
440.395	1354.87
440.77	1355.77
441.145	1365.26
441.52	1396.45
441.895	1397.35
442.27	1443.9
442.645	1429.44
443.019	1450.23
443.394	1444.81
443.769	1488.87
444.143	1474.18
444.518	1494.75
444.892	1520.28
445.267	1541.53
445.641	1560.74
446.016	1517.57
446.39	1563.67
446.764	1592.15
447.139	1595.54
447.513	1620.4
447.887	1614.97
448.262	1605.93
448.636	1610.45
449.01	1684.57
449.384	1645.25
449.758	1665.59
450.132	1683.22
450.506	1703.1
450.88	1739.71
451.254	1745.14
451.628	1762.31
452.002	1807.28
452.376	1827.85
452.75	1800.5
453.123	1811.8
453.497	1830.56
453.871	1856.77
454.244	1896.55
454.618	1923.66
454.992	1965.02
455.365	1933.83
455.739	1988.97
456.112	2006.6
456.486	2032.59
456.859	2052.47
457.232	2108.07
457.606	2078.69
457.979	2081.85
458.352	2189.87
458.725	2213.83
459.099	2193.49
459.472	2236.88
459.845	2282.07
460.218	2271.9
460.591	2318.68
460.964	2321.17
461.337	2411.79
461.71	2436.64
462.083	2442.29
462.456	2421.96
462.829	2483.65
463.201	2511.9
463.574	2533.14
463.947	2621.27
464.32	2624.66
464.692	2687.71
465.065	2703.08
465.438	2708.05
465.81	2773.81
466.183	2788.27
466.555	2856.52
466.928	2873.24
467.3	2884.09
467.672	2932
468.045	3025.1
468.417	3039.34
468.789	3036.4
469.161	3088.15
469.534	3136.97
469.906	3189.17
470.278	3248.38
470.65	3295.15
471.022	3331.54
471.394	3405.66
471.766	3498.31
472.138	3479.56
472.51	3584.41
472.882	3645.2
473.253	3662.83
473.625	3800
473.997	3818.98
474.369	3912.09
474.74	3915.25
475.112	4040.67
475.484	4070.05
475.855	4163.61
476.227	4194.79
476.598	4322.47
476.97	4353.88
477.341	4501.9
477.713	4544.16
478.084	4617.38
478.455	4748.67
478.827	4781.89
479.198	4891.72
479.569	4933.75
479.94	5137.36
480.311	5160.87
480.682	5288.77
481.053	5420.52
481.424	5494.87
481.795	5571.03
482.166	5683.79
482.537	5752.49
482.908	5855.76
483.279	5930.56
483.65	6111.35
484.021	6185.02
484.391	6296.88
484.762	6373.04
485.133	6445.58
485.503	6520.38
485.874	6748.62
486.244	6814.38
486.615	6888.51
486.985	6993.36
487.356	7179.57
487.726	7190.19
488.097	7401.26
488.467	7434.71
488.837	7607.36
489.207	7653.91
489.578	7817.75
489.948	7887.12
490.318	8059.32
490.688	8097.97
491.058	8167.12
491.428	8368.24
491.798	8468.12
492.168	8575.92
492.538	8629.7
492.908	8697.27
493.278	8863.37
493.648	8936.14
494.017	8935.46
494.387	9050.71
494.757	9145.4
495.126	9285.96
495.496	9220.65
495.866	9352.4
496.235	9458.16
496.605	9553.07
496.974	9559.17
497.344	9677.13
497.713	9716.68
498.082	9744.93
498.452	9899.05
498.821	9903.57
499.19	9943.11
499.559	10036.22
499.928	10040.06
500.298	10184.46
500.667	10209.77
501.036	10166.61
501.405	10320.28
501.774	10368.19
502.143	10463.55
502.512	10416.77
502.88	10519.14
503.249	10515.75
503.618	10551.23
503.987	10594.17
504.356	10669.65
504.724	10680.72
505.093	10672.59
505.462	10782.41
505.83	10775.86
506.199	10855.41
506.567	10956.65
506.936	10934.27
507.304	11047.72
507.672	11093.37
508.041	11166.36
508.409	11174.49
508.777	11238.67
509.145	11262.63
509.514	11217.21
509.882	11275.06
510.25	11293.81
510.618	11340.14
510.986	11413.13
511.354	11487.03
511.722	11468.95
512.09	11562.28
512.458	11489.29
512.826	11561.6
513.193	11577.42
513.561	11515.95
513.929	11628.49
514.297	11748.72
514.664	11769.05
515.032	11680.92
515.4	11769.05
515.767	11804.76
516.135	11821.93
516.502	11713.46
516.869	11866.68
517.237	11866.45
517.604	11830.52
517.972	11908.71
518.339	11891.31
518.706	11875.04
519.073	11862.61
519.44	11938.54
519.808	11990.29
520.175	11893.57
520.542	12079.33
520.909	12073.91
521.276	11954.36
521.643	12080.23
522.009	12146.67
522.376	12076.62
522.743	12091.53
523.11	12145.77
523.477	12209.04
523.843	12235.26
524.21	12296.27
524.577	12323.84
524.943	12340.57
525.31	12291.08
525.676	12400.68
526.043	12384.41
526.409	12314.8
526.776	12448.81
527.142	12351.86
527.508	12367.01
527.874	12448.13
528.241	12429.83
528.607	12368.36
528.973	12436.83
529.339	12410.39
529.705	12454.46
530.071	12451.75
530.437	12404.52
530.803	12359.55
531.169	12387.57
531.535	12398.42
531.901	12309.38
532.267	12316.61
532.632	12317.97
532.998	12287.23
533.364	12299.66
533.73	12310.28
534.095	12237.07
534.461	12280.68
534.826	12193.45
535.192	12136.73
535.557	12188.48
535.923	12127.46
536.288	12069.61
536.653	12096.96
537.019	12011.08
537.384	12040.01
537.749	11923.18
538.114	11894.02
538.479	11891.31
538.845	11856.51
539.21	11775.16
539.575	11766.8
539.94	11795.04
540.305	11780.13
540.67	11656.29
541.034	11734.03
541.399	11689.96
541.764	11631.43
542.129	11543.3
542.494	11510.76
542.858	11543.98
543.223	11506.69
543.587	11473.7
543.952	11380.14
544.316	11311.21
544.681	11226.24
545.045	11351.89
545.41	11274.6
545.774	11168.39
546.138	11122.97
546.503	11124.78
546.867	11094.27
547.231	11017.66
547.595	11051.79
547.959	11060.6
548.324	10872.58
548.688	10904.44
549.052	10746.93
549.416	10816.76
549.779	10813.83
550.143	10761.85
550.507	10700.16
550.871	10708.74
551.235	10625.36
551.599	10659.71
551.962	10620.61
552.326	10549.2
552.689	10554.17
553.053	10479.15
553.417	10430.11
553.78	10532.7
554.143	10399.6
554.507	10381.07
554.87	10342.43
555.234	10402.09
555.597	10295.65
555.96	10315.53
556.323	10332.93
556.686	10203.22
557.05	10254.74
557.413	10235.54
557.776	10188.08
558.139	10185.14
558.502	10127.74
558.865	10098.14
559.228	10162.09
559.59	10120.74
559.953	10092.04
560.316	10179.04
560.679	10070.12
561.041	10163.45
561.404	10113.51
561.767	10084.58
562.129	10001.19
562.492	10145.59
562.854	10089.78
563.217	10030.34
563.579	10025.15
563.941	10130.23
564.304	10134.07
564.666	10118.02
565.028	10070.12
565.39	10099.49
565.753	10093.62
566.115	10031.47
566.477	10108.53
566.839	10087.52
567.201	10186.05
567.563	10093.17
567.925	10111.25
568.287	10128.42
568.648	10134.52
569.01	10095.65
569.372	10206.38
569.734	10072.15
570.095	10228.98
570.457	10129.55
570.819	10091.36
571.18	10107.63
571.542	10179.04
571.903	10146.5
572.265	10127.06
572.626	10132.94
572.987	10158.02
573.349	10094.07
573.71	10172.03
574.071	10140.17
574.432	10239.38
574.794	10306.04
575.155	10148.53
575.516	10209.1
575.877	10168.65
576.238	10123.45
576.599	10219.72
576.96	10226.95
577.32	10190.34
577.681	10154.41
578.042	10263.78
578.403	10188.31
578.763	10149.66
579.124	10213.39
579.485	10205.71
579.845	10225.37
580.206	10165.71
580.566	10186.95
580.927	10151.92
581.287	10173.39
581.648	10105.82
582.008	10218.36
582.368	10179.94
582.728	10168.19
583.089	10123
583.449	10168.87
583.809	10112.38
584.169	10186.72
584.529	10112.6
584.889	10155.76
585.249	10091.13
585.609	10095.88
585.969	10085.48
586.329	10090
586.688	10154.18
587.048	10108.08
587.408	10009.55
587.768	10008.2
588.127	9990.57
588.487	9979.72
588.846	10025.82
589.206	9971.36
589.565	9952.61
589.925	9939.27
590.284	9941.31
590.643	9906.73
591.003	10009.78
591.362	10002.77
591.721	9927.75
592.08	10004.81
592.44	10010.91
592.799	9940.18
593.158	9858.6
593.517	9860.63
593.876	9914.64
594.235	9831.03
594.593	9840.74
594.952	9945.6
595.311	9932.04
595.67	9949.67
596.029	9974.98
596.387	9886.39
596.746	9917.58
597.104	9873.06
597.463	9812.27
597.822	9939.95
598.18	9821.08
598.538	9820.18
598.897	9899.5
599.255	9766.62
599.613	9910.12
599.972	9843.91
600.33	9832.61
600.688	9815.21
601.046	9783.12
601.404	9860.4
601.762	9783.57
602.12	9851.59
602.478	9927.07
602.836	9836.9
603.194	9803.46
603.552	9859.27
603.91	9760.75
604.268	9782.89
604.625	9828.09
604.983	9874.87
605.341	9830.8
605.698	9802.55
606.056	9852.95
606.413	9798.49
606.771	9778.6
607.128	9788.99
607.485	9772.5
607.843	9819.5
608.2	9816.34
608.557	9845.26
608.914	9753.74
609.272	9805.72
609.629	9856.56
609.986	9855.43
610.343	9831.48
610.7	9862.44
611.057	9890.23
611.414	9887.3
611.771	9827.86
612.127	9930.46
612.484	9962.32
612.841	9905.15
613.198	9863.79
613.554	9887.52
613.911	9987.41
614.267	9905.6
614.624	9905.83
614.98	9884.36
615.337	9897.47
615.693	9976.56
616.05	9818.37
616.406	9953.74
616.762	9951.7
617.118	9916
617.475	9951.48
617.831	10010.23
618.187	9975.88
618.543	9934.75
618.899	9946.05
619.255	9967.97
619.611	10005.94
619.967	10067.63
620.323	10014.75
620.678	9991.25
621.034	10017.24
621.39	9939.05
621.746	9964.58
622.101	10101.3
622.457	10012.26
622.812	10006.62
623.168	10047.74
623.523	10018.14
623.879	10088.42
624.234	9980.63
624.589	10053.62
624.945	9978.59
625.3	9978.14
625.655	9972.94
626.01	9986.95
626.365	10003.45
626.72	9979.05
627.075	9988.76
627.43	9960.74
627.785	9962.32
628.14	9994.19
628.495	10034.41
628.85	10037.58
629.205	9923.23
629.559	10076.22
629.914	9907.18
630.269	9917.13
630.623	9933.4
630.978	9911.48
631.332	9895.43
631.687	9893.17
632.041	9894.3
632.396	9902.89
632.75	9842.1
633.104	9816.11
633.459	9800.75
633.813	9807.98
634.167	9823.57
634.521	9814.76
634.875	9807.3
635.229	9810.69
635.583	9749.9
635.937	9805.94
636.291	9738.6
636.645	9707.19
636.999	9693.4
637.352	9739.28
637.706	9651.14
638.06	9730.24
638.413	9629.22
638.767	9649.34
639.121	9693.4
639.474	9570.02
639.828	9634.2
640.181	9603.69
640.534	9602.56
640.888	9595.78
641.241	9480.98
641.594	9586.51
641.947	9554.42
642.301	9546.97
642.654	9550.36
643.007	9595.1
643.36	9536.8
643.713	9516.68
644.066	9521.43
644.419	9506.97
644.771	9469.23
645.124	9437.36
645.477	9344.49
645.83	9274.66
646.182	9311.72
646.535	9215.22
646.888	9293.19
647.24	9218.39
647.593	9281.44
647.945	9248.44
648.298	9158.73
648.65	9219.29
649.002	9185.62
649.355	9167.09
649.707	9199.18
650.059	9263.58
650.411	9319.63
650.763	9328.67
651.115	9422.9
651.467	9413.41
651.819	9401.89
652.171	9453.41
652.523	9423.58
652.875	9370.25
653.227	9330.25
653.578	9372.73
653.93	9366.63
654.282	9384.26
654.633	9325.05
654.985	9400.3
655.337	9381.32
655.688	9405.05
656.039	9437.14
656.391	9351.94
656.742	9361.21
657.094	9392.62
657.445	9422.45
657.796	9407.54
658.147	9407.99
658.498	9428.78
658.849	9480.75
659.2	9430.13
659.551	9448.44
659.902	9418.38
660.253	9486.18
660.604	9433.98
660.955	9399.4
661.306	9497.48
661.656	9422.68
662.007	9484.82
662.358	9422.45
662.708	9436.46
663.059	9454.54
663.409	9382.45
663.76	9466.29
664.11	9503.13
664.461	9398.72
664.811	9480.3
665.161	9377.03
665.511	9388.55
665.862	9400.53
666.212	9398.27
666.562	9424.94
666.912	9472.39
667.262	9397.14
667.612	9427.2
667.962	9478.27
668.312	9436.69
668.662	9528.44
669.011	9376.12
669.361	9435.78
669.711	9468.78
670.06	9367.54
670.41	9402.11
670.76	9443.01
671.109	9453.18
671.459	9403.69
671.808	9409.79
672.157	9373.86
672.507	9410.02
672.856	9351.72
673.205	9417.03
673.554	9383.58
673.904	9328.67
674.253	9419.29
674.602	9334.54
674.951	9206.86
675.3	9163.25
675.649	9326.86
675.998	9318.5
676.346	9333.19
676.695	9297.48
677.044	9259.52
677.393	9306.97
677.741	9281.21
678.09	9248.9
678.438	9325.5
678.787	9230.82
679.135	9254.32
679.484	9156.24
679.832	9308.1
680.181	9173.19
680.529	9183.81
680.877	9142.68
681.225	9131.38
681.573	9183.13
681.922	9060.2
682.27	9059.07
682.618	9064.95
682.966	9097.94
683.314	9055.68
683.661	9011.84
684.009	8982.91
684.357	8955.34
684.705	9004.83
685.053	8995.57
685.4	8918.28
685.748	8909.92
686.095	8870.83
686.443	8912.63
686.79	8875.8
687.138	8908.57
687.485	8888.9
687.832	8782.01
688.18	8762.35
688.527	8705.41
688.874	8672.64
689.221	8721.9
689.568	8706.54
689.915	8667.89
690.262	8656.82
690.609	8616.14
690.956	8570.49
691.303	8520.33
691.65	8487.33
691.997	8489.82
692.344	8511.74
692.69	8396.26
693.037	8375.02
693.383	8348.35
693.73	8322.59
694.077	8364.4
694.423	8317.39
694.769	8308.35
695.116	8220.67
695.462	8267.68
695.808	8216.61
696.155	8240.33
696.501	8162.14
696.847	8120.79
697.193	8043.96
697.539	8119.89
697.885	8049.15
698.231	7960.12
698.577	8010.96
698.923	7994.46
699.269	7890.51
699.614	7917.86
699.96	7818.2
700.306	7853.23
700.651	7794.7
700.997	7777.3
701.342	7666.34
701.688	7746.11
702.033	7654.81
702.379	7674.7
702.724	7600.8
703.069	7631.08
703.415	7501.37
703.76	7565.78
704.105	7528.71
704.45	7498.66
704.795	7435.16
705.14	7429.73
705.485	7412.11
705.83	7349.74
706.175	7394.25
706.52	7401.49
706.865	7327.82
707.209	7288.95
707.554	7337.31
707.899	7319
708.243	7232.23
708.588	7243.98
708.932	7173.92
709.277	7156.75
709.621	7145.67
709.966	7130.08
710.31	7072.23
710.654	7106.58
710.998	7089.86
711.342	7083.98
711.687	7044.21
712.031	6954.04
712.375	7004.21
712.719	7048.5
713.063	6990.88
713.407	6963.98
713.75	6998.11
714.094	6975.96
714.438	6919.46
714.782	6926.47
715.125	6914.27
715.469	6910.88
715.812	6874.72
716.156	6852.57
716.499	6836.53
716.843	6815.29
717.186	6777.55
717.53	6832.46
717.873	6783.2
718.216	6790.65
718.559	6767.83
718.902	6747.49
719.246	6792.69
719.589	6698
719.932	6756.31
720.275	6674.05
720.617	6698.91
720.96	6663.88
721.303	6718.34
721.646	6688.74
721.989	6660.49
722.331	6701.62
722.674	6716.53
723.016	6710.88
723.359	6687.61
723.701	6705.69
724.044	6649.19
724.386	6608.96
724.729	6662.07
725.071	6673.82
725.413	6632.69
725.755	6626.37
726.097	6570.77
726.439	6573.49
726.782	6537.1
727.124	6608.06
727.465	6535.75
727.807	6530.32
728.149	6516.99
728.491	6547.05
728.833	6596.08
729.175	6565.12
729.516	6540.27
729.858	6579.36
730.199	6601.28
730.541	6577.78
730.882	6564.45
731.224	6610.55
731.565	6501.4
731.906	6522.41
732.248	6536.65
732.589	6511.34
732.93	6507.72
733.271	6545.01
733.612	6590.21
733.953	6567.61
734.294	6578.23
734.635	6514.96
734.976	6605.8
735.317	6546.37
735.658	6549.76
735.999	6543.66
736.339	6593.15
736.68	6580.04
737.021	6537.78
737.361	6563.09
737.702	6578.46
738.042	6575.75
738.383	6590.66
738.723	6586.82
739.063	6590.66
739.404	6609.19
739.744	6616.2
740.084	6596.08
740.424	6658.68
740.764	6646.03
741.104	6669.53
741.444	6663.2
741.784	6650.55
742.124	6731.9
742.464	6689.87
742.804	6748.62
743.143	6704.56
743.483	6847.6
743.823	6727.38
744.162	6793.59
744.502	6901.16
744.841	6877.88
745.181	6875.17
745.52	6904.78
745.86	6975.28
746.199	6985.45
746.538	7006.92
746.877	7088.27
747.216	7091.44
747.556	7106.8
747.895	7164.43
748.234	7227.48
748.573	7274.71
748.911	7300.7
749.25	7308.38
749.589	7339.11
749.928	7441.71
750.267	7534.36
750.605	7588.37
750.944	7660.01
751.283	7767.13
751.621	7803.28
751.96	7867.24
752.298	7975.48
752.636	8104.52
752.975	8111.07
753.313	8161.92
753.651	8380.9
753.989	8429.26
754.327	8442.81
754.666	8603.49
755.004	8713.09
755.342	8833.99
755.679	8972.97
756.017	9096.58
756.355	9279.18
756.693	9303.81
757.031	9485.27
757.368	9509
757.706	9757.58
758.044	9815.21
758.381	10037.8
758.719	10073.96
759.056	10306.04
759.394	10464.23
759.731	10436.43
760.068	10743.09
760.405	10861.06
760.743	10960.94
761.08	11183.31
761.417	11367.03
761.754	11480.25
762.091	11675.95
762.428	11820.81
762.765	11854.02
763.102	12184.86
763.438	12278.87
763.775	12462.6
764.112	12633.44
764.449	12867.11
764.785	13065.74
765.122	13093.09
765.458	13181.67
765.795	13380.09
766.131	13584.37
766.467	13657.14
766.804	13786.63
767.14	13902.11
767.476	14050.35
767.812	14232.94
768.148	14434.75
768.485	14437.69
768.821	14519.27
769.157	14718.36
769.492	14814.62
769.828	14961.06
770.164	14988.63
770.5	15138.23
770.836	15274.95
771.171	15368.96
771.507	15414.61
771.842	15540.71
772.178	15609.41
772.513	15765.11
772.849	15830.19
773.184	15829.97
773.519	15954.48
773.855	15989.73
774.19	16084.42
774.525	16160.58
774.86	16370.74
775.195	16314.02
775.53	16370.52
775.865	16476.95
776.2	16318.09
776.535	16413.45
776.87	16575.03
777.205	16538.2
777.539	16553.79
777.874	16650.51
778.209	16600.11
778.543	16677.85
778.878	16625.88
779.212	16727.79
779.547	16689.38
779.881	16883.5
780.215	16850.05
780.55	16850.73
780.884	16800.56
781.218	16938.86
781.552	16905.42
781.886	16862.48
782.22	16883.72
782.554	16869.71
782.888	16766.44
783.222	16894.12
783.556	16827.68
783.889	16814.12
784.223	16798.75
784.557	16839.43
784.89	16881.69
785.224	16799.21
785.557	16801.47
785.891	16787.68
786.224	16784.52
786.558	16820.22
786.891	16742.94
787.224	16625.65
787.557	16693.22
787.891	16693.9
788.224	16763.27
788.557	16790.39
788.89	16632.43
789.223	16708.36
789.556	16596.27
789.888	16676.72
790.221	16550.85
790.554	16448.03
790.887	16548.36
791.219	16507.01
791.552	16483.28
791.884	16415.03
792.217	16381.36
792.549	16413.68
792.882	16319.67
793.214	16361.25
793.546	16354.7
793.879	16257.52
794.211	16211.65
794.543	16284.19
794.875	16256.85
795.207	16242.61
795.539	16187.47
795.871	16212.1
796.203	16101.37
796.535	15993.58
796.867	16053.24
797.198	15918.78
797.53	16033.35
797.862	15883.98
798.193	15889.4
798.525	15724.43
798.856	15881.26
799.188	15631.78
799.519	15688.73
799.85	15587.49
800.182	15669.29
800.513	15602.63
800.844	15520.82
801.175	15646.02
801.506	15562.63
801.837	15523.31
802.168	15443.53
802.499	15408.28
802.83	15400.82
803.161	15363.31
803.491	15321.5
803.822	15385.46
804.153	15268.17
804.483	15264.33
804.814	15129.19
805.145	15155.63
805.475	15143.66
805.805	15117.67
806.136	15092.58
806.466	15079.02
806.796	14984.56
807.126	14870.22
807.457	14898.24
807.787	15021.85
808.117	14827.96
808.447	14838.35
808.777	14860.95
809.107	14757
809.436	14766.72
809.766	14773.27
810.096	14630.67
810.426	14614.18
810.755	14660.05
811.085	14659.6
811.414	14609.21
811.744	14485.37
812.073	14451.24
812.403	14476.55
812.732	14448.98
813.061	14390.91
813.39	14275.2
813.719	14278.14
814.049	14418.93
814.378	14269.1
814.707	14317.46
815.036	14251.7
815.365	14299.16
815.693	14106.17
816.022	14063.46
816.351	13971.26
816.68	14031.14
817.008	14106.39
817.337	13883.35
817.665	13925.83
817.994	13931.71
818.322	13869.56
818.651	13860.53
818.979	13729.68
819.307	13955.89
819.636	13929
819.964	13793.86
820.292	13825.5
820.62	13807.42
820.948	13733.52
821.276	13834.31
821.604	13797.48
821.932	13822.56
822.259	13711.83
822.587	13727.87
822.915	13704.37
823.243	13855.78
823.57	13773.52
823.898	13782.34
824.225	13738.04
824.553	13779.85
824.88	13759.29
825.207	13752.73
825.535	13761.77
825.862	13863.92
826.189	13754.77
826.516	13804.48
826.843	13851.71
827.17	13842.45
827.497	13858.94
827.824	13858.72
828.151	13837.25
828.478	13815.1
828.805	13871.82
829.131	13797.7
829.458	13794.99
829.785	13696.91
830.111	13802.45
830.438	13809.23
830.764	13851.03
831.09	13847.64
831.417	13824.14
831.743	13831.6
832.069	13832.5
832.395	13790.24
832.722	13787.31
833.048	13754.54
833.374	13823.24
833.7	13695.33
834.026	13744.37
834.351	13778.27
834.677	13718.83
835.003	13785.27
835.329	13651.94
835.654	13710.02
835.98	13624.15
836.306	13646.52
836.631	13575.56
836.956	13642.23
837.282	13646.07
837.607	13571.04
837.932	13525.62
838.258	13523.81
838.583	13493.08
838.908	13498.95
839.233	13460.31
839.558	13483.13
839.883	13397.26
840.208	13348.22
840.533	13377.83
840.858	13384.38
841.182	13351.84
841.507	13379.86
841.832	13325.4
842.156	13250.6
842.481	13180.54
842.805	13238.85
843.13	13166.53
843.454	13183.03
843.778	13131.73
844.103	13072.75
844.427	13081.34
844.751	13043.37
845.075	13015.8
845.399	12980.32
845.723	12858.29
846.047	12912.3
846.371	12818.52
846.695	12795.69
847.019	12653.33
847.343	12626.21
847.666	12642.03
847.99	12534.68
848.313	12443.61
848.637	12408.13
848.96	12405.42
849.284	12426.89
849.607	12323.39
849.931	12247.23
850.254	12263.28
850.577	12152.32
850.9	12109.16
851.223	12073.23
851.546	11974.02
851.869	11861.71
852.192	11975.83
852.515	11833.69
852.838	11811.99
853.161	11854.25
853.483	11738.55
853.806	11707.59
854.129	11651.77
854.451	11678.66
854.774	11568.61
855.096	11570.19
855.419	11560.92
855.741	11496.07
856.063	11445.22
856.385	11475.96
856.708	11403.87
857.03	11314.15
857.352	11357.99
857.674	11321.16
857.996	11235.74
858.318	11244.77
858.64	11193.7
858.961	11198.67
859.283	11080.71
859.605	11083.42
859.926	11181.73
860.248	11050.2
860.57	11025.57
860.891	11005.91
861.212	10952.58
861.534	10970.43
861.855	10841.17
862.176	10927.5
862.498	10894.05
862.819	10953.71
863.14	10826.71
863.461	10833.71
863.782	10783.09
864.103	10824.67
864.424	10732.47
864.745	10756.88
865.065	10631.01
865.386	10728.63
865.707	10558.92
866.027	10636.66
866.348	10609.99
866.668	10627.62
866.989	10518.47
867.309	10532.93
867.63	10477.11
867.95	10495.19
868.27	10508.3
868.59	10510.56
868.91	10500.39
869.23	10485.47
869.55	10453.16
869.87	10480.73
870.19	10474.4
870.51	10395.98
870.83	10363.89
871.15	10368.87
871.469	10357.79
871.789	10350.11
872.109	10377.91
872.428	10310.11
872.748	10335.65
873.067	10223.78
873.386	10280.28
873.706	10258.36
874.025	10205.25
874.344	10170
874.663	10174.29
874.982	10134.3
875.301	10150.57
875.62	10148.08
875.939	10160.96
876.258	10142.88
876.577	10044.13
876.896	10097.69
877.214	10033.51
877.533	10019.95
877.852	10043
878.17	10106.27
878.489	9963.9
878.807	10034.41
879.125	9965.94
879.444	9947.18
879.762	9904.47
880.08	9913.96
880.398	9892.72
880.716	9899.95
881.034	9872.38
881.352	9854.76
881.67	9765.27
881.988	9809.11
882.306	9800.52
882.624	9719.17
882.941	9673.97
883.259	9712.84
883.577	9667.19
883.894	9628.32
884.212	9642.33
884.529	9652.05
884.846	9593.07
885.164	9581.32
885.481	9573.18
885.798	9577.25
886.115	9539.51
886.432	9478.72
886.75	9482.56
887.067	9482.34
887.383	9392.62
887.7	9428.1
888.017	9336.8
888.334	9360.3
888.651	9351.72
888.967	9294.77
889.284	9206.18
889.6	9250.93
889.917	9174.55
890.233	9198.95
890.55	9158.28
890.866	9089.58
891.182	9076.47
891.498	9094.32
891.815	9080.09
892.131	9063.82
892.447	8978.62
892.763	9048
893.079	8941.56
893.395	8904.72
893.71	8910.37
894.026	8832.18
894.342	8770.72
894.657	8779.3
894.973	8828.34
895.289	8768
895.604	8788.57
895.92	8629.02
896.235	8624.05
896.55	8679.19
896.865	8652.53
897.181	8669.25
897.496	8590.61
897.811	8586.99
898.126	8521.91
898.441	8518.07
898.756	8416.6
899.071	8397.62
899.386	8383.61
899.7	8333.89
900.015	8302.48
900.33	8228.36
900.644	8220.67
900.959	8193.78
901.273	8187.68
901.588	8164.4
901.902	8102.71
902.216	8064.52
902.531	8081.92
902.845	8057.29
903.159	8047.57
903.473	7980.45
903.787	7943.84
904.101	7948.36
904.415	7946.56
904.729	7888.25
905.042	7799.67
905.356	7841.02
905.67	7804.64
905.984	7801.93
906.297	7769.16
906.611	7675.38
906.924	7672.89
907.237	7707.24
907.551	7613.68
907.864	7490.75
908.177	7586.34
908.491	7455.95
908.804	7441.94
909.117	7402.16
909.43	7410.75
909.743	7367.36
910.056	7275.16
910.368	7300.47
910.681	7279.91
910.994	7210.98
911.307	7223.86
911.619	7138.89
911.932	7195.39
912.244	7112.45
912.557	7132.11
912.869	7074.26
913.181	7036.75
913.494	6994.27
913.806	6990.42
914.118	6916.08
914.43	6898.67
914.742	6907.04
915.054	6910.43
915.366	6879.01
915.678	6808.51
915.99	6757.66
916.302	6757.89
916.613	6719.47
916.925	6716.31
917.236	6697.32
917.548	6649.19
917.859	6661.62
918.171	6576.88
918.482	6571.23
918.794	6606.25
919.105	6546.14
919.416	6490.78
919.727	6496.2
920.038	6451.68
920.349	6450.1
920.66	6385.24
920.971	6377.33
921.282	6338.69
921.593	6313.38
921.903	6221.63
922.214	6261.86
922.525	6218.24
922.835	6229.54
923.146	6185.7
923.456	6160.84
923.767	6128.98
924.077	6095.31
924.387	6083.78
924.697	6050.56
925.008	6078.36
925.318	6022.31
925.628	5996.1
925.938	5957
926.248	5927.17
926.558	5892.6
926.867	5885.14
927.177	5839.95
927.487	5882.66
927.796	5787.74
928.106	5816.22
928.416	5778.03
928.725	5789.55
929.034	5775.77
929.344	5701.87
929.653	5652.61
929.962	5663
930.271	5603.12
930.581	5627.75
930.89	5584.58
931.199	5560.86
931.508	5545.49
931.817	5560.4
932.125	5497.36
932.434	5483.12
932.743	5447.87
933.051	5438.37
933.36	5445.38
933.669	5354.53
933.977	5367.19
934.286	5327.42
934.594	5338.94
934.902	5297.81
935.21	5306.85
935.519	5284.48
935.827	5252.62
936.135	5195.22
936.443	5208.1
936.751	5195.22
937.059	5175.33
937.367	5128.1
937.674	5146.86
937.982	5145.5
938.29	5083.36
938.597	5105.73
938.905	5002.68
939.213	5010.59
939.52	4994.77
939.827	4971.04
940.135	4947.09
940.442	4892.4
940.749	4955.67
941.056	4847.43
941.363	4837.26
941.67	4841.78
941.977	4805.62
942.284	4761.33
942.591	4730.82
942.898	4747.09
943.205	4727.21
943.511	4738.05
943.818	4713.65
944.125	4666.19
944.431	4637.27
944.738	4622.8
945.044	4652.18
945.35	4546.42
945.657	4536.93
945.963	4545.52
946.269	4515.01
946.575	4530.15
946.881	4471.17
947.187	4515.01
947.493	4471.85
947.799	4453.09
948.105	4438.4
948.41	4381.9
948.716	4399.31
949.022	4383.71
949.327	4349.14
949.633	4305.3
949.938	4336.48
950.244	4284.73
950.549	4304.17
950.854	4229.59
951.16	4251.29
951.465	4255.81
951.77	4206.99
952.075	4148.24
952.38	4149.59
952.685	4140.55
952.99	4131.29
953.294	4124.74
953.599	4106.88
953.904	4088.58
954.209	4042.93
954.513	4038.86
954.818	4002.93
955.122	4038.86
955.426	4002.25
955.731	3949.37
956.035	3927.91
956.339	3933.55
956.643	3918.87
956.948	3842.94
957.252	3883.16
957.556	3924.29
957.86	3869.83
958.163	3843.16
958.467	3823.73
958.771	3807.46
959.075	3791.64
959.378	3779.43
959.682	3758.87
959.985	3753.67
960.289	3717.29
960.592	3711.87
960.896	3716.16
961.199	3654.47
961.502	3682.94
961.805	3650.62
962.108	3621.7
962.411	3627.8
962.714	3611.98
963.017	3575.15
963.32	3576.73
963.623	3557.97
963.926	3556.39
964.228	3517.29
964.531	3531.08
964.833	3502.61
965.136	3500.8
965.438	3500.57
965.741	3476.62
966.043	3459.89
966.345	3432.55
966.648	3440.46
966.95	3403.63
967.252	3369.5
967.554	3398.88
967.856	3355.94
968.158	3329.28
968.46	3276.85
968.761	3295.15
969.063	3294.93
969.365	3314.59
969.666	3269.17
969.968	3267.36
970.269	3226.91
970.571	3207.92
970.872	3210.64
971.174	3208.83
971.475	3170.64
971.776	3141.94
972.077	3161.37
972.378	3141.94
972.679	3122.95
972.98	3117.98
973.281	3081.15
973.582	3076.4
973.883	3108.94
974.183	3062.17
974.484	3042.05
974.785	3044.54
975.085	3011.55
975.386	3019.45
975.686	2968.16
975.986	2962.05
976.287	2949.4
976.587	2941.49
976.887	2975.84
977.187	2894.71
977.487	2920.47
977.787	2895.39
978.087	2857.2
978.387	2889.97
978.687	2864.2
978.987	2852.68
979.286	2819.91
979.586	2832.11
979.885	2802.06
980.185	2870.53
980.484	2791.44
980.784	2819.01
981.083	2759.35
981.382	2730.65
981.682	2742.17
981.981	2726.81
982.28	2677.99
982.579	2690.88
982.878	2693.36
983.177	2716.41
983.475	2675.06
983.774	2619.69
984.073	2645.68
984.372	2671.67
984.67	2598.45
984.969	2605.91
985.267	2595.28
985.566	2572.69
985.864	2585.34
986.162	2560.94
986.461	2550.54
986.759	2515.74
987.057	2517.09
987.355	2515.06
987.653	2532.91
987.951	2487.49
988.249	2486.81
988.547	2478.23
988.844	2477.55
989.142	2472.12
989.44	2438
989.737	2402.75
990.035	2440.26
990.332	2404.1
990.63	2403.88
990.927	2362.75
991.224	2363.43
991.521	2344.44
991.819	2367.95
992.116	2329.98
992.413	2323.88
992.71	2329.08
993.006	2321.39
993.303	2295.63
993.6	2278.01
993.897	2278.68
994.193	2294.73
994.49	2260.15
994.787	2301.28
995.083	2220.61
995.379	2231.45
995.676	2225.35
995.972	2168.18
996.268	2207.72
996.565	2172.02
996.861	2172.25
997.157	2152.13
997.453	2129.08
997.749	2113.04
998.044	2110.1
998.34	2095.64
998.636	2103.55
998.932	2120.5
999.227	2114.39
999.523	2046.6
999.818	2037.33
1000.114	2026.26
1000.409	2030.55
1000.704	2014.96
1001	2030.1
1001.295	1995.53
1001.59	2004.57
1001.885	1995.75
1002.18	1986.49
1002.475	1954.4
1002.77	1957.34
1003.065	1920.95
1003.359	1944.45
1003.654	1907.39
1003.949	1897.9
1004.243	1912.36
1004.538	1884.34
1004.832	1868.07
1005.127	1863.1
1005.421	1849.09
1005.715	1837.56
1006.009	1869.43
1006.304	1830.11
1006.598	1809.77
1006.892	1820.84
1007.186	1815.42
1007.48	1800.96
1007.773	1785.14
1008.067	1767.28
1008.361	1762.31
1008.655	1737.45
1008.948	1741.52
1009.242	1719.83
1009.535	1738.36
1009.829	1705.36
1010.122	1682.54
1010.415	1674.18
1010.708	1652.03
1011.001	1670.11
1011.295	1682.31
1011.588	1672.37
1011.881	1645.71
1012.173	1632.82
1012.466	1611.36
1012.759	1617.23
1013.052	1606.61
1013.344	1585.82
1013.637	1567.74
1013.93	1588.53
1014.222	1555.31
1014.514	1557.35
1014.807	1557.35
1015.099	1543.34
1015.391	1541.3
1015.683	1500.17
1015.976	1507.4
1016.268	1491.59
1016.56	1470.12
1016.851	1489.78
1017.143	1494.75
1017.435	1471.47
1017.727	1472.15
1018.018	1448.2
1018.31	1466.73
1018.602	1447.52
1018.893	1424.69
1019.185	1466.73
1019.476	1400.74
1019.767	1372.94
1020.058	1367.97
1020.35	1378.14
1020.641	1369.78
1020.932	1365.03
1021.223	1365.03
1021.514	1355.32
1021.804	1327.75
1022.095	1320.97
1022.386	1309.67
1022.677	1327.97
1022.967	1293.4
1023.258	1317.58
1023.548	1292.72
1023.839	1270.57
1024.129	1271.48
1024.419	1255.66
1024.709	1259.5
1025	1236
1025.29	1226.28
1025.58	1240.74
1025.87	1203.01
1026.16	1225.15
1026.449	1225.6
1026.739	1182.89
1027.029	1195.1
1027.319	1168.2
1027.608	1171.59
1027.898	1191.93
1028.187	1153.74
1028.477	1143.35
1028.766	1162.55
1029.055	1116.23
1029.344	1153.51
1029.634	1145.61
1029.923	1127.3
1030.212	1129.79
1030.501	1116.45
1030.79	1085.27
1031.078	1089.56
1031.367	1098.15
1031.656	1097.47
1031.945	1085.49
1032.233	1038.72
1032.522	1037.59
1032.81	1059.73
1033.099	1046.17
1033.387	1028.55
1033.675	1014.76
1033.963	1012.5
1034.251	1003.46
1034.54	1022.9
1034.828	1003.24
1035.116	983.58
1035.403	993.97
1035.691	1024.03
1035.979	998.72
1036.267	992.84
1036.554	993.29
1036.842	963.01
1037.129	948.32
1037.417	955.1
1037.704	963.01
1037.992	946.97
1038.279	942.45
1038.566	934.99
1038.853	934.99
1039.14	934.99
