Data from hue_50_FLMS001491_78.txt Node
Date: Mon Feb 06 15:10:58 GMT 2017
User: dcchb
Spectrometer: FLMS00149
Trigger mode: 0
Integration Time (sec): 2.000000E-2
Scans to average: 10
Electric dark correction enabled: true
Nonlinearity correction enabled: false
Boxcar width: 0
XAxis mode: Wavelengths
Number of Pixels in Spectrum: 2048
>>>>>Begin Spectral Data<<<<<
341.393	-30.9
341.776	-30.9
342.16	-30.9
342.543	-68.19
342.927	-51.69
343.31	-81.3
343.693	-85.82
344.077	-65.93
344.46	-55.76
344.843	-39.49
345.226	-34.52
345.61	-34.52
345.993	-22.99
346.376	1.19
346.759	1.19
347.142	30.11
347.525	46.61
347.908	58.81
348.291	69.89
348.674	102.88
349.057	109.66
349.44	118.92
349.823	154.18
350.206	165.02
350.588	195.76
350.971	219.49
351.354	226.04
351.737	228.75
352.119	250.9
352.502	272.37
352.884	266.94
353.267	267.85
353.65	308.97
354.032	295.19
354.414	304.91
354.797	313.72
355.179	318.69
355.562	349.2
355.944	330.22
356.326	347.39
356.709	327.73
357.091	346.49
357.473	334.74
357.855	327.51
358.238	356.88
358.62	343.32
359.002	362.08
359.384	346.49
359.766	331.8
360.148	352.14
360.53	358.69
360.912	352.82
361.294	333.83
361.676	337.45
362.057	312.82
362.439	326.6
362.821	344.45
363.203	335.64
363.584	332.7
363.966	348.97
364.348	322.99
364.729	312.14
365.111	323.44
365.493	329.99
365.874	323.66
366.256	339.26
366.637	326.38
367.019	313.27
367.4	322.53
367.781	311.46
368.163	325.25
368.544	307.85
368.925	300.16
369.306	306.26
369.688	315.3
370.069	318.24
370.45	293.16
370.831	296.55
371.212	306.72
371.593	316.21
371.974	318.47
372.355	315.08
372.736	332.25
373.117	316.66
373.498	300.84
373.879	331.12
374.26	331.12
374.641	307.39
375.021	296.55
375.402	316.88
375.783	325.02
376.163	331.8
376.544	332.93
376.925	348.3
377.305	308.75
377.686	324.57
378.066	346.04
378.447	335.87
378.827	328.64
379.208	325.7
379.588	337
379.968	345.81
380.349	336.54
380.729	339.71
381.109	338.35
381.489	324.12
381.87	335.19
382.25	346.04
382.63	299.71
383.01	328.41
383.39	337.45
383.77	351.91
384.15	338.13
384.53	337.67
384.91	346.49
385.29	342.87
385.67	348.97
386.049	349.65
386.429	335.41
386.809	334.51
387.189	333.61
387.568	355.3
387.948	344.68
388.328	348.97
388.707	362.98
389.087	352.14
389.466	366.37
389.846	349.65
390.225	366.15
390.605	372.02
390.984	378.35
391.363	346.26
391.743	353.49
392.122	381.29
392.501	360.5
392.881	345.58
393.26	376.54
393.639	361.4
394.018	376.09
394.397	372.48
394.776	357.34
395.155	378.35
395.534	367.73
395.913	391.01
396.292	369.99
396.671	400.95
397.05	385.13
397.429	411.12
397.808	398.46
398.186	375.87
398.565	389.65
398.944	378.58
399.323	386.71
399.701	382.42
400.08	388.75
400.458	393.94
400.837	407.05
401.215	409.31
401.594	395.75
401.972	395.53
402.351	394.85
402.729	390.1
403.107	371.57
403.486	426.26
403.864	403.44
404.242	388.97
404.62	407.05
404.999	407.5
405.377	419.03
405.755	408.63
406.133	406.15
406.511	412.02
406.889	411.12
407.267	430.33
407.645	438.46
408.023	438.46
408.401	417.9
408.779	439.82
409.156	424.68
409.534	431.91
409.912	438.01
410.29	440.5
410.667	419.03
411.045	458.58
411.422	439.37
411.8	449.08
412.178	451.34
412.555	454.51
412.933	449.99
413.31	466.03
413.687	474.39
414.065	445.02
414.442	462.87
414.819	469.87
415.197	474.39
415.574	491.12
415.951	477.56
416.328	466.26
416.705	485.69
417.082	468.29
417.46	486.6
417.837	466.03
418.214	470.1
418.591	508.97
418.967	496.99
419.344	496.54
419.721	487.05
420.098	466.26
420.475	502.19
420.852	500.61
421.228	516.2
421.605	502.42
421.982	497.67
422.358	518.01
422.735	529.31
423.111	521.17
423.488	527.5
423.864	518.69
424.241	541.06
424.617	524.79
424.994	546.93
425.37	527.73
425.746	541.51
426.123	544.45
426.499	533.38
426.875	558.46
427.251	572.92
427.627	572.92
428.003	569.76
428.379	568.18
428.756	572.47
429.132	558.69
429.507	558.91
429.883	571.11
430.259	588.74
430.635	600.27
431.011	580.15
431.387	585.8
431.763	606.14
432.138	596.42
432.514	616.99
432.89	617.44
433.265	601.85
433.641	638.91
434.016	640.94
434.392	621.28
434.767	632.13
435.143	675.07
435.518	651.34
435.894	634.84
436.269	653.15
436.644	661.51
437.02	660.38
437.395	674.16
437.77	678.68
438.145	655.41
438.52	678.23
438.895	680.94
439.271	693.82
439.646	697.21
440.021	691.56
440.395	712.81
440.77	674.84
441.145	682.07
441.52	729.98
441.895	706.7
442.27	732.24
442.645	720.49
443.019	743.54
443.394	739.25
443.769	717.55
444.143	719.13
444.518	725.69
444.892	748.74
445.267	754.61
445.641	734.73
446.016	762.07
446.39	743.09
446.764	767.95
447.139	745.8
447.513	782.86
447.887	769.3
448.262	755.52
448.636	786.48
449.01	794.39
449.384	805.46
449.758	779.7
450.132	818.79
450.506	796.42
450.88	816.31
451.254	833.25
451.628	813.37
452.002	829.64
452.376	825.35
452.75	842.97
453.123	851.11
453.497	842.29
453.871	856.98
454.244	869.86
454.618	867.15
454.992	882.07
455.365	870.54
455.739	888.62
456.112	920.26
456.486	936.76
456.859	922.97
457.232	956.19
457.606	937.66
457.979	951.9
458.352	993.93
458.725	963.2
459.099	976.3
459.472	1004.32
459.845	981.05
460.218	1020.82
460.591	1042.06
460.964	1023.98
461.337	1050.65
461.71	1065.57
462.083	1067.6
462.456	1087.26
462.829	1078.45
463.201	1089.52
463.574	1092.68
463.947	1117.54
464.32	1137.88
464.692	1124.32
465.065	1179.23
465.438	1175.84
465.81	1172.46
466.183	1195.05
466.555	1243.64
466.928	1249.52
467.3	1236.18
467.672	1274.15
468.045	1331.32
468.417	1333.58
468.789	1334.03
469.161	1336.52
469.534	1369.51
469.906	1425.1
470.278	1450.64
470.65	1480.7
471.022	1461.04
471.394	1527.02
471.766	1543.07
472.138	1572.67
472.51	1575.16
472.882	1605.44
473.253	1635.04
473.625	1713.46
473.997	1714.14
474.369	1759.56
474.74	1778.99
475.112	1819.44
475.484	1875.71
475.855	1909.38
476.227	1936.73
476.598	2032.77
476.97	2046.78
477.341	2121.36
477.713	2160.23
478.084	2206.78
478.455	2288.13
478.827	2324.52
479.198	2381.69
479.569	2456.94
479.94	2536.94
480.311	2579.88
480.682	2661
481.053	2778.74
481.424	2859.19
481.795	2884.95
482.166	2986.87
482.537	3055.57
482.908	3182.8
483.279	3261.44
483.65	3301.21
484.021	3431.6
484.391	3513.41
484.762	3622.33
485.133	3661.88
485.503	3791.82
485.874	3911.82
486.244	4015.32
486.615	4130.57
486.985	4213.05
487.356	4395.87
487.726	4477.9
488.097	4568.52
488.467	4645.58
488.837	4815.98
489.207	4947.27
489.578	5067.95
489.948	5136.42
490.318	5316.75
490.688	5425.22
491.058	5537.54
491.428	5710.87
491.798	5850.98
492.168	6011.42
492.538	6109.5
492.908	6224.3
493.278	6407.8
493.648	6454.58
494.017	6647.34
494.387	6796.26
494.757	6883.72
495.126	7039.65
495.496	7120.32
495.866	7231.73
496.235	7381.78
496.605	7579.29
496.974	7676.69
497.344	7783.81
497.713	7976.12
498.082	8052.27
498.452	8245.04
498.821	8339.5
499.19	8400.06
499.559	8528.19
499.928	8668.3
500.298	8828.52
500.667	8974.28
501.036	9046.6
501.405	9177.22
501.774	9266.93
502.143	9402.3
502.512	9495.17
502.88	9704.43
503.249	9734.94
503.618	9889.51
503.987	9955.5
504.356	10082.5
504.724	10167.25
505.093	10292.89
505.462	10410.4
505.83	10535.82
506.199	10616.27
506.567	10894.46
506.936	10910.96
507.304	11046.32
507.672	11103.27
508.041	11185.07
508.409	11369.7
508.777	11464.61
509.145	11599.3
509.514	11560.66
509.882	11689.47
510.25	11857.82
510.618	11970.14
510.986	12024.15
511.354	12206.74
511.722	12289.68
512.09	12513.85
512.458	12508.2
512.826	12639.5
513.193	12723.56
513.561	12846.5
513.929	12864.58
514.297	13070.67
514.664	13255.3
515.032	13235.41
515.4	13415.97
515.767	13530.1
516.135	13635.18
516.502	13571.9
516.869	13823.65
517.237	13892.8
517.604	13914.49
517.972	14128.27
518.339	14132.57
518.706	14188.16
519.073	14315.84
519.44	14437.19
519.808	14549.73
520.175	14600.12
520.542	14751.76
520.909	15012.09
521.276	14950.17
521.643	15118.53
522.009	15224.06
522.376	15408.01
522.743	15413.21
523.11	15588.12
523.477	15752.41
523.843	15814.78
524.21	16008
524.577	16216.13
524.943	16261.55
525.31	16300.64
525.676	16498.15
526.043	16585.84
526.409	16702.67
526.776	16825.6
527.142	16883.23
527.508	17039.16
527.874	17067.63
528.241	17249.77
528.607	17248.42
528.973	17498.35
529.339	17503.55
529.705	17658.12
530.071	17784.9
530.437	17830.1
530.803	18068.28
531.169	18107.83
531.535	18166.36
531.901	18161.61
532.267	18187.15
532.632	18476.41
532.998	18533.58
533.364	18594.6
533.73	18637.31
534.095	18750.52
534.461	18906.45
534.826	18908.71
535.192	19021.03
535.557	19082.72
535.923	19222.38
536.288	19187.35
536.653	19357.29
537.019	19267.8
537.384	19461.47
537.749	19510.73
538.114	19581.46
538.479	19729.03
538.845	19864.62
539.21	19697.39
539.575	19832.76
539.94	19917.5
540.305	20017.84
540.67	20072.75
541.034	20130.6
541.399	20176.02
541.764	20319.52
542.129	20307.77
542.494	20452.85
542.858	20507.31
543.223	20499.18
543.587	20710.02
543.952	20614.66
544.316	20864.59
544.681	20789.79
545.045	20900.52
545.41	21009
545.774	21068.66
546.138	21102.78
546.503	21168.31
546.867	21136.22
547.231	21455.99
547.595	21405.37
547.959	21458.93
548.324	21477.91
548.688	21513.16
549.052	21632.26
549.416	21707.96
549.779	21809.65
550.143	21893.27
550.507	21988.86
550.871	22078.8
551.235	22056.65
551.599	22307.72
551.962	22192.69
552.326	22399.24
552.689	22589.97
553.053	22461.61
553.417	22480.6
553.78	22869.06
554.143	22736.86
554.507	22815.5
554.87	22957.42
555.234	23046
555.597	23056.4
555.96	23089.62
556.323	23201.48
556.686	23280.12
557.05	23436.95
557.413	23567.35
557.776	23518.99
558.139	23812.09
558.502	23628.14
558.865	23765.53
559.228	23989.26
559.59	24125.3
559.953	24040.55
560.316	24386.31
560.679	24409.58
561.041	24492.97
561.404	24584.27
561.767	24659.97
562.129	24654.32
562.492	24962.11
562.854	24850.25
563.217	24919.63
563.579	24991.94
563.941	25379.05
564.304	25313.74
564.666	25366.17
565.028	25563.9
565.39	25700.4
565.753	25770.45
566.115	25811.36
566.477	25971.58
566.839	26005.02
567.201	26162.08
567.563	26202.76
567.925	26464.67
568.287	26442.53
568.648	26465.35
569.01	26681.84
569.372	26804.32
569.734	26777.21
570.095	27020.36
570.457	26995.05
570.819	26970.19
571.18	27087.25
571.542	27312.78
571.903	27381.94
572.265	27377.87
572.626	27641.82
572.987	27697.41
573.349	27858.08
573.71	27857.63
574.071	27961.58
574.432	28008.36
574.794	28248.35
575.155	28296.26
575.516	28148.69
575.877	28394.79
576.238	28556.37
576.599	28631.62
576.96	28658.96
577.32	28755.23
577.681	28811.5
578.042	28925.85
578.403	29069.57
578.763	29057.82
579.124	29148.67
579.485	29392.73
579.845	29540.52
580.206	29499.39
580.566	29523.35
580.927	29670.69
581.287	29708.43
581.648	29763.12
582.008	29937.12
582.368	29913.17
582.728	30156.33
583.089	30189.32
583.449	30253.95
583.809	30314.29
584.169	30476.32
584.529	30637.22
584.889	30870.88
585.249	30819.13
585.609	30773.48
585.969	31030.88
586.329	31035.4
586.688	31238.11
587.048	31327.59
587.408	31288.27
587.768	31445.56
588.127	31469.06
588.487	31534.59
588.846	31902.04
589.206	31655.95
589.565	31787.02
589.925	32118.31
590.284	32100.46
590.643	32156.5
591.003	32179.1
591.362	32518.98
591.721	32470.84
592.08	32582.7
592.44	32716.03
592.799	32775.92
593.158	32825.63
593.517	32935.91
593.876	33015.69
594.235	33139.3
594.593	33081.22
594.952	33419.06
595.311	33368.9
595.67	33688.21
596.029	33672.39
596.387	33762.78
596.746	33939.05
597.104	33777.02
597.463	33782.45
597.822	34210.91
598.18	34043.68
598.538	34056.79
598.897	34366.84
599.255	34100.85
599.613	34603.21
599.972	34428.98
600.33	34664
600.688	34521.18
601.046	34792.14
601.404	35001.4
601.762	34940.38
602.12	35134.5
602.478	35220.6
602.836	35168.62
603.194	35232.12
603.552	35397.09
603.91	35245.91
604.268	35521.16
604.625	35308.51
604.983	35557.77
605.341	35485
605.698	35877.31
606.056	35835.05
606.413	35804.76
606.771	35971.54
607.128	36281.36
607.485	35958.89
607.843	36193.68
608.2	36397.29
608.557	36481.13
608.914	36362.72
609.272	36571.98
609.629	36700.33
609.986	36783.95
610.343	36730.39
610.7	36870.5
611.057	37004.28
611.414	37029.37
611.771	37114.11
612.127	37222.35
612.484	37130.83
612.841	37348.68
613.198	37118.63
613.554	37371.5
613.911	37558.62
614.267	37566.75
614.624	37605.62
614.98	37679.74
615.337	37877.93
615.693	37846.97
616.05	37812.62
616.406	38215.32
616.762	37858.95
617.118	38018.72
617.475	38002.22
617.831	38266.17
618.187	38343.23
618.543	38235.66
618.899	38699.83
619.255	38583.22
619.611	38427.97
619.967	38661.41
620.323	38812.37
620.678	38585.71
621.034	38478.37
621.39	38610.34
621.746	38587.74
622.101	39063.21
622.457	38859.15
622.812	38840.17
623.168	38994.96
623.523	38956.77
623.879	39095.98
624.234	38916.77
624.589	39079.93
624.945	39177.78
625.3	39239.02
625.655	39151.12
626.01	39128.07
626.365	39131
626.72	39215.07
627.075	39255.97
627.43	39076.77
627.785	39186.37
628.14	39291.68
628.495	39324.67
628.85	39320.6
629.205	39258.69
629.559	39441.05
629.914	39194.96
630.269	39235.86
630.623	39218.23
630.978	39007.84
631.332	39189.53
631.687	39302.53
632.041	39211.68
632.396	39276.09
632.75	39246.93
633.104	39163.77
633.459	39098.01
633.813	39187.73
634.167	39199.93
634.521	39196.09
634.875	39194.51
635.229	39038.13
635.583	39002.65
635.937	39092.81
636.291	39043.32
636.645	39041.74
636.999	38949.99
637.352	39076.32
637.706	38771.47
638.06	39039.71
638.413	38830.67
638.767	38823.89
639.121	38842.65
639.474	38676.33
639.828	38742.99
640.181	38731.92
640.534	38811.69
640.888	38725.37
641.241	38495.77
641.594	38576.22
641.947	38761.52
642.301	38540.06
642.654	38692.37
643.007	38703.22
643.36	38407.63
643.713	38471.36
644.066	38514.98
644.419	38373.51
644.771	38093.97
645.124	37880.64
645.477	37752.28
645.83	37543.7
646.182	37393.2
646.535	37402.91
646.888	37340.54
647.24	37146.88
647.593	37304.39
647.945	37252.41
648.298	37193.88
648.65	37204.5
649.002	37103.94
649.355	37193.65
649.707	37123.15
650.059	37244.73
650.411	37755.45
650.763	37746.86
651.115	38128.77
651.467	37886.07
651.819	37948.21
652.171	37818.5
652.523	37843.13
652.875	37818.05
653.227	37691.04
653.578	37998.83
653.93	37756.13
654.282	37714.77
654.633	37528.34
654.985	37707.54
655.337	37689.01
655.688	37681.78
656.039	37791.61
656.391	37497.38
656.742	37506.19
657.094	37538.73
657.445	37563.81
657.796	37610.14
658.147	37373.54
658.498	37554.78
658.849	37602.23
659.2	37460.77
659.551	37319.98
659.902	37485.4
660.253	37446.76
660.604	37446.76
660.955	37243.82
661.306	37456.02
661.656	37405.63
662.007	37414.89
662.358	37420.54
662.708	37313.65
663.059	37359.53
663.409	37230.49
663.76	37407.89
664.11	37455.79
664.461	37342.13
664.811	37507.09
665.161	37327.44
665.511	37219.42
665.862	37186.65
666.212	37397.94
666.562	37321.79
666.912	37346.87
667.262	37278.4
667.612	37209.7
667.962	37324.27
668.312	37283.82
668.662	37321.79
669.011	37321.79
669.361	37155.69
669.711	37184.84
670.06	37292.41
670.41	37027.11
670.76	37164.5
671.109	37199.3
671.459	37205.18
671.808	37058.97
672.157	37167.89
672.507	36991.85
672.856	36804.96
673.205	36969.71
673.554	37033.21
673.904	36946.43
674.253	37265.74
674.602	37056.94
674.951	36504.18
675.3	36319.1
675.649	36801.35
675.998	36764.74
676.346	36852.42
676.695	36840.9
677.044	36673.22
677.393	36737.62
677.741	36856.94
678.09	36632.54
678.438	36598.87
678.787	36756.6
679.135	36732.65
679.484	36467.57
679.832	36684.06
680.181	36329.95
680.529	36567.68
680.877	36585.08
681.225	36406.56
681.573	36561.81
681.922	36327.69
682.27	36252.89
682.618	36296.73
682.966	36134.93
683.314	36232.55
683.661	36116.85
684.009	35993.23
684.357	35977.19
684.705	35795.5
685.053	35894.71
685.4	35858.32
685.748	35550.31
686.095	35619.46
686.443	35480.25
686.79	35499.46
687.138	35619.23
687.485	35520.25
687.832	35373.59
688.18	35438.9
688.527	35196.42
688.874	35110.32
689.221	35058.12
689.568	35132.01
689.915	34927.5
690.262	34937.67
690.609	34867.61
690.956	34830.33
691.303	34678.01
691.65	34590.56
691.997	34537.91
692.344	34379.72
692.69	34452.03
693.037	34333.17
693.383	34178.82
693.73	34339.94
694.077	33957.81
694.423	33965.49
694.769	33950.58
695.116	33780.19
695.462	33771.6
695.808	33730.7
696.155	33798.26
696.501	33528.89
696.847	33448.44
697.193	33242.35
697.539	33285.73
697.885	33163.25
698.231	33135.46
698.577	32995.35
698.923	33080.54
699.269	32888.23
699.614	32772.98
699.96	32553.78
700.306	32741.12
700.651	32426.77
700.997	32475.81
701.342	32432.65
701.688	32317.17
702.033	32376.61
702.379	32202.37
702.724	32127.12
703.069	32179.1
703.415	31800.12
703.76	31824.3
704.105	31786.34
704.45	31647.36
704.795	31600.13
705.14	31578.44
705.485	31501.15
705.83	31381.6
706.175	31373.02
706.52	31307.26
706.865	31161.72
707.209	31129.18
707.554	31081.5
707.899	31095.51
708.243	30886.02
708.588	30938.68
708.932	30659.82
709.277	30713.6
709.621	30766.03
709.966	30512.47
710.31	30559.93
710.654	30373.5
710.998	30469.76
711.342	30263.67
711.687	30246.04
712.031	30130.34
712.375	30033.17
712.719	30157.91
713.063	30040.17
713.407	30107.97
713.75	29922.21
714.094	29912.94
714.438	29708.43
714.782	29897.8
715.125	29601.31
715.469	29610.35
715.812	29633.18
716.156	29270.25
716.499	29475.44
716.843	29495.55
717.186	29249
717.53	29434.31
717.873	29349.79
718.216	29251.94
718.559	29152.51
718.902	28909.8
719.246	28943.93
719.589	28860.31
719.932	28764.5
720.275	28840.43
720.617	28845.63
720.96	28711.39
721.303	28750.26
721.646	28727.21
721.989	28513.21
722.331	28634.78
722.674	28556.82
723.016	28566.54
723.359	28495.35
723.701	28544.16
724.044	28275.7
724.386	28170.84
724.729	28203.16
725.071	28202.25
725.413	28173.55
725.755	28163.16
726.097	28131.07
726.439	27939.43
726.782	27926.78
727.124	28080
727.465	27852.21
727.807	27738.08
728.149	27673.23
728.491	27593.68
728.833	27803.85
729.175	27600.69
729.516	27591.87
729.858	27567.47
730.199	27684.75
730.541	27499.45
730.882	27478.88
731.224	27480.46
731.565	27211.32
731.906	27405.89
732.248	27320.69
732.589	27248.83
732.93	27199.34
733.271	27137.65
733.612	27198.21
733.953	27210.19
734.294	27023.53
734.635	27056.07
734.976	27096.75
735.317	26893.13
735.658	26847.71
735.999	26834.61
736.339	26792.35
736.68	26882.74
737.021	26830.09
737.361	26559.81
737.702	26759.13
738.042	26715.51
738.383	26497.44
738.723	26823.76
739.063	26431.68
739.404	26483.2
739.744	26536.99
740.084	26384.9
740.424	26472.58
740.764	26354.62
741.104	26454.95
741.444	26313.04
741.784	26089.54
742.124	26175.41
742.464	26230.33
742.804	26132.48
743.143	26096.09
743.483	26109.65
743.823	25905.82
744.162	25903.78
744.502	26015.19
744.841	25842.31
745.181	26009.54
745.52	25703.56
745.86	25816.78
746.199	25702.88
746.538	25590.8
746.877	25746.95
747.216	25666.05
747.556	25647.52
747.895	25521.42
748.234	25452.27
748.573	25359.39
748.911	25302.44
749.25	25359.16
749.589	25252.95
749.928	25373.85
750.267	25291.59
750.605	25196.46
750.944	25192.61
751.283	24978.16
751.621	25054.09
751.96	25022.68
752.298	24938.38
752.636	25084.14
752.975	24818.16
753.313	24679.86
753.651	24917.59
753.989	24717.37
754.327	24739.07
754.666	24655
755.004	24600.77
755.342	24602.35
755.679	24513.31
756.017	24314.22
756.355	24404.61
756.693	24392.64
757.031	24476.93
757.368	24174.79
757.706	24088.69
758.044	24021.12
758.381	24185.18
758.719	23927.34
759.056	23927.56
759.394	23945.19
759.731	23822.25
760.068	23770.5
760.405	23733.44
760.743	23477.86
761.08	23600.11
761.417	23490.51
761.754	23449.38
762.091	23362.15
762.428	23242.84
762.765	23157.19
763.102	23242.16
763.438	22978.89
763.775	23013.91
764.112	22996.06
764.449	22960.81
764.785	22975.5
765.122	22614.38
765.458	22643.3
765.795	22512.91
766.131	22512.01
766.467	22481.73
766.804	22322.63
767.14	22276.76
767.476	22335.51
767.812	22169.64
768.148	22252.13
768.485	22026.14
768.821	21941.4
769.157	21947.5
769.492	21770.11
769.828	21866.15
770.164	21634.97
770.5	21475.88
770.836	21634.74
771.171	21458.48
771.507	21317.24
771.842	21273.17
772.178	21305.26
772.513	21229.1
772.849	21081.31
773.184	20993.63
773.519	21034.31
773.855	20861.65
774.19	20820.3
774.525	20831.83
774.86	20713.41
775.195	20728.78
775.53	20500.53
775.865	20430.48
776.2	20307.32
776.535	20212.41
776.87	20341.44
777.205	20062.58
777.539	20023.71
777.874	20019.42
778.209	19838.18
778.543	19842.92
778.878	19652.42
779.212	19723.38
779.547	19665.98
779.881	19571.07
780.215	19531.52
780.55	19466.44
780.884	19397.96
781.218	19273.22
781.552	19330.4
781.886	19211.3
782.22	19077.52
782.554	18963.4
782.888	18850.63
783.222	18901.25
783.556	18697.64
783.889	18781.71
784.223	18658.55
784.557	18572.9
784.89	18617.65
785.224	18461.72
785.557	18361.83
785.891	18374.71
786.224	18216.53
786.558	18295.17
786.891	18062.18
787.224	18015.85
787.557	18032.35
787.891	17882.75
788.224	17913.71
788.557	17860.6
788.89	17777.22
789.223	17801.62
789.556	17589.2
789.888	17604.11
790.221	17611.8
790.554	17435.53
790.887	17366.83
791.219	17285.7
791.552	17280.96
791.884	17295.87
792.217	17183.79
792.549	17088.65
792.882	16950.57
793.214	16962.1
793.546	16909.67
793.879	16840.52
794.211	16683.69
794.543	16678.49
794.875	16718.49
795.207	16795.55
795.539	16598.04
795.871	16612.95
796.203	16394.88
796.535	16324.6
796.867	16353.75
797.198	16313.3
797.53	16340.87
797.862	16126.19
798.193	16205.73
798.525	16113.76
798.856	16084.15
799.188	15910.6
799.519	15971.84
799.85	15817.72
800.182	15784.5
800.513	15845.74
800.844	15681.45
801.175	15709.25
801.506	15746.99
801.837	15560.1
802.168	15681
802.499	15601.23
802.83	15313.1
803.161	15494.56
803.491	15365.75
803.822	15305.87
804.153	15408.69
804.483	15187.23
804.814	15138.64
805.145	15178.64
805.475	15159.88
805.805	15047.57
806.136	15049.15
806.466	14950.17
806.796	15036.05
807.126	14831.53
807.457	14773.91
807.787	14764.41
808.117	14744.75
808.447	14646.23
808.777	14720.8
809.107	14682.83
809.436	14620.91
809.766	14617.3
810.096	14493.46
810.426	14567.13
810.755	14480.13
811.085	14441.71
811.414	14432.67
811.744	14324.2
812.073	14333.24
812.403	14318.78
812.732	14219.12
813.061	14167.14
813.39	14134.6
813.719	14095.51
814.049	14186.58
814.378	14092.57
814.707	13985.23
815.036	13987.03
815.365	13874.49
815.693	13828.17
816.022	13813.7
816.351	13748.4
816.68	13698.68
817.008	13710.43
817.337	13629.53
817.665	13570.77
817.994	13599.47
818.322	13657.78
818.651	13563.32
818.979	13528.29
819.307	13497.1
819.636	13531
819.964	13452.58
820.292	13425.92
820.62	13415.07
820.948	13277.67
821.276	13461.4
821.604	13383.21
821.932	13373.26
822.259	13400.61
822.587	13278.13
822.915	13314.28
823.243	13364.9
823.57	13264.79
823.898	13279.93
824.225	13299.82
824.553	13340.72
824.88	13209.65
825.207	13246.04
825.535	13315.64
825.862	13355.41
826.189	13220.73
826.516	13270.89
826.843	13397.44
827.17	13342.3
827.497	13344.11
827.824	13354.06
828.151	13260.72
828.478	13279.93
828.805	13339.14
829.131	13286.71
829.458	13243.78
829.785	13203.1
830.111	13226.15
830.438	13305.92
830.764	13265.92
831.09	13199.26
831.417	13233.15
831.743	13251.69
832.069	13218.01
832.395	13208.75
832.722	13103.67
833.048	13147.06
833.374	13225.47
833.7	13089.43
834.026	13106.6
834.351	13088.07
834.677	13099.83
835.003	13124.23
835.329	13096.89
835.654	13109.77
835.98	13037.45
836.306	13026.38
836.631	13047.85
836.956	13048.75
837.282	13104.8
837.607	12937.8
837.932	12835.88
838.258	12978.02
838.583	12919.49
838.908	12832.49
839.233	12837.46
839.558	12764.01
839.883	12852.37
840.208	12709.78
840.533	12797.46
840.858	12720.4
841.182	12763.34
841.507	12673.62
841.832	12609.44
842.156	12622.55
842.481	12559.95
842.805	12503.68
843.13	12543.91
843.454	12529.9
843.778	12396.11
844.103	12439.5
844.427	12420.29
844.751	12416.23
845.075	12426.4
845.399	12288.32
845.723	12314.53
846.047	12277.02
846.371	12119.51
846.695	12157.48
847.019	12054.88
847.343	11999.97
847.666	11972.17
847.99	11922.91
848.313	11837.71
848.637	11890.37
848.96	11833.19
849.284	11776.24
849.607	11655.57
849.931	11665.74
850.254	11677.04
850.577	11478.85
850.9	11379.19
851.223	11460.09
851.546	11393.43
851.869	11284.96
852.192	11376.93
852.515	11227.78
852.838	11175.36
853.161	11240.21
853.483	11150.27
853.806	11073.44
854.129	11054.91
854.451	11102.36
854.774	10965.64
855.096	10928.13
855.419	10938.53
855.741	10887.91
856.063	10852.88
856.385	10776.72
856.708	10812.2
857.03	10704.18
857.352	10789.6
857.674	10728.36
857.996	10610.4
858.318	10665.99
858.64	10581.47
858.961	10589.83
859.283	10512.32
859.605	10501.7
859.926	10500.35
860.248	10469.61
860.57	10517.07
860.891	10416.73
861.212	10421.48
861.534	10301.25
861.855	10318.66
862.176	10325.43
862.498	10332.21
862.819	10306.23
863.14	10280.24
863.461	10234.82
863.782	10179.45
864.103	10195.04
864.424	10205.66
864.745	10164.99
865.065	10102.62
865.386	10060.58
865.707	10029.17
866.027	10089.51
866.348	10075.27
866.668	9974.71
866.989	10017.42
867.309	9971.09
867.63	10057.65
867.95	9944.65
868.27	9878.44
868.59	9944.43
868.91	9918.89
869.23	9960.7
869.55	9828.72
869.87	9887.48
870.19	9839.8
870.51	9852.68
870.83	9768.61
871.15	9779.01
871.469	9765.45
871.789	9771.1
872.109	9829.18
872.428	9761.16
872.748	9774.04
873.067	9713.25
873.386	9736.98
873.706	9744.21
874.025	9649.75
874.344	9633.48
874.663	9608.62
874.982	9598.9
875.301	9637.32
875.62	9546.25
875.939	9602.06
876.258	9573.14
876.577	9516.19
876.896	9501.5
877.214	9524.1
877.533	9476.42
877.852	9481.84
878.17	9520.48
878.489	9456.98
878.807	9418.79
879.125	9479.13
879.444	9378.11
879.762	9415.18
880.08	9362.75
880.398	9254.28
880.716	9261.73
881.034	9259.25
881.352	9349.87
881.67	9266.25
881.988	9251.56
882.306	9232.13
882.624	9153.71
882.941	9176.76
883.259	9146.03
883.577	9139.48
883.894	9076.2
884.212	9058.58
884.529	9098.12
884.846	9071.23
885.164	9036.2
885.481	9018.58
885.798	9047.73
886.115	8953.27
886.432	8887.28
886.75	8926.38
887.067	8926.15
887.383	8897.9
887.7	8898.13
888.017	8868.98
888.334	8837.56
888.651	8822.42
888.967	8789.88
889.284	8729.54
889.6	8777.23
889.917	8645.03
890.233	8612.03
890.55	8608.42
890.866	8662.65
891.182	8644.57
891.498	8552.37
891.815	8543.11
892.131	8597.57
892.447	8552.15
892.763	8473.51
893.079	8411.81
893.395	8414.52
893.71	8434.86
894.026	8412.94
894.342	8393.28
894.657	8288.43
894.973	8324.58
895.289	8277.58
895.604	8266.73
895.92	8200.07
896.235	8250.24
896.55	8162.55
896.865	8139.28
897.181	8122.78
897.496	8096.34
897.811	8045.49
898.126	7984.93
898.441	8017.47
898.756	7980.19
899.071	7954.65
899.386	7945.84
899.7	7892.28
900.015	7828.55
900.33	7779.51
900.644	7851.38
900.959	7792.17
901.273	7741.77
901.588	7753.07
901.902	7635.79
902.216	7613.42
902.531	7668.56
902.845	7592.85
903.159	7618.61
903.473	7521.44
903.787	7514.21
904.101	7484.61
904.415	7455
904.729	7457.26
905.042	7388.34
905.356	7356.47
905.67	7343.82
905.984	7343.59
906.297	7300.88
906.611	7255.68
906.924	7190.38
907.237	7218.85
907.551	7238.96
907.864	7201.9
908.177	7153.54
908.491	7149.47
908.804	7043.04
909.117	7048.91
909.43	7006.43
909.743	6969.82
910.056	7002.13
910.368	6945.64
910.681	6925.07
910.994	6869.71
911.307	6863.6
911.619	6853.21
911.932	6794.45
912.244	6761.01
912.557	6797.62
912.869	6766.88
913.181	6689.15
913.494	6710.39
913.806	6606.44
914.118	6631.07
914.43	6555.82
914.742	6590.84
915.054	6539.77
915.366	6438.76
915.678	6407.35
915.99	6472.88
916.302	6450.73
916.613	6394.92
916.925	6363.05
917.236	6380.23
917.548	6294.58
917.859	6296.39
918.171	6246.45
918.482	6238.54
918.794	6220.23
919.105	6256.16
919.416	6157.63
919.727	6186.11
920.038	6146.79
920.349	6076.28
920.66	6059.11
920.971	6115.38
921.282	6003.06
921.593	6023.63
921.903	5975.94
922.214	5950.63
922.525	5968.71
922.835	5844.87
923.146	5822.05
923.456	5794.93
923.767	5821.37
924.077	5785.67
924.387	5760.81
924.697	5749.74
925.008	5713.35
925.318	5688.49
925.628	5701.83
925.938	5706.8
926.248	5650.08
926.558	5558.55
926.867	5596.75
927.177	5580.02
927.487	5568.27
927.796	5489.86
928.106	5488.73
928.416	5439.24
928.725	5457.31
929.034	5373.93
929.344	5443.76
929.653	5368.95
929.962	5346.13
930.271	5326.7
930.581	5301.16
930.89	5265.23
931.199	5271.1
931.508	5214.16
931.817	5236.98
932.125	5213.03
932.434	5166.02
932.743	5127.83
933.051	5109.07
933.36	5080.6
933.669	5091.22
933.977	5077.44
934.286	5039.7
934.594	5025.24
934.902	4965.8
935.21	4961.96
935.519	4944.56
935.827	4992.92
936.135	4903.88
936.443	4852.58
936.751	4841.29
937.059	4805.35
937.367	4798.12
937.674	4840.61
937.982	4796.31
938.29	4768.97
938.597	4755.41
938.905	4682.19
939.213	4686.26
939.52	4674.51
939.827	4663.44
940.135	4596.55
940.442	4606.94
940.749	4613.27
941.056	4599.03
941.363	4567.62
941.67	4552.25
941.977	4526.94
942.284	4458.47
942.591	4440.62
942.898	4454.4
943.205	4483.33
943.511	4411.92
943.818	4425.7
944.125	4376.21
944.431	4415.08
944.738	4326.72
945.044	4313.39
945.35	4284.92
945.657	4295.76
945.963	4289.21
946.269	4246.72
946.575	4272.71
946.881	4222.09
947.187	4237.01
947.493	4216.44
947.799	4194.07
948.105	4132.83
948.41	4093.06
948.716	4147.07
949.022	4086.5
949.327	4107.52
949.633	4074.3
949.938	4036.11
950.244	4027.3
950.549	3986.62
950.854	3992.72
951.16	3985.94
951.465	3946.62
951.77	3964.25
952.075	3978.26
952.38	3912.04
952.685	3896.68
952.99	3888.54
953.294	3858.03
953.599	3833.4
953.904	3834.76
954.209	3817.13
954.513	3806.96
954.818	3785.95
955.122	3799.28
955.426	3766.29
955.731	3718.6
956.035	3720.18
956.339	3689.45
956.643	3725.83
956.948	3711.82
957.252	3631.15
957.556	3617.14
957.86	3637.7
958.163	3611.49
958.467	3604.03
958.771	3608.55
959.075	3569.91
959.378	3509.34
959.682	3523.35
959.985	3500.3
960.289	3533.07
960.592	3465.73
960.896	3442.45
961.199	3473.64
961.502	3449.46
961.805	3415.79
962.108	3388.44
962.411	3397.03
962.714	3412.4
963.017	3375.79
963.32	3352.74
963.623	3318.16
963.926	3334.21
964.228	3291.5
964.531	3287.65
964.833	3297.82
965.136	3255.11
965.438	3259.41
965.741	3242.46
966.043	3230.03
966.345	3184.83
966.648	3182.8
966.95	3216.92
967.252	3168.11
967.554	3152.06
967.856	3148.67
968.158	3150.71
968.46	3116.81
968.761	3076.36
969.063	3125.85
969.365	3060.99
969.666	3112.74
969.968	3028.23
970.269	3028
970.571	3025.06
970.872	3014.44
971.174	2980.09
971.475	2981.45
971.776	2981.45
972.077	2966.53
972.378	2912.3
972.679	2937.61
972.98	2917.04
973.281	2914.78
973.582	2910.71
973.883	2890.38
974.183	2881.34
974.484	2843.82
974.785	2869.81
975.085	2850.6
975.386	2822.13
975.686	2804.95
975.986	2798.85
976.287	2815.12
976.587	2758.85
976.887	2767.89
977.187	2767.89
977.487	2752.75
977.787	2721.34
978.087	2719.31
978.387	2668.01
978.687	2653.09
978.987	2676.14
979.286	2677.95
979.586	2654.22
979.885	2642.47
980.185	2662.36
980.484	2586.2
980.784	2594.79
981.083	2598.41
981.382	2549.37
981.682	2559.54
981.981	2585.3
982.28	2539.88
982.579	2538.07
982.878	2526.77
983.177	2536.04
983.475	2512.76
983.774	2484.74
984.073	2438.64
984.372	2453.78
984.67	2476.6
984.969	2490.16
985.267	2457.84
985.566	2426.89
985.864	2417.17
986.162	2410.16
986.461	2394.8
986.759	2385.76
987.057	2369.03
987.355	2363.61
987.653	2341.01
987.951	2388.47
988.249	2329.94
988.547	2324.97
988.844	2292.43
989.142	2315.25
989.44	2305.31
989.737	2291.75
990.035	2272.09
990.332	2255.36
990.63	2243.39
990.927	2256.04
991.224	2248.58
991.521	2236.38
991.819	2189.38
992.116	2208.36
992.413	2214.91
992.71	2181.92
993.006	2140.11
993.303	2150.28
993.6	2163.62
993.897	2136.95
994.193	2115.71
994.49	2116.16
994.787	2131.3
995.083	2111.87
995.379	2088.36
995.676	2091.07
995.972	2088.36
996.268	2084.75
996.565	2051.75
996.861	2035.94
997.157	2033
997.453	2044.52
997.749	2023.51
998.044	1989.38
998.34	2004.3
998.636	2016.27
998.932	1966.78
999.227	1938.31
999.523	1944.41
999.818	1943.96
1000.114	1944.64
1000.409	1900.57
1000.704	1898.54
1001	1886.56
1001.295	1869.61
1001.59	1890.4
1001.885	1870.52
1002.18	1860.35
1002.475	1861.7
1002.77	1874.36
1003.065	1852.66
1003.359	1849.5
1003.654	1821.25
1003.949	1797.07
1004.243	1821.7
1004.538	1781.48
1004.832	1798.43
1005.127	1773.57
1005.421	1767.24
1005.715	1769.05
1006.009	1722.05
1006.304	1712.33
1006.598	1750.97
1006.892	1716.62
1007.186	1688.83
1007.48	1670.75
1007.773	1705.1
1008.067	1682.27
1008.361	1644.53
1008.655	1657.19
1008.948	1617.87
1009.242	1653.57
1009.535	1642.05
1009.829	1608.6
1010.122	1607.92
1010.415	1587.81
1010.708	1585.33
1011.001	1573.35
1011.295	1592.78
1011.588	1578.09
1011.881	1549.17
1012.173	1562.95
1012.466	1545.78
1012.759	1530.19
1013.052	1533.12
1013.344	1534.48
1013.637	1530.41
1013.93	1513.01
1014.222	1474.14
1014.514	1476.85
1014.807	1471.2
1015.099	1456.74
1015.391	1463.29
1015.683	1454.48
1015.976	1420.36
1016.268	1420.81
1016.56	1409.28
1016.851	1418.78
1017.143	1416.29
1017.435	1409.51
1017.727	1412.9
1018.018	1396.63
1018.31	1411.77
1018.602	1375.39
1018.893	1367.03
1019.185	1343.3
1019.476	1341.04
1019.767	1345.56
1020.058	1318.67
1020.35	1328.16
1020.641	1306.91
1020.932	1302.85
1021.223	1282.96
1021.514	1276.18
1021.804	1313.02
1022.095	1260.59
1022.386	1262.62
1022.677	1254.26
1022.967	1271.44
1023.258	1239.57
1023.548	1234.83
1023.839	1202.51
1024.129	1216.75
1024.419	1217.88
1024.709	1190.99
1025	1206.35
1025.29	1200.7
1025.58	1200.7
1025.87	1166.58
1026.16	1169.97
1026.449	1152.34
1026.739	1163.19
1027.029	1138.33
1027.319	1129.97
1027.608	1142.63
1027.898	1106.47
1028.187	1113.93
1028.477	1096.75
1028.766	1092.46
1029.055	1084.77
1029.344	1082.51
1029.634	1088.84
1029.923	1068.5
1030.212	1088.16
1030.501	1058.33
1030.79	1055.62
1031.078	1033.02
1031.367	1035.96
1031.656	1027.83
1031.945	1039.35
1032.233	1020.59
1032.522	1008.84
1032.81	989.86
1033.099	1003.65
1033.387	998.9
1033.675	998.67
1033.963	991.89
1034.251	983.76
1034.54	972.01
1034.828	962.07
1035.116	941.95
1035.403	961.16
1035.691	940.82
1035.979	948.73
1036.267	921.61
1036.554	947.15
1036.842	918.22
1037.129	913.25
1037.417	899.47
1037.704	899.24
1037.992	899.24
1038.279	903.99
1038.566	900.82
1038.853	900.82
1039.14	900.82
