Data from hue_28_FLMS001491_00025.txt Node
Date: Tue Feb 07 17:17:03 GMT 2017
User: dcchb
Spectrometer: FLMS00149
Trigger mode: 0
Integration Time (sec): 2.000000E-2
Scans to average: 10
Electric dark correction enabled: true
Nonlinearity correction enabled: false
Boxcar width: 0
XAxis mode: Wavelengths
Number of Pixels in Spectrum: 2048
>>>>>Begin Spectral Data<<<<<
341.393	-34.53
341.776	-34.53
342.16	-34.53
342.543	-70.01
342.927	-70.24
343.31	-64.36
343.693	-69.11
344.077	-62.78
344.46	-61.65
344.843	-41.76
345.226	-42.44
345.61	-49.22
345.993	-28.21
346.376	-7.64
346.759	-1.31
347.142	8.63
347.525	44.56
347.908	64.22
348.291	97.21
348.674	96.09
349.057	117.78
349.44	113.03
349.823	137.21
350.206	173.37
350.588	195.97
350.971	199.36
351.354	225.35
351.737	227.16
352.119	247.95
352.502	253.14
352.884	294.95
353.267	301.5
353.65	276.87
354.032	295.63
354.414	315.74
354.797	303.54
355.179	316.19
355.562	330.88
355.944	325.46
356.326	329.75
356.709	329.3
357.091	320.26
357.473	337.21
357.855	325.68
358.238	337.43
358.62	341.95
359.002	358.45
359.384	333.14
359.766	349.64
360.148	371.78
360.53	321.84
360.912	347.6
361.294	337.89
361.676	325.91
362.057	339.92
362.439	341.28
362.821	307.83
363.203	338.34
363.584	329.53
363.966	332.24
364.348	347.15
364.729	338.79
365.111	307.83
365.493	329.07
365.874	311.45
366.256	312.58
366.637	322.52
367.019	323.2
367.4	334.95
367.781	290.66
368.163	322.07
368.544	308.73
368.925	309.41
369.306	334.5
369.688	322.52
370.069	321.16
370.45	311.22
370.831	305.12
371.212	327.49
371.593	316.42
371.974	301.73
372.355	310.32
372.736	305.12
373.117	328.17
373.498	322.97
373.879	315.74
374.26	318.68
374.641	325.46
375.021	325.01
375.402	321.62
375.783	345.34
376.163	337.21
376.544	325.01
376.925	329.3
377.305	322.29
377.686	317.77
378.066	329.53
378.447	348.28
378.827	345.34
379.208	339.02
379.588	338.79
379.968	329.53
380.349	356.64
380.729	336.08
381.109	331.11
381.489	352.58
381.87	318.9
382.25	349.41
382.63	342.86
383.01	350.77
383.39	319.58
383.77	359.35
384.15	355.06
384.53	353.25
384.91	353.48
385.29	371.56
385.67	361.84
386.049	356.87
386.429	355.74
386.809	381.5
387.189	355.06
387.568	346.02
387.948	371.33
388.328	370.43
388.707	369.52
389.087	365.91
389.466	365.68
389.846	360.03
390.225	378.11
390.605	367.49
390.984	386.92
391.363	392.8
391.743	374.5
392.122	374.27
392.501	369.75
392.881	395.96
393.26	379.02
393.639	367.04
394.018	372.69
394.397	378.34
394.776	374.5
395.155	388.28
395.534	384.89
395.913	388.28
396.292	384.21
396.671	383.54
397.05	398
397.429	410.2
397.808	403.65
398.186	390.31
398.565	408.39
398.944	399.35
399.323	393.25
399.701	411.33
400.08	390.99
400.458	410.2
400.837	415.62
401.215	423.08
401.594	427.6
401.972	410.65
402.351	411.33
402.729	410.43
403.107	430.77
403.486	431.67
403.864	437.54
404.242	434.38
404.62	443.65
404.999	422.4
405.377	419.92
405.755	439.8
406.133	436.19
406.511	431.9
406.889	434.61
407.267	448.39
407.645	423.53
408.023	446.13
408.401	442.52
408.779	455.62
409.156	459.24
409.534	458.11
409.912	449.3
410.29	447.26
410.667	477.54
411.045	467.6
411.422	444.32
411.8	466.24
412.178	497.43
412.555	465.34
412.933	494.04
413.31	470.54
413.687	489.75
414.065	485.91
414.442	508.5
414.819	503.53
415.197	518.45
415.574	525
415.951	511.67
416.328	508.5
416.705	513.7
417.082	523.64
417.46	516.41
417.837	532.91
418.214	529.07
418.591	526.58
418.967	556.19
419.344	524.77
419.721	533.36
420.098	535.4
420.475	556.64
420.852	539.69
421.228	564.55
421.605	554.6
421.982	566.13
422.358	564.32
422.735	575.17
423.111	582.17
423.488	568.39
423.864	598.9
424.241	589.63
424.617	585.11
424.994	607.26
425.37	581.27
425.746	573.13
426.123	606.58
426.499	597.31
426.875	627.37
427.251	618.33
427.627	636.41
428.003	615.85
428.379	637.54
428.756	632.79
429.132	640.25
429.507	635.05
429.883	637.31
430.259	672.12
430.635	649.06
431.011	670.31
431.387	675.73
431.763	673.7
432.138	660.82
432.514	674.83
432.89	694.04
433.265	694.26
433.641	710.98
434.016	713.24
434.392	715.05
434.767	707.82
435.143	742.85
435.518	738.33
435.894	748.5
436.269	714.6
436.644	762.51
437.02	773.13
437.395	761.38
437.77	766.12
438.145	783.07
438.52	781.94
438.895	768.16
439.271	776.29
439.646	797.54
440.021	816.74
440.395	793.92
440.77	822.39
441.145	820.13
441.52	817.42
441.895	826.01
442.27	815.84
442.645	815.61
443.019	841.38
443.394	825.33
443.769	844.31
444.143	858.1
444.518	861.94
444.892	866.91
445.267	857.42
445.641	887.25
446.016	876.18
446.39	903.3
446.764	863.75
447.139	878.66
447.513	892.9
447.887	926.57
448.262	903.52
448.636	916.4
449.01	926.8
449.384	934.71
449.758	957.53
450.132	915.95
450.506	925.22
450.88	972.45
451.254	958.89
451.628	956.18
452.002	961.37
452.376	973.35
452.75	983.29
453.123	974.25
453.497	993.46
453.871	1023.97
454.244	1024.65
454.618	1016.06
454.992	1028.49
455.365	1047.7
455.739	1062.84
456.112	1063.74
456.486	1068.26
456.859	1121.14
457.232	1124.53
457.606	1098.54
457.979	1106.23
458.352	1152.78
458.725	1165.44
459.099	1155.49
459.472	1184.42
459.845	1174.25
460.218	1190.52
460.591	1209.73
460.964	1220.58
461.337	1243.85
461.71	1256.51
462.083	1259.44
462.456	1283.62
462.829	1291.53
463.201	1305.09
463.574	1270.74
463.947	1302.61
464.32	1345.77
464.692	1341.93
465.065	1353.91
465.438	1398.88
465.81	1406.79
466.183	1421.25
466.555	1439.55
466.928	1452.43
467.3	1460.57
467.672	1504.86
468.045	1500.12
468.417	1502.38
468.789	1527.46
469.161	1509.61
469.534	1583.96
469.906	1601.81
470.278	1610.17
470.65	1642.26
471.022	1670.51
471.394	1696.95
471.766	1712.54
472.138	1726.55
472.51	1791.86
472.882	1788.47
473.253	1821.46
473.625	1845.42
473.997	1878.86
474.369	1903.5
474.74	1892.65
475.112	1960.44
475.484	1997.05
475.855	2048.35
476.227	2041.12
476.598	2158.18
476.97	2142.13
477.341	2174.67
477.713	2203.37
478.084	2253.99
478.455	2309.59
478.827	2341.45
479.198	2447.21
479.569	2423.71
479.94	2493.99
480.311	2541.67
480.682	2609.92
481.053	2681.33
481.424	2716.58
481.795	2757.48
482.166	2766.3
482.537	2842.91
482.908	2902.56
483.279	2949.12
483.65	2974.65
484.021	3081.54
484.391	3095.55
484.762	3190.47
485.133	3157.02
485.503	3252.39
485.874	3330.8
486.244	3377.13
486.615	3434.08
486.985	3484.7
487.356	3547.97
487.726	3615.77
488.097	3689.44
488.467	3715.88
488.837	3785.48
489.207	3867.96
489.578	3896.21
489.948	3935.76
490.318	4073.38
490.688	4062.31
491.058	4162.42
491.428	4217.78
491.798	4251.23
492.168	4350.44
492.538	4396.54
492.908	4469.98
493.278	4509.53
493.648	4525.8
494.017	4592.46
494.387	4698
494.757	4727.38
495.126	4775.51
495.496	4778.9
495.866	4841.27
496.235	4851.67
496.605	4900.25
496.974	4996.07
497.344	4991.32
497.713	5093.92
498.082	5087.37
498.452	5149.29
498.821	5170.98
499.19	5218.44
499.559	5291.2
499.928	5314.48
500.298	5364.2
500.667	5408.71
501.036	5395.38
501.405	5455.49
501.774	5538.2
502.143	5552.66
502.512	5594.7
502.88	5590.63
503.249	5684.64
503.618	5660.23
503.987	5718.08
504.356	5730.51
504.724	5777.97
505.093	5804.64
505.462	5842.83
505.83	5892.32
506.199	5941.36
506.567	5978.64
506.936	6034.23
507.304	6029.94
507.672	6056.61
508.041	6121.01
508.409	6187.45
508.777	6199.43
509.145	6218.86
509.514	6223.83
509.882	6299.09
510.25	6314.23
510.618	6298.86
510.986	6332.76
511.354	6453.88
511.722	6445.75
512.09	6494.11
512.458	6477.16
512.826	6571.17
513.193	6596.03
513.561	6571.62
513.929	6620.66
514.297	6638.51
514.664	6743.82
515.032	6700.21
515.4	6677.61
515.767	6793.08
516.135	6846.19
516.502	6844.16
516.869	6875.57
517.237	6918.73
517.604	6876.25
517.972	7002.34
518.339	6968.22
518.706	7037.82
519.073	7028.56
519.44	7031.04
519.808	7218.16
520.175	7151.27
520.542	7188.55
520.909	7258.16
521.276	7263.58
521.643	7315.78
522.009	7346.29
522.376	7378.15
522.743	7383.13
523.11	7554.42
523.477	7533.4
523.843	7569.33
524.21	7581.09
524.577	7687.52
524.943	7728.65
525.31	7712.38
525.676	7785.37
526.043	7836.67
526.409	7852.04
526.776	7952.38
527.142	8015.88
527.508	7999.61
527.874	8050.23
528.241	8093.39
528.607	8106.95
528.973	8195.99
529.339	8166.16
529.705	8196.89
530.071	8273.95
530.437	8380.84
530.803	8423.55
531.169	8478.01
531.535	8422.42
531.901	8522.08
532.267	8481.4
532.632	8561.85
532.998	8642.98
533.364	8668.74
533.73	8699.02
534.095	8732.69
534.461	8754.84
534.826	8830.09
535.192	8862.63
535.557	8885.68
535.923	8887.49
536.288	8997.77
536.653	8960.71
537.019	9002.74
537.384	8998.45
537.749	9030.99
538.114	9065.57
538.479	9222.17
538.845	9237.77
539.21	9189.86
539.575	9232.12
539.94	9233.47
540.305	9331.77
540.67	9325.9
541.034	9384.65
541.399	9493.13
541.764	9425.33
542.129	9486.35
542.494	9508.04
542.858	9591.43
543.223	9551.43
543.587	9608.38
543.952	9684.53
544.316	9725.66
544.681	9690.86
545.045	9732.44
545.41	9792.78
545.774	9856.96
546.138	9853.57
546.503	9863.96
546.867	9862.83
547.231	10005.88
547.595	10053.79
547.959	10058.99
548.324	10113.9
548.688	10093.34
549.052	10111.41
549.416	10117.52
549.779	10178.98
550.143	10113.9
550.507	10272.09
550.871	10317.51
551.235	10274.8
551.599	10333.56
551.962	10432.54
552.326	10501.01
552.689	10507.34
553.053	10484.06
553.417	10533.1
553.78	10684.96
554.143	10577.17
554.507	10657.84
554.87	10702.36
555.234	10838.4
555.597	10793.66
555.96	10796.37
556.323	10829.36
556.686	10791.62
557.05	10975.35
557.413	10903.94
557.776	10935.8
558.139	11024.39
558.502	11027.32
558.865	10998.62
559.228	11146.19
559.59	11212.18
559.953	11121.56
560.316	11236.81
560.679	11215.11
561.041	11366.75
561.404	11393.42
561.767	11342.34
562.129	11414.21
562.492	11550.25
562.854	11503.92
563.217	11535.33
563.579	11622.34
563.941	11708.44
564.304	11658.27
564.666	11726.29
565.028	11740.98
565.39	11804.7
565.753	11793.86
566.115	11863.69
566.477	11941.2
566.839	11900.52
567.201	12024.58
567.563	12066.84
567.925	12193.39
568.287	12075.21
568.648	12164.69
569.01	12255.09
569.372	12379.83
569.734	12325.14
570.095	12413.05
570.457	12480.39
570.819	12429.09
571.18	12532.37
571.542	12582.31
571.903	12609.88
572.265	12591.12
572.626	12752.02
572.987	12684.68
573.349	12883.55
573.71	12888.74
574.071	13051.45
574.432	13140.71
574.794	13154.72
575.155	13243.76
575.516	13194.05
575.877	13354.95
576.238	13382.52
576.599	13527.37
576.96	13566.69
577.32	13641.04
577.681	13835.84
578.042	13897.98
578.403	13978.43
578.763	14070.86
579.124	14145.89
579.485	14282.15
579.845	14461.36
580.206	14439.21
580.566	14669.49
580.927	14775.25
581.287	14936.37
581.648	15040.1
582.008	15212.75
582.368	15292.07
582.728	15446.87
583.089	15677.37
583.449	15799.63
583.809	16010.24
584.169	16266.06
584.529	16305.6
584.889	16621.98
585.249	16885.25
585.609	16948.75
585.969	17340.83
586.329	17482.52
586.688	17776.52
587.048	17850.87
587.408	18067.59
587.768	18375.83
588.127	18539.89
588.487	18794.35
588.846	19184.62
589.206	19264.85
589.565	19610.15
589.925	19965.39
590.284	20143.47
590.643	20455.78
591.003	20734.64
591.362	21102.99
591.721	21288.97
592.08	21600.38
592.44	21922.63
592.799	22278.33
593.158	22442.62
593.517	22702.5
593.876	23136.16
594.235	23339.54
594.593	23594
594.952	23934.78
595.311	24189.69
595.67	24592.62
596.029	25043
596.387	25260.17
596.746	25548.3
597.104	25744.22
597.463	26063.76
597.822	26414.72
598.18	26721.37
598.538	26905.78
598.897	27374.92
599.255	27438.19
599.613	28178.74
599.972	28151.17
600.33	28536.69
600.688	28818.04
601.046	29129.22
601.404	29497.12
601.762	29692.59
602.12	30058.46
602.478	30284.9
602.836	30647.6
603.194	30752.91
603.552	31116.51
603.91	31242.84
604.268	31619.1
604.625	31672.43
604.983	32160.1
605.341	32305.41
605.698	32577.94
606.056	32943.13
606.413	33250.47
606.771	33450.46
607.128	33671.7
607.485	33842.32
607.843	34104
608.2	34430.32
608.557	34799.13
608.914	34813.36
609.272	35253.58
609.629	35384.2
609.986	35840.68
610.343	35710.06
610.7	36124.97
611.057	36258.52
611.414	36341.91
611.771	36738.29
612.127	36983.48
612.484	36968.79
612.841	37381.21
613.198	37473.86
613.554	37609.45
613.911	38027.97
614.267	38105.48
614.624	38219.15
614.98	38683.09
615.337	38682.42
615.693	38979.58
616.05	39033.14
616.406	39246.24
616.762	39312.46
617.118	39488.72
617.475	39582.73
617.831	39893.91
618.187	39977.07
618.543	40291.64
618.899	40373.22
619.255	40517.62
619.611	40453.89
619.967	40687.56
620.323	40879.65
620.678	40811.62
621.034	40923.94
621.39	40948.12
621.746	40988.57
622.101	41667.65
622.457	41281.44
622.812	41463.36
623.168	41645.05
623.523	41823.58
623.879	41999.84
624.234	41910.35
624.589	41948.77
624.945	42113.51
625.3	42273.73
625.655	42315.31
626.01	42413.84
626.365	42440.06
626.72	42498.36
627.075	42486.83
627.43	42598.47
627.785	42561.18
628.14	42633.72
628.495	42709.88
628.85	42659.03
629.205	42702.2
629.559	42988.29
629.914	42804.79
630.269	43064.22
630.623	42883.43
630.978	42930.66
631.332	43130.21
631.687	43338.79
632.041	42920.27
632.396	43145.8
632.75	43013.6
633.104	43256.98
633.459	43158
633.813	43127.95
634.167	43049.98
634.521	43310.32
634.875	43320.03
635.229	43156.87
635.583	43077.1
635.937	43111.45
636.291	43004.56
636.645	43179.02
636.999	43099.93
637.352	43069.42
637.706	42964.79
638.06	43156.2
638.413	43172.01
638.767	43024.9
639.121	43149.87
639.474	42911.91
639.828	43070.32
640.181	43089.53
640.534	43152.35
640.888	42941.96
641.241	42866.94
641.594	43045.01
641.947	42963.21
642.301	42932.47
642.654	42945.58
643.007	42980.16
643.36	42929.31
643.713	42938.57
644.066	43091.11
644.419	42879.82
644.771	42613.16
645.124	42250.23
645.477	42245.03
645.83	41930.24
646.182	41771.83
646.535	41659.29
646.888	41786.74
647.24	41426.3
647.593	41806.85
647.945	41706.52
648.298	41537.71
648.65	41557.14
649.002	41519.4
649.355	41563.7
649.707	41516.01
650.059	41756.46
650.411	42284.81
650.763	42193.74
651.115	42686.15
651.467	42476.67
651.819	42515.08
652.171	42445.93
652.523	42459.72
652.875	42348.31
653.227	42220.85
653.578	42603.44
653.93	42405.71
654.282	42347.18
654.633	42087.07
654.985	42175.2
655.337	42313.05
655.688	42232.6
656.039	42413.39
656.391	42208.65
656.742	42200.29
657.094	42380.4
657.445	42342.21
657.796	42262.43
658.147	42286.84
658.498	42172.04
658.849	42215.66
659.2	42165.71
659.551	42127.07
659.902	42271.02
660.253	42312.15
660.604	42208.42
660.955	41929.56
661.306	42080.97
661.656	42093.17
662.007	42101.53
662.358	42123.68
662.708	42217.01
663.059	42015.21
663.409	41974.76
663.76	42053.85
664.11	42035.77
664.461	42282.77
664.811	42212.49
665.161	42180.63
665.511	42038.71
665.862	42075.55
666.212	42117.35
666.562	42232.15
666.912	42048.43
667.262	41835.33
667.612	41978.15
667.962	41964.36
668.312	41981.99
668.662	42211.36
669.011	41931.14
669.361	42099.95
669.711	41923.91
670.06	42021.08
670.41	41872.16
670.76	41870.35
671.109	42015.66
671.459	41812.05
671.808	41722.34
672.157	41971.82
672.507	41677.82
672.856	41598.04
673.205	41640.3
673.554	41854.54
673.904	41699.51
674.253	41939.96
674.602	41834.65
674.951	41136.81
675.3	41003.94
675.649	41624.94
675.998	41602.11
676.346	41605.95
676.695	41615.67
677.044	41379.52
677.393	41588.33
677.741	41508.78
678.09	41412.51
678.438	41466.52
678.787	41484.38
679.135	41586.97
679.484	41253.65
679.832	41401.21
680.181	41186.53
680.529	41277.38
680.877	41113.09
681.225	41162.58
681.573	41434.89
681.922	41036.93
682.27	40979.53
682.618	40973.2
682.966	40881.91
683.314	41028.34
683.661	40877.16
684.009	40755.35
684.357	40623.61
684.705	40675.58
685.053	40649.14
685.4	40572.53
685.748	40342.71
686.095	40436.95
686.443	40189.04
686.79	40181.36
687.138	40302.03
687.485	40149.72
687.832	40128.93
688.18	40080.34
688.527	39886.45
688.874	39940.01
689.221	39847.13
689.568	39719.68
689.915	39654.82
690.262	39634.71
690.609	39412.11
690.956	39479.46
691.303	39363.53
691.65	39028.39
691.997	39056.64
692.344	39039.69
692.69	38928.96
693.037	38987.27
693.383	38707.27
693.73	38808.06
694.077	38706.82
694.423	38530.78
694.769	38493.49
695.116	38401.52
695.462	38339.6
695.808	38248.53
696.155	38269.32
696.501	38022.77
696.847	38020.06
697.193	37760.63
697.539	37939.61
697.885	37569.9
698.231	37473.41
698.577	37533.29
698.923	37270.7
699.269	37250.36
699.614	37127.65
699.96	37151.61
700.306	37030.71
700.651	36975.34
700.997	36819.87
701.342	36821.22
701.688	36803.14
702.033	36553.66
702.379	36661
702.724	36441.12
703.069	36566.09
703.415	36101.92
703.76	36282.93
704.105	36133.1
704.45	36197.96
704.795	35809.72
705.14	35831.64
705.485	35721.81
705.83	35574.7
706.175	35621.48
706.52	35489.96
706.865	35358.21
707.209	35475.72
707.554	35249.74
707.899	35323.63
708.243	35161.38
708.588	35086.35
708.932	34869.63
709.277	34868.5
709.621	34968.84
709.966	34686.59
710.31	34612.24
710.654	34421.74
710.998	34631.22
711.342	34520.49
711.687	34354.17
712.031	34234.62
712.375	34082.99
712.719	34148.52
713.063	34146.49
713.407	34139.03
713.75	34011.58
714.094	34035.98
714.438	33852.49
714.782	33940.39
715.125	33654.3
715.469	33807.52
715.812	33565.26
716.156	33450.46
716.499	33484.36
716.843	33469.22
717.186	33357.13
717.53	33385.15
717.873	33414.98
718.216	33457.69
718.559	33156.68
718.902	32987.88
719.246	32992.17
719.589	33003.02
719.932	32763.25
720.275	32858.61
720.617	32707.66
720.96	32703.14
721.303	32793.08
721.646	32769.35
721.989	32423.82
722.331	32611.61
722.674	32441.22
723.016	32437.16
723.359	32438.29
723.701	32416.59
724.044	32258.86
724.386	32135.69
724.729	32176.82
725.071	32081.01
725.413	32092.53
725.755	32110.38
726.097	31997.39
726.439	31901.35
726.782	31878.75
727.124	31918.98
727.465	31679.89
727.807	31806.21
728.149	31672.88
728.491	31581.36
728.833	31594.01
729.175	31446.9
729.516	31453
729.858	31518.31
730.199	31365.77
730.541	31287.36
730.882	31386.79
731.224	31436.5
731.565	31241.25
731.906	31197.41
732.248	31267.92
732.589	31019.79
732.93	31040.13
733.271	31027.25
733.612	30992
733.953	31064.31
734.294	30908.61
734.635	30822.28
734.976	30829.29
735.317	30622.51
735.658	30688.05
735.999	30674.26
736.339	30687.15
736.68	30704.09
737.021	30566.24
737.361	30293.94
737.702	30511.78
738.042	30636.07
738.383	30460.48
738.723	30328.28
739.063	30418
739.404	30322.18
739.744	30231.34
740.084	30178.91
740.424	30205.12
740.764	30138.46
741.104	30253.71
741.444	30055.3
741.784	29903.89
742.124	30085.13
742.464	29995.86
742.804	29925.81
743.143	29803.78
743.483	29754.06
743.823	29638.81
744.162	29650.79
744.502	29723.33
744.841	29568.3
745.181	29654.86
745.52	29545.93
745.86	29466.84
746.199	29472.94
746.538	29397.69
746.877	29473.39
747.216	29417.12
747.556	29232.49
747.895	29389.33
748.234	29299.16
748.573	29227.75
748.911	29129.22
749.25	29166.06
749.589	29030.47
749.928	29131.93
750.267	29144.13
750.605	28992.27
750.944	28872.28
751.283	28863.69
751.621	29003.12
751.96	28777.36
752.298	28802.67
752.636	28800.42
752.975	28690.36
753.313	28566.52
753.651	28662.34
753.989	28471.84
754.327	28523.59
754.666	28367.66
755.004	28296.7
755.342	28419.41
755.679	28300.54
756.017	28112.75
756.355	28290.82
756.693	28126.76
757.031	28166.08
757.368	27925.41
757.706	27890.83
758.044	27953.21
758.381	27916.14
758.719	27857.39
759.056	27697.62
759.394	27719.77
759.731	27443.16
760.068	27621.01
760.405	27333.56
760.743	27247.69
761.08	27391.41
761.417	27119.33
761.754	27122.72
762.091	27134.02
762.428	26981.48
762.765	26884.76
763.102	26931.31
763.438	26775.16
763.775	26552.56
764.112	26750.07
764.449	26722.28
764.785	26519.12
765.122	26279.8
765.458	26195.29
765.795	26216.75
766.131	26178.56
766.467	26082.52
766.804	25920.26
767.14	25812.7
767.476	25857.89
767.812	25658.58
768.148	25708.74
768.485	25532.25
768.821	25500.61
769.157	25344.46
769.492	25334.07
769.828	25244.35
770.164	25163.67
770.5	24993.28
770.836	25039.38
771.171	24834.42
771.507	24861.54
771.842	24693.86
772.178	24559.62
772.513	24626.29
772.849	24541.09
773.184	24420.42
773.519	24427.65
773.855	24352.4
774.19	24058.84
774.525	24119.63
774.86	24151.05
775.195	24029.47
775.53	23846.42
775.865	23742.24
776.2	23755.8
776.535	23554.9
776.87	23569.14
777.205	23431.97
777.539	23378.64
777.874	23322.59
778.209	23171.41
778.543	23060.68
778.878	22917.41
779.212	22897.97
779.547	22899.55
779.881	22878.99
780.215	22698.88
780.55	22666.34
780.884	22582.5
781.218	22478.1
781.552	22433.12
781.886	22304.99
782.22	22206.92
782.554	22138.9
782.888	21865.68
783.222	21865.23
783.556	21792.01
783.889	21630.89
784.223	21561.28
784.557	21625.69
784.89	21603.77
785.224	21368.07
785.557	21238.81
785.891	21331.01
786.224	21187.73
786.558	21262.99
786.891	21043.56
787.224	20994.07
787.557	20891.24
787.891	20834.97
788.224	20798.82
788.557	20767.41
788.89	20725.15
789.223	20681.31
789.556	20444.02
789.888	20519.05
790.221	20369.9
790.554	20234.31
790.887	20317.7
791.219	20180.75
791.552	20070.02
791.884	19998.84
792.217	19959.97
792.549	19922.23
792.882	19782.8
793.214	19752.29
793.546	19785.06
793.879	19606.76
794.211	19537.83
794.543	19578.28
794.875	19473.43
795.207	19513.65
795.539	19376.03
795.871	19381.45
796.203	19166.32
796.535	19174.45
796.867	18998.41
797.198	19023.05
797.53	19008.58
797.862	18874.8
798.193	18837.06
798.525	18766.1
798.856	18796.84
799.188	18556.39
799.519	18531.53
799.85	18454.92
800.182	18427.81
800.513	18563.62
800.844	18327.7
801.175	18332.67
801.506	18353.01
801.837	18242.73
802.168	18255.61
802.499	18071.43
802.83	17992.34
803.161	18009.96
803.491	17902.85
803.822	17900.81
804.153	17843.64
804.483	17739.91
804.814	17704.66
805.145	17596.42
805.475	17570.2
805.805	17595.96
806.136	17636.64
806.466	17541.95
806.796	17479.13
807.126	17373.6
807.457	17287.72
807.787	17285.24
808.117	17150.33
808.447	17247.95
808.777	17205.24
809.107	17140.61
809.436	17015.19
809.766	16962.99
810.096	16973.38
810.426	16885.93
810.755	16934.06
811.085	16896.32
811.414	16776.78
811.744	16696.55
812.073	16602.32
812.403	16628.53
812.732	16573.62
813.061	16562.32
813.39	16563.9
813.719	16435.32
814.049	16428.54
814.378	16397.13
814.707	16313.74
815.036	16317.13
815.365	16212.72
815.693	16131.37
816.022	16088.43
816.351	16024.93
816.68	16040.98
817.008	15977.7
817.337	15861.09
817.665	15928.89
817.994	15891.83
818.322	15864.48
818.651	15735.22
818.979	15688.22
819.307	15732.51
819.636	15767.99
819.964	15578.62
820.292	15691.83
820.62	15631.5
820.948	15603.47
821.276	15585.4
821.604	15578.62
821.932	15627.88
822.259	15556.7
822.587	15540.2
822.915	15535.91
823.243	15511.72
823.57	15441.44
823.898	15529.35
824.225	15426.76
824.553	15465.4
824.88	15490.93
825.207	15509.92
825.535	15373.65
825.862	15554.44
826.189	15423.37
826.516	15504.04
826.843	15524.15
827.17	15481.22
827.497	15543.81
827.824	15487.77
828.151	15529.35
828.478	15487.09
828.805	15475.57
829.131	15444.38
829.458	15423.37
829.785	15324.61
830.111	15428.79
830.438	15434.21
830.764	15315.35
831.09	15458.17
831.417	15330.94
831.743	15409.58
832.069	15399.19
832.395	15368
832.722	15391.95
833.048	15374.55
833.374	15353.31
833.7	15220.89
834.026	15297.95
834.351	15306.08
834.677	15232.86
835.003	15282.35
835.329	15295.46
835.654	15173.88
835.98	15154.22
836.306	15192.64
836.631	15149.25
836.956	15209.36
837.282	15170.26
837.607	15085.52
837.932	15011.17
838.258	15056.6
838.583	14938.86
838.908	14843.04
839.233	14830.39
839.558	14887.56
839.883	14883.04
840.208	14873.32
840.533	14862.48
840.858	14841.69
841.182	14817.73
841.507	14866.09
841.832	14724.17
842.156	14653.22
842.481	14739.54
842.805	14674.91
843.13	14657.74
843.454	14689.37
843.778	14509.04
844.103	14539.1
844.427	14489.6
844.751	14444.18
845.075	14464.29
845.399	14383.84
845.723	14212.1
846.047	14268.37
846.371	14225.21
846.695	14215.71
847.019	14021.82
847.343	14002.16
847.666	13978.88
847.99	13942.27
848.313	13861.6
848.637	13739.57
848.96	13813.24
849.284	13728.27
849.607	13639.68
849.931	13565.56
850.254	13511.33
850.577	13433.14
850.9	13327.83
851.223	13387.26
851.546	13250.99
851.869	13157.21
852.192	13241.73
852.515	13144.33
852.838	13129.19
853.161	13093.48
853.483	13012.36
853.806	12975.75
854.129	12961.96
854.451	12864.79
854.774	12802.19
855.096	12783.21
855.419	12768.75
855.741	12753.15
856.063	12661.86
856.385	12626.83
856.708	12592.48
857.03	12558.58
857.352	12525.59
857.674	12424.35
857.996	12470
858.318	12355.42
858.64	12415.76
858.961	12299.38
859.283	12203.79
859.605	12284.24
859.926	12217.8
860.248	12255.77
860.57	12204.69
860.891	12193.62
861.212	12072.27
861.534	12068.43
861.855	12037.47
862.176	12102.77
862.498	12067.97
862.819	12041.31
863.14	11914.76
863.461	11932.61
863.782	11952.27
864.103	11925.6
864.424	11868.43
864.745	11902.78
865.065	11798.83
865.386	11810.81
865.707	11717.02
866.027	11785.04
866.348	11778.26
866.668	11755.44
866.989	11630.92
867.309	11575.56
867.63	11651.04
867.95	11645.84
868.27	11614.88
868.59	11595.67
868.91	11575.78
869.23	11507.08
869.55	11472.06
869.87	11530.13
870.19	11489.68
870.51	11543.69
870.83	11478.84
871.15	11381.21
871.469	11427.31
871.789	11491.27
872.109	11418.5
872.428	11310.48
872.748	11416.47
873.067	11299.63
873.386	11324.72
873.706	11200.43
874.025	11252.4
874.344	11168.11
874.663	11188.67
874.982	11171.5
875.301	11178.28
875.62	11145.51
875.939	11037.72
876.258	11121.11
876.577	11046.53
876.896	11077.04
877.214	11043.37
877.533	11051.05
877.852	10993.2
878.17	11018.28
878.489	11032.52
878.807	10971.51
879.125	10919.53
879.444	10956.59
879.762	10928.12
880.08	10849.25
880.398	10864.84
880.716	10851.96
881.034	10830.49
881.352	10835.92
881.67	10784.17
881.988	10799.08
882.306	10768.57
882.624	10704.85
882.941	10730.38
883.259	10639.31
883.577	10633.21
883.894	10649.03
884.212	10597.05
884.529	10604.74
884.846	10505.08
885.164	10534.45
885.481	10521.57
885.798	10564.06
886.115	10484.29
886.432	10440.67
886.75	10378.3
887.067	10439.99
887.383	10376.49
887.7	10348.7
888.017	10324.74
888.334	10263.5
888.651	10268.92
888.967	10241.58
889.284	10174.46
889.6	10169.27
889.917	10090.85
890.233	10122.94
890.55	10074.81
890.866	10134.24
891.182	10061.25
891.498	10022.15
891.815	9917.97
892.131	9931.53
892.447	9913.23
892.763	9864.19
893.079	9855.83
893.395	9724.31
893.71	9708.04
894.026	9755.04
894.342	9784.42
894.657	9668.49
894.973	9689.96
895.289	9650.64
895.604	9622.84
895.92	9609.51
896.235	9605.44
896.55	9520.24
896.865	9538.32
897.181	9436.4
897.496	9444.54
897.811	9456.74
898.126	9392.79
898.441	9337.65
898.756	9319.12
899.071	9275.05
899.386	9261.04
899.7	9178.33
900.015	9122.97
900.33	9071.22
900.644	9020.82
900.959	9136.75
901.273	9058.11
901.588	8943.99
901.902	8926.59
902.216	8908.06
902.531	8895.4
902.845	8825.35
903.159	8747.16
903.473	8804.56
903.787	8784.44
904.101	8696.54
904.415	8669.64
904.729	8650.21
905.042	8629.42
905.356	8600.49
905.67	8616.76
905.984	8567.5
906.297	8496.99
906.611	8512.81
906.924	8485.24
907.237	8484.57
907.551	8458.58
907.864	8326.15
908.177	8358.01
908.491	8318.69
908.804	8328.18
909.117	8254.97
909.43	8150.34
909.743	8141.07
910.056	8127.51
910.368	8122.54
910.681	8035.54
910.994	8052.49
911.307	7973.62
911.619	7947.63
911.932	7993.5
912.244	7835.09
912.557	7862.66
912.869	7832.38
913.181	7789.44
913.494	7804.36
913.806	7793.51
914.118	7670.8
914.43	7616.79
914.742	7656.56
915.054	7611.82
915.366	7574.98
915.678	7563.69
915.99	7507.42
916.302	7493.63
916.613	7422.45
916.925	7375.89
917.236	7327.76
917.548	7315.56
917.859	7377.7
918.171	7348.1
918.482	7293.86
918.794	7264.03
919.105	7234.2
919.416	7189.68
919.727	7099.97
920.038	7100.65
920.349	7097.03
920.66	7018.39
920.971	7013.64
921.282	7015.23
921.593	6947.43
921.903	6926.87
922.214	6913.76
922.525	6871.73
922.835	6879.18
923.146	6825.85
923.456	6789.02
923.767	6761.67
924.077	6755.34
924.387	6710.83
924.697	6671.28
925.008	6631.51
925.318	6668.57
925.628	6588.34
925.938	6570.49
926.248	6503.37
926.558	6483.26
926.867	6496.14
927.177	6472.41
927.487	6455.47
927.796	6346.99
928.106	6382.93
928.416	6354.45
928.725	6364.39
929.034	6304.96
929.344	6238.97
929.653	6273.78
929.962	6263.83
930.271	6192.2
930.581	6164.63
930.89	6126.66
931.199	6054.35
931.508	6084.63
931.817	6065.19
932.125	6029.71
932.434	6025.65
932.743	5968.92
933.051	5901.81
933.36	5868.81
933.669	5856.61
933.977	5847.12
934.286	5835.37
934.594	5823.39
934.902	5794.01
935.21	5799.66
935.519	5708.82
935.827	5712.43
936.135	5688.03
936.443	5644.19
936.751	5633.11
937.059	5636.5
937.367	5600.35
937.674	5629.72
937.982	5594.7
938.29	5533.23
938.597	5540.01
938.905	5518.09
939.213	5443.06
939.52	5392.22
939.827	5374.59
940.135	5398.09
940.442	5298.43
940.749	5337.53
941.056	5321.71
941.363	5297.53
941.67	5304.76
941.977	5194.26
942.284	5184.54
942.591	5219.79
942.898	5158.1
943.205	5164.88
943.511	5125.33
943.818	5140.92
944.125	5121.04
944.431	5099.57
944.738	5064.32
945.044	5043.53
945.35	5014.6
945.657	4973.02
945.963	4947.71
946.269	4856.64
946.575	4939.57
946.881	4916.98
947.187	4904.77
947.493	4845.79
947.799	4822.74
948.105	4797.43
948.41	4787.26
948.716	4765.34
949.022	4741.84
949.327	4739.13
949.633	4689.41
949.938	4697.77
950.244	4637.43
950.549	4639.24
950.854	4581.84
951.16	4618.9
951.465	4573.03
951.77	4580.71
952.075	4536.65
952.38	4549.3
952.685	4535.29
952.99	4497.1
953.294	4411.45
953.599	4448.96
953.904	4411.23
954.209	4373.26
954.513	4346.14
954.818	4383.66
955.122	4365.13
955.426	4331
955.731	4326.93
956.035	4299.59
956.339	4295.3
956.643	4241.74
956.948	4254.62
957.252	4235.64
957.556	4182.53
957.86	4185.47
958.163	4156.32
958.467	4153.61
958.771	4117.22
959.075	4126.04
959.378	4096.21
959.682	4073.16
959.985	4022.31
960.289	4036.77
960.592	3989.77
960.896	4000.39
961.199	3977.34
961.502	3978.02
961.805	3964.91
962.108	3929.88
962.411	3938.47
962.714	3901.63
963.017	3874.06
963.32	3916.78
963.623	3830.9
963.926	3868.64
964.228	3850.11
964.531	3810.34
964.833	3806.04
965.136	3781.86
965.438	3710
965.741	3745.25
966.043	3733.05
966.345	3717.91
966.648	3685.37
966.95	3682.21
967.252	3654.64
967.554	3660.96
967.856	3632.04
968.158	3566.73
968.46	3614.41
968.761	3614.18
969.063	3542.1
969.365	3542.77
969.666	3519.95
969.968	3482.21
970.269	3519.95
970.571	3484.47
970.872	3470.23
971.174	3438.6
971.475	3425.94
971.776	3432.49
972.077	3422.55
972.378	3404.25
972.679	3410.8
972.98	3370.35
973.281	3327.86
973.582	3345.94
973.883	3343.46
974.183	3331.25
974.484	3314.53
974.785	3278.6
975.085	3276.11
975.386	3296.23
975.686	3238.83
975.986	3229.34
976.287	3196.34
976.587	3190.92
976.887	3179.17
977.187	3181.43
977.487	3130.36
977.787	3130.58
978.087	3096.46
978.387	3091.94
978.687	3100.98
978.987	3093.52
979.286	3082.22
979.586	3036.35
979.885	3051.04
980.185	3006.97
980.484	3014.2
980.784	2973.52
981.083	2973.52
981.382	2978.04
981.682	2956.57
981.981	2928.78
982.28	2949.34
982.579	2936.01
982.878	2893.75
983.177	2915.9
983.475	2919.51
983.774	2886.97
984.073	2844.04
984.372	2831.61
984.67	2802.91
984.969	2824.15
985.267	2848.78
985.566	2817.14
985.864	2730.82
986.162	2758.61
986.461	2769.91
986.759	2694.21
987.057	2733.3
987.355	2698.28
987.653	2697.6
987.951	2683.14
988.249	2662.12
988.547	2674.1
988.844	2654.44
989.142	2657.6
989.44	2634.55
989.737	2587.77
990.035	2562.23
990.332	2621.67
990.63	2608.11
990.927	2571.73
991.224	2548.9
991.521	2547.55
991.819	2591.39
992.116	2521.11
992.413	2500.32
992.71	2475.01
993.006	2507.1
993.303	2460.77
993.6	2451.73
993.897	2485.4
994.193	2444.72
994.49	2431.84
994.787	2437.72
995.083	2383.93
995.379	2423.93
995.676	2391.17
995.972	2343.48
996.268	2398.62
996.565	2391.17
996.861	2308.68
997.157	2337.83
997.453	2329.7
997.749	2318.4
998.044	2323.37
998.34	2306.87
998.636	2283.82
998.932	2274.78
999.227	2224.62
999.523	2241.57
999.818	2217.39
1000.114	2205.18
1000.409	2195.01
1000.704	2206.09
1001	2194.56
1001.295	2137.39
1001.59	2132.87
1001.885	2139.65
1002.18	2134.9
1002.475	2109.82
1002.77	2089.25
1003.065	2090.61
1003.359	2094.68
1003.654	2083.15
1003.949	2071.17
1004.243	2074.56
1004.538	2054.9
1004.832	2007.22
1005.127	2028.46
1005.421	2005.87
1005.715	2009.71
1006.009	1987.79
1006.304	1954.57
1006.598	1936.94
1006.892	1915.7
1007.186	1946.88
1007.48	1928.13
1007.773	1916.38
1008.067	1907.11
1008.361	1915.47
1008.655	1899.65
1008.948	1888.58
1009.242	1860.33
1009.535	1850.16
1009.829	1844.06
1010.122	1835.93
1010.415	1829.82
1010.708	1801.58
1011.001	1793.89
1011.295	1829.15
1011.588	1785.98
1011.881	1780.79
1012.173	1781.24
1012.466	1733.56
1012.759	1755.02
1013.052	1739.88
1013.344	1724.29
1013.637	1708.25
1013.93	1701.69
1014.222	1680.45
1014.514	1678.42
1014.807	1679.77
1015.099	1633.67
1015.391	1654.91
1015.683	1645.87
1015.976	1651.98
1016.268	1633.9
1016.56	1612.88
1016.851	1592.99
1017.143	1600.23
1017.435	1586.67
1017.727	1562.94
1018.018	1571.98
1018.31	1559.1
1018.602	1578.08
1018.893	1531.98
1019.185	1507.12
1019.476	1512.77
1019.767	1519.1
1020.058	1490.17
1020.35	1473.9
1020.641	1459.67
1020.932	1475.48
1021.223	1454.47
1021.514	1460.34
1021.804	1452.43
1022.095	1409.95
1022.386	1417.41
1022.677	1399.33
1022.967	1386.45
1023.258	1385.32
1023.548	1387.58
1023.839	1402.72
1024.129	1348.71
1024.419	1355.03
1024.709	1351.19
1025	1319.33
1025.29	1330.18
1025.58	1319.56
1025.87	1308.03
1026.16	1294.47
1026.449	1291.31
1026.739	1292.44
1027.029	1289.05
1027.319	1261.48
1027.608	1253.57
1027.898	1251.08
1028.187	1228.26
1028.477	1246.11
1028.766	1231.87
1029.055	1242.04
1029.344	1219.67
1029.634	1210.18
1029.923	1193.91
1030.212	1181.25
1030.501	1195.72
1030.79	1183.06
1031.078	1168.15
1031.367	1162.72
1031.656	1157.3
1031.945	1144.65
1032.233	1137.87
1032.522	1117.98
1032.81	1111.88
1033.099	1138.09
1033.387	1103.06
1033.675	1115.72
1033.963	1132.44
1034.251	1094.93
1034.54	1084.76
1034.828	1063.97
1035.116	1060.81
1035.403	1052.67
1035.691	1040.02
1035.979	1062.84
1036.267	1030.52
1036.554	1033.91
1036.842	1028.94
1037.129	1045.66
1037.417	1015.83
1037.704	1008.15
1037.992	1010.41
1038.279	1001.37
1038.566	985.55
1038.853	985.55
1039.14	985.55
