Data from hue_10_FLMS001491_82.txt Node
Date: Mon Feb 06 15:32:41 GMT 2017
User: dcchb
Spectrometer: FLMS00149
Trigger mode: 0
Integration Time (sec): 2.000000E-2
Scans to average: 10
Electric dark correction enabled: true
Nonlinearity correction enabled: false
Boxcar width: 0
XAxis mode: Wavelengths
Number of Pixels in Spectrum: 2048
>>>>>Begin Spectral Data<<<<<
341.393	-12.64
341.776	-12.64
342.16	-12.64
342.543	-59.19
342.927	-50.15
343.31	-65.75
343.693	-63.71
344.077	-80.21
344.46	-54.67
344.843	-56.03
345.226	-56.48
345.61	-31.17
345.993	-10.61
346.376	-10.61
346.759	11.09
347.142	40.69
347.525	32.1
347.908	53.12
348.291	80.24
348.674	107.36
349.057	104.64
349.44	140.8
349.823	144.64
350.206	164.3
350.588	184.87
350.971	225.32
351.354	242.95
351.737	240.91
352.119	245.66
352.502	264.41
352.884	282.04
353.267	245.21
353.65	305.54
354.032	303.51
354.414	296.96
354.797	309.16
355.179	294.7
355.562	319.1
355.944	309.61
356.326	339.21
356.709	332.66
357.091	335.82
357.473	362.26
357.855	342.83
358.238	367.01
358.62	326.11
359.002	354.36
359.384	364.3
359.766	327.46
360.148	338.31
360.53	341.47
360.912	342.6
361.294	327.01
361.676	361.36
362.057	338.76
362.439	320.46
362.821	356.16
363.203	333.34
363.584	356.16
363.966	307.12
364.348	308.03
364.729	319.55
365.111	335.15
365.493	324.3
365.874	324.3
366.256	334.92
366.637	297.18
367.019	324.75
367.4	308.71
367.781	314.81
368.163	301.7
368.544	334.02
368.925	312.77
369.306	334.02
369.688	325.2
370.069	303.96
370.45	307.8
370.831	312.32
371.212	351.19
371.593	326.11
371.974	314.36
372.355	326.33
372.736	337.41
373.117	325.66
373.498	329.27
373.879	315.71
374.26	303.28
374.641	318.2
375.021	313
375.402	303.96
375.783	321.59
376.163	297.63
376.544	317.52
376.925	317.52
377.305	332.66
377.686	300.57
378.066	331.3
378.447	314.58
378.827	311.19
379.208	346.22
379.588	348.93
379.968	323.62
380.349	346.67
380.729	322.49
381.109	338.31
381.489	322.94
381.87	329.5
382.25	332.89
382.63	351.64
383.01	348.48
383.39	337.86
383.77	362.49
384.15	350.74
384.53	364.07
384.91	345.54
385.29	349.61
385.67	341.7
386.049	358.87
386.429	338.08
386.809	346.9
387.189	355.26
387.568	351.87
387.948	366.78
388.328	361.59
388.707	364.98
389.087	362.49
389.466	355.26
389.846	350.74
390.225	372.43
390.605	360.91
390.984	357.07
391.363	369.95
391.743	354.58
392.122	369.95
392.501	399.78
392.881	372.21
393.26	377.86
393.639	384.64
394.018	370.17
394.397	379.67
394.776	367.01
395.155	380.12
395.534	375.82
395.913	383.28
396.292	376.73
396.671	377.18
397.05	375.82
397.429	381.02
397.808	378.08
398.186	395.94
398.565	380.34
398.944	382.83
399.323	374.02
399.701	388.7
400.08	392.55
400.458	391.87
400.837	404.3
401.215	363.62
401.594	397.29
401.972	389.16
402.351	404.98
402.729	396.61
403.107	382.6
403.486	395.71
403.864	396.39
404.242	415.6
404.62	405.88
404.999	407.46
405.377	398.65
405.755	409.95
406.133	409.72
406.511	433
406.889	405.88
407.267	417.63
407.645	411.75
408.023	424.41
408.401	415.37
408.779	417.63
409.156	440.68
409.534	444.52
409.912	458.99
410.29	444.3
410.667	437.97
411.045	427.12
411.422	438.87
411.8	432.55
412.178	453.79
412.555	464.86
412.933	449.27
413.31	477.74
413.687	470.51
414.065	454.92
414.442	455.82
414.819	473.45
415.197	487.01
415.574	475.48
415.951	475.26
416.328	469.38
416.705	482.04
417.082	476.61
417.46	491.07
417.837	492.66
418.214	474.13
418.591	488.36
418.967	503.96
419.344	490.4
419.721	491.98
420.098	501.02
420.475	494.24
420.852	515.25
421.228	521.36
421.605	502.37
421.982	524.75
422.358	517.97
422.735	526.55
423.111	498.53
423.488	521.36
423.864	524.75
424.241	529.94
424.617	538.98
424.994	547.34
425.37	536.27
425.746	537.18
426.123	540.56
426.499	547.34
426.875	559.77
427.251	574.24
427.627	574.24
428.003	581.92
428.379	577.17
428.756	578.08
429.132	564.97
429.507	581.02
429.883	573.78
430.259	583.28
430.635	560.9
431.011	584.41
431.387	583.73
431.763	624.63
432.138	620.34
432.514	622.82
432.89	608.59
433.265	626.66
433.641	634.35
434.016	642.94
434.392	638.87
434.767	630.96
435.143	642.94
435.518	657.62
435.894	656.72
436.269	658.3
436.644	668.02
437.02	666.66
437.395	685.65
437.77	691.97
438.145	685.65
438.52	691.07
438.895	710.96
439.271	688.81
439.646	710.73
440.021	716.15
440.395	706.44
440.77	707.34
441.145	699.2
441.52	726.55
441.895	706.44
442.27	715.25
442.645	704.85
443.019	723.61
443.394	734.68
443.769	730.84
444.143	731.07
444.518	733.78
444.892	741.92
445.267	776.26
445.641	740.79
446.016	772.2
446.39	755.02
446.764	743.72
447.139	762.71
447.513	764.06
447.887	780.11
448.262	802.25
448.636	781.24
449.01	785.08
449.384	767
449.758	759.77
450.132	812.42
450.506	796.38
450.88	813.33
451.254	824.17
451.628	821.91
452.002	840.22
452.376	832.53
452.75	830.95
453.123	826.21
453.497	836.83
453.871	860.56
454.244	841.35
454.618	848.58
454.992	873.21
455.365	913.21
455.739	896.94
456.112	911.63
456.486	880.89
456.859	892.87
457.232	901.01
457.606	921.35
457.979	955.92
458.352	957.28
458.725	942.59
459.099	945.07
459.472	958.86
459.845	998.86
460.218	988.01
460.591	990.72
460.964	987.33
461.337	1015.81
461.71	1053.09
462.083	1051.74
462.456	1050.38
462.829	1013.55
463.201	1040.21
463.574	1061.91
463.947	1076.82
464.32	1075.01
464.692	1099.19
465.065	1111.17
465.438	1126.76
465.81	1132.64
466.183	1150.27
466.555	1135.35
466.928	1141.91
467.3	1149.14
467.672	1167.89
468.045	1211.28
468.417	1209.25
468.789	1221.68
469.161	1253.31
469.534	1263.26
469.906	1282.47
470.278	1324.73
470.65	1325.63
471.022	1323.82
471.394	1357.72
471.766	1370.83
472.138	1366.53
472.51	1405.85
472.882	1401.11
473.253	1455.57
473.625	1451.28
473.997	1481.33
474.369	1496.02
474.74	1548.67
475.112	1519.07
475.484	1593.64
475.855	1606.53
476.227	1602.23
476.598	1653.08
476.97	1655.79
477.341	1681.55
477.713	1725.62
478.084	1734.21
478.455	1792.28
478.827	1820.31
479.198	1850.36
479.569	1840.64
479.94	1914.31
480.311	1951.6
480.682	1991.83
481.053	2005.61
481.424	2073.86
481.795	2059.62
482.166	2106.17
482.537	2146.85
482.908	2191.14
483.279	2235.44
483.65	2246.96
484.021	2330.12
484.391	2356.79
484.762	2362.44
485.133	2400.63
485.503	2469.1
485.874	2517.46
486.244	2516.11
486.615	2580.96
486.985	2619.15
487.356	2659.61
487.726	2679.04
488.097	2732.82
488.467	2748.19
488.837	2798.58
489.207	2879.26
489.578	2909.77
489.948	2935.3
490.318	2993.83
490.688	3010.1
491.058	3034.74
491.428	3112.47
491.798	3131.23
492.168	3204.9
492.538	3185.47
492.908	3303.43
493.278	3291
493.648	3322.86
494.017	3381.39
494.387	3387.04
494.757	3396.99
495.126	3454.61
495.496	3498.68
495.866	3524.67
496.235	3561.05
496.605	3570.77
496.974	3623.42
497.344	3670.2
497.713	3714.72
498.082	3725.57
498.452	3755.85
498.821	3794.49
499.19	3744.77
499.559	3820.03
499.928	3831.55
500.298	3874.71
500.667	3893.25
501.036	3869.97
501.405	3920.81
501.774	3962.62
502.143	3973.24
502.512	3995.39
502.88	4036.29
503.249	4065.67
503.618	4036.29
503.987	4101.6
504.356	4154.03
504.724	4175.72
505.093	4155.39
505.462	4157.64
505.83	4247.59
506.199	4224.31
506.567	4288.26
506.936	4259.34
507.304	4324.42
507.672	4333.69
508.041	4338.66
508.409	4400.35
508.777	4425.89
509.145	4438.09
509.514	4438.09
509.882	4517.86
510.25	4431.54
510.618	4444.42
510.986	4500.01
511.354	4514.7
511.722	4567.13
512.09	4616.84
512.458	4591.98
512.826	4641.7
513.193	4650.51
513.561	4650.97
513.929	4672.21
514.297	4702.26
514.664	4773.45
515.032	4716.95
515.4	4753.79
515.767	4759.21
516.135	4791.75
516.502	4773.45
516.869	4818.64
517.237	4841.69
517.604	4784.97
517.972	4883.05
518.339	4898.42
518.706	4945.65
519.073	4876.27
519.44	4945.19
519.808	4979.77
520.175	4958.98
520.542	4995.36
520.909	5050.95
521.276	5017.28
521.643	5106.77
522.009	5126.21
522.376	5086.89
522.743	5162.59
523.11	5190.16
523.477	5146.77
523.843	5217.5
524.21	5264.06
524.577	5240.1
524.943	5382.02
525.31	5340.44
525.676	5359.42
526.043	5383.83
526.409	5411.85
526.776	5460.21
527.142	5473.99
527.508	5520.77
527.874	5578.17
528.241	5535.46
528.607	5557.61
528.973	5637.38
529.339	5622.69
529.705	5668.11
530.071	5711.95
530.437	5698.17
530.803	5731.39
531.169	5803.25
531.535	5792.4
531.901	5807.77
532.267	5850.71
532.632	5826.3
532.998	5858.62
533.364	5895.68
533.73	5874.89
534.095	5962.57
534.461	5994.21
534.826	5969.8
535.192	6034.21
535.557	6078.72
535.923	6091.38
536.288	6059.74
536.653	6086.18
537.019	6135.22
537.384	6158.27
537.749	6166.18
538.114	6198.95
538.479	6226.97
538.845	6281.2
539.21	6257.7
539.575	6276.01
539.94	6325.05
540.305	6339.96
540.67	6352.62
541.034	6497.92
541.399	6403.01
541.764	6450.47
542.129	6529.33
542.494	6467.41
542.858	6561.42
543.223	6534.53
543.587	6568.2
543.952	6588.09
544.316	6642.1
544.681	6693.62
545.045	6746.73
545.41	6673.51
545.774	6759.38
546.138	6754.86
546.503	6777.01
546.867	6813.85
547.231	6879.16
547.595	6872.15
547.959	6930.68
548.324	6883.22
548.688	6893.84
549.052	6911.47
549.416	6982.43
549.779	7031.24
550.143	6977.01
550.507	7041.18
550.871	7119.83
551.235	7068.3
551.599	7133.16
551.962	7123.22
552.326	7201.41
552.689	7254.06
553.053	7209.54
553.417	7197.11
553.78	7277.11
554.143	7323.89
554.507	7330.22
554.87	7320.95
555.234	7384.45
555.597	7356.2
555.96	7438.46
556.323	7496.09
556.686	7442.76
557.05	7539.7
557.413	7511.23
557.776	7480.72
558.139	7544.45
558.502	7588.29
558.865	7633.94
559.228	7637.1
559.59	7669.87
559.953	7731.79
560.316	7766.59
560.679	7728.62
561.041	7789.41
561.404	7825.8
561.767	7881.61
562.129	7808.85
562.492	7850.2
562.854	7916.42
563.217	7942.63
563.579	7981.27
563.941	8023.08
564.304	8009.07
564.666	8025.57
565.028	8118.9
565.39	8064.89
565.753	8154.15
566.115	8131.33
566.477	8216.3
566.839	8185.79
567.201	8267.14
567.563	8249.29
567.925	8327.93
568.287	8340.59
568.648	8294.26
569.01	8431.88
569.372	8482.28
569.734	8413.8
570.095	8461.03
570.457	8552.78
570.819	8516.17
571.18	8538.32
571.542	8663.06
571.903	8664.87
572.265	8698.77
572.626	8765.66
572.987	8842.95
573.349	8847.24
573.71	8934.47
574.071	8969.27
574.432	8997.07
574.794	9059.44
575.155	9111.64
575.516	9125.88
575.877	9249.04
576.238	9235.03
576.599	9311.41
576.96	9395.25
577.32	9482.7
577.681	9574.45
578.042	9642.25
578.403	9787.55
578.763	9827.55
579.124	9932.63
579.485	10012.18
579.845	10121.56
580.206	10224.6
580.566	10300.53
580.927	10489.91
581.287	10571.04
581.648	10700.75
582.008	10849.9
582.368	10928.09
582.728	11118.82
583.089	11228.87
583.449	11340.05
583.809	11530.56
584.169	11777.11
584.529	11813.49
584.889	12079.24
585.249	12269.3
585.609	12313.59
585.969	12671.77
586.329	12869.73
586.688	13074.7
587.048	13242.15
587.408	13471.52
587.768	13704.51
588.127	13879.2
588.487	14054.11
588.846	14445.06
589.206	14600.31
589.565	14808.66
589.925	15160.75
590.284	15386.05
590.643	15732.26
591.003	16056.99
591.362	16262.64
591.721	16518.68
592.08	16759.57
592.44	17032.33
592.799	17426.67
593.158	17571.3
593.517	17928.13
593.876	18248.35
594.235	18532.41
594.593	18802.46
594.952	19249
595.311	19362.67
595.67	19689.44
596.029	20149.09
596.387	20546.59
596.746	20828.84
597.104	20949.07
597.463	21279.91
597.822	21644.64
598.18	21915.82
598.538	22210.05
598.897	22701.11
599.255	22837.38
599.613	23423.35
599.972	23603.91
600.33	24007.74
600.688	24143.79
601.046	24460.61
601.404	24921.62
601.762	25078
602.12	25502.62
602.478	25740.35
602.836	25926.79
603.194	26158.2
603.552	26458.08
603.91	26745.53
604.268	27245.4
604.625	27331.95
604.983	27695.33
605.341	27823.01
605.698	28164.92
606.056	28521.98
606.413	28718.13
606.771	29015.3
607.128	29388.39
607.485	29342.52
607.843	29825.67
608.2	30131.65
608.557	30331.19
608.914	30575.48
609.272	30829.71
609.629	31137.5
609.986	31377.72
610.343	31360.55
610.7	31978.61
611.057	31987.87
611.414	32175.67
611.771	32397.35
612.127	32742.2
612.484	32889.09
612.841	33117.79
613.198	33318.23
613.554	33481.39
613.911	33781.5
614.267	33873.47
614.624	33940.82
614.98	34244.31
615.337	34529.73
615.693	34629.39
616.05	34645.43
616.406	35142.59
616.762	35051.07
617.118	35331.06
617.475	35373.32
617.831	35625.52
618.187	35786.64
618.543	36072.96
618.899	36306.63
619.255	36348.44
619.611	36457.36
619.967	36721.08
620.323	36822.55
620.678	36783.45
621.034	36771.48
621.39	36924.69
621.746	37004.69
622.101	37516.77
622.457	37373.04
622.812	37595.64
623.168	37564.45
623.523	37838.57
623.879	38005.34
624.234	37941.84
624.589	38055.28
624.945	38177.77
625.3	38222.74
625.655	38330.98
626.01	38477.87
626.365	38468.83
626.72	38640.58
627.075	38539.34
627.43	38626.8
627.785	38557.87
628.14	38712.89
628.495	38987.01
628.85	38846.45
629.205	38778.43
629.559	38960.8
629.914	39055.94
630.269	39074.92
630.623	39118.99
630.978	39074.69
631.332	39299.55
631.687	39342.71
632.041	39117.4
632.396	39188.59
632.75	39118.08
633.104	39374.8
633.459	39278.76
633.813	39228.59
634.167	39223.84
634.521	39278.3
634.875	39451.41
635.229	39364.85
635.583	39292.31
635.937	39219.1
636.291	39193.79
636.645	39273.11
636.999	39220.45
637.352	39325.31
637.706	39209.38
638.06	39392.65
638.413	39380.9
638.767	39093.22
639.121	39359.66
639.474	39113.34
639.828	39193.56
640.181	39156.05
640.534	39214.12
640.888	39118.99
641.241	39047.12
641.594	39069.27
641.947	39190.62
642.301	39114.69
642.654	39225.42
643.007	39203.28
643.36	39044.64
643.713	39110.62
644.066	39366.66
644.419	38877.18
644.771	38747.7
645.124	38482.84
645.477	38311.55
645.83	38119.46
646.182	38133.02
646.535	38030.88
646.888	38020.94
647.24	37931.45
647.593	38118.11
647.945	38001.27
648.298	37948.62
648.65	37929.19
649.002	37734.39
649.355	37876.53
649.707	37667.72
650.059	38001.73
650.411	38383.19
650.763	38505.44
651.115	38771.2
651.467	38879.67
651.819	38784.08
652.171	38498.89
652.523	38673.12
652.875	38651.65
653.227	38389.97
653.578	38672.22
653.93	38569.62
654.282	38518.1
654.633	38398.78
654.985	38431.77
655.337	38448.49
655.688	38506.57
656.039	38566.91
656.391	38250.53
656.742	38348.84
657.094	38287.82
657.445	38403.52
657.796	38383.64
658.147	38219.8
658.498	38366.46
658.849	38451.43
659.2	38301.38
659.551	38217.31
659.902	38464.54
660.253	38201.72
660.604	38380.7
660.955	38179.58
661.306	38383.41
661.656	38141.84
662.007	38334.83
662.358	38384.32
662.708	38277.2
663.059	38138.9
663.409	37957.89
663.76	38212.57
664.11	38265.45
664.461	38206.24
664.811	38274.71
665.161	38090.76
665.511	38058
665.862	38175.73
666.212	38314.26
666.562	38341.83
666.912	38265.22
667.262	38094.15
667.612	38066.13
667.962	38133.25
668.312	38152.23
668.662	38254.38
669.011	38095.51
669.361	38140.03
669.711	38029.3
670.06	37948.62
670.41	37840.38
670.76	38046.92
671.109	38091.22
671.459	38090.99
671.808	37737.1
672.157	38016.64
672.507	37723.77
672.856	37726.03
673.205	37850.09
673.554	37792.69
673.904	37789.3
674.253	37869.07
674.602	37807.61
674.951	37329.88
675.3	37091.24
675.649	37582.98
675.998	37753.15
676.346	37643.77
676.695	37741.85
677.044	37569.42
677.393	37647.16
677.741	37615.52
678.09	37669.76
678.438	37577.56
678.787	37517.67
679.135	37524.45
679.484	37222.09
679.832	37463.21
680.181	37246.49
680.529	37373.49
680.877	37324.68
681.225	37286.27
681.573	37374.17
681.922	37144.57
682.27	37055.09
682.618	37247.4
682.966	37048.76
683.314	37026.61
683.661	37082.43
684.009	36776
684.357	36766.51
684.705	36688.31
685.053	36580.75
685.4	36725.38
685.748	36516.79
686.095	36416.91
686.443	36262.11
686.79	36268.44
687.138	36483.57
687.485	36289.23
687.832	36154.32
688.18	36275.44
688.527	35985.51
688.874	35973.98
689.221	35973.76
689.568	35716.14
689.915	35761.79
690.262	35834.55
690.609	35537.84
690.956	35587.1
691.303	35508.01
691.65	35307.11
691.997	35265.08
692.344	35155.02
692.69	35200.67
693.037	35246.77
693.383	34863.73
693.73	35152.08
694.077	34853.11
694.423	34776.05
694.769	34723.17
695.116	34651.08
695.462	34638.65
695.808	34514.81
696.155	34552.55
696.501	34341.94
696.847	34235.95
697.193	33968.16
697.539	34085.45
697.885	33979.01
698.231	33761.84
698.577	33720.26
698.923	33787.15
699.269	33673.7
699.614	33514.16
699.96	33383.77
700.306	33453.15
700.651	33373.15
700.997	33290.44
701.342	33161.63
701.688	32979.71
702.033	32863.1
702.379	32896.1
702.724	32740.17
703.069	32894.29
703.415	32483.45
703.76	32621.3
704.105	32588.99
704.45	32494.3
704.795	32283.23
705.14	32228.77
705.485	32160.52
705.83	32080.98
706.175	32139.06
706.52	32006.86
706.865	31866.97
707.209	31822.68
707.554	31734.32
707.899	31874.66
708.243	31565.51
708.588	31550.37
708.932	31432.18
709.277	31343.82
709.621	31322.58
709.966	31183.37
710.31	31209.81
710.654	30991.52
710.998	31026.32
711.342	30972.08
711.687	30960.1
712.031	30812.99
712.375	30682.82
712.719	30721.24
713.063	30692.99
713.407	30850.73
713.75	30534.35
714.094	30523.28
714.438	30448.93
714.782	30512.43
715.125	30299.1
715.469	30399.89
715.812	30173.01
716.156	30027.02
716.499	30083.52
716.843	30028.6
717.186	29824.99
717.53	30122.61
717.873	30077.87
718.216	30017.76
718.559	29756.97
718.902	29585
719.246	29761.49
719.589	29509.52
719.932	29454.83
720.275	29535.06
720.617	29440.6
720.96	29416.19
721.303	29414.83
721.646	29413.93
721.989	29180.49
722.331	29253.03
722.674	29251.9
723.016	29051.91
723.359	29001.96
723.701	29028.18
724.044	28828.41
724.386	28636.1
724.729	28911.57
725.071	28757.22
725.413	28750.22
725.755	28718.81
726.097	28593.84
726.439	28453.05
726.782	28535.54
727.124	28669.99
727.465	28527.85
727.807	28437.91
728.149	28303.9
728.491	28319.72
728.833	28408.98
729.175	28258.93
729.516	28216.67
729.858	28100.74
730.199	28105.49
730.541	28057.58
730.882	28019.16
731.224	28145.04
731.565	27804.03
731.906	27920.64
732.248	27967.87
732.589	27815.33
732.93	27602.45
733.271	27766.06
733.612	27645.84
733.953	27712.73
734.294	27574.43
734.635	27521.55
734.976	27641.77
735.317	27559.29
735.658	27370.37
735.999	27536.01
736.339	27327.88
736.68	27542.79
737.021	27349.58
737.361	27142.13
737.702	27343.48
738.042	27261.9
738.383	27242.69
738.723	27279.75
739.063	27235.68
739.404	27189.13
739.744	27018.74
740.084	26875.01
740.424	27053.54
740.764	26978.74
741.104	27007.89
741.444	26905.3
741.784	26816.71
742.124	26828.91
742.464	26771.51
742.804	26628.92
743.143	26623.95
743.483	26665.3
743.823	26604.29
744.162	26501.01
744.502	26603.16
744.841	26592.99
745.181	26557.28
745.52	26432.99
745.86	26566.1
746.199	26475.93
746.538	26334.91
746.877	26441.35
747.216	26402.94
747.556	26235.48
747.895	26280.23
748.234	26193.68
748.573	26204.75
748.911	26015.83
749.25	26049.5
749.589	25958.43
749.928	26023.06
750.267	25993.91
750.605	25871.88
750.944	25824.65
751.283	25789.62
751.621	25806.12
751.96	25702.39
752.298	25680.92
752.636	25765.21
752.975	25466.46
753.313	25515.28
753.651	25471.66
753.989	25520.47
754.327	25317.09
754.666	25199.8
755.004	25318.9
755.342	25348.95
755.679	25256.07
756.017	25033.71
756.355	25176.98
756.693	25049.07
757.031	24963.2
757.368	24840.72
757.706	24846.14
758.044	24866.7
758.381	24858.8
758.719	24693.83
759.056	24666.94
759.394	24592.36
759.731	24489.31
760.068	24547.17
760.405	24412.71
760.743	24347.4
761.08	24411.58
761.417	24195.08
761.754	24137.68
762.091	24035.99
762.428	24088.19
762.765	23931.59
763.102	23966.39
763.438	23860.86
763.775	23599.85
764.112	23643.91
764.449	23639.84
764.785	23565.72
765.122	23489.34
765.458	23407.76
765.795	23414.31
766.131	23329.8
766.467	23224.49
766.804	23201.66
767.14	23106.3
767.476	23076.7
767.812	22965.29
768.148	22985.4
768.485	22844.39
768.821	22815.69
769.157	22686.65
769.492	22538.86
769.828	22636.71
770.164	22365.75
770.5	22333.66
770.836	22353.1
771.171	22148.36
771.507	22030.62
771.842	22040.79
772.178	21945.65
772.513	21869.95
772.849	21907.23
773.184	21709.95
773.519	21768.71
773.855	21646.45
774.19	21543.4
774.525	21458.43
774.86	21375.95
775.195	21361.49
775.53	21169.63
775.865	21097.09
776.2	21046.92
776.535	20887.37
776.87	20878.34
777.205	20828.17
777.539	20800.6
777.874	20736.87
778.209	20560.83
778.543	20540.27
778.878	20389.53
779.212	20376.65
779.547	20299.14
779.881	20303.21
780.215	20214.17
780.55	20234.06
780.884	20031.35
781.218	19968.98
781.552	19926.72
781.886	19873.39
782.22	19821.87
782.554	19628.88
782.888	19524.25
783.222	19420.75
783.556	19419.84
783.889	19402.44
784.223	19298.72
784.557	19162.67
784.89	19231.82
785.224	19084.94
785.557	18973.53
785.891	18898.27
786.224	18854.21
786.558	18865.05
786.891	18718.62
787.224	18637.94
787.557	18658.96
787.891	18547.1
788.224	18581.67
788.557	18537.38
788.89	18433.2
789.223	18440.66
789.556	18282.92
789.888	18241.57
790.221	18243.15
790.554	18024.4
790.887	18168.58
791.219	17931.75
791.552	17966.32
791.884	17828.02
792.217	17754.12
792.549	17785.08
792.882	17570.63
793.214	17564.98
793.546	17567.01
793.879	17531.53
794.211	17345.55
794.543	17343.74
794.875	17360.24
795.207	17296.28
795.539	17111.88
795.871	17256.74
796.203	16993.24
796.535	16965.22
796.867	16964.31
797.198	16840.93
797.53	16919.57
797.862	16737.88
798.193	16757.09
798.525	16631.22
798.856	16694.72
799.188	16438.45
799.519	16480.26
799.85	16347.38
800.182	16372.92
800.513	16343.54
800.844	16220.15
801.175	16291.56
801.506	16252.69
801.837	16214.96
802.168	16124.56
802.499	15965.02
802.83	16041.85
803.161	15904
803.491	15953.04
803.822	15962.53
804.153	15856.55
804.483	15672.6
804.814	15683.9
805.145	15719.15
805.475	15674.18
805.805	15595.76
806.136	15568.42
806.466	15506.27
806.796	15537.01
807.126	15318.03
807.457	15377.91
807.787	15424.69
808.117	15312.15
808.447	15245.94
808.777	15220.18
809.107	15223.57
809.436	15118.26
809.766	15196
810.096	15058.83
810.426	15009.11
810.755	15019.73
811.085	14946.97
811.414	14969.79
811.744	14851.15
812.073	14796.01
812.403	14766.41
812.732	14629.69
813.061	14699.51
813.39	14569.57
813.719	14577.71
814.049	14657.48
814.378	14535.9
814.707	14489.8
815.036	14457.94
815.365	14337.94
815.693	14271.96
816.022	14295.23
816.351	14188.34
816.68	14172.3
817.008	14231.05
817.337	14135.24
817.665	14098.17
817.994	14103.37
818.322	14118.51
818.651	13938.4
818.979	13946.09
819.307	13991.74
819.636	13967.78
819.964	13902.25
820.292	13932.76
820.62	13896.6
820.948	13859.31
821.276	13868.8
821.604	13823.38
821.932	13812.98
822.259	13805.75
822.587	13804.17
822.915	13757.17
823.243	13805.98
823.57	13759.43
823.898	13787.67
824.225	13773.89
824.553	13720.78
824.88	13708.35
825.207	13798.97
825.535	13680.33
825.862	13843.27
826.189	13603.95
826.516	13796.71
826.843	13804.62
827.17	13888.24
827.497	13814.79
827.824	13728.01
828.151	13778.86
828.478	13737.96
828.805	13824.96
829.131	13686.89
829.458	13623.61
829.785	13615.93
830.111	13685.98
830.438	13817.96
830.764	13753.55
831.09	13745.19
831.417	13662.71
831.743	13704.06
832.069	13673.33
832.395	13595.14
832.722	13634.01
833.048	13643.95
833.374	13701.35
833.7	13581.13
834.026	13610.5
834.351	13615.7
834.677	13520.79
835.003	13539.55
835.329	13542.48
835.654	13540.22
835.98	13474.01
836.306	13438.76
836.631	13403.28
836.956	13436.95
837.282	13491.41
837.607	13405.09
837.932	13416.16
838.258	13382.04
838.583	13334.8
838.908	13203.73
839.233	13283.05
839.558	13314.92
839.883	13071.53
840.208	13183.62
840.533	13159.67
840.858	13292.09
841.182	13198.54
841.507	13157.18
841.832	13045.09
842.156	13098.65
842.481	13015.04
842.805	13026.79
843.13	12953.57
843.454	12949.28
843.778	12901.6
844.103	12918.77
844.427	12831.32
844.751	12869.96
845.075	12827.47
845.399	12847.36
845.723	12650.53
846.047	12762.39
846.371	12581.15
846.695	12617.31
847.019	12457.09
847.343	12402.17
847.666	12431.78
847.99	12345.23
848.313	12387.71
848.637	12299.8
848.96	12170.09
849.284	12216.87
849.607	12108.62
849.931	12035.86
850.254	12009.42
850.577	11935.07
850.9	11817.78
851.223	11832.25
851.546	11796.54
851.869	11762.64
852.192	11795.18
852.515	11604.68
852.838	11543.21
853.161	11626.15
853.483	11621.18
853.806	11479.03
854.129	11502.08
854.451	11349.55
854.774	11403.56
855.096	11340.73
855.419	11287.17
855.741	11268.19
856.063	11204.69
856.385	11224.8
856.708	11167.86
857.03	11173.73
857.352	11097.35
857.674	11077.91
857.996	11009.89
858.318	10964.47
858.64	10979.61
858.961	10999.72
859.283	10861.88
859.605	10847.64
859.926	10947.07
860.248	10846.06
860.57	10770.8
860.891	10734.42
861.212	10778.04
861.534	10766.06
861.855	10686.06
862.176	10736.68
862.498	10710.02
862.819	10673.63
863.14	10629.57
863.461	10587.08
863.782	10550.02
864.103	10547.53
864.424	10515.67
864.745	10536.91
865.065	10412.4
865.386	10479.51
865.707	10491.04
866.027	10470.25
866.348	10475.9
866.668	10408.55
866.989	10417.37
867.309	10234.55
867.63	10418.05
867.95	10292.62
868.27	10293.08
868.59	10246.52
868.91	10271.16
869.23	10235.23
869.55	10173.53
869.87	10232.51
870.19	10184.83
870.51	10206.98
870.83	10180.54
871.15	10161.1
871.469	10100.77
871.789	10186.64
872.109	10108.45
872.428	10043.37
872.748	10083.82
873.067	10064.61
873.386	10061.9
873.706	10105.96
874.025	10012.63
874.344	9984.16
874.663	10008.11
874.982	9985.97
875.301	9919.75
875.62	9914.33
875.939	9867.78
876.258	9845.4
876.577	9798.63
876.896	9805.86
877.214	9815.35
877.533	9802.47
877.852	9829.59
878.17	9814.9
878.489	9842.24
878.807	9756.59
879.125	9735.8
879.444	9636.6
879.762	9700.55
880.08	9695.35
880.398	9691.28
880.716	9673.66
881.034	9600.44
881.352	9598.18
881.67	9528.8
881.988	9548.92
882.306	9549.59
882.624	9519.31
882.941	9524.28
883.259	9442.48
883.577	9475.25
883.894	9448.58
884.212	9405.87
884.529	9319.54
884.846	9406.32
885.164	9289.49
885.481	9337.4
885.798	9333.1
886.115	9249.71
886.432	9328.36
886.75	9283.16
887.067	9215.14
887.383	9190.96
887.7	9218.75
888.017	9177.4
888.334	9126.33
888.651	9114.35
888.967	9118.19
889.284	9072.32
889.6	9024.18
889.917	8977.41
890.233	9033.22
890.55	8911.42
890.866	8942.6
891.182	8899.89
891.498	8871.65
891.815	8908.71
892.131	8820.12
892.447	8787.13
892.763	8758.43
893.079	8786.9
893.395	8710.07
893.71	8731.99
894.026	8698.54
894.342	8620.58
894.657	8586.46
894.973	8597.3
895.289	8581.71
895.604	8543.74
895.92	8485.89
896.235	8412.9
896.55	8441.37
896.865	8397.08
897.181	8366.8
897.496	8390.3
897.811	8360.25
898.126	8341.26
898.441	8333.58
898.756	8292
899.071	8189.18
899.386	8212
899.7	8099.69
900.015	8148.05
900.33	8037.77
900.644	8044.1
900.959	8100.59
901.273	8047.49
901.588	8041.61
901.902	8019.01
902.216	7921.84
902.531	7879.58
902.845	7929.75
903.159	7856.98
903.473	7850.2
903.787	7764.78
904.101	7791.22
904.415	7788.51
904.729	7737.66
905.042	7665.8
905.356	7687.5
905.67	7651.56
905.984	7626.03
906.297	7639.81
906.611	7561.4
906.924	7575.18
907.237	7502.19
907.551	7469.87
907.864	7383.1
908.177	7429.42
908.491	7388.75
908.804	7320.95
909.117	7282.31
909.43	7279.37
909.743	7274.4
910.056	7227.85
910.368	7178.81
910.681	7162.99
910.994	7071.01
911.307	7106.72
911.619	7003.45
911.932	7031.24
912.244	7013.62
912.557	7057
912.869	6955.99
913.181	6981.98
913.494	6902.43
913.806	6915.54
914.118	6863.11
914.43	6770.01
914.742	6782.89
915.054	6760.74
915.366	6749.67
915.678	6670.57
915.99	6679.61
916.302	6598.03
916.613	6605.26
916.925	6596.9
917.236	6548.09
917.548	6478.04
917.859	6560.97
918.171	6462.22
918.482	6414.53
918.794	6435.78
919.105	6399.17
919.416	6345.61
919.727	6358.27
920.038	6351.71
920.349	6287.98
920.66	6265.16
920.971	6269
921.282	6209.79
921.593	6179.29
921.903	6116.01
922.214	6110.81
922.525	6073.53
922.835	6106.52
923.146	6063.58
923.456	6043.7
923.767	6027.2
924.077	5958.28
924.387	5969.57
924.697	5946.07
925.008	5918.73
925.318	5890.48
925.628	5857.71
925.938	5868.79
926.248	5799.64
926.558	5776.59
926.867	5748.34
927.177	5685.29
927.487	5705.4
927.796	5680.54
928.106	5653.42
928.416	5639.41
928.725	5654.1
929.034	5535.91
929.344	5616.36
929.653	5536.82
929.962	5528.46
930.271	5511.51
930.581	5469.25
930.89	5450.04
931.199	5425.63
931.508	5461.11
931.817	5383.83
932.125	5329.37
932.434	5338.18
932.743	5336.82
933.051	5273.77
933.36	5283.04
933.669	5207.11
933.977	5180.67
934.286	5169.6
934.594	5201.91
934.902	5176.38
935.21	5147.22
935.519	5151.97
935.827	5116.94
936.135	5111.07
936.443	5005.98
936.751	5034.46
937.059	5013.89
937.367	5011.86
937.674	4964.86
937.982	4977.28
938.29	4918.98
938.597	4901.13
938.905	4870.17
939.213	4814.58
939.52	4825.88
939.827	4849.83
940.135	4782.94
940.442	4799.21
940.749	4790.17
941.056	4716.95
941.363	4688.25
941.67	4738.87
941.977	4655.26
942.284	4664.75
942.591	4649.38
942.898	4609.38
943.205	4589.05
943.511	4590.18
943.818	4589.05
944.125	4559.22
944.431	4489.16
944.738	4504.08
945.044	4526
945.35	4444.42
945.657	4420.01
945.963	4393.34
946.269	4385.89
946.575	4388.83
946.881	4355.38
947.187	4333.69
947.493	4295.27
947.799	4274.03
948.105	4271.54
948.41	4268.83
948.716	4322.61
949.022	4254.14
949.327	4268.15
949.633	4231.32
949.938	4248.04
950.244	4152.9
950.549	4123.07
950.854	4127.14
951.16	4099.79
951.465	4057.08
951.77	4109.28
952.075	4020.47
952.38	4034.94
952.685	4054.6
952.99	4011.21
953.294	4001.04
953.599	3921.94
953.904	3948.38
954.209	3966.69
954.513	3929.63
954.818	3918.56
955.122	3872.45
955.426	3885.11
955.731	3858.44
956.035	3833.13
956.339	3804.89
956.643	3828.16
956.948	3786.36
957.252	3774.38
957.556	3777.54
957.86	3744.1
958.163	3746.58
958.467	3738.22
958.771	3639.24
959.075	3677.43
959.378	3648.96
959.682	3664.55
959.985	3660.26
960.289	3625.23
960.592	3582.97
960.896	3569.41
961.199	3574.38
961.502	3581.16
961.805	3516.31
962.108	3531.67
962.411	3496.19
962.714	3467.72
963.017	3456.19
963.32	3455.06
963.623	3440.83
963.926	3442.64
964.228	3452.35
964.531	3400.15
964.833	3384.33
965.136	3384.11
965.438	3344.78
965.741	3347.95
966.043	3322.86
966.345	3320.83
966.648	3326.71
966.95	3301.17
967.252	3238.35
967.554	3275.63
967.856	3217.1
968.158	3207.39
968.46	3253.71
968.761	3251.45
969.063	3192.47
969.365	3199.93
969.666	3175.75
969.968	3142.76
970.269	3135.75
970.571	3089.42
970.872	3074.96
971.174	3101.18
971.475	3102.53
971.776	3074.51
972.077	3073.83
972.378	3048.52
972.679	3030.44
972.98	3022.08
973.281	3020.27
973.582	3007.17
973.883	2969.88
974.183	2985.47
974.484	2975.08
974.785	2939.15
975.085	2935.53
975.386	2963.78
975.686	2907.28
975.986	2864.35
976.287	2859.15
976.587	2860.28
976.887	2821.86
977.187	2851.24
977.487	2844.01
977.787	2783.67
978.087	2807.85
978.387	2757.68
978.687	2775.99
978.987	2762.43
979.286	2723.11
979.586	2762.88
979.885	2712.71
980.185	2672.03
980.484	2696.44
980.784	2690.34
981.083	2683.11
981.382	2678.14
981.682	2668.42
981.981	2612.15
982.28	2634.07
982.579	2623.22
982.878	2601.08
983.177	2602.66
983.475	2572.83
983.774	2545.94
984.073	2553.39
984.372	2552.72
984.67	2547.97
984.969	2561.08
985.267	2557.01
985.566	2508.42
985.864	2481.76
986.162	2505.48
986.461	2478.37
986.759	2464.81
987.057	2441.76
987.355	2453.73
987.653	2413.06
987.951	2427.52
988.249	2413.06
988.547	2412.83
988.844	2370.12
989.142	2368.09
989.44	2364.7
989.737	2368.77
990.035	2314.98
990.332	2354.98
990.63	2317.02
990.927	2317.69
991.224	2319.5
991.521	2280.41
991.819	2287.41
992.116	2300.52
992.413	2272.04
992.71	2246.51
993.006	2237.24
993.303	2250.8
993.6	2215.78
993.897	2203.8
994.193	2226.4
994.49	2205.61
994.787	2185.49
995.083	2170.35
995.379	2178.71
995.676	2138.71
995.972	2140.52
996.268	2137.13
996.565	2111.6
996.861	2104.37
997.157	2118.83
997.453	2110.02
997.749	2078.15
998.044	2057.59
998.34	2028.66
998.636	2049
998.932	2066.4
999.227	2001.77
999.523	2016.46
999.818	1982.56
1000.114	2011.49
1000.409	1987.08
1000.704	1940.98
1001	1969.23
1001.295	1964.26
1001.59	1944.14
1001.885	1940.75
1002.18	1911.38
1002.475	1954.54
1002.77	1913.41
1003.065	1922.45
1003.359	1870.47
1003.654	1875.67
1003.949	1875.22
1004.243	1852.39
1004.538	1834.99
1004.832	1863.69
1005.127	1818.72
1005.421	1816.01
1005.715	1806.07
1006.009	1803.58
1006.304	1757.26
1006.598	1775.79
1006.892	1769.69
1007.186	1733.08
1007.48	1728.33
1007.773	1695.79
1008.067	1729.91
1008.361	1681.1
1008.655	1701.89
1008.948	1686.07
1009.242	1695.79
1009.535	1677.71
1009.829	1672.06
1010.122	1664.15
1010.415	1643.81
1010.708	1635.9
1011.001	1640.87
1011.295	1631.16
1011.588	1595.45
1011.881	1642.23
1012.173	1619.41
1012.466	1573.76
1012.759	1587.99
1013.052	1583.93
1013.344	1549.58
1013.637	1580.99
1013.93	1554.1
1014.222	1530.37
1014.514	1528.79
1014.807	1528.56
1015.099	1504.16
1015.391	1495.79
1015.683	1505.96
1015.976	1471.61
1016.268	1460.99
1016.56	1462.35
1016.851	1444.27
1017.143	1436.59
1017.435	1408.34
1017.727	1449.24
1018.018	1413.76
1018.31	1420.77
1018.602	1428.9
1018.893	1380.99
1019.185	1387.32
1019.476	1377.15
1019.767	1373.54
1020.058	1337.38
1020.35	1353.42
1020.641	1346.87
1020.932	1348.68
1021.223	1328.34
1021.514	1300.09
1021.804	1322.69
1022.095	1298.74
1022.386	1307.78
1022.677	1265.29
1022.967	1271.39
1023.258	1268.23
1023.548	1275.69
1023.839	1264.16
1024.129	1259.87
1024.419	1237.5
1024.709	1233.43
1025	1233.65
1025.29	1221.68
1025.58	1211.51
1025.87	1189.59
1026.16	1190.94
1026.449	1189.14
1026.739	1200.43
1027.029	1190.27
1027.319	1169.47
1027.608	1148.46
1027.898	1171.96
1028.187	1112.3
1028.477	1121.34
1028.766	1115.24
1029.055	1128.8
1029.344	1101
1029.634	1093.77
1029.923	1091.28
1030.212	1093.54
1030.501	1080.66
1030.79	1077.05
1031.078	1064.62
1031.367	1058.29
1031.656	1063.26
1031.945	1061.68
1032.233	1027.78
1032.522	1026.65
1032.81	1043.15
1033.099	1009.48
1033.387	1009.25
1033.675	1036.82
1033.963	1014
1034.251	1007.45
1034.54	992.53
1034.828	990.04
1035.116	979.88
1035.403	978.97
1035.691	954.79
1035.979	960.44
1036.267	951.63
1036.554	968.12
1036.842	943.49
1037.129	953.21
1037.417	944.4
1037.704	957.73
1037.992	930.16
1038.279	910.72
1038.566	914.34
1038.853	914.34
1039.14	914.34
