Data from hue_120_FLMS001491_00039.txt Node
Date: Tue Feb 07 16:59:18 GMT 2017
User: dcchb
Spectrometer: FLMS00149
Trigger mode: 0
Integration Time (sec): 2.000000E-2
Scans to average: 10
Electric dark correction enabled: true
Nonlinearity correction enabled: false
Boxcar width: 0
XAxis mode: Wavelengths
Number of Pixels in Spectrum: 2048
>>>>>Begin Spectral Data<<<<<
341.393	-19.86
341.776	-19.86
342.16	-19.86
342.543	-70.03
342.927	-59.86
343.31	-65.96
343.693	-83.36
344.077	-78.16
344.46	-55.79
344.843	-43.13
345.226	-46.52
345.61	-34.55
345.993	-25.73
346.376	-13.08
346.759	7.49
347.142	37.77
347.525	48.61
347.908	57.2
348.291	81.16
348.674	91.33
349.057	122.74
349.44	118.22
349.823	139.23
350.206	149.18
350.588	200.93
350.971	207.25
351.354	227.14
351.737	239.34
352.119	246.35
352.502	261.72
352.884	260.36
353.267	295.39
353.65	271.89
354.032	303.07
354.414	299.23
354.797	310.3
355.179	327.48
355.562	317.31
355.944	318.66
356.326	329.29
356.709	341.04
357.091	340.36
357.473	347.82
357.855	346.46
358.238	362.73
358.62	350.75
359.002	349.17
359.384	346.23
359.766	371.09
360.148	357.31
360.53	331.32
360.912	344.43
361.294	349.4
361.676	336.29
362.057	344.43
362.439	339
362.821	340.36
363.203	331.54
363.584	328.38
363.966	309.4
364.348	335.84
364.729	311.21
365.111	324.54
365.493	331.54
365.874	293.58
366.256	300.81
366.637	318.66
367.019	314.6
367.4	322.51
367.781	318.21
368.163	330.19
368.544	326.12
368.925	322.51
369.306	335.61
369.688	318.21
370.069	316.18
370.45	325.22
370.831	308.04
371.212	340.13
371.593	318.66
371.974	314.14
372.355	316.86
372.736	317.31
373.117	340.58
373.498	329.96
373.879	323.18
374.26	337.42
374.641	338.55
375.021	338.1
375.402	325.44
375.783	339.23
376.163	341.94
376.544	308.27
376.925	317.53
377.305	322.73
377.686	313.01
378.066	338.1
378.447	327.03
378.827	343.75
379.208	339.45
379.588	330.64
379.968	347.59
380.349	357.53
380.729	357.98
381.109	344.2
381.489	328.61
381.87	339.23
382.25	348.72
382.63	341.49
383.01	348.27
383.39	330.19
383.77	339.91
384.15	336.29
384.53	347.14
384.91	348.72
385.29	346.91
385.67	344.88
386.049	360.24
386.429	360.7
386.809	339
387.189	375.84
387.568	367.7
387.948	364.99
388.328	352.11
388.707	364.54
389.087	345.78
389.466	363.41
389.846	373.58
390.225	385.1
390.605	350.53
390.984	372.45
391.363	370.41
391.743	393.92
392.122	385.1
392.501	364.31
392.881	404.54
393.26	405.89
393.639	368.83
394.018	395.27
394.397	391.88
394.776	405.89
395.155	379.45
395.534	410.41
395.913	388.72
396.292	396.85
396.671	390.53
397.05	409.73
397.429	400.47
397.808	398.44
398.186	408.38
398.565	401.6
398.944	396.4
399.323	399.57
399.701	416.29
400.08	420.13
400.458	394.37
400.837	416.29
401.215	428.04
401.594	412.45
401.972	423.29
402.351	426.23
402.729	429.17
403.107	426.01
403.486	434.59
403.864	435.05
404.242	427.36
404.62	451.54
404.999	455.84
405.377	428.94
405.755	440.92
406.133	429.85
406.511	452.22
406.889	450.64
407.267	456.51
407.645	461.03
408.023	440.69
408.401	465.55
408.779	466
409.156	481.15
409.534	473.69
409.912	483.86
410.29	482.28
410.667	476.63
411.045	478.43
411.422	478.43
411.8	476.4
412.178	501.03
412.555	511.43
412.933	493.12
413.31	499.22
413.687	495.38
414.065	506.23
414.442	519.34
414.819	508.94
415.197	532.44
415.574	507.36
415.951	518.43
416.328	533.12
416.705	543.06
417.082	544.87
417.46	543.29
417.837	541.71
418.214	538.32
418.591	531.54
418.967	538.77
419.344	537.19
419.721	550.52
420.098	541.93
420.475	542.16
420.852	579.67
421.228	593.68
421.605	570.63
421.982	571.31
422.358	560.69
422.735	579.45
423.111	582.39
423.488	587.36
423.864	611.54
424.241	598.2
424.617	619.22
424.994	608.15
425.37	615.61
425.746	635.49
426.123	646.11
426.499	652.67
426.875	616.28
427.251	648.6
427.627	649.05
428.003	665.1
428.379	630.75
428.756	651.99
429.132	661.71
429.507	683.4
429.883	704.42
430.259	701.03
430.635	692.21
431.011	703.29
431.387	700.12
431.763	725.21
432.138	708.94
432.514	693.12
432.89	735.83
433.265	746.68
433.641	741.7
434.016	748.71
434.392	754.58
434.767	788.48
435.143	765.21
435.518	753.45
435.894	790.74
436.269	788.03
436.644	797.3
437.02	793.23
437.395	786.45
437.77	810.4
438.145	811.53
438.52	801.14
438.895	844.75
439.271	819.89
439.646	866.22
440.021	856.28
440.395	851.08
440.77	833.45
441.145	861.47
441.52	892.21
441.895	883.17
442.27	892.21
442.645	880.46
443.019	922.94
443.394	918.87
443.769	899.89
444.143	924.98
444.518	913
444.892	939.44
445.267	926.56
445.641	933.34
446.016	916.39
446.39	937.86
446.764	944.18
447.139	954.81
447.513	979.89
447.887	978.31
448.262	972.21
448.636	990.51
449.01	994.8
449.384	976.27
449.758	1018.53
450.132	1003.17
450.506	1030.28
450.88	1028.48
451.254	1037.52
451.628	1047.01
452.002	1076.38
452.376	1035.48
452.75	1076.38
453.123	1053.11
453.497	1110.51
453.871	1117.06
454.244	1111.64
454.618	1145.53
454.992	1125.65
455.365	1141.02
455.739	1145.99
456.112	1178.75
456.486	1182.82
456.859	1209.49
457.232	1224.85
457.606	1233.22
457.979	1237.74
458.352	1250.62
458.725	1280.45
459.099	1257.17
459.472	1290.16
459.845	1295.59
460.218	1330.84
460.591	1334.68
460.964	1350.73
461.337	1388.47
461.71	1398.18
462.083	1407.22
462.456	1402.03
462.829	1434.57
463.201	1443.38
463.574	1453.32
463.947	1498.52
464.32	1505.53
464.692	1570.16
465.065	1560.21
465.438	1579.87
465.81	1604.05
466.183	1626.65
466.555	1634.11
466.928	1633.43
467.3	1658.52
467.672	1713.88
468.045	1771.28
468.417	1771.51
468.789	1768.57
469.161	1812.18
469.534	1877.94
469.906	1898.28
470.278	1894.89
470.65	1930.6
471.022	1950.71
471.394	2018.28
471.766	2028.9
472.138	2083.14
472.51	2123.81
472.882	2183.02
473.253	2201.55
473.625	2274.32
473.997	2286.3
474.369	2327.88
474.74	2370.81
475.112	2471.6
475.484	2532.39
475.855	2583.46
476.227	2611.71
476.598	2692.61
476.97	2723.8
477.341	2807.19
477.713	2901.19
478.084	2938.93
478.455	3031.13
478.827	3078.82
479.198	3192.03
479.569	3250.34
479.94	3332.82
480.311	3400.39
480.682	3527.17
481.053	3616.43
481.424	3756.09
481.795	3790.44
482.166	3923.54
482.537	3994.5
482.908	4107.04
483.279	4195.4
483.65	4302.74
484.021	4483.07
484.391	4584.54
484.762	4680.58
485.133	4753.35
485.503	4863.18
485.874	4973.46
486.244	5129.61
486.615	5250.96
486.985	5323.5
487.356	5560.33
487.726	5642.14
488.097	5844.62
488.467	5916.93
488.837	6056.82
489.207	6197.83
489.578	6369.8
489.948	6507.43
490.318	6657.48
490.688	6794.88
491.058	6893.41
491.428	7038.49
491.798	7224.02
492.168	7385.82
492.538	7496.55
492.908	7624.46
493.278	7800.73
493.648	7935.19
494.017	8031.23
494.387	8238.91
494.757	8383.31
495.126	8488.39
495.496	8640.93
495.866	8702.17
496.235	8901.26
496.605	8993.92
496.974	9094.93
497.344	9282.5
497.713	9311.65
498.082	9468.03
498.452	9578.31
498.821	9722.26
499.19	9753.22
499.559	9954.34
499.928	10077.5
500.298	10151.63
500.667	10341.45
501.036	10263.04
501.405	10470.49
501.774	10596.36
502.143	10684.72
502.512	10741.44
502.88	10872.51
503.249	10885.62
503.618	11042.45
503.987	11136.46
504.356	11191.6
504.724	11303.46
505.093	11345.94
505.462	11424.36
505.83	11605.82
506.199	11613.73
506.567	11814.41
506.936	11776.89
507.304	11988.64
507.672	11958.36
508.041	12140.05
508.409	12184.57
508.777	12265.47
509.145	12355.41
509.514	12306.6
509.882	12422.07
510.25	12560.38
510.618	12533.94
510.986	12627.72
511.354	12691.67
511.722	12805.79
512.09	12894.83
512.458	12891.67
512.826	12974.15
513.193	13036.52
513.561	13121.27
513.929	13204.88
514.297	13245.78
514.664	13336.4
515.032	13374.14
515.4	13469.96
515.767	13516.51
516.135	13505.66
516.502	13505.21
516.869	13637.64
517.237	13615.04
517.604	13613.46
517.972	13707.24
518.339	13812.09
518.706	13700.68
519.073	13852.09
519.44	13810.29
519.808	13959.44
520.175	13883.73
520.542	14000.56
520.909	14104.06
521.276	14088.25
521.643	14145.87
522.009	14208.47
522.376	14295.92
522.743	14339.76
523.11	14424.06
523.477	14455.02
523.843	14415.02
524.21	14591.96
524.577	14552.64
524.943	14629.47
525.31	14658.4
525.676	14739.08
526.043	14832.86
526.409	14771.39
526.776	14920.99
527.142	14853.87
527.508	14803.48
527.874	14894.1
528.241	14916.47
528.607	14945.4
528.973	15001.89
529.339	15009.8
529.705	15006.64
530.071	15097.26
530.437	15146.75
530.803	15123.47
531.169	15124.83
531.535	15033.53
531.901	15102.91
532.267	15042.8
532.632	15113.08
532.998	15171.15
533.364	15182.23
533.73	15113.3
534.095	15089.12
534.461	15120.31
534.826	15093.42
535.192	15102.46
535.557	15198.5
535.923	15095.22
536.288	15085.28
536.653	15075.11
537.019	15013.42
537.384	15043.25
537.749	14975
538.114	15032.18
538.479	14915.12
538.845	15028.79
539.21	14954.44
539.575	14928
539.94	14869.69
540.305	14907.21
540.67	14774.56
541.034	14736.59
541.399	14824.5
541.764	14793.76
542.129	14744.95
542.494	14687.33
542.858	14825.63
543.223	14657.72
543.587	14700.43
543.952	14596.48
544.316	14577.05
544.681	14609.59
545.045	14602.36
545.41	14648.46
545.774	14520.32
546.138	14504.51
546.503	14469.25
546.867	14236.26
547.231	14508.35
547.595	14403.72
547.959	14432.42
548.324	14340.44
548.688	14364.85
549.052	14342.7
549.416	14287.79
549.779	14277.62
550.143	14199.88
550.507	14232.42
550.871	14179.09
551.235	14147.68
551.599	14190.16
551.962	14121.46
552.326	14160.11
552.689	14207.34
553.053	13963.73
553.417	13980.9
553.78	14134.35
554.143	14028.59
554.507	14010.06
554.87	14111.3
555.234	14074.69
555.597	13967.34
555.96	13970.06
556.323	13972.99
556.686	13994.01
557.05	13947.68
557.413	13963.05
557.776	13930.28
558.139	13963.73
558.502	14001.92
558.865	13922.15
559.228	13907.01
559.59	13940.45
559.953	13972.09
560.316	14036.72
560.679	13970.51
561.041	13897.74
561.404	13964.41
561.767	14056.61
562.129	13921.92
562.492	14050.73
562.854	14026.1
563.217	14012.99
563.579	14043.95
563.941	14028.59
564.304	14124.18
564.666	14190.16
565.028	14156.94
565.39	14120.56
565.753	14193.78
566.115	14235.59
566.477	14187.9
566.839	14217.73
567.201	14198.98
567.563	14215.93
567.925	14277.62
568.287	14304.51
568.648	14316.04
569.01	14271.74
569.372	14387.22
569.734	14222.93
570.095	14365.75
570.457	14425.19
570.819	14333.66
571.18	14301.12
571.542	14429.25
571.903	14396.03
572.265	14412.08
572.626	14513.54
572.987	14507.9
573.349	14502.02
573.71	14577.95
574.071	14541.34
574.432	14543.6
574.794	14618.63
575.155	14616.82
575.516	14539.98
575.877	14514.9
576.238	14639.19
576.599	14531.62
576.96	14606.42
577.32	14553.54
577.681	14608.23
578.042	14655.24
578.403	14633.99
578.763	14542.24
579.124	14608.68
579.485	14677.83
579.845	14650.72
580.206	14615.69
580.566	14683.48
580.927	14692.98
581.287	14657.04
581.648	14634.22
582.008	14670.6
582.368	14661.11
582.728	14650.72
583.089	14623.6
583.449	14652.98
583.809	14619.3
584.169	14703.37
584.529	14630.15
584.889	14711.96
585.249	14612.07
585.609	14468.8
585.969	14629.47
586.329	14563.94
586.688	14674.22
587.048	14530.04
587.408	14462.25
587.768	14585.63
588.127	14476.03
588.487	14510.38
588.846	14628.34
589.206	14498.18
589.565	14451.4
589.925	14585.86
590.284	14523.26
590.643	14526.65
591.003	14627.67
591.362	14608.23
591.721	14401.91
592.08	14489.14
592.44	14492.3
592.799	14442.36
593.158	14469.93
593.517	14494.34
593.876	14520.32
594.235	14429.48
594.593	14407.33
594.952	14469.03
595.311	14383.15
595.67	14375.92
596.029	14500.44
596.387	14408.24
596.746	14470.16
597.104	14383.6
597.463	14345.87
597.822	14388.12
598.18	14263.16
598.538	14319.65
598.897	14423.15
599.255	14302.25
599.613	14453.66
599.972	14458.86
600.33	14368.01
600.688	14438.07
601.046	14394.23
601.404	14447.11
601.762	14432.19
602.12	14506.31
602.478	14381.57
602.836	14479.65
603.194	14458.41
603.552	14386.99
603.91	14299.31
604.268	14335.47
604.625	14360.78
604.983	14430.38
605.341	14341.12
605.698	14449.82
606.056	14522.13
606.413	14408.01
606.771	14501.34
607.128	14475.13
607.485	14367.56
607.843	14420.67
608.2	14415.02
608.557	14492.75
608.914	14377.28
609.272	14512.42
609.629	14471.29
609.986	14503.83
610.343	14416.6
610.7	14619.08
611.057	14568.01
611.414	14545.41
611.771	14527.78
612.127	14601
612.484	14699.08
612.841	14677.38
613.198	14539.31
613.554	14707.21
613.911	14754.67
614.267	14705.86
614.624	14662.02
614.98	14711.73
615.337	14801.9
615.693	14674.44
616.05	14733.88
616.406	14812.07
616.762	14703.6
617.118	14714.67
617.475	14841.67
617.831	14798.51
618.187	14820.2
618.543	14751.96
618.899	14883.93
619.255	14824.27
619.611	14803.03
619.967	14868.56
620.323	14876.25
620.678	14839.19
621.034	14877.38
621.39	14863.59
621.746	14838.28
622.101	14937.49
622.457	14806.64
622.812	14807.55
623.168	14851.62
623.523	14856.13
623.879	14869.92
624.234	14789.24
624.589	14866.53
624.945	14791.96
625.3	14841.22
625.655	14846.87
626.01	14867.43
626.365	14918.05
626.72	14810.71
627.075	14793.99
627.43	14859.07
627.785	14765.52
628.14	14885.29
628.495	14811.16
628.85	14803.71
629.205	14765.52
629.559	14899.75
629.914	14730.26
630.269	14794.89
630.623	14683.71
630.978	14717.61
631.332	14759.87
631.687	14748.34
632.041	14682.81
632.396	14836.02
632.75	14631.51
633.104	14706.76
633.459	14659.98
633.813	14661.11
634.167	14638.97
634.521	14555.8
634.875	14563.26
635.229	14538.4
635.583	14554.45
635.937	14478.97
636.291	14522.81
636.645	14459.31
636.999	14493.43
637.352	14518.74
637.706	14398.29
638.06	14535.01
638.413	14442.36
638.767	14426.99
639.121	14415.02
639.474	14351.52
639.828	14352.87
640.181	14404.62
640.534	14330.5
640.888	14303.61
641.241	14301.57
641.594	14302.93
641.947	14354.23
642.301	14211.18
642.654	14261.35
643.007	14298.41
643.36	14276.94
643.713	14216.6
644.066	14256.38
644.419	14150.62
644.771	14146.77
645.124	13985.88
645.477	14007.12
645.83	13870.62
646.182	13769.38
646.535	13776.39
646.888	13817.52
647.24	13763.96
647.593	13757.18
647.945	13688.48
648.298	13653.45
648.65	13710.18
649.002	13667.69
649.355	13677.63
649.707	13769.38
650.059	13726.45
650.411	13923.5
650.763	13866.78
651.115	14095.48
651.467	14018.87
651.819	14065.87
652.171	13987.91
652.523	14043.05
652.875	14037.63
653.227	13947.68
653.578	14056.83
653.93	14004.41
654.282	13957.18
654.633	13946.33
654.985	13919.44
655.337	13953.56
655.688	14001.92
656.039	14019.55
656.391	13950.62
656.742	14016.16
657.094	14009.6
657.445	14105.19
657.796	14009.83
658.147	13901.81
658.498	13954.01
658.849	14036.27
659.2	14005.76
659.551	13957.63
659.902	14045.08
660.253	13995.59
660.604	14015.48
660.955	13871.98
661.306	14001.02
661.656	14043.05
662.007	14001.69
662.358	13985.2
662.708	14016.16
663.059	14040.56
663.409	13886.89
663.76	13910.17
664.11	14087.34
664.461	13960.34
664.811	14000.34
665.161	14069.49
665.511	14007.57
665.862	13996.5
666.212	14013.67
666.562	14106.78
666.912	14041.01
667.262	14030.17
667.612	14060.68
667.962	14028.59
668.312	13937.51
668.662	14101.58
669.011	14011.64
669.361	13986.78
669.711	13982.26
670.06	14076.72
670.41	14001.47
670.76	13968.25
671.109	14022.26
671.459	14024.52
671.808	13928.7
672.157	13939.55
672.507	13942.71
672.856	13912.43
673.205	13964.86
673.554	13916.95
673.904	13895.71
674.253	13960.79
674.602	13942.26
674.951	13709.95
675.3	13653.68
675.649	13859.55
675.998	13836.73
676.346	13796.28
676.695	13834.24
677.044	13754.92
677.393	13792.89
677.741	13819.1
678.09	13751.98
678.438	13813.68
678.787	13698.65
679.135	13772.1
679.484	13632.21
679.832	13628.82
680.181	13611.65
680.529	13648.26
680.877	13538.43
681.225	13507.24
681.573	13589.5
681.922	13489.62
682.27	13488.71
682.618	13451.2
682.966	13446.45
683.314	13390.64
683.661	13412.1
684.009	13374.59
684.357	13275.39
684.705	13313.35
685.053	13297.31
685.4	13263.41
685.748	13212.34
686.095	13257.76
686.443	13195.16
686.79	13168.5
687.138	13114.26
687.485	13154.94
687.832	13061.15
688.18	13139.57
688.527	12977.99
688.874	12937.32
689.221	13017.31
689.568	12890.76
689.915	12932.34
690.262	12861.84
690.609	12842.63
690.956	12751.11
691.303	12708.85
691.65	12677.89
691.997	12690.09
692.344	12579.58
692.69	12563.09
693.037	12566.48
693.383	12437.22
693.73	12505.46
694.077	12460.49
694.423	12396.76
694.769	12265.92
695.116	12357.44
695.462	12329.65
695.808	12222.31
696.155	12231.57
696.501	12086.72
696.847	12081.97
697.193	12018.47
697.539	12145.47
697.885	11943.89
698.231	11964.46
698.577	11945.25
698.923	11907.51
699.269	11874.52
699.614	11740.51
699.96	11701.64
700.306	11665.03
700.651	11592.94
700.997	11596.33
701.342	11597.46
701.688	11550.91
702.033	11548.65
702.379	11583.23
702.724	11405.15
703.069	11428.88
703.415	11380.07
703.76	11279.28
704.105	11400.86
704.45	11347.53
704.795	11177.14
705.14	11141.2
705.485	11201.54
705.83	11150.02
706.175	11058.95
706.52	11057.82
706.865	11041.32
707.209	10966.29
707.554	11016.69
707.899	10931.72
708.243	10891.04
708.588	10827.54
708.932	10774.43
709.277	10731.27
709.621	10778.5
709.966	10676.81
710.31	10697.15
710.654	10602.46
710.998	10689.46
711.342	10680.88
711.687	10665.74
712.031	10599.75
712.375	10477.27
712.719	10589.58
713.063	10505.29
713.407	10512.52
713.75	10434.33
714.094	10497.15
714.438	10464.84
714.782	10431.62
715.125	10364.73
715.469	10424.61
715.812	10375.35
716.156	10361.34
716.499	10368.34
716.843	10333.77
717.186	10256.03
717.53	10295.12
717.873	10242.92
718.216	10239.31
718.559	10250.38
718.902	10187.11
719.246	10167.22
719.589	10122.25
719.932	10115.02
720.275	10099.2
720.617	10092.19
720.96	10121.57
721.303	10049.48
721.646	10114.79
721.989	9962.7
722.331	10054.23
722.674	10037.05
723.016	10046.54
723.359	10007.9
723.701	10040.44
724.044	10023.27
724.386	9875.7
724.729	9987.34
725.071	9977.39
725.413	9970.61
725.755	9889.71
726.097	9823.72
726.439	9818.98
726.782	9866.44
727.124	9892.65
727.465	9846.1
727.807	9917.96
728.149	9847
728.491	9860.56
728.833	9871.18
729.175	9827.34
729.516	9829.83
729.858	9842.48
730.199	9806.55
730.541	9778.3
730.882	9751.64
731.224	9855.59
731.565	9711.86
731.906	9796.38
732.248	9878.64
732.589	9663.95
732.93	9727
733.271	9755.48
733.612	9720.22
733.953	9722.26
734.294	9721.35
734.635	9757.06
734.976	9761.81
735.317	9654.24
735.658	9737.85
735.999	9796.61
736.339	9725.87
736.68	9797.74
737.021	9760
737.361	9671.64
737.702	9727.46
738.042	9769.94
738.383	9736.5
738.723	9800.9
739.063	9726.1
739.404	9758.19
739.744	9772.65
740.084	9830.5
740.424	9760.68
740.764	9777.4
741.104	9906.66
741.444	9742.6
741.784	9826.66
742.124	9861.92
742.464	9830.73
742.804	9857.85
743.143	9912.08
743.483	9938.98
743.823	9816.27
744.162	9877.28
744.502	10006.77
744.841	9939.43
745.181	10085.19
745.52	9999.54
745.86	10075.7
746.199	10107.33
746.538	10134.68
746.877	10291.96
747.216	10284.05
747.556	10252.64
747.895	10357.72
748.234	10367.21
748.573	10373.09
748.911	10470.49
749.25	10532.86
749.589	10503.03
749.928	10711.39
750.267	10755.23
750.605	10774.21
750.944	10817.82
751.283	10898.5
751.621	10980.76
751.96	11121.77
752.298	11202.9
752.636	11224.82
752.975	11298.94
753.313	11375.55
753.651	11516.79
753.989	11606.28
754.327	11658.48
754.666	11690.79
755.004	11891.92
755.342	12099.15
755.679	12132.82
756.017	12284.9
756.355	12452.58
756.693	12487.84
757.031	12663.65
757.368	12727.6
757.706	12940.03
758.044	12987.94
758.381	13229.96
758.719	13248.27
759.056	13545.66
759.394	13617.3
759.731	13775.49
760.068	14019.32
760.405	14083.95
760.743	14225.42
761.08	14413.89
761.417	14439.65
761.754	14746.99
762.091	14879.86
762.428	15093.64
762.765	15167.31
763.102	15357.14
763.438	15458.15
763.775	15573.63
764.112	15807.97
764.449	16009.32
764.785	16114.86
765.122	16119.83
765.458	16363.44
765.795	16493.15
766.131	16621.29
766.467	16838.68
766.804	16946.7
767.14	17010.65
767.476	17190.76
767.812	17258.33
768.148	17443.64
768.485	17416.75
768.821	17538.78
769.157	17671.65
769.492	17849.28
769.828	17989.39
770.164	17953.68
770.5	18097.41
770.836	18235.93
771.171	18204.52
771.507	18386.89
771.842	18286.55
772.178	18538.3
772.513	18585.98
772.849	18528.81
773.184	18746.43
773.519	18863.26
773.855	18812.64
774.19	18832.08
774.525	18909.81
774.86	19056.93
775.195	19178.73
775.53	19003.6
775.865	19152.29
776.2	19108.23
776.535	19190.03
776.87	19140.99
777.205	19164.95
777.539	19177.6
777.874	19432.06
778.209	19271.39
778.543	19318.62
778.878	19273.65
779.212	19426.64
779.547	19362.23
779.881	19425.51
780.215	19339.86
780.55	19487.43
780.884	19391.16
781.218	19415.34
781.552	19412.85
781.886	19423.02
782.22	19376.69
782.554	19410.37
782.888	19239.75
783.222	19322.23
783.556	19220.99
783.889	19252.86
784.223	19175.8
784.557	19198.62
784.89	19270.93
785.224	19188
785.557	19144.84
785.891	19067.32
786.224	19092.41
786.558	19232.52
786.891	19008.34
787.224	19012.64
787.557	18953.43
787.891	18984.16
788.224	18966.08
788.557	18986.42
788.89	18891.96
789.223	19047.21
789.556	18846.09
789.888	18884.05
790.221	18800.44
790.554	18713.66
790.887	18719.76
791.219	18618.07
791.552	18596.83
791.884	18583.95
792.217	18620.33
792.549	18540.33
792.882	18464.4
793.214	18417.17
793.546	18523.83
793.879	18347.79
794.211	18304.18
794.543	18350.73
794.875	18282.94
795.207	18243.16
795.539	18233
795.871	18245.2
796.203	18053.11
796.535	18057.86
796.867	18079.1
797.198	17928.6
797.53	17928.37
797.862	17870.52
798.193	17858.99
798.525	17828.26
798.856	17828.71
799.188	17653.8
799.519	17653.58
799.85	17519.34
800.182	17542.17
800.513	17590.98
800.844	17454.48
801.175	17588.49
801.506	17495.39
801.837	17353.47
802.168	17370.42
802.499	17355.73
802.83	17236.64
803.161	17224.43
803.491	17140.82
803.822	17157.54
804.153	17140.82
804.483	16993.93
804.814	17002.97
805.145	16918
805.475	16993.25
805.805	16868.29
806.136	16847.95
806.466	16887.95
806.796	16913.93
807.126	16685.24
807.457	16687.73
807.787	16706.03
808.117	16635.07
808.447	16575.41
808.777	16606.15
809.107	16504.45
809.436	16480.05
809.766	16463.1
810.096	16428.52
810.426	16340.16
810.755	16350.78
811.085	16285.93
811.414	16335.64
811.744	16198.25
812.073	16181.98
812.403	16176.55
812.732	16066.05
813.061	16125.93
813.39	15986.27
813.719	15969.1
814.049	16054.52
814.378	15998.93
814.707	15878.71
815.036	15992.6
815.365	15837.13
815.693	15727.52
816.022	15748.54
816.351	15644.14
816.68	15656.34
817.008	15712.61
817.337	15579.96
817.665	15509.68
817.994	15581.54
818.322	15629.9
818.651	15410.92
818.979	15387.65
819.307	15494.54
819.636	15424.48
819.964	15393.52
820.292	15433.07
820.62	15394.2
820.948	15347.87
821.276	15359.85
821.604	15336.35
821.932	15372.96
822.259	15383.8
822.587	15395.1
822.915	15402.11
823.243	15376.12
823.57	15325.05
823.898	15335.67
824.225	15304.94
824.553	15278.5
824.88	15300.87
825.207	15445.72
825.535	15310.81
825.862	15417.48
826.189	15295.67
826.516	15346.97
826.843	15368.44
827.17	15256.35
827.497	15369.79
827.824	15365.27
828.151	15480.98
828.478	15317.37
828.805	15404.59
829.131	15249.8
829.458	15423.58
829.785	15346.74
830.111	15312.62
830.438	15401.88
830.764	15360.75
831.09	15367.08
831.417	15233.98
831.743	15331.38
832.069	15369.34
832.395	15318.04
832.722	15263.36
833.048	15246.41
833.374	15200.76
833.7	15150.14
834.026	15218.16
834.351	15213.41
834.677	15219.52
835.003	15316.46
835.329	15193.08
835.654	15150.14
835.98	15134.77
836.306	15120.53
836.631	15098.16
836.956	15146.97
837.282	15166.86
837.607	15081.89
837.932	14961.67
838.258	14995.79
838.583	14998.05
838.908	14931.84
839.233	14951.73
839.558	14924.61
839.883	14906.3
840.208	14705.4
840.533	14805.97
840.858	14828.56
841.182	14833.99
841.507	14793.09
841.832	14711.51
842.156	14725.52
842.481	14713.09
842.805	14640.1
843.13	14638.51
843.454	14551.51
843.778	14504.73
844.103	14485.75
844.427	14443.04
844.751	14497.05
845.075	14341.57
845.399	14387.45
845.723	14342.7
846.047	14279.2
846.371	14208.02
846.695	14201.69
847.019	14054.35
847.343	14038.76
847.666	13917.85
847.99	13900.45
848.313	13943.62
848.637	13793.11
848.96	13820.46
849.284	13670.86
849.607	13664.08
849.931	13547.47
850.254	13542.72
850.577	13522.84
850.9	13392.22
851.223	13432.22
851.546	13342.28
851.869	13193.13
852.192	13298.89
852.515	13150.19
852.838	13115.16
853.161	13074.26
853.483	13037.65
853.806	13057.99
854.129	12930.31
854.451	12912.23
854.774	12869.52
855.096	12831.78
855.419	12742.29
855.741	12766.47
856.063	12701.84
856.385	12606.7
856.708	12598.57
857.03	12553.14
857.352	12539.36
857.674	12496.42
857.996	12542.07
858.318	12391.57
858.64	12408.29
858.961	12414.62
859.283	12317.22
859.605	12234.96
859.926	12322.87
860.248	12278.35
860.57	12220.95
860.891	12241.06
861.212	12095.08
861.534	12072.93
861.855	12065.93
862.176	12063.21
862.498	12038.81
862.819	12061.86
863.14	11949.54
863.461	11916.33
863.782	11924.23
864.103	11910
864.424	11902.31
864.745	11913.61
865.065	11831.13
865.386	11836.78
865.707	11789.32
866.027	11830.45
866.348	11743.45
866.668	11783.22
866.989	11771.24
867.309	11709.32
867.63	11715.2
867.95	11719.72
868.27	11576.67
868.59	11612.38
868.91	11584.36
869.23	11639.04
869.55	11563.57
869.87	11562.89
870.19	11512.04
870.51	11571.48
870.83	11508.88
871.15	11512.04
871.469	11419.16
871.789	11484.02
872.109	11404.47
872.428	11385.72
872.748	11405.15
873.067	11370.58
873.386	11385.04
873.706	11350.69
874.025	11312.95
874.344	11265.72
874.663	11267.98
874.982	11213.52
875.301	11256.68
875.62	11178.94
875.939	11203.8
876.258	11232.5
876.577	11101.43
876.896	11125.16
877.214	11085.16
877.533	11079.06
877.852	11106.63
878.17	11128.55
878.489	11110.92
878.807	11076.57
879.125	11057.14
879.444	11058.95
879.762	11004.48
880.08	10965.39
880.398	10909.12
880.716	10904.15
881.034	10862.12
881.352	10944.15
881.67	10812.63
881.988	10903.47
882.306	10790.93
882.624	10729.01
882.941	10689.01
883.259	10680.88
883.577	10702.57
883.894	10653.99
884.212	10671.16
884.529	10613.99
884.846	10618.28
885.164	10640.88
885.481	10540.77
885.798	10588.22
886.115	10500.77
886.432	10476.36
886.75	10477.94
887.067	10454.67
887.383	10425.52
887.7	10421.22
888.017	10415.57
888.334	10366.76
888.651	10338.29
888.967	10261.45
889.284	10260.78
889.6	10201.57
889.917	10139.42
890.233	10150.72
890.55	10103.27
890.866	10198.63
891.182	10162.47
891.498	10024.4
891.815	10036.15
892.131	9981.01
892.447	9934.46
892.763	9928.35
893.079	9918.19
893.395	9866.89
893.71	9874.34
894.026	9756.83
894.342	9804.06
894.657	9724.97
894.973	9619.66
895.289	9709.38
895.604	9661.7
895.92	9625.76
896.235	9508.03
896.55	9543.73
896.865	9501.02
897.181	9394.13
897.496	9465.99
897.811	9389.84
898.126	9354.13
898.441	9321.82
898.756	9331.31
899.071	9247.24
899.386	9281.37
899.7	9172.67
900.015	9180.13
900.33	9121.14
900.644	9139.22
900.959	9132.67
901.273	9051.77
901.588	8996.85
901.902	8995.5
902.216	8895.16
902.531	8958.21
902.845	8882.05
903.159	8821.04
903.473	8795.96
903.787	8687.03
904.101	8773.36
904.415	8780.14
904.729	8701.95
905.042	8646.58
905.356	8592.12
905.67	8613.14
905.984	8585.57
906.297	8564.32
906.611	8530.65
906.924	8503.31
907.237	8443.2
907.551	8465.57
907.864	8404.55
908.177	8316.65
908.491	8292.47
908.804	8289.53
909.117	8214.95
909.43	8170.21
909.743	8130.66
910.056	8119.81
910.368	8133.83
910.681	8051.79
910.994	8026.94
911.307	8022.64
911.619	7942.64
911.932	7955.98
912.244	7856.77
912.557	7922.53
912.869	7821.52
913.181	7789.65
913.494	7737.23
913.806	7762.31
914.118	7655.65
914.43	7617.23
914.742	7668.98
915.054	7651.13
915.366	7569.77
915.678	7530.23
915.99	7459.95
916.302	7517.12
916.613	7482.32
916.925	7429.44
917.236	7385.6
917.548	7373.85
917.859	7294.3
918.171	7326.16
918.482	7313.28
918.794	7250.69
919.105	7247.07
919.416	7137.92
919.727	7174.53
920.038	7107.19
920.349	7064.02
920.66	7110.12
920.971	7024.02
921.282	7000.52
921.593	6977.02
921.903	6963.23
922.214	6888.21
922.525	6875.55
922.835	6904.93
923.146	6833.75
923.456	6848.44
923.767	6731.15
924.077	6723.24
924.387	6687.99
924.697	6697.93
925.008	6689.57
925.318	6673.98
925.628	6643.47
925.938	6586.3
926.248	6578.16
926.558	6459.07
926.867	6550.36
927.177	6469.91
927.487	6441.89
927.796	6372.97
928.106	6422.91
928.416	6377.26
928.725	6382.69
929.034	6354.21
929.344	6303.59
929.653	6348.56
929.962	6227.66
930.271	6202.13
930.581	6212.29
930.89	6126.87
931.199	6119.42
931.508	6106.08
931.817	6116.93
932.125	6054.78
932.434	6045.97
932.743	5970.49
933.051	5978.4
933.36	5948.12
933.669	5931.62
933.977	5881.46
934.286	5878.97
934.594	5858.86
934.902	5813.43
935.21	5811.63
935.519	5799.2
935.827	5746.09
936.135	5746.54
936.443	5696.15
936.751	5644.4
937.059	5649.15
937.367	5627.45
937.674	5624.97
937.982	5616.83
938.29	5558.98
938.597	5497.96
938.905	5524.63
939.213	5525.53
939.52	5503.84
939.827	5449.6
940.135	5428.13
940.442	5391.75
940.749	5412.77
941.056	5361.47
941.363	5342.03
941.67	5316.95
941.977	5312.2
942.284	5177.97
942.591	5251.19
942.898	5209.61
943.205	5183.39
943.511	5158.99
943.818	5151.08
944.125	5136.39
944.431	5108.82
944.738	5113.11
945.044	5104.98
945.35	5058.65
945.657	5051.87
945.963	5024.75
946.269	4976.39
946.575	4960.58
946.881	4937.75
947.187	4942.5
947.493	4877.19
947.799	4903.4
948.105	4841.71
948.41	4832.22
948.716	4809.62
949.022	4801.03
949.327	4770.07
949.633	4736.85
949.938	4753.58
950.244	4787.92
950.549	4688.27
950.854	4630.19
951.16	4653.24
951.465	4646.91
951.77	4596.97
952.075	4578.66
952.38	4562.62
952.685	4568.95
952.99	4560.59
953.294	4502.28
953.599	4455.96
953.904	4489.63
954.209	4423.87
954.513	4406.47
954.818	4428.16
955.122	4419.35
955.426	4306.81
955.731	4342.29
956.035	4326.69
956.339	4302.51
956.643	4315.62
956.948	4305.9
957.252	4276.98
957.556	4257.32
957.86	4262.29
958.163	4207.38
958.467	4178.9
958.771	4202.63
959.075	4145
959.378	4111.33
959.682	4156.53
959.985	4098.9
960.289	4107.26
960.592	4090.09
960.896	4048.28
961.199	4027.04
961.502	4057.1
961.805	4030.43
962.108	3994.5
962.411	3989.3
962.714	3933.71
963.017	3950.21
963.32	3914.73
963.623	3823.88
963.926	3909.08
964.228	3875.86
964.531	3837.67
964.833	3844.22
965.136	3837.22
965.438	3795.41
965.741	3736.65
966.043	3772.13
966.345	3729.87
966.648	3720.83
966.95	3734.39
967.252	3687.39
967.554	3672.47
967.856	3668.63
968.158	3661.17
968.46	3637.9
968.761	3638.58
969.063	3598.35
969.365	3597
969.666	3572.59
969.968	3557.22
970.269	3558.13
970.571	3563.55
970.872	3502.08
971.174	3472.48
971.475	3508.18
971.776	3472.48
972.077	3407.4
972.378	3437
972.679	3438.81
972.98	3386.38
973.281	3396.32
973.582	3375.31
973.883	3363.33
974.183	3302.77
974.484	3288.98
974.785	3281.07
975.085	3297.12
975.386	3306.61
975.686	3256.21
975.986	3282.65
976.287	3233.62
976.587	3214.18
976.887	3242.2
977.187	3234.97
977.487	3177.57
977.787	3182.77
978.087	3161.98
978.387	3161.08
978.687	3160.85
978.987	3095.54
979.286	3100.96
979.586	3087.86
979.885	3072.26
980.185	3052.15
980.484	3072.72
980.784	3039.27
981.083	3022.55
981.382	2989.55
981.682	3004.24
981.981	3003.57
982.28	2938.03
982.579	2936.67
982.878	2941.42
983.177	2936.22
983.475	2912.04
983.774	2880.18
984.073	2832.27
984.372	2865.49
984.67	2859.61
984.969	2849.22
985.267	2821.65
985.566	2805.15
985.864	2775.77
986.162	2805.83
986.461	2830.69
986.759	2778.03
987.057	2772.38
987.355	2741.43
987.653	2749.79
987.951	2762.22
988.249	2691.03
988.547	2694.87
988.844	2691.71
989.142	2668.43
989.44	2660.75
989.737	2676.79
990.035	2656.23
990.332	2626.4
990.63	2622.11
990.927	2636.12
991.224	2608.32
991.521	2564.03
991.819	2578.72
992.116	2558.61
992.413	2567.19
992.71	2524.93
993.006	2536.01
993.303	2468.44
993.6	2530.81
993.897	2459.62
994.193	2499.85
994.49	2476.8
994.787	2461.43
995.083	2461.43
995.379	2422.79
995.676	2389.8
995.972	2409.46
996.268	2383.92
996.565	2356.35
996.861	2322
997.157	2369.01
997.453	2312.74
997.749	2302.11
998.044	2331.27
998.34	2279.06
998.636	2293.08
998.932	2288.56
999.227	2263.25
999.523	2288.1
999.818	2234.55
1000.114	2220.76
1000.409	2213.53
1000.704	2218.73
1001	2227.31
1001.295	2168.78
1001.59	2182.34
1001.885	2159.52
1002.18	2142.34
1002.475	2151.16
1002.77	2119.52
1003.065	2144.38
1003.359	2133.31
1003.654	2077.04
1003.949	2092.63
1004.243	2077.94
1004.538	2042.46
1004.832	2085.85
1005.127	2061.67
1005.421	1996.36
1005.715	2012.86
1006.009	2046.3
1006.304	2009.01
1006.598	1972.18
1006.892	1965.85
1007.186	1963.14
1007.48	1968.34
1007.773	1926.08
1008.067	1952.52
1008.361	1902.58
1008.655	1913.2
1008.948	1889.92
1009.242	1898.28
1009.535	1891.05
1009.829	1834.1
1010.122	1863.26
1010.415	1842.69
1010.708	1812.41
1011.001	1811.51
1011.295	1813.09
1011.588	1798.17
1011.881	1759.76
1012.173	1755.01
1012.466	1775.57
1012.759	1732.19
1013.052	1738.97
1013.344	1725.86
1013.637	1741.9
1013.93	1699.42
1014.222	1696.93
1014.514	1703.49
1014.807	1683.15
1015.099	1659.19
1015.391	1642.47
1015.683	1684.05
1015.976	1625.52
1016.268	1629.82
1016.56	1625.3
1016.851	1603.38
1017.143	1614.68
1017.435	1565.64
1017.727	1577.84
1018.018	1578.29
1018.31	1556.15
1018.602	1552.08
1018.893	1549.59
1019.185	1533.77
1019.476	1526.32
1019.767	1512.98
1020.058	1507.79
1020.35	1502.81
1020.641	1482.25
1020.932	1466.88
1021.223	1478.18
1021.514	1471.18
1021.804	1412.65
1022.095	1436.6
1022.386	1426.43
1022.677	1405.42
1022.967	1401.35
1023.258	1382.36
1023.548	1389.82
1023.839	1375.59
1024.129	1399.31
1024.419	1346.43
1024.709	1338.52
1025	1355.7
1025.29	1336.49
1025.58	1331.52
1025.87	1318.19
1026.16	1282.03
1026.449	1294.91
1026.739	1267.11
1027.029	1286.1
1027.319	1268.7
1027.608	1284.06
1027.898	1250.16
1028.187	1241.8
1028.477	1249.49
1028.766	1235.48
1029.055	1213.33
1029.344	1219.66
1029.634	1215.82
1029.923	1209.49
1030.212	1201.13
1030.501	1191.41
1030.79	1165.87
1031.078	1187.12
1031.367	1184.63
1031.656	1155.93
1031.945	1154.35
1032.233	1136.95
1032.522	1117.29
1032.81	1126.1
1033.099	1100.79
1033.387	1121.13
1033.675	1121.58
1033.963	1112.32
1034.251	1095.14
1034.54	1084.29
1034.828	1068.93
1035.116	1061.7
1035.403	1056.95
1035.691	1058.31
1035.979	1031.41
1036.267	1039.55
1036.554	1026.22
1036.842	1024.41
1037.129	1012.88
1037.417	997.74
1037.704	1002.71
1037.992	996.84
1038.279	1025.99
1038.566	984.86
1038.853	984.86
1039.14	984.86
