Data from hue_280_FLMS001491_00023.txt Node
Date: Tue Feb 07 15:55:02 GMT 2017
User: dcchb
Spectrometer: FLMS00149
Trigger mode: 0
Integration Time (sec): 2.000000E-2
Scans to average: 10
Electric dark correction enabled: true
Nonlinearity correction enabled: false
Boxcar width: 0
XAxis mode: Wavelengths
Number of Pixels in Spectrum: 2048
>>>>>Begin Spectral Data<<<<<
341.393	-17.56
341.776	-17.56
342.16	-17.56
342.543	-53.26
342.927	-76.76
343.31	-68.4
343.693	-70.66
344.077	-65.24
344.46	-60.27
344.843	-60.94
345.226	-48.74
345.61	-39.7
345.993	-19.14
346.376	4.59
346.759	11.6
347.142	24.25
347.525	31.26
347.908	68.54
348.291	88.66
348.674	86.4
349.057	117.81
349.44	122.33
349.823	142.67
350.206	164.13
350.588	205.49
350.971	206.62
351.354	230.35
351.737	228.99
352.119	245.71
352.502	253.85
352.884	281.19
353.267	263.34
353.65	289.1
354.032	297.24
354.414	297.69
354.797	306.96
355.179	320.74
355.562	295.66
355.944	319.16
356.326	301.53
356.709	330.23
357.091	339.5
357.473	330.46
357.855	331.14
358.238	333.85
358.62	303.11
359.002	334.53
359.384	345.6
359.766	334.75
360.148	338.14
360.53	316.22
360.912	348.08
361.294	337.91
361.676	348.08
362.057	341.3
362.439	306.73
362.821	321.42
363.203	325.71
363.584	306.05
363.966	327.07
364.348	311.02
364.729	305.37
365.111	322.1
365.493	332.27
365.874	331.81
366.256	333.62
366.637	319.84
367.019	296.33
367.4	315.32
367.781	306.05
368.163	307.41
368.544	294.3
368.925	329.1
369.306	305.83
369.688	321.64
370.069	310.8
370.45	314.64
370.831	306.05
371.212	319.61
371.593	318.93
371.974	317.58
372.355	340.63
372.736	334.3
373.117	292.72
373.498	314.64
373.879	331.36
374.26	300.4
374.641	290.46
375.021	313.51
375.402	319.84
375.783	316.22
376.163	302.21
376.544	328.88
376.925	337.01
377.305	324.13
377.686	317.12
378.066	310.8
378.447	319.84
378.827	344.24
379.208	325.71
379.588	344.24
379.968	348.31
380.349	319.84
380.729	332.49
381.109	351.7
381.489	360.29
381.87	332.94
382.25	346.5
382.63	354.41
383.01	335.66
383.39	344.24
383.77	341.76
384.15	337.24
384.53	358.03
384.91	330.46
385.29	358.93
385.67	353.28
386.049	348.99
386.429	359.84
386.809	354.64
387.189	345.82
387.568	348.99
387.948	359.38
388.328	353.06
388.707	372.04
389.087	353.06
389.466	374.98
389.846	368.65
390.225	361.19
390.605	385.37
390.984	357.58
391.363	355.32
391.743	395.54
392.122	351.25
392.501	369.55
392.881	373.62
393.26	368.42
393.639	366.16
394.018	387.63
394.397	388.76
394.776	401.87
395.155	396.9
395.534	392.38
395.913	391.02
396.292	389.89
396.671	386.95
397.05	391.92
397.429	400.96
397.808	417.01
398.186	401.19
398.565	405.03
398.944	399.61
399.323	422.88
399.701	407.74
400.08	421.53
400.458	426.73
400.837	426.05
401.215	433.28
401.594	405.94
401.972	434.18
402.351	430.79
402.729	431.7
403.107	439.83
403.486	435.99
403.864	442.54
404.242	443
404.62	438.25
404.999	429.44
405.377	447.52
405.755	473.5
406.133	458.59
406.511	468.98
406.889	461.08
407.267	458.14
407.645	461.98
408.023	472.83
408.401	478.02
408.779	467.63
409.156	495.2
409.534	494.52
409.912	497.68
410.29	508.08
410.667	501.07
411.045	550.11
411.422	548.53
411.8	534.07
412.178	532.94
412.555	556.44
412.933	538.36
413.31	558.7
413.687	565.03
414.065	570
414.442	588.76
414.819	591.47
415.197	594.18
415.574	612.94
415.951	608.64
416.328	605.7
416.705	598.47
417.082	626.27
417.46	647.51
417.837	643.44
418.214	632.6
418.591	642.54
418.967	669.21
419.344	679.83
419.721	671.01
420.098	714.63
420.475	697.45
420.852	680.05
421.228	694.97
421.605	714.18
421.982	723.22
422.358	753.5
422.735	735.19
423.111	744.23
423.488	766.83
423.864	769.09
424.241	798.24
424.617	793.04
424.994	808.18
425.37	794.63
425.746	796.21
426.123	842.76
426.499	870.1
426.875	819.94
427.251	847.51
427.627	865.81
428.003	859.26
428.379	893.38
428.756	881.86
429.132	896.77
429.507	915.53
429.883	915.3
430.259	920.5
430.635	924.57
431.011	944.9
431.387	975.64
431.763	954.85
432.138	978.58
432.514	1016.32
432.89	1011.12
433.265	1039.37
433.641	1035.98
434.016	1050.89
434.392	1080.49
434.767	1085.69
435.143	1114.84
435.518	1112.58
435.894	1102.19
436.269	1178.8
436.644	1142.41
437.02	1146.48
437.395	1187.38
437.77	1218.57
438.145	1216.31
438.52	1223.77
438.895	1226.25
439.271	1257.21
439.646	1283.65
440.021	1281.39
440.395	1295.18
440.77	1294.95
441.145	1305.57
441.52	1306.48
441.895	1311
442.27	1325.69
442.645	1324.33
443.019	1376.76
443.394	1391.45
443.769	1388.51
444.143	1356.65
444.518	1403.2
444.892	1385.8
445.267	1407.04
445.641	1391.67
446.016	1423.08
446.39	1450.65
446.764	1401.84
447.139	1469.41
447.513	1445.23
447.887	1460.15
448.262	1457.66
448.636	1466.7
449.01	1500.6
449.384	1506.7
449.758	1496.53
450.132	1541.05
450.506	1504.44
450.88	1522.06
451.254	1516.19
451.628	1524.78
452.002	1553.48
452.376	1586.24
452.75	1552.57
453.123	1602.74
453.497	1607.03
453.871	1588.5
454.244	1665.34
454.618	1660.82
454.992	1679.35
455.365	1682.06
455.739	1671.44
456.112	1712.12
456.486	1722.96
456.859	1745.34
457.232	1750.76
457.606	1726.8
457.979	1776.75
458.352	1820.36
458.725	1832.79
459.099	1843.41
459.472	1849.06
459.845	1876.63
460.218	1872.79
460.591	1891.09
460.964	1914.37
461.337	1935.39
461.71	1945.78
462.083	1978.55
462.456	1968.15
462.829	1957.08
463.201	2041.15
463.574	2006.8
463.947	2033.24
464.32	2048.6
464.692	2087.93
465.065	2110.52
465.438	2136.29
465.81	2127.25
466.183	2160.24
466.555	2197.98
466.928	2222.16
467.3	2206.79
467.672	2242.95
468.045	2262.16
468.417	2321.82
468.789	2310.52
469.161	2304.87
469.534	2326.11
469.906	2379.22
470.278	2397.3
470.65	2405.21
471.022	2459.67
471.394	2482.94
471.766	2510.51
472.138	2542.15
472.51	2570.17
472.882	2598.65
473.253	2618.31
473.625	2631.87
473.997	2690.62
474.369	2673.45
474.74	2712.09
475.112	2765.65
475.484	2785.08
475.855	2839.54
476.227	2851.75
476.598	2949.37
476.97	2950.28
477.341	2961.57
477.713	3038.41
478.084	3028.69
478.455	3104.4
478.827	3110.5
479.198	3156.15
479.569	3160.89
479.94	3262.36
480.311	3242.25
480.682	3307.1
481.053	3345.52
481.424	3403.6
481.795	3385.52
482.166	3491.73
482.537	3509.13
482.908	3577.15
483.279	3548
483.65	3607.66
484.021	3729.24
484.391	3729.46
484.762	3747.09
485.133	3758.62
485.503	3816.02
485.874	3861.66
486.244	3891.27
486.615	3917.26
486.985	3951.38
487.356	4027.08
487.726	4046.07
488.097	4105.27
488.467	4105.05
488.837	4215.78
489.207	4254.42
489.578	4280.64
489.948	4284.48
490.318	4333.29
490.688	4359.96
491.058	4404.02
491.428	4431.37
491.798	4498.03
492.168	4551.14
492.538	4563.34
492.908	4616.22
493.278	4678.37
493.648	4676.33
494.017	4705.26
494.387	4763.11
494.757	4738.93
495.126	4791.13
495.496	4825.93
495.866	4855.99
496.235	4870.23
496.605	4885.59
496.974	4929.88
497.344	4971.69
497.713	4966.49
498.082	5024.57
498.452	5058.24
498.821	5059.15
499.19	5032.03
499.559	5112.25
499.928	5117.9
500.298	5133.27
500.667	5195.87
501.036	5126.49
501.405	5217.33
501.774	5196.77
502.143	5280.84
502.512	5282.87
502.88	5326.26
503.249	5311.57
503.618	5292.13
503.987	5375.3
504.356	5394.28
504.724	5396.99
505.093	5408.06
505.462	5439.25
505.83	5452.13
506.199	5493.94
506.567	5556.31
506.936	5488.29
507.304	5568.96
507.672	5574.84
508.041	5629.75
508.409	5608.06
508.777	5669.53
509.145	5686.25
509.514	5653.26
509.882	5692.12
510.25	5714.95
510.618	5676.76
510.986	5696.42
511.354	5725.12
511.722	5826.58
512.09	5839.24
512.458	5820.03
512.826	5848.5
513.193	5829.3
513.561	5893.02
513.929	5883.31
514.297	5948.39
514.664	5964.66
515.032	5970.08
515.4	6007.14
515.767	5982.74
516.135	6046.01
516.502	5978.9
516.869	6050.31
517.237	6013.92
517.604	5981.83
517.972	6104.32
518.339	6111.32
518.706	6102.06
519.073	6166.91
519.44	6111.77
519.808	6163.3
520.175	6177.54
520.542	6256.18
520.909	6272.67
521.276	6256.18
521.643	6294.37
522.009	6336.18
522.376	6310.19
522.743	6314.71
523.11	6369.62
523.477	6393.57
523.843	6445.1
524.21	6450.52
524.577	6491.88
524.943	6530.29
525.31	6498.88
525.676	6567.36
526.043	6598.09
526.409	6635.6
526.776	6677.86
527.142	6637.41
527.508	6673.34
527.874	6725.54
528.241	6815.48
528.607	6800.57
528.973	6847.8
529.339	6781.36
529.705	6854.35
530.071	6904.52
530.437	6933.45
530.803	6937.74
531.169	6928.7
531.535	6943.39
531.901	6912.66
532.267	6990.62
532.632	7006.67
532.998	6995.37
533.364	7022.71
533.73	7164.63
534.095	7102.26
534.461	7078.53
534.826	7098.87
535.192	7132.09
535.557	7180.67
535.923	7164.4
536.288	7190.84
536.653	7210.5
537.019	7189.26
537.384	7244.85
537.749	7248.69
538.114	7313.1
538.479	7251.18
538.845	7302.25
539.21	7248.47
539.575	7290.27
539.94	7357.84
540.305	7368.92
540.67	7338.18
541.034	7364.85
541.399	7377.05
541.764	7454.56
542.129	7441.91
542.494	7478.07
542.858	7398.97
543.223	7466.99
543.587	7485.98
543.952	7460.67
544.316	7554.67
544.681	7528.46
545.045	7624.73
545.41	7596.48
545.774	7543.6
546.138	7584.05
546.503	7584.05
546.867	7641.23
547.231	7626.54
547.595	7635.35
547.959	7636.03
548.324	7680.09
548.688	7637.84
549.052	7719.42
549.416	7698.85
549.779	7727.55
550.143	7703.6
550.507	7693.65
550.871	7739.53
551.235	7774.1
551.599	7781.33
551.962	7799.41
552.326	7863.82
552.689	7887.32
553.053	7821.33
553.417	7829.7
553.78	7925.51
554.143	7934.33
554.507	7910.15
554.87	7852.97
555.234	7988.56
555.597	7904.72
555.96	7910.6
556.323	8010.93
556.686	7956.7
557.05	8011.39
557.413	8010.03
557.776	8084.15
558.139	8122.79
558.502	8113.98
558.865	8052.06
559.228	8099.74
559.59	8086.19
559.953	8199.86
560.316	8323.69
560.679	8241.44
561.041	8295.22
561.404	8234.2
561.767	8345.84
562.129	8333.41
562.492	8403.01
562.854	8401.43
563.217	8319.85
563.579	8391.71
563.941	8515.33
564.304	8420.87
564.666	8534.54
565.028	8520.52
565.39	8611.37
565.753	8545.83
566.115	8584.93
566.477	8578.83
566.839	8657.47
567.201	8714.87
567.563	8754.42
567.925	8769.11
568.287	8802.78
568.648	8839.84
569.01	8873.51
569.372	8855.88
569.734	8898.82
570.095	8923.9
570.457	8933.85
570.819	8949.89
571.18	8992.38
571.542	9005.48
571.903	9065.14
572.265	9132.26
572.626	9167.74
572.987	9131.81
573.349	9189.66
573.71	9207.06
574.071	9265.14
574.432	9226.04
574.794	9391.46
575.155	9330.67
575.516	9314.85
575.877	9395.08
576.238	9395.76
576.599	9545.13
576.96	9524.34
577.32	9562.98
577.681	9663.32
578.042	9616.31
578.403	9632.59
578.763	9675.75
579.124	9724.79
579.485	9817.44
579.845	9824.9
580.206	9845.46
580.566	9922.07
580.927	9923.65
581.287	9970.88
581.648	9979.47
582.008	10073.93
582.368	10088.17
582.728	10209.52
583.089	10235.28
583.449	10263.53
583.809	10308.5
584.169	10332
584.529	10355.73
584.889	10527.7
585.249	10458.55
585.609	10521.6
585.969	10651.77
586.329	10692.67
586.688	10724.53
587.048	10715.72
587.408	10912.78
587.768	10876.17
588.127	10949.84
588.487	10972.66
588.846	11115.94
589.206	11112.77
589.565	11108.48
589.925	11255.14
590.284	11261.92
590.643	11451.07
591.003	11479.54
591.362	11551.41
591.721	11554.57
592.08	11669.82
592.44	11691.51
592.799	11749.82
593.158	11787.33
593.517	11857.39
593.876	11951.62
594.235	11970.83
594.593	12062.58
594.952	12116.14
595.311	12130.37
595.67	12232.29
596.029	12285.85
596.387	12468.67
596.746	12430.25
597.104	12446.97
597.463	12543.24
597.822	12625.28
598.18	12599.51
598.538	12643.35
598.897	12801.77
599.255	12809
599.613	12918.6
599.972	12929.45
600.33	12938.04
600.688	12967.41
601.046	13024.81
601.404	13062.78
601.762	13173.74
602.12	13205.15
602.478	13255.32
602.836	13279.72
603.194	13290.12
603.552	13326.95
603.91	13366.72
604.268	13396.1
604.625	13443.33
604.983	13485.14
605.341	13550.9
605.698	13573.27
606.056	13644.23
606.413	13666.83
606.771	13698.92
607.128	13785.7
607.485	13803.1
607.843	13803.78
608.2	13890.55
608.557	13885.81
608.914	13870.44
609.272	13990.21
609.629	14022.53
609.986	13996.54
610.343	14014.62
610.7	14157.21
611.057	14174.61
611.414	14173.48
611.771	14198.34
612.127	14297.77
612.484	14269.3
612.841	14331.9
613.198	14376.87
613.554	14417.54
613.911	14440.82
614.267	14465
614.624	14397.88
614.98	14519.01
615.337	14546.81
615.693	14552.46
616.05	14558.78
616.406	14669.97
616.762	14528.73
617.118	14582.51
617.475	14688.27
617.831	14722.85
618.187	14773.02
618.543	14750.42
618.899	14786.57
619.255	14731.66
619.611	14843.52
619.967	14779.12
620.323	14843.52
620.678	14780.47
621.034	14766.69
621.39	14840.81
621.746	14758.1
622.101	14974.59
622.457	14888.94
622.812	14931.66
623.168	14924.42
623.523	14953.8
623.879	15020.24
624.234	14928.72
624.589	14898.89
624.945	14950.86
625.3	14990.64
625.655	14911.54
626.01	14959.45
626.365	15000.58
626.72	14917.19
627.075	15003.29
627.43	14968.26
627.785	14902.05
628.14	14988.38
628.495	15040.35
628.85	15048.94
629.205	14936.63
629.559	14939.56
629.914	15009.85
630.269	14994.7
630.623	14959.23
630.978	14910.86
631.332	15024.53
631.687	14950.19
632.041	14892.56
632.396	14961.26
632.75	14883.97
633.104	14881.94
633.459	14854.82
633.813	14884.2
634.167	14860.7
634.521	14848.27
634.875	14851.21
635.229	14789.96
635.583	14737.99
635.937	14847.59
636.291	14668.39
636.645	14782.51
636.999	14744.32
637.352	14725.11
637.706	14605.11
638.06	14745.67
638.413	14663.87
638.767	14667.71
639.121	14704.77
639.474	14648.27
639.828	14576.64
640.181	14654.6
640.534	14674.26
640.888	14471.78
641.241	14545.9
641.594	14625.45
641.947	14635.62
642.301	14581.16
642.654	14634.71
643.007	14669.74
643.36	14599.91
643.713	14526.69
644.066	14606.24
644.419	14548.61
644.771	14439.24
645.124	14272.01
645.477	14295.06
645.83	14135.74
646.182	14200.6
646.535	14176.65
646.888	14071.79
647.24	13990.89
647.593	14142.75
647.945	14091.9
648.298	14078.57
648.65	14087.38
649.002	14091.23
649.355	14086.48
649.707	14071.34
650.059	14062.07
650.411	14247.15
650.763	14353.82
651.115	14516.07
651.467	14429.07
651.819	14363.76
652.171	14342.07
652.523	14340.26
652.875	14398.56
653.227	14340.48
653.578	14320.82
653.93	14356.76
654.282	14362.18
654.633	14330.32
654.985	14288.06
655.337	14413.25
655.688	14414.83
656.039	14413.25
656.391	14287.38
656.742	14472.23
657.094	14352.91
657.445	14428.39
657.796	14431.56
658.147	14395.85
658.498	14399.69
658.849	14363.31
659.2	14436.98
659.551	14353.59
659.902	14420.93
660.253	14475.85
660.604	14471.55
660.955	14420.26
661.306	14514.94
661.656	14465.45
662.007	14539.8
662.358	14466.58
662.708	14432.23
663.059	14437.21
663.409	14395.17
663.76	14497.32
664.11	14400.37
664.461	14519.91
664.811	14496.64
665.161	14496.41
665.511	14555.17
665.862	14522.17
666.212	14517.43
666.562	14569.63
666.912	14499.58
667.262	14493.7
667.612	14436.53
667.962	14457.54
668.312	14509.52
668.662	14487.15
669.011	14459.13
669.361	14457.77
669.711	14522.85
670.06	14474.27
670.41	14393.59
670.76	14391.1
671.109	14423.19
671.459	14425.45
671.808	14401.73
672.157	14403.31
672.507	14390.43
672.856	14335.29
673.205	14342.29
673.554	14439.69
673.904	14382.29
674.253	14409.18
674.602	14359.02
674.951	14147.72
675.3	14065.01
675.649	14285.34
675.998	14206.7
676.346	14290.77
676.695	14292.35
677.044	14234.5
677.393	14246.02
677.741	14207.83
678.09	14249.64
678.438	14201.05
678.787	14223.43
679.135	14238.11
679.484	14158.57
679.832	14204.44
680.181	14123.32
680.529	14119.02
680.877	14042.64
681.225	14113.6
681.573	14182.3
681.922	13990.66
682.27	13923.09
682.618	13910.21
682.966	13928.07
683.314	14038.12
683.661	13886.49
684.009	13789.76
684.357	13820.5
684.705	13824.11
685.053	13747.96
685.4	13732.14
685.748	13724.68
686.095	13695.3
686.443	13642.42
686.79	13637.45
687.138	13611.92
687.485	13612.82
687.832	13485.82
688.18	13554.74
688.527	13472.26
688.874	13444.01
689.221	13432.94
689.568	13355.2
689.915	13326.05
690.262	13360.17
690.609	13238.82
690.956	13207.18
691.303	13164.7
691.65	13098.48
691.997	13111.36
692.344	13051.48
692.69	12999.73
693.037	12966.28
693.383	12870.69
693.73	12978.03
694.077	12874.53
694.423	12799.73
694.769	12742.11
695.116	12757.93
695.462	12732.17
695.808	12696.91
696.155	12720.19
696.501	12551.83
696.847	12624.15
697.193	12478.39
697.539	12552.06
697.885	12415.56
698.231	12395
698.577	12397.03
698.923	12375.11
699.269	12305.96
699.614	12134.44
699.96	12228.22
700.306	12138.28
700.651	12115.01
700.997	12073.43
701.342	12003.37
701.688	11992.52
702.033	11947.33
702.379	11894.9
702.724	11822.13
703.069	11894.22
703.415	11750.72
703.76	11711.63
704.105	11739.87
704.45	11724.06
704.795	11633.21
705.14	11529.94
705.485	11439.54
705.83	11425.08
706.175	11495.36
706.52	11496.04
706.865	11347.12
707.209	11442.03
707.554	11325.42
707.899	11360.22
708.243	11222.83
708.588	11229.38
708.932	11183.28
709.277	11110.29
709.621	11203.84
709.966	11037.97
710.31	11049.27
710.654	11004.3
710.998	11060.12
711.342	11036.84
711.687	10937.86
712.031	10944.87
712.375	10875.94
712.719	10855.15
713.063	10872.78
713.407	10835.72
713.75	10756.17
714.094	10812.89
714.438	10809.5
714.782	10760.01
715.125	10694.25
715.469	10729.73
715.812	10728.83
716.156	10651.32
716.499	10636.85
716.843	10690.86
717.186	10595.27
717.53	10637.31
717.873	10632.56
718.216	10598.44
718.559	10529.51
718.902	10570.87
719.246	10517.76
719.589	10473.47
719.932	10512.79
720.275	10505.56
720.617	10446.58
720.96	10443.19
721.303	10407.48
721.646	10408.16
721.989	10379.91
722.331	10388.27
722.674	10458.78
723.016	10475.05
723.359	10421.04
723.701	10394.37
724.044	10236.41
724.386	10236.64
724.729	10339.23
725.071	10323.41
725.413	10217.2
725.755	10282.74
726.097	10203.42
726.439	10214.72
726.782	10176.3
727.124	10239.35
727.465	10156.41
727.807	10214.49
728.149	10216.53
728.491	10178.79
728.833	10194.6
729.175	10082.52
729.516	10188.73
729.858	10132.91
730.199	10182.4
730.541	10160.93
730.882	10108.96
731.224	10180.37
731.565	10150.31
731.906	10137.21
732.248	10125
732.589	10133.82
732.93	10067.6
733.271	10143.98
733.612	10207.94
733.953	10087.71
734.294	10146.92
734.635	10064.21
734.976	10134.04
735.317	10053.37
735.658	10110.31
735.999	10105.79
736.339	10144.44
736.68	10132.01
737.021	10114.61
737.361	10038
737.702	10172.01
738.042	10207.49
738.383	10141.72
738.723	10234.15
739.063	10143.31
739.404	10150.09
739.744	10174.49
740.084	10113.48
740.424	10184.21
740.764	10151.22
741.104	10241.16
741.444	10142.4
741.784	10241.84
742.124	10286.81
742.464	10230.99
742.804	10244.77
743.143	10336.97
743.483	10348.95
743.823	10331.78
744.162	10358.67
744.502	10414.94
744.841	10379.23
745.181	10441.15
745.52	10436.18
745.86	10443.41
746.199	10522.51
746.538	10564.31
746.877	10650.86
747.216	10652.9
747.556	10818.77
747.895	10703.74
748.234	10797.3
748.573	10865.55
748.911	10887.69
749.25	10962.27
749.589	10998.2
749.928	11036.16
750.267	11132.21
750.605	11223.28
750.944	11309.6
751.283	11316.16
751.621	11406.78
751.96	11494.91
752.298	11563.61
752.636	11747.33
752.975	11765.18
753.313	11825.75
753.651	12030.04
753.989	12091.28
754.327	12177.83
754.666	12243.14
755.004	12418.73
755.342	12552.51
755.679	12645.84
756.017	12758.83
756.355	12964.7
756.693	12958.83
757.031	13090.12
757.368	13162.44
757.706	13315.88
758.044	13461.86
758.381	13582.54
758.719	13686.94
759.056	13916.99
759.394	13983.43
759.731	14104.78
760.068	14222.3
760.405	14350.43
760.743	14467.94
761.08	14763.3
761.417	14677.42
761.754	14842.62
762.091	15058.88
762.428	15168.71
762.765	15347.01
763.102	15442.83
763.438	15684.4
763.775	15703.16
764.112	15825.42
764.449	16080.1
764.785	16050.5
765.122	16097.73
765.458	16261.56
765.795	16438.73
766.131	16606.64
766.467	16601.67
766.804	16670.37
767.14	16690.48
767.476	16991.94
767.812	16899.06
768.148	17198.94
768.485	17178.38
768.821	17156.46
769.157	17310.35
769.492	17374.08
769.828	17502.89
770.164	17512.38
770.5	17649.1
770.836	17770.45
771.171	17694.52
771.507	17766.16
771.842	17862.88
772.178	17904.01
772.513	17946.94
772.849	18058.58
773.184	18042.08
773.519	18117.56
773.855	18107.84
774.19	18013.38
774.525	18166.6
774.86	18247.5
775.195	18148.75
775.53	18374.73
775.865	18258.8
776.2	18313.49
776.535	18220.38
776.87	18254.05
777.205	18289.53
777.539	18286.14
777.874	18378.57
778.209	18304.22
778.543	18227.39
778.878	18192.13
779.212	18319.81
779.547	18251.57
779.881	18384.22
780.215	18282.98
780.55	18302.19
780.884	18352.81
781.218	18276.65
781.552	18250.21
781.886	18274.17
782.22	18139.25
782.554	18212.25
782.888	18089.76
783.222	18000.95
783.556	18113.72
783.889	17984.91
784.223	17914.4
784.557	17925.02
784.89	17995.3
785.224	18071.69
785.557	17894.52
785.891	17852.71
786.224	17791.47
786.558	17880.96
786.891	17770.68
787.224	17688.19
787.557	17693.39
787.891	17691.81
788.224	17688.87
788.557	17643
788.89	17607.29
789.223	17548.08
789.556	17565.71
789.888	17520.51
790.221	17521.42
790.554	17350.57
790.887	17350.12
791.219	17280.52
791.552	17320.52
791.884	17262.22
792.217	17230.35
792.549	17165.27
792.882	17115.33
793.214	17104.03
793.546	17100.19
793.879	17016.57
794.211	16895.22
794.543	16986.97
794.875	16953.75
795.207	16981.55
795.539	16819.74
795.871	16886.18
796.203	16737.71
796.535	16642.57
796.867	16631.5
797.198	16594.89
797.53	16468.34
797.862	16499.07
798.193	16556.92
798.525	16372.52
798.856	16397.15
799.188	16250.72
799.519	16235.12
799.85	16170.72
800.182	16159.65
800.513	16248
800.844	16031.29
801.175	16172.53
801.506	16134.79
801.837	16116.03
802.168	16035.81
802.499	15876.26
802.83	15925.08
803.161	15914.91
803.491	15858.86
803.822	15803.04
804.153	15767.11
804.483	15631.3
804.814	15606.67
805.145	15586.55
805.475	15611.86
805.805	15454.13
806.136	15481.47
806.466	15595.82
806.796	15410.29
807.126	15352.89
807.457	15328.26
807.787	15346.79
808.117	15288.03
808.447	15176.39
808.777	15276.73
809.107	15148.37
809.436	15147.02
809.766	15138.2
810.096	15103.63
810.426	15014.59
810.755	15010.98
811.085	15045.55
811.414	14964.65
811.744	14797.2
812.073	14859.57
812.403	14927.36
812.732	14801.94
813.061	14729.85
813.39	14669.29
813.719	14743.41
814.049	14824.54
814.378	14716.75
814.707	14707.93
815.036	14568.5
815.365	14569.86
815.693	14388.84
816.022	14386.58
816.351	14488.73
816.68	14372.57
817.008	14381.39
817.337	14293.93
817.665	14236.08
817.994	14288.73
818.322	14315.85
818.651	14253.03
818.979	14098.23
819.307	14235.85
819.636	14177.1
819.964	14039.25
820.292	14074.73
820.62	14062.07
820.948	14010.32
821.276	14061.4
821.604	13991.57
821.932	14074.95
822.259	14097.55
822.587	13992.92
822.915	14020.04
823.243	14066.82
823.57	13924.45
823.898	13933.26
824.225	13959.25
824.553	13943.21
824.88	14067.5
825.207	14070.66
825.535	13944.79
825.862	14033.37
826.189	13960.16
826.516	14021.4
826.843	14089.19
827.17	14054.62
827.497	14093.03
827.824	14016.65
828.151	14048.06
828.478	14005.35
828.805	14214.39
829.131	13971.23
829.458	14039.02
829.785	14022.75
830.111	13929.87
830.438	14060.27
830.764	14066.82
831.09	14017.33
831.417	13952.25
831.743	14001.28
832.069	14008.74
832.395	13958.8
832.722	14034.73
833.048	14040.15
833.374	13961.51
833.7	13816.43
834.026	13947.5
834.351	13892.59
834.677	13821.85
835.003	13821.4
835.329	13870.21
835.654	13925.13
835.98	13847.62
836.306	13921.96
836.631	13767.62
836.956	13858.69
837.282	13844.9
837.607	13816.66
837.932	13736.43
838.258	13766.26
838.583	13721.29
838.908	13688.3
839.233	13655.76
839.558	13556.1
839.883	13538.7
840.208	13605.81
840.533	13549.54
840.858	13531.01
841.182	13469.09
841.507	13431.36
841.832	13432.94
842.156	13420.73
842.481	13462.09
842.805	13383.9
843.13	13355.2
843.454	13403.79
843.778	13254.64
844.103	13290.79
844.427	13151.59
844.751	13182.32
845.075	13138.03
845.399	13121.53
845.723	12972.84
846.047	13076.56
846.371	12927.41
846.695	13060.74
847.019	12800.64
847.343	12777.81
847.666	12712.73
847.99	12666.4
848.313	12689.23
848.637	12486.75
848.96	12567.88
849.284	12533.07
849.607	12435.45
849.931	12406.75
850.254	12250.14
850.577	12236.13
850.9	12177.38
851.223	12138.73
851.546	12157.94
851.869	12042.24
852.192	12105.06
852.515	12036.59
852.838	11946.65
853.161	11957.72
853.483	11868.91
853.806	11842.25
854.129	11854.45
854.451	11720.89
854.774	11721.34
855.096	11639.99
855.419	11714.56
855.741	11686.99
856.063	11503.5
856.385	11536.26
856.708	11567
857.03	11457.17
857.352	11452.88
857.674	11479.54
857.996	11407.45
858.318	11265.54
858.64	11341.69
858.961	11305.54
859.283	11277.29
859.605	11182.83
859.926	11164.75
860.248	11209.27
860.57	11108.48
860.891	11198.42
861.212	11090.63
861.534	11012.89
861.855	10999.78
862.176	11058.99
862.498	11066.9
862.819	11076.84
863.14	10931.31
863.461	10919.33
863.782	10950.97
864.103	10953.23
864.424	10883.17
864.745	10954.13
865.065	10793.01
865.386	10828.94
865.707	10805.66
866.027	10823.51
866.348	10757.75
866.668	10731.31
866.989	10710.52
867.309	10596.18
867.63	10696.06
867.95	10628.72
868.27	10589.4
868.59	10610.19
868.91	10583.52
869.23	10606.35
869.55	10551.43
869.87	10582.17
870.19	10533.35
870.51	10540.58
870.83	10528.38
871.15	10454.71
871.469	10416.52
871.789	10472.11
872.109	10450.19
872.428	10327.93
872.748	10414.03
873.067	10327.71
873.386	10345.79
873.706	10339.01
874.025	10296.75
874.344	10295.62
874.663	10315.73
874.982	10253.81
875.301	10231.67
875.62	10263.3
875.939	10193.7
876.258	10269.41
876.577	10199.12
876.896	10195.96
877.214	10105.34
877.533	10157.09
877.852	10158.9
878.17	10145.34
878.489	10110.31
878.807	10028.06
879.125	10078.45
879.444	10100.6
879.762	10037.55
880.08	10021.05
880.398	9936.31
880.716	10006.59
881.034	9947.15
881.352	9941.5
881.67	9937.66
881.988	9958.23
882.306	9889.75
882.624	9865.57
882.941	9779.25
883.259	9797.1
883.577	9790.55
883.894	9737.22
884.212	9739.02
884.529	9748.51
884.846	9639.14
885.164	9702.19
885.481	9624.45
885.798	9624
886.115	9566.37
886.432	9549.88
886.75	9555.98
887.067	9548.29
887.383	9500.16
887.7	9444.57
888.017	9465.81
888.334	9522.31
888.651	9385.36
888.967	9388.07
889.284	9304.91
889.6	9271.47
889.917	9273.05
890.233	9327.28
890.55	9233.73
890.866	9221.98
891.182	9135.42
891.498	9105.37
891.815	9121.64
892.131	9085.26
892.447	9055.88
892.763	9035.54
893.079	9035.99
893.395	9032.15
893.71	8955.99
894.026	8980.17
894.342	8920.97
894.657	8865.15
894.973	8841.65
895.289	8885.26
895.604	8874.41
895.92	8698.6
896.235	8703.57
896.55	8702.21
896.865	8734.53
897.181	8666.28
897.496	8700.63
897.811	8649.33
898.126	8587.19
898.441	8605.04
898.756	8530.02
899.071	8467.19
899.386	8467.87
899.7	8425.39
900.015	8409.79
900.33	8367.08
900.644	8354.2
900.959	8346.74
901.273	8281.89
901.588	8195.11
901.902	8247.31
902.216	8146.75
902.531	8180.87
902.845	8101.33
903.159	8105.17
903.473	8110.59
903.787	8028.56
904.101	7964.83
904.415	8006.87
904.729	7930.94
905.042	7877.83
905.356	7869.92
905.67	7849.81
905.984	7824.27
906.297	7802.58
906.611	7693.65
906.924	7787.89
907.237	7740.43
907.551	7612.3
907.864	7619.98
908.177	7589.7
908.491	7611.62
908.804	7549.7
909.117	7480.55
909.43	7458.18
909.743	7438.07
910.056	7408.24
910.368	7348.8
910.681	7302.03
910.994	7310.84
911.307	7352.42
911.619	7274
911.932	7267.9
912.244	7173.67
912.557	7175.25
912.869	7113.33
913.181	7141.13
913.494	7092.54
913.806	7072.2
914.118	7019.77
914.43	6973.9
914.742	6969.6
915.054	6928.02
915.366	6859.78
915.678	6903.17
915.99	6810.51
916.302	6824.07
916.613	6818.42
916.925	6775.03
917.236	6801.7
917.548	6700.46
917.859	6694.81
918.171	6629.5
918.482	6621.82
918.794	6590.18
919.105	6630.18
919.416	6540.69
919.727	6527.81
920.038	6513.8
920.349	6414.82
920.66	6401.26
920.971	6443.07
921.282	6448.94
921.593	6348.83
921.903	6360.13
922.214	6298.89
922.525	6290.98
922.835	6245.78
923.146	6265.67
923.456	6230.64
923.767	6202.17
924.077	6187.25
924.387	6210.98
924.697	6138.44
925.008	6091.21
925.318	6062.28
925.628	6038.1
925.938	5962.63
926.248	5968.5
926.558	5956.52
926.867	5916.53
927.177	5876.75
927.487	5874.72
927.796	5855.06
928.106	5841.5
928.416	5836.3
928.725	5787.26
929.034	5711.11
929.344	5780.26
929.653	5759.92
929.962	5662.97
930.271	5700.94
930.581	5657.55
930.89	5596.99
931.199	5604.22
931.508	5580.04
931.817	5580.71
932.125	5528.06
932.434	5517.67
932.743	5435.18
933.051	5468.18
933.36	5425.24
933.669	5454.84
933.977	5376.65
934.286	5365.35
934.594	5395.18
934.902	5306.15
935.21	5288.52
935.519	5339.14
935.827	5248.52
936.135	5287.62
936.443	5170.78
936.751	5153.16
937.059	5160.84
937.367	5139.14
937.674	5121.74
937.982	5162.87
938.29	5097.56
938.597	5109.99
938.905	5025.7
939.213	5022.31
939.52	5004.68
939.827	5037.9
940.135	4966.95
940.442	4944.8
940.749	4905.93
941.056	4918.13
941.363	4851.02
941.67	4816.67
941.977	4887.17
942.284	4824.35
942.591	4807.4
942.898	4736.67
943.205	4758.14
943.511	4742.09
943.818	4733.28
944.125	4662.55
944.431	4661.42
944.738	4674.52
945.044	4637.24
945.35	4585.26
945.657	4618.03
945.963	4542.1
946.269	4514.75
946.575	4545.04
946.881	4495.55
947.187	4495.09
947.493	4482.66
947.799	4429.33
948.105	4368.54
948.41	4381.65
948.716	4375.32
949.022	4333.97
949.327	4381.2
949.633	4330.8
949.938	4369.9
950.244	4329.22
950.549	4282.67
950.854	4265.04
951.16	4220.75
951.465	4235.89
951.77	4228.66
952.075	4173.29
952.38	4192.05
952.685	4129.91
952.99	4127.42
953.294	4105.05
953.599	4098.95
953.904	4035.9
954.209	4049.23
954.513	4034.99
954.818	4032.96
955.122	3976.24
955.426	4000.19
955.731	3951.38
956.035	3944.37
956.339	3940.08
956.643	3915.22
956.948	3917.26
957.252	3881.78
957.556	3882.45
957.86	3860.31
958.163	3876.35
958.467	3786.86
958.771	3810.59
959.075	3830.93
959.378	3817.6
959.682	3809.46
959.985	3716.36
960.289	3694.66
960.592	3692.4
960.896	3677.94
961.199	3671.16
961.502	3684.72
961.805	3682.01
962.108	3621.67
962.411	3640.43
962.714	3616.02
963.017	3614.44
963.32	3581.45
963.623	3530.37
963.926	3578.73
964.228	3537.83
964.531	3559.75
964.833	3494.67
965.136	3449.7
965.438	3461.22
965.741	3428.46
966.043	3434.56
966.345	3394.56
966.648	3394.56
966.95	3382.13
967.252	3360.43
967.554	3370.83
967.856	3400.21
968.158	3333.32
968.46	3349.59
968.761	3293.77
969.063	3282.24
969.365	3275.46
969.666	3270.04
969.968	3235.47
970.269	3221
970.571	3214.9
970.872	3181.23
971.174	3197.73
971.475	3176.94
971.776	3132.19
972.077	3158.86
972.378	3149.14
972.679	3131.51
972.98	3113.44
973.281	3061.69
973.582	3093.32
973.883	3125.19
974.183	3055.13
974.484	3083.38
974.785	3047.22
975.085	3043.15
975.386	3034.34
975.686	3032.31
975.986	2988.92
976.287	2970.61
976.587	2952.99
976.887	2977.39
977.187	2944.17
977.487	2926.55
977.787	2890.62
978.087	2890.84
978.387	2860.79
978.687	2847.45
978.987	2839.09
979.286	2819.21
979.586	2801.58
979.885	2833.22
980.185	2802.48
980.484	2783.27
980.784	2780.79
981.083	2762.48
981.382	2759.55
981.682	2749.15
981.981	2731.98
982.28	2728.13
982.579	2673.9
982.878	2690.62
983.177	2680.45
983.475	2651.07
983.774	2668.7
984.073	2638.87
984.372	2619.66
984.67	2594.8
984.969	2602.71
985.267	2601.36
985.566	2600
985.864	2548.25
986.162	2546.67
986.461	2548.25
986.759	2513
987.057	2523.17
987.355	2507.58
987.653	2507.35
987.951	2506.45
988.249	2486.78
988.547	2500.12
988.844	2462.6
989.142	2426.45
989.44	2442.72
989.737	2415.6
990.035	2390.29
990.332	2425.54
990.63	2407.24
990.927	2398.88
991.224	2366.34
991.521	2359.33
991.819	2360.46
992.116	2347.35
992.413	2329.73
992.71	2344.42
993.006	2290.86
993.303	2299.67
993.6	2325.89
993.897	2295.6
994.193	2280.01
994.49	2232.78
994.787	2250.86
995.083	2233.68
995.379	2216.06
995.676	2227.58
995.972	2211.54
996.268	2187.13
996.565	2189.39
996.861	2154.14
997.157	2166.57
997.453	2149.62
997.749	2148.71
998.044	2119.34
998.34	2104.87
998.636	2109.85
998.932	2075.27
999.227	2073.46
999.523	2066.46
999.818	2067.13
1000.114	2070.07
1000.409	2000.7
1000.704	2030.07
1001	2011.77
1001.295	2021.71
1001.59	1987.14
1001.885	1976.97
1002.18	1962.73
1002.475	1965.67
1002.77	1922.73
1003.065	1946.46
1003.359	1919.12
1003.654	1931.09
1003.949	1884.31
1004.243	1880.25
1004.538	1856.97
1004.832	1878.44
1005.127	1869.4
1005.421	1870.98
1005.715	1843.86
1006.009	1836.41
1006.304	1845.45
1006.598	1811.77
1006.892	1800.02
1007.186	1761.38
1007.48	1776.3
1007.773	1757.09
1008.067	1743.75
1008.361	1755.05
1008.655	1759.35
1008.948	1707.37
1009.242	1702.62
1009.535	1724.32
1009.829	1700.82
1010.122	1704.66
1010.415	1680.25
1010.708	1675.05
1011.001	1684.55
1011.295	1648.84
1011.588	1675.51
1011.881	1644.32
1012.173	1623.3
1012.466	1630.76
1012.759	1598.45
1013.052	1589.63
1013.344	1579.92
1013.637	1590.09
1013.93	1572.23
1014.222	1568.39
1014.514	1540.37
1014.807	1570.65
1015.099	1533.59
1015.391	1531.1
1015.683	1520.93
1015.976	1517.09
1016.268	1503.53
1016.56	1493.59
1016.851	1499.01
1017.143	1501.05
1017.435	1453.82
1017.727	1461.95
1018.018	1440.48
1018.31	1483.87
1018.602	1444.78
1018.893	1426.47
1019.185	1383.31
1019.476	1413.14
1019.767	1411.33
1020.058	1398.23
1020.35	1368.4
1020.641	1378.79
1020.932	1358.23
1021.223	1361.62
1021.514	1309.87
1021.804	1310.09
1022.095	1324.78
1022.386	1327.72
1022.677	1303.09
1022.967	1301.96
1023.258	1278.68
1023.548	1268.51
1023.839	1267.83
1024.129	1253.37
1024.419	1245.69
1024.709	1241.39
1025	1250.66
1025.29	1225.8
1025.58	1216.99
1025.87	1221.28
1026.16	1203.43
1026.449	1200.94
1026.739	1208.17
1027.029	1172.92
1027.319	1151.9
1027.608	1166.14
1027.898	1153.71
1028.187	1127.05
1028.477	1144.67
1028.766	1138.8
1029.055	1123.88
1029.344	1135.18
1029.634	1129.31
1029.923	1112.13
1030.212	1105.35
1030.501	1115.07
1030.79	1079.14
1031.078	1088.18
1031.367	1041.85
1031.656	1070.78
1031.945	1063.55
1032.233	1058.57
1032.522	1059.7
1032.81	1043.43
1033.099	1016.99
1033.387	1034.39
1033.675	1016.32
1033.963	995.3
1034.251	1039.82
1034.54	1000.72
1034.828	997.78
1035.116	970.44
1035.403	984.45
1035.691	959.14
1035.979	963.21
1036.267	962.76
1036.554	959.59
1036.842	951.68
1037.129	962.31
1037.417	922.53
1037.704	933.38
1037.992	944.9
1038.279	938.58
1038.566	933.83
1038.853	933.83
1039.14	933.83
