Data from hue_290_FLMS001491_00024.txt Node
Date: Tue Feb 07 15:52:31 GMT 2017
User: dcchb
Spectrometer: FLMS00149
Trigger mode: 0
Integration Time (sec): 2.000000E-2
Scans to average: 10
Electric dark correction enabled: true
Nonlinearity correction enabled: false
Boxcar width: 0
XAxis mode: Wavelengths
Number of Pixels in Spectrum: 2048
>>>>>Begin Spectral Data<<<<<
341.393	-30.56
341.776	-30.56
342.16	-30.56
342.543	-58.59
342.927	-67.85
343.31	-50.45
343.693	-75.31
344.077	-60.17
344.46	-62.2
344.843	-56.33
345.226	-42.77
345.61	-30.11
345.993	-35.76
346.376	-4.35
346.759	15.31
347.142	32.26
347.525	33.84
347.908	37.68
348.291	64.57
348.674	105.93
349.057	127.85
349.44	126.72
349.823	118.58
350.206	157.68
350.588	196.55
350.971	196.32
351.354	220.73
351.737	215.98
352.119	228.41
352.502	241.52
352.884	262.31
353.267	277.68
353.65	276.09
354.032	290.33
354.414	291.46
354.797	293.95
355.179	314.96
355.562	306.83
355.944	314.06
356.326	328.07
356.709	321.74
357.091	352.93
357.473	340.73
357.855	336.66
358.238	319.26
358.62	333.72
359.002	325.81
359.384	341.4
359.766	333.04
360.148	311.12
360.53	326.49
360.912	321.97
361.294	327.17
361.676	310.67
362.057	332.14
362.439	324.68
362.821	336.21
363.203	326.71
363.584	339.82
363.966	309.31
364.348	313.61
364.729	334.62
365.111	319.26
365.493	318.81
365.874	306.15
366.256	328.75
366.637	311.35
367.019	312.7
367.4	318.35
367.781	300.27
368.163	306.83
368.544	301.4
368.925	333.27
369.306	312.25
369.688	288.3
370.069	311.12
370.45	318.13
370.831	291.46
371.212	318.13
371.593	298.92
371.974	323.1
372.355	295.98
372.736	300.73
373.117	297.79
373.498	320.16
373.879	303.66
374.26	323.78
374.641	313.83
375.021	311.35
375.402	323.1
375.783	322.42
376.163	333.49
376.544	335.53
376.925	328.07
377.305	314.29
377.686	326.94
378.066	321.07
378.447	332.36
378.827	331.01
379.208	338.24
379.588	342.53
379.968	312.25
380.349	334.17
380.729	337.79
381.109	331.46
381.489	347.28
381.87	351.12
382.25	343.44
382.63	348.41
383.01	366.26
383.39	339.6
383.77	348.86
384.15	359.48
384.53	354.96
384.91	331.69
385.29	358.8
385.67	343.89
386.049	344.57
386.429	339.82
386.809	361.74
387.189	367.17
387.568	348.63
387.948	364.68
388.328	365.58
388.707	357.67
389.087	362.42
389.466	364.23
389.846	359.03
390.225	380.95
390.605	345.25
390.984	372.36
391.363	380.05
391.743	371.01
392.122	361.74
392.501	370.78
392.881	387.5
393.26	374.4
393.639	397.22
394.018	377.79
394.397	385.92
394.776	387.96
395.155	361.97
395.534	387.05
395.913	401.29
396.292	400.38
396.671	394.51
397.05	404.23
397.429	391.57
397.808	380.27
398.186	400.16
398.565	427.73
398.944	396.09
399.323	399.03
399.701	392.93
400.08	387.96
400.458	417.56
400.837	427.05
401.215	424.34
401.594	436.32
401.972	409.42
402.351	422.98
402.729	418.92
403.107	438.35
403.486	419.14
403.864	453.26
404.242	450.55
404.62	456.2
404.999	454.17
405.377	439.25
405.755	445.58
406.133	455.98
406.511	496.43
406.889	478.35
407.267	476.54
407.645	480.38
408.023	475.19
408.401	468.86
408.779	462.08
409.156	484.9
409.534	507.05
409.912	522.87
410.29	509.99
410.667	530.33
411.045	520.61
411.422	532.13
411.8	537.78
412.178	542.53
412.555	555.18
412.933	552.92
413.31	594.05
413.687	571
414.065	568.06
414.442	590.44
414.819	589.31
415.197	582.08
415.574	603.32
415.951	629.08
416.328	631.11
416.705	596.31
417.082	663.43
417.46	625.01
417.837	655.29
418.214	665.69
418.591	672.47
418.967	658.91
419.344	672.69
419.721	704.78
420.098	676.08
420.475	705.46
420.852	688.06
421.228	720.38
421.605	706.59
421.982	733.26
422.358	771.45
422.735	753.14
423.111	748.85
423.488	782.97
423.864	793.59
424.241	793.82
424.617	799.92
424.994	797.21
425.37	817.32
425.746	836.08
426.123	823.88
426.499	839.92
426.875	858
427.251	863.42
427.627	895.74
428.003	871.33
428.379	897.77
428.756	898.45
429.132	903.65
429.507	919.47
429.883	964.89
430.259	942.07
430.635	961.95
431.011	978.22
431.387	982.52
431.763	1025
432.138	1017.32
432.514	1005.11
432.89	1032.23
433.265	1044.66
433.641	1057.32
434.016	1070.42
434.392	1070.88
434.767	1107.03
435.143	1067.94
435.518	1103.19
435.894	1142.51
436.269	1139.35
436.644	1139.12
437.02	1200.14
437.395	1193.58
437.77	1187.93
438.145	1229.97
438.52	1225.45
438.895	1256.18
439.271	1226.13
439.646	1265.9
440.021	1261.38
440.395	1264.54
440.77	1273.36
441.145	1266.12
441.52	1332.34
441.895	1314.71
442.27	1307.93
442.645	1318.55
443.019	1334.37
443.394	1333.69
443.769	1347.25
444.143	1356.74
444.518	1360.13
444.892	1366.24
445.267	1382.51
445.641	1383.64
446.016	1361.94
446.39	1426.57
446.764	1390.64
447.139	1374.14
447.513	1400.13
447.887	1397.42
448.262	1432.67
448.636	1428.83
449.01	1441.26
449.384	1439.91
449.758	1464.09
450.132	1467.93
450.506	1490.07
450.88	1468.38
451.254	1473.8
451.628	1508.38
452.002	1546.57
452.376	1523.07
452.75	1504.99
453.123	1534.59
453.497	1550.41
453.871	1568.04
454.244	1570.98
454.618	1579.56
454.992	1594.03
455.365	1617.3
455.739	1637.87
456.112	1629.05
456.486	1659.56
456.859	1673.57
457.232	1712.67
457.606	1664.31
457.979	1671.54
458.352	1709.96
458.725	1736.62
459.099	1727.81
459.472	1781.82
459.845	1782.95
460.218	1813.46
460.591	1831.99
460.964	1820.01
461.337	1806
461.71	1860.69
462.083	1888.26
462.456	1862.04
462.829	1838.09
463.201	1899.1
463.574	1894.13
463.947	1873.11
464.32	1969.16
464.692	1969.61
465.065	1955.82
465.438	1996.95
465.81	2036.05
466.183	2022.49
466.555	2069.72
466.928	2091.41
467.3	2050.96
467.672	2095.48
468.045	2168.47
468.417	2123.28
468.789	2142.49
469.161	2187.68
469.534	2215.03
469.906	2245.76
470.278	2257.29
470.65	2254.12
471.022	2280.79
471.394	2308.81
471.766	2324.18
472.138	2348.36
472.51	2375.25
472.882	2427.22
473.253	2428.13
473.625	2427
473.997	2460.22
474.369	2478.07
474.74	2524.4
475.112	2516.94
475.484	2600.78
475.855	2587.22
476.227	2659.76
476.598	2659.08
476.97	2697.05
477.341	2724.84
477.713	2788.8
478.084	2773.2
478.455	2792.41
478.827	2832.86
479.198	2907.89
479.569	2920.32
479.94	3003.48
480.311	2977.94
480.682	3035.57
481.053	3092.07
481.424	3117.6
481.795	3102.23
482.166	3193.76
482.537	3198.5
482.908	3280.76
483.279	3283.47
483.65	3308.78
484.021	3386.75
484.391	3387.65
484.762	3389.46
485.133	3434.2
485.503	3479.4
485.874	3534.54
486.244	3476.91
486.615	3604.82
486.985	3580.41
487.356	3677.36
487.726	3677.81
488.097	3755.32
488.467	3784.93
488.837	3809.33
489.207	3860.41
489.578	3917.35
489.948	3872.38
490.318	3972.49
490.688	3932.72
491.058	4040.29
491.428	4021.98
491.798	4097.69
492.168	4131.81
492.538	4173.39
492.908	4175.2
493.278	4246.84
493.648	4212.94
494.017	4245.48
494.387	4273.28
494.757	4280.96
495.126	4375.42
495.496	4376.78
495.866	4370.45
496.235	4436.21
496.605	4451.58
496.974	4442.09
497.344	4465.81
497.713	4484.12
498.082	4503.78
498.452	4571.8
498.821	4607.05
499.19	4577.45
499.559	4591.46
499.928	4635.53
500.298	4661.97
500.667	4714.62
501.036	4703.1
501.405	4717.11
501.774	4697.67
502.143	4779.03
502.512	4798.91
502.88	4833.26
503.249	4816.99
503.618	4822.19
503.987	4796.88
504.356	4896.54
504.724	4915.07
505.093	4890.21
505.462	4897.89
505.83	4902.64
506.199	4943.09
506.567	5023.99
506.936	4941.06
507.304	5051.79
507.672	5066.48
508.041	5072.58
508.409	5111
508.777	5123.88
509.145	5172.24
509.514	5164.78
509.882	5157.77
510.25	5126.36
510.618	5174.27
510.986	5223.99
511.354	5211.33
511.722	5295.17
512.09	5287.49
512.458	5246.59
512.826	5293.36
513.193	5325
513.561	5337.88
513.929	5338.11
514.297	5410.65
514.664	5396.64
515.032	5414.26
515.4	5396.86
515.767	5445.9
516.135	5440.48
516.502	5405.23
516.869	5498.33
517.237	5467.37
517.604	5514.6
517.972	5538.55
518.339	5589.85
518.706	5573.81
519.073	5581.72
519.44	5595.95
519.808	5649.96
520.175	5620.59
520.542	5701.71
520.909	5688.61
521.276	5729.28
521.643	5700.81
522.009	5743.3
522.376	5727.25
522.743	5789.4
523.11	5878.21
523.477	5900.81
523.843	5893.8
524.21	5887.47
524.577	5929.28
524.943	5956.17
525.31	5975.38
525.676	6003.18
526.043	6061.03
526.409	6076.85
526.776	6105.77
527.142	6083.4
527.508	6170.18
527.874	6168.37
528.241	6177.63
528.607	6198.88
528.973	6300.34
529.339	6306.67
529.705	6307.35
530.071	6373.79
530.437	6353.67
530.803	6339.44
531.169	6416.95
531.535	6364.3
531.901	6401.36
532.267	6427.35
532.632	6461.02
532.998	6503.05
533.364	6536.72
533.73	6509.15
534.095	6664.4
534.461	6596.83
534.826	6627.34
535.192	6611.75
535.557	6689.94
535.923	6619.88
536.288	6697.62
536.653	6750.95
537.019	6719.54
537.384	6778.97
537.749	6721.8
538.114	6765.87
538.479	6734
538.845	6821.23
539.21	6859.88
539.575	6824.62
539.94	6883.15
540.305	6890.84
540.67	6847
541.034	6908.91
541.399	6936.03
541.764	6964.73
542.129	6981.23
542.494	6978.52
542.858	7009.93
543.223	7064.62
543.587	7064.84
543.952	7048.35
544.316	7088.8
544.681	7108.23
545.045	7095.8
545.41	7146.2
545.774	7202.01
546.138	7174.44
546.503	7169.92
546.867	7163.37
547.231	7243.82
547.595	7250.83
547.959	7261.45
548.324	7250.83
548.688	7287.44
549.052	7309.36
549.416	7356.36
549.779	7396.36
550.143	7397.49
550.507	7375.34
550.871	7479.29
551.235	7437.49
551.599	7483.81
551.962	7497.83
552.326	7509.8
552.689	7529.92
553.053	7494.21
553.417	7453.53
553.78	7584.38
554.143	7548.45
554.507	7620.53
554.87	7597.48
555.234	7693.3
555.597	7647.88
555.96	7663.7
556.323	7705.5
556.686	7675.9
557.05	7759.97
557.413	7745.28
557.776	7753.19
558.139	7792.51
558.502	7791.6
558.865	7801.32
559.228	7866.86
559.59	7834.09
559.953	7935.33
560.316	7938.49
560.679	7909.11
561.041	7946.18
561.404	8026.85
561.767	8035.89
562.129	7994.54
562.492	8050.81
562.854	8127.41
563.217	8141.2
563.579	8103.69
563.941	8142.55
564.304	8192.95
564.666	8210.58
565.028	8249.44
565.39	8251.25
565.753	8253.96
566.115	8272.49
566.477	8364.92
566.839	8392.04
567.201	8400.17
567.563	8417.12
567.925	8483.79
568.287	8511.36
568.648	8462.32
569.01	8560.4
569.372	8619.83
569.734	8578.25
570.095	8618.25
570.457	8720.39
570.819	8721.07
571.18	8674.52
571.542	8777.34
571.903	8804.23
572.265	8760.39
572.626	8759.94
572.987	8880.16
573.349	8879.94
573.71	8905.7
574.071	8980.27
574.432	8965.58
574.794	9150.89
575.155	9119.25
575.516	9135.97
575.877	9216.2
576.238	9158.35
576.599	9331
576.96	9257.55
577.32	9354.05
577.681	9451.45
578.042	9477.43
578.403	9554.95
578.763	9589.52
579.124	9636.75
579.485	9669.52
579.845	9749.97
580.206	9870.64
580.566	9937.31
580.927	10035.16
581.287	10060.7
581.648	10076.51
582.008	10226.12
582.368	10358.99
582.728	10411.87
583.089	10522.15
583.449	10522.38
583.809	10574.58
584.169	10735.03
584.529	10836.72
584.889	10994.91
585.249	11035.81
585.609	11092.99
585.969	11263.38
586.329	11318.97
586.688	11410.72
587.048	11595.12
587.408	11640.32
587.768	11745.4
588.127	11976.58
588.487	11976.58
588.846	12276
589.206	12274.87
589.565	12391.26
589.925	12565.04
590.284	12744.24
590.643	12847.29
591.003	13004.57
591.362	13135.87
591.721	13194.85
592.08	13414.51
592.44	13490.21
592.799	13621.05
593.158	13773.14
593.517	13866.92
593.876	13999.35
594.235	14145.11
594.593	14344.2
594.952	14461.26
595.311	14514.14
595.67	14686.56
596.029	14887.46
596.387	14952.09
596.746	15194.35
597.104	15263.05
597.463	15358.64
597.822	15563.83
598.18	15626.2
598.538	15743.94
598.897	15932.63
599.255	15981.44
599.613	16298.5
599.972	16401.55
600.33	16446.29
600.688	16577.81
601.046	16679.73
601.404	16862.32
601.762	16971.93
602.12	17032.94
602.478	17159.49
602.836	17268.87
603.194	17294.4
603.552	17475.64
603.91	17464.57
604.268	17626.37
604.625	17669.08
604.983	17795.41
605.341	17785.69
605.698	17968.28
606.056	18147.71
606.413	18158.11
606.771	18359.46
607.128	18432.68
607.485	18398.78
607.843	18460.02
608.2	18634.93
608.557	18778.88
608.914	18800.81
609.272	18958.99
609.629	19088.48
609.986	19159.21
610.343	19175.94
610.7	19357.85
611.057	19358.98
611.414	19386.55
611.771	19494.35
612.127	19610.28
612.484	19652.53
612.841	19769.14
613.198	19755.81
613.554	19786.77
613.911	19898.18
614.267	20017.27
614.624	20023.82
614.98	20151.28
615.337	20290.03
615.693	20273.31
616.05	20333.87
616.406	20402.34
616.762	20465.17
617.118	20552.4
617.475	20472.85
617.831	20596.69
618.187	20762.11
618.543	20753.52
618.899	20938.38
619.255	20881.43
619.611	20941.54
619.967	20872.39
620.323	21083.68
620.678	20958.26
621.034	21047.75
621.39	20974.99
621.746	20995.55
622.101	21256.79
622.457	21151.48
622.812	21294.07
623.168	21332.72
623.523	21298.59
623.879	21435.99
624.234	21255.88
624.589	21338.59
624.945	21430.34
625.3	21388.08
625.655	21532.71
626.01	21482.99
626.365	21544.46
626.72	21498.81
627.075	21543.56
627.43	21527.74
627.785	21463.56
628.14	21518.02
628.495	21546.72
628.85	21517.34
629.205	21393.73
629.559	21625.14
629.914	21596.21
630.269	21584.46
630.623	21616.55
630.978	21540.85
631.332	21501.3
631.687	21640.28
632.041	21504.69
632.396	21631.47
632.75	21475.99
633.104	21469.66
633.459	21401.41
633.813	21435.76
634.167	21472.6
634.521	21516.89
634.875	21484.8
635.229	21539.04
635.583	21428.76
635.937	21454.75
636.291	21488.87
636.645	21376.78
636.999	21373.62
637.352	21489.55
637.706	21454.29
638.06	21402.09
638.413	21353.73
638.767	21339.04
639.121	21399.38
639.474	21307.86
639.828	21276.9
640.181	21346.95
640.534	21386.5
640.888	21217.01
641.241	21156.22
641.594	21119.16
641.947	21345.37
642.301	21167.75
642.654	21209.33
643.007	21228.54
643.36	21224.47
643.713	21288.42
644.066	21270.57
644.419	21142.66
644.771	20923.24
645.124	20823.8
645.477	20799.4
645.83	20720.08
646.182	20552.62
646.535	20608.89
646.888	20592.17
647.24	20489.8
647.593	20633.07
647.945	20530.7
648.298	20359.41
648.65	20589.23
649.002	20468.78
649.355	20536.35
649.707	20533.41
650.059	20691.38
650.411	20846.4
650.763	20971.14
651.115	21108.54
651.467	21017.47
651.819	21101.54
652.171	21042.78
652.523	20882.78
652.875	21039.84
653.227	20968.88
653.578	21072.84
653.93	21085.26
654.282	20967.08
654.633	20875.55
654.985	20974.08
655.337	21038.94
655.688	21071.71
656.039	21140.63
656.391	20873.29
656.742	20962.78
657.094	20994.65
657.445	21008.66
657.796	21012.27
658.147	21026.06
658.498	21000.07
658.849	21045.49
659.2	20988.32
659.551	20938.6
659.902	21030.35
660.253	21059.95
660.604	20989.67
660.955	20893.41
661.306	21028.54
661.656	20985.15
662.007	20964.59
662.358	21022.67
662.708	21026.96
663.059	21144.02
663.409	20927.98
663.76	21165.04
664.11	21038.94
664.461	21149.44
664.811	21122.78
665.161	21090.91
665.511	21056.11
665.862	21066.96
666.212	21087.52
666.562	21174.08
666.912	21131.59
667.262	21059.95
667.612	21104.93
667.962	21050.24
668.312	21069.45
668.662	21110.57
669.011	21151.03
669.361	21100.63
669.711	20956.23
670.06	21003.91
670.41	21009.56
670.76	21004.36
671.109	21051.59
671.459	21017.24
671.808	20884.82
672.157	20973.63
672.507	20863.58
672.856	21017.47
673.205	20837.36
673.554	20931.82
673.904	20838.27
674.253	20991.71
674.602	20920.3
674.951	20591.72
675.3	20551.49
675.649	20841.2
675.998	20699.29
676.346	20812.05
676.695	20879.17
677.044	20682.56
677.393	20883.01
677.741	20763.24
678.09	20751.94
678.438	20709
678.787	20589.68
679.135	20691.15
679.484	20524.15
679.832	20604.15
680.181	20488.67
680.529	20553.53
680.877	20544.04
681.225	20505.39
681.573	20616.8
681.922	20468.56
682.27	20366.87
682.618	20443.7
682.966	20284.38
683.314	20315.12
683.661	20273.08
684.009	20130.49
684.357	20203.03
684.705	20118.96
685.053	20217.04
685.4	20067.21
685.748	19947.44
686.095	19979.31
686.443	19900.21
686.79	19946.09
687.138	19977.05
687.485	19927.33
687.832	19824.73
688.18	19871.29
688.527	19685.08
688.874	19695.47
689.221	19699.09
689.568	19640.33
689.915	19476.04
690.262	19559.43
690.609	19481.92
690.956	19355.82
691.303	19414.12
691.65	19210.29
691.997	19259.32
692.344	19275.14
692.69	19120.8
693.037	19087.8
693.383	18974.81
693.73	18942.5
694.077	18908.37
694.423	18853.91
694.769	18756.29
695.116	18708.83
695.462	18693.69
695.808	18693.01
696.155	18659.57
696.501	18465.22
696.847	18530.76
697.193	18411.44
697.539	18329.86
697.885	18116.76
698.231	18164.44
698.577	18162.4
698.923	18136.87
699.269	18021.39
699.614	17877.44
699.96	17821.85
700.306	17849.64
700.651	17796.09
700.997	17674.06
701.342	17676.77
701.688	17623.21
702.033	17584.11
702.379	17586.15
702.724	17466.6
703.069	17567.39
703.415	17296.44
703.76	17285.14
704.105	17293.05
704.45	17200.17
704.795	17155.42
705.14	17037.24
705.485	17093.05
705.83	17014.64
706.175	16981.19
706.52	16905.71
706.865	16848.31
707.209	16807.64
707.554	16832.72
707.899	16824.13
708.243	16751.82
708.588	16665.04
708.932	16567.19
709.277	16538.72
709.621	16539.85
709.966	16439.29
710.31	16390.02
710.654	16305.73
710.998	16328.33
711.342	16339.85
711.687	16190.48
712.031	16251.95
712.375	16142.57
712.719	16129.46
713.063	16107.32
713.407	16078.62
713.75	16048.56
714.094	16058.28
714.438	15958.17
714.782	15988.9
715.125	16009.01
715.469	15849.02
715.812	15757.27
716.156	15756.59
716.499	15782.13
716.843	15860.77
717.186	15677.5
717.53	15728.12
717.873	15726.31
718.216	15694.67
718.559	15634.33
718.902	15559.08
719.246	15565.86
719.589	15539.2
719.932	15430.05
720.275	15499.87
720.617	15565.41
720.96	15512.76
721.303	15415.81
721.646	15525.41
721.989	15378.97
722.331	15451.51
722.674	15352.08
723.016	15455.36
723.359	15325.64
723.701	15417.39
724.044	15299.65
724.386	15216.94
724.729	15294.68
725.071	15248.36
725.413	15265.98
725.755	15159.54
726.097	15147.12
726.439	15056.5
726.782	15088.59
727.124	15155.7
727.465	15056.27
727.807	15075.93
728.149	15041.58
728.491	15092.65
728.833	15018.98
729.175	15049.04
729.516	14956.16
729.858	15023.05
730.199	14956.84
730.541	14974.69
730.882	14907.57
731.224	15052.66
731.565	14866.45
731.906	14949.61
732.248	15032.77
732.589	14968.59
732.93	14933.79
733.271	14879.33
733.612	14973.79
733.953	15017.4
734.294	14916.39
734.635	14853.11
734.976	14876.39
735.317	14853.56
735.658	14902.15
735.999	14953.67
736.339	14901.92
736.68	14862.38
737.021	14874.35
737.361	14801.14
737.702	14824.64
738.042	14811.98
738.383	14870.96
738.723	14873
739.063	14889.5
739.404	14886.56
739.744	14894.24
740.084	14860.8
740.424	14872.09
740.764	14877.74
741.104	14976.72
741.444	14860.8
741.784	14856.28
742.124	14958.42
742.464	14925.88
742.804	14938.08
743.143	14952.32
743.483	14957.52
743.823	14959.78
744.162	14920.91
744.502	15061.24
744.841	15022.6
745.181	15139.43
745.52	15099.89
745.86	15160.67
746.199	15120.22
746.538	15164.74
746.877	15322.93
747.216	15343.04
747.556	15335.59
747.895	15329.03
748.234	15402.48
748.573	15456.71
748.911	15412.19
749.25	15622.58
749.589	15645.18
749.928	15742.13
750.267	15769.25
750.605	15795.69
750.944	15802.69
751.283	15946.42
751.621	16070.48
751.96	16047.88
752.298	16216.69
752.636	16216.92
752.975	16235.45
753.313	16244.04
753.651	16518.38
753.989	16629.56
754.327	16636.12
754.666	16755.89
755.004	16848.09
755.342	16920.18
755.679	17069.33
756.017	17127.4
756.355	17211.47
756.693	17303.67
757.031	17515.19
757.368	17473.61
757.706	17558.8
758.044	17577.56
758.381	17799.48
758.719	17791.34
759.056	18122.18
759.394	18148.17
759.731	18084.67
760.068	18282.63
760.405	18349.07
760.743	18373.7
761.08	18703.86
761.417	18625.22
761.754	18804.42
762.091	18854.59
762.428	18975.26
762.765	18943.63
763.102	19168.71
763.438	19160.34
763.775	19176.39
764.112	19380.68
764.449	19539.54
764.785	19556.27
765.122	19476.04
765.458	19635.81
765.795	19730.72
766.131	19817.28
766.467	19789.93
766.804	19836.71
767.14	19853.21
767.476	19884.84
767.812	20026.54
768.148	20001.68
768.485	19994.67
768.821	20133.88
769.157	20172.29
769.492	20182.46
769.828	20195.57
770.164	20070.6
770.5	20188.57
770.836	20273.76
771.171	20095.01
771.507	20270.37
771.842	20151.05
772.178	20301.33
772.513	20194.44
772.849	20323.7
773.184	20198.96
773.519	20255.91
773.855	20151.05
774.19	20187.44
774.525	20186.98
774.86	20186.76
775.195	20210.26
775.53	20214.55
775.865	20088.68
776.2	20013.43
776.535	19933.43
776.87	20031.06
777.205	19918.97
777.539	19894.34
777.874	20012.98
778.209	19834.68
778.543	19969.81
778.878	19845.98
779.212	19895.92
779.547	19753.55
779.881	19860.89
780.215	19732.08
780.55	19789.25
780.884	19623.16
781.218	19742.02
781.552	19622.93
781.886	19603.04
782.22	19460.45
782.554	19442.14
782.888	19275.59
783.222	19277.4
783.556	19195.37
783.889	19131.87
784.223	19133.9
784.557	18960.12
784.89	19121.25
785.224	19070.4
785.557	18917.86
785.891	18880.58
786.224	18890.75
786.558	18771.88
786.891	18747.02
787.224	18697.08
787.557	18593.35
787.891	18700.69
788.224	18528.04
788.557	18735.5
788.89	18542.51
789.223	18446.92
789.556	18404.66
789.888	18330.99
790.221	18305.45
790.554	18076.08
790.887	18279.01
791.219	18141.16
791.552	18158.11
791.884	18004.89
792.217	18072.69
792.549	17957.44
792.882	17909.53
793.214	17795.63
793.546	17835.86
793.879	17738.01
794.211	17622.98
794.543	17681.74
794.875	17578.01
795.207	17636.99
795.539	17559.93
795.871	17451.24
796.203	17465.92
796.535	17274.52
796.867	17212.37
797.198	17192.03
797.53	17259.83
797.862	17054.64
798.193	17084.92
798.525	16992.94
798.856	17004.24
799.188	16809.45
799.519	16821.2
799.85	16718.37
800.182	16764.93
800.513	16735.1
800.844	16511.83
801.175	16714.08
801.506	16647.42
801.837	16497.81
802.168	16540.75
802.499	16465.73
802.83	16427.99
803.161	16465.95
803.491	16352.06
803.822	16325.84
804.153	16225.05
804.483	16143.93
804.814	16062.35
805.145	16070.26
805.475	16067.54
805.805	15995.91
806.136	15921.33
806.466	15994.55
806.796	15967.66
807.126	15821.45
807.457	15815.57
807.787	15752.75
808.117	15635.46
808.447	15613.09
808.777	15612.41
809.107	15648.12
809.436	15448.58
809.766	15526.54
810.096	15562.02
810.426	15418.3
810.755	15401.12
811.085	15337.62
811.414	15466.88
811.744	15231.63
812.073	15251.29
812.403	15227.57
812.732	15201.13
813.061	15077.74
813.39	15108.7
813.719	15016.05
814.049	15046.78
814.378	15061.92
814.707	14969.72
815.036	14927.46
815.365	14895.82
815.693	14803.85
816.022	14805.88
816.351	14745.09
816.68	14724.75
817.008	14680.01
817.337	14517.98
817.665	14604.08
817.994	14533.8
818.322	14693.34
818.651	14475.95
818.979	14420.58
819.307	14487.92
819.636	14501.26
819.964	14371.99
820.292	14491.99
820.62	14421.94
820.948	14398.21
821.276	14391.43
821.604	14301.94
821.932	14409.51
822.259	14369.06
822.587	14325.44
822.915	14332.45
823.243	14325.22
823.57	14307.36
823.898	14323.86
824.225	14320.47
824.553	14248.16
824.88	14309.85
825.207	14248.16
825.535	14324.76
825.862	14330.87
826.189	14196.63
826.516	14391.43
826.843	14329.28
827.17	14310.08
827.497	14294.03
827.824	14326.35
828.151	14308.04
828.478	14303.75
828.805	14330.41
829.131	14320.7
829.458	14222.39
829.785	14297.19
830.111	14086.35
830.438	14330.19
830.764	14241.15
831.09	14275.5
831.417	14160.48
831.743	14240.7
832.069	14281.83
832.395	14077.54
832.722	14211.1
833.048	14233.24
833.374	14188.72
833.7	14039.8
834.026	14085.45
834.351	14200.93
834.677	14142.4
835.003	14133.36
835.329	14123.41
835.654	14103.08
835.98	14013.36
836.306	14029.18
836.631	14000.25
836.956	14113.47
837.282	14082.29
837.607	13952.12
837.932	13957.32
838.258	13941.27
838.583	13987.82
838.908	13904.44
839.233	13911.67
839.558	13852.23
839.883	13825.57
840.208	13825.57
840.533	13730.43
840.858	13767.04
841.182	13685.69
841.507	13712.8
841.832	13673.93
842.156	13599.36
842.481	13565.69
842.805	13576.76
843.13	13571.11
843.454	13500.61
843.778	13393.49
844.103	13405.24
844.427	13369.54
844.751	13319.82
845.075	13414.28
845.399	13309.2
845.723	13210.22
846.047	13246.83
846.371	13086.61
846.695	13103.55
847.019	13120.5
847.343	12961.41
847.666	12904.91
847.99	12884.58
848.313	12769.33
848.637	12750.12
848.96	12751.47
849.284	12715.32
849.607	12614.75
849.931	12577.92
850.254	12547.41
850.577	12463.12
850.9	12378.38
851.223	12406.17
851.546	12299.51
851.869	12226.74
852.192	12200.98
852.515	12163.24
852.838	12102.68
853.161	12106.29
853.483	12010.93
853.806	11997.14
854.129	12010.02
854.451	11924.83
854.774	11951.72
855.096	11899.52
855.419	11846.19
855.741	11831.95
856.063	11735.23
856.385	11682.8
856.708	11649.81
857.03	11650.94
857.352	11614.1
857.674	11631.73
857.996	11536.36
858.318	11431.51
858.64	11482.35
858.961	11470.38
859.283	11363.49
859.605	11334.79
859.926	11403.94
860.248	11245.3
860.57	11233.32
860.891	11238.52
861.212	11212.08
861.534	11174.34
861.855	11101.57
862.176	11131.4
862.498	11122.14
862.819	11180.44
863.14	11112.87
863.461	11078.97
863.782	10986.1
864.103	10991.74
864.424	10939.09
864.745	11011.86
865.065	10939.77
865.386	10869.04
865.707	11010.28
866.027	10916.49
866.348	10860.67
866.668	10879.66
866.989	10879.88
867.309	10791.07
867.63	10813.67
867.95	10763.28
868.27	10674.47
868.59	10737.74
868.91	10742.94
869.23	10715.59
869.55	10688.02
869.87	10662.26
870.19	10694.13
870.51	10662.26
870.83	10683.28
871.15	10587.01
871.469	10530.74
871.789	10540.46
872.109	10594.24
872.428	10538.2
872.748	10536.16
873.067	10446.67
873.386	10522.6
873.706	10447.8
874.025	10425.66
874.344	10438.77
874.663	10425.66
874.982	10437.86
875.301	10386.79
875.62	10362.83
875.939	10331.65
876.258	10258.43
876.577	10304.08
876.896	10358.54
877.214	10234.7
877.533	10286.9
877.852	10275.38
878.17	10257.53
878.489	10208.26
878.807	10199.22
879.125	10144.08
879.444	10199.45
879.762	10185.89
880.08	10119.45
880.398	10043.07
880.716	10051.2
881.034	10009.62
881.352	10099.11
881.67	10014.82
881.988	10011.21
882.306	9930.76
882.624	9921.72
882.941	9890.98
883.259	9915.39
883.577	9816.86
883.894	9856.86
884.212	9883.53
884.529	9885.11
884.846	9792.45
885.164	9760.59
885.481	9694.38
885.798	9785.9
886.115	9648.28
886.432	9689.63
886.75	9664.77
887.067	9555.85
887.383	9589.07
887.7	9626.13
888.017	9547.04
888.334	9580.48
888.651	9523.76
888.967	9510.65
889.284	9511.56
889.6	9401.5
889.917	9301.62
890.233	9350.88
890.55	9373.48
890.866	9364.67
891.182	9319.92
891.498	9282.19
891.815	9268.85
892.131	9188.18
892.447	9195.86
892.763	9144.56
893.079	9180.72
893.395	9139.14
893.71	9060.27
894.026	9051.91
894.342	9093.04
894.657	8975.98
894.973	9003.55
895.289	8980.72
895.604	8893.72
895.92	8828.64
896.235	8806.04
896.55	8860.28
896.865	8837.23
897.181	8754.06
897.496	8704.12
897.811	8689.88
898.126	8695.31
898.441	8604.69
898.756	8562.2
899.071	8587.29
899.386	8619.15
899.7	8498.48
900.015	8476.56
900.33	8443.11
900.644	8437.69
900.959	8430.68
901.273	8336.67
901.588	8399.27
901.902	8252.61
902.216	8300.29
902.531	8300.06
902.845	8199.28
903.159	8155.66
903.473	8153.63
903.787	8136
904.101	8066.85
904.415	8030.47
904.729	7961.99
905.042	7985.95
905.356	7960.19
905.67	7963.12
905.984	7916.8
906.297	7865.73
906.611	7855.78
906.924	7809.23
907.237	7815.78
907.551	7770.59
907.864	7765.62
908.177	7722.68
908.491	7688.1
908.804	7650.59
909.117	7637.71
909.43	7554.1
909.743	7552.06
910.056	7582.34
910.368	7516.36
910.681	7427.77
910.994	7410.82
911.307	7413.53
911.619	7350.94
911.932	7337.38
912.244	7282.01
912.557	7278.85
912.869	7201.79
913.181	7229.36
913.494	7173.54
913.806	7124.05
914.118	7118.85
914.43	7080.89
914.742	7110.27
915.054	7015.58
915.366	7028.91
915.678	7041.57
915.99	6925.64
916.302	6878.41
916.613	6842.02
916.925	6854
917.236	6908.69
917.548	6770.16
917.859	6843.15
918.171	6739.65
918.482	6734.46
918.794	6687.23
919.105	6662.14
919.416	6626.21
919.727	6620.56
920.038	6614.91
920.349	6537.85
920.66	6522.48
920.971	6545.76
921.282	6478.19
921.593	6460.79
921.903	6406.55
922.214	6411.75
922.525	6372.88
922.835	6348.93
923.146	6341.7
923.456	6277.74
923.767	6251.53
924.077	6240.91
924.387	6204.75
924.697	6204.3
925.008	6197.07
925.318	6117.07
925.628	6111.65
925.938	6106.45
926.248	6078.88
926.558	6043.63
926.867	6044.08
927.177	6032.33
927.487	5964.76
927.796	5908.71
928.106	5961.14
928.416	5847.93
928.725	5848.15
929.034	5884.31
929.344	5823.52
929.653	5765.67
929.962	5754.59
930.271	5720.02
930.581	5671.66
930.89	5674.14
931.199	5634.6
931.508	5659
931.817	5644.77
932.125	5625.33
932.434	5608.61
932.743	5535.62
933.051	5457.88
933.36	5524.32
933.669	5472.12
933.977	5424.66
934.286	5436.64
934.594	5461.95
934.902	5360.25
935.21	5369.75
935.519	5306.7
935.827	5294.49
936.135	5285.91
936.443	5263.99
936.751	5270.09
937.059	5189.64
937.367	5206.81
937.674	5193.25
937.982	5156.19
938.29	5111.9
938.597	5140.83
938.905	5140.15
939.213	5080.49
939.52	5030.32
939.827	5038.46
940.135	4962.07
940.442	4966.14
940.749	4958.46
941.056	4961.85
941.363	4934.05
941.67	4883.43
941.977	4897.22
942.284	4862.64
942.591	4874.84
942.898	4811.12
943.205	4834.62
943.511	4797.78
943.818	4787.84
944.125	4714.85
944.431	4711.91
944.738	4677.11
945.044	4684.79
945.35	4643.66
945.657	4639.37
945.963	4607.73
946.269	4610.44
946.575	4536.55
946.881	4542.87
947.187	4519.37
947.493	4506.72
947.799	4509.66
948.105	4494.97
948.41	4442.09
948.716	4421.75
949.022	4421.3
949.327	4387.85
949.633	4401.18
949.938	4395.99
950.244	4377.68
950.549	4283.67
950.854	4300.62
951.16	4297.91
951.465	4238.7
951.77	4247.52
952.075	4251.81
952.38	4216.33
952.685	4186.95
952.99	4185.6
953.294	4184.69
953.599	4166.61
953.904	4107.41
954.209	4104.47
954.513	4077.58
954.818	4090.46
955.122	4051.59
955.426	3993.51
955.731	3984.25
956.035	3987.41
956.339	3943.79
956.643	4005.49
956.948	3927.07
957.252	3920.52
957.556	3949.44
957.86	3892.72
958.163	3883.23
958.467	3847.07
958.771	3775.44
959.075	3812.27
959.378	3778.6
959.682	3820.86
959.985	3762.78
960.289	3757.36
960.592	3718.49
960.896	3713.74
961.199	3702.67
961.502	3711.48
961.805	3715.33
962.108	3674.65
962.411	3656.12
962.714	3642.11
963.017	3620.87
963.32	3611.83
963.623	3598.49
963.926	3603.01
964.228	3565.27
964.531	3507.87
964.833	3519.4
965.136	3527.99
965.438	3509
965.741	3466.29
966.043	3457.93
966.345	3443.47
966.648	3452.51
966.95	3463.13
967.252	3429.01
967.554	3423.58
967.856	3349.23
968.158	3342.23
968.46	3341.78
968.761	3321.21
969.063	3315.56
969.365	3295.9
969.666	3265.17
969.968	3242.57
970.269	3250.48
970.571	3253.64
970.872	3234.43
971.174	3234.21
971.475	3202.35
971.776	3189.01
972.077	3190.37
972.378	3133.87
972.679	3148.56
972.98	3124.16
973.281	3112.18
973.582	3076.92
973.883	3110.14
974.183	3079.86
974.484	3082.57
974.785	3021.11
975.085	3012.07
975.386	3071.28
975.686	2995.8
975.986	2986.98
976.287	2964.61
976.587	2960.77
976.887	2929.13
977.187	2940.88
977.487	2923.48
977.787	2899.98
978.087	2905.18
978.387	2899.3
978.687	2895.01
978.987	2876.7
979.286	2859.98
979.586	2842.35
979.885	2815.46
980.185	2790.83
980.484	2799.19
980.784	2793.54
981.083	2759.19
981.382	2768.01
981.682	2763.94
981.981	2728.69
982.28	2739.98
982.579	2709.48
982.878	2693.43
983.177	2716.71
983.475	2671.74
983.774	2605.98
984.073	2644.85
984.372	2591.97
984.67	2650.5
984.969	2618.63
985.267	2622.47
985.566	2599.88
985.864	2544.28
986.162	2569.82
986.461	2563.94
986.759	2537.05
987.057	2474.91
987.355	2502.02
987.653	2471.97
987.951	2497.73
988.249	2483.49
988.547	2495.25
988.844	2495.92
989.142	2478.07
989.44	2452.53
989.737	2428.35
990.035	2403.04
990.332	2398.52
990.63	2370.28
990.927	2400.78
991.224	2370.95
991.521	2326.44
991.819	2371.86
992.116	2376.6
992.413	2338.87
992.71	2296.83
993.006	2309.04
993.303	2324.63
993.6	2342.71
993.897	2262.26
994.193	2263.16
994.49	2245.76
994.787	2214.35
995.083	2248.47
995.379	2243.27
995.676	2239.21
995.972	2210.05
996.268	2181.13
996.565	2168.7
996.861	2139.55
997.157	2176.61
997.453	2164.63
997.749	2111.75
998.044	2124.86
998.34	2111.75
998.636	2106.55
998.932	2131.86
999.227	2098.65
999.523	2074.47
999.818	2092.54
1000.114	2014.35
1000.409	2044.64
1000.704	2046.22
1001	2035.6
1001.295	1984.75
1001.59	1992.21
1001.885	2004.41
1002.18	1968.93
1002.475	1981.13
1002.77	1920.34
1003.065	1920.57
1003.359	1935.49
1003.654	1894.36
1003.949	1935.49
1004.243	1909.05
1004.538	1879.67
1004.832	1893.91
1005.127	1882.38
1005.421	1858.43
1005.715	1885.77
1006.009	1835.6
1006.304	1809.39
1006.598	1810.97
1006.892	1799.9
1007.186	1803.74
1007.48	1797.18
1007.773	1798.77
1008.067	1780.24
1008.361	1755.15
1008.655	1748.82
1008.948	1744.08
1009.242	1729.39
1009.535	1740.24
1009.829	1709.96
1010.122	1718.32
1010.415	1690.52
1010.708	1682.61
1011.001	1678.09
1011.295	1672.89
1011.588	1690.97
1011.881	1644.87
1012.173	1641.26
1012.466	1663.63
1012.759	1622.05
1013.052	1622.5
1013.344	1597.42
1013.637	1575.95
1013.93	1567.81
1014.222	1562.39
1014.514	1539.11
1014.807	1559.9
1015.099	1545.67
1015.391	1515.61
1015.683	1529.17
1015.976	1519.23
1016.268	1515.38
1016.56	1498.66
1016.851	1464.54
1017.143	1462.05
1017.435	1475.38
1017.727	1448.72
1018.018	1458.89
1018.31	1448.04
1018.602	1431.09
1018.893	1399.68
1019.185	1418.21
1019.476	1428.61
1019.767	1394.71
1020.058	1398.55
1020.35	1414.37
1020.641	1374.37
1020.932	1364.43
1021.223	1382.51
1021.514	1354.71
1021.804	1335.73
1022.095	1322.17
1022.386	1299.34
1022.677	1335.05
1022.967	1286.24
1023.258	1300.02
1023.548	1305.9
1023.839	1267.25
1024.129	1281.04
1024.419	1256.63
1024.709	1247.82
1025	1237.2
1025.29	1239.46
1025.58	1226.35
1025.87	1201.27
1026.16	1229.06
1026.449	1222.51
1026.739	1204.43
1027.029	1200.59
1027.319	1164.66
1027.608	1185.9
1027.898	1163.3
1028.187	1173.25
1028.477	1178.22
1028.766	1152
1029.055	1119.91
1029.344	1138.44
1029.634	1101.38
1029.923	1114.94
1030.212	1118.33
1030.501	1083.53
1030.79	1065.45
1031.078	1065.45
1031.367	1070.42
1031.656	1075.85
1031.945	1083.76
1032.233	1047.6
1032.522	1059.12
1032.81	1042.63
1033.099	1031.55
1033.387	1034.72
1033.675	1025.23
1033.963	1005.79
1034.251	1015.06
1034.54	1002.63
1034.828	981.39
1035.116	985
1035.403	978.67
1035.691	972.35
1035.979	984.55
1036.267	949.3
1036.554	956.75
1036.842	957.21
1037.129	953.59
1037.417	942.97
1037.704	956.98
1037.992	930.31
1038.279	917.43
1038.566	909.75
1038.853	909.75
1039.14	909.75
