Data from hue_90_FLMS001491_76.txt Node
Date: Mon Feb 06 15:25:38 GMT 2017
User: dcchb
Spectrometer: FLMS00149
Trigger mode: 0
Integration Time (sec): 2.000000E-2
Scans to average: 10
Electric dark correction enabled: true
Nonlinearity correction enabled: false
Boxcar width: 0
XAxis mode: Wavelengths
Number of Pixels in Spectrum: 2048
>>>>>Begin Spectral Data<<<<<
341.393	-17.01
341.776	-17.01
342.16	-17.01
342.543	-64.24
342.927	-80.28
343.31	-66.5
343.693	-65.59
344.077	-81.18
344.46	-46.16
344.843	-44.35
345.226	-46.38
345.61	-42.77
345.993	-18.81
346.376	8.98
346.759	9.89
347.142	22.54
347.525	38.36
347.908	71.58
348.291	71.35
348.674	93.27
349.057	95.76
349.44	115.19
349.823	155.65
350.206	141.86
350.588	183.89
350.971	197.9
351.354	222.54
351.737	241.52
352.119	227.51
352.502	267.73
352.884	276.77
353.267	287.62
353.65	290.78
354.032	291.91
354.414	307.28
354.797	294.17
355.179	295.98
355.562	319.03
355.944	317
356.326	314.51
356.709	336.88
357.091	319.94
357.473	326.71
357.855	345.92
358.238	329.65
358.62	354.51
359.002	317.9
359.384	330.33
359.766	332.59
360.148	322.19
360.53	345.7
360.912	324.23
361.294	335.08
361.676	331.91
362.057	347.73
362.439	338.01
362.821	327.17
363.203	327.17
363.584	327.39
363.966	300.73
364.348	303.66
364.729	318.81
365.111	319.94
365.493	315.42
365.874	320.16
366.256	318.81
366.637	303.66
367.019	282.87
367.4	317.9
367.781	297.79
368.163	326.26
368.544	318.58
368.925	303.89
369.306	309.99
369.688	313.61
370.069	311.35
370.45	291.24
370.831	309.09
371.212	323.1
371.593	316.32
371.974	303.21
372.355	302.76
372.736	305.7
373.117	311.12
373.498	290.56
373.879	317
374.26	323.32
374.641	321.74
375.021	317
375.402	321.74
375.783	303.44
376.163	311.57
376.544	325.13
376.925	352.48
377.305	328.52
377.686	330.56
378.066	318.81
378.447	347.5
378.827	318.13
379.208	329.2
379.588	316.09
379.968	303.66
380.349	330.1
380.729	315.64
381.109	333.04
381.489	357
381.87	327.39
382.25	337.34
382.63	335.08
383.01	331.91
383.39	347.28
383.77	338.47
384.15	344.34
384.53	340.95
384.91	331.23
385.29	337.11
385.67	352.93
386.049	347.73
386.429	356.54
386.809	366.71
387.189	343.44
387.568	346.83
387.948	356.09
388.328	368.97
388.707	341.4
389.087	349.54
389.466	358.58
389.846	341.18
390.225	355.41
390.605	348.41
390.984	365.13
391.363	373.94
391.743	369.43
392.122	379.59
392.501	377.79
392.881	374.4
393.26	364.45
393.639	389.76
394.018	374.62
394.397	380.05
394.776	395.19
395.155	372.36
395.534	385.47
395.913	372.82
396.292	387.28
396.671	376.88
397.05	368.07
397.429	375.53
397.808	395.64
398.186	393.61
398.565	390.22
398.944	379.14
399.323	402.42
399.701	395.19
400.08	390.89
400.458	387.96
400.837	412.59
401.215	397.45
401.594	393.15
401.972	386.37
402.351	405.81
402.729	432.02
403.107	401.51
403.486	412.36
403.864	395.19
404.242	422.98
404.62	411.46
404.999	420.5
405.377	403.55
405.755	424.11
406.133	420.72
406.511	417.11
406.889	435.64
407.267	439.71
407.645	437.45
408.023	443.1
408.401	426.37
408.779	458.91
409.156	436.09
409.534	459.59
409.912	415.75
410.29	455.75
410.667	469.54
411.045	466.15
411.422	466.37
411.8	462.76
412.178	438.8
412.555	474.06
412.933	496.88
413.31	471.57
413.687	470.21
414.065	476.99
414.442	474.96
414.819	484.68
415.197	467.73
415.574	461.63
415.951	497.78
416.328	495.75
416.705	500.72
417.082	487.16
417.46	495.3
417.837	505.24
418.214	512.92
418.591	511.57
418.967	497.33
419.344	495.3
419.721	506.14
420.098	520.83
420.475	531.45
420.852	514.96
421.228	501.17
421.605	535.97
421.982	525.13
422.358	519.48
422.735	545.47
423.111	533.49
423.488	564.9
423.864	558.57
424.241	571.91
424.617	558.35
424.994	554.05
425.37	554.96
425.746	541.62
426.123	549.76
426.499	557.44
426.875	583.66
427.251	573.04
427.627	569.65
428.003	587.27
428.379	599.93
428.756	577.33
429.132	585.24
429.507	593.83
429.883	635.63
430.259	619.59
430.635	615.52
431.011	614.84
431.387	662.98
431.763	644.9
432.138	621.17
432.514	656.88
432.89	650.77
433.265	675.41
433.641	667.95
434.016	684.9
434.392	662.52
434.767	671.56
435.143	694.84
435.518	684.67
435.894	696.2
436.269	723.77
436.644	705.01
437.02	718.34
437.395	702.75
437.77	720.83
438.145	743.2
438.52	748.62
438.895	745.46
439.271	741.39
439.646	748.62
440.021	775.74
440.395	780.26
440.77	756.99
441.145	773.03
441.52	780.71
441.895	771.9
442.27	780.04
442.645	809.87
443.019	811
443.394	803.31
443.769	800.6
444.143	796.76
444.518	829.98
444.892	816.42
445.267	824.1
445.641	832.92
446.016	820.03
446.39	816.42
446.764	814.84
447.139	827.94
447.513	840.37
447.887	856.19
448.262	878.34
448.636	854.38
449.01	868.62
449.384	886.47
449.758	885.12
450.132	871.11
450.506	900.71
450.88	892.58
451.254	887.15
451.628	912.91
452.002	940.94
452.376	956.3
452.75	970.54
453.123	959.69
453.497	972.12
453.871	973.03
454.244	968.28
454.618	977.77
454.992	968.73
455.365	1011.44
455.739	1011.22
456.112	1011.89
456.486	1036.75
456.859	1057.32
457.232	1065.68
457.606	1053.7
457.979	1097.99
458.352	1121.27
458.725	1105
459.099	1116.3
459.472	1136.18
459.845	1144.55
460.218	1167.6
460.591	1157.65
460.964	1155.17
461.337	1222.51
461.71	1203.3
462.083	1201.27
462.456	1252.57
462.829	1235.17
463.201	1257.31
463.574	1258.22
463.947	1281.04
464.32	1335.5
464.692	1329.4
465.065	1344.77
465.438	1366.46
465.81	1393.81
466.183	1408.49
466.555	1441.94
466.928	1430.41
467.3	1443.07
467.672	1473.13
468.045	1547.93
468.417	1538.89
468.789	1564.65
469.161	1559.68
469.534	1608.49
469.906	1662.05
470.278	1620.01
470.65	1659.56
471.022	1716.96
471.394	1762.84
471.766	1787.92
472.138	1793.34
472.51	1860.91
472.882	1865.21
473.253	1925.99
473.625	1937.52
473.997	2009.83
474.369	2007.35
474.74	2084.63
475.112	2104.07
475.484	2140
475.855	2226.55
476.227	2251.41
476.598	2297.06
476.97	2343.38
477.341	2425.42
477.713	2441.69
478.084	2468.13
478.455	2579.31
478.827	2660.44
479.198	2759.19
479.569	2785.63
479.94	2882.35
480.311	2921.22
480.682	2979.53
481.053	3107.43
481.424	3151.5
481.795	3238.28
482.166	3273.76
482.537	3391.72
482.908	3504.94
483.279	3599.4
483.65	3673.52
484.021	3798.04
484.391	3882.1
484.762	3963.23
485.133	4047.29
485.503	4170.91
485.874	4295.2
486.244	4340.85
486.615	4517.79
486.985	4620.16
487.356	4733.6
487.726	4814.73
488.097	4951
488.467	5051.56
488.837	5169.3
489.207	5256.53
489.578	5462.4
489.948	5522.06
490.318	5614.03
490.688	5692.9
491.058	5867.13
491.428	5993.91
491.798	6112.33
492.168	6280.91
492.538	6378.98
492.908	6489.94
493.278	6659.66
493.648	6687
494.017	6836.37
494.387	6968.8
494.757	7053.77
495.126	7189.13
495.496	7282.24
495.866	7380.31
496.235	7540.76
496.605	7627.77
496.974	7744.37
497.344	7846.29
497.713	7888.32
498.082	8033.63
498.452	8127.41
498.821	8256.68
499.19	8272.72
499.559	8403.79
499.928	8509.32
500.298	8646.95
500.667	8704.57
501.036	8817.34
501.405	8853.27
501.774	8947.05
502.143	9004.9
502.512	9116.77
502.88	9227.27
503.249	9248.51
503.618	9388.62
503.987	9403.99
504.356	9480.6
504.724	9566.7
505.093	9687.82
505.462	9755.85
505.83	9857.31
506.199	9860.7
506.567	9995.84
506.936	10030.64
507.304	10126
507.672	10165.55
508.041	10255.72
508.409	10324.87
508.777	10382.95
509.145	10507.69
509.514	10504.07
509.882	10620.23
510.25	10582.04
510.618	10691.87
510.986	10694.13
511.354	10741.13
511.722	10865.65
512.09	10980.67
512.458	11029.26
512.826	11090.5
513.193	11130.27
513.561	11046.66
513.929	11100.44
514.297	11224.06
514.664	11299.76
515.032	11366.88
515.4	11393.77
515.767	11432.41
516.135	11429.93
516.502	11428.12
516.869	11575.46
517.237	11568.45
517.604	11477.61
517.972	11693.87
518.339	11699.52
518.706	11684.16
519.073	11750.59
519.44	11761.22
519.808	11803.02
520.175	11803.7
520.542	12004.15
520.909	12023.13
521.276	11922.57
521.643	12059.29
522.009	12063.13
522.376	12161.43
522.743	12153.97
523.11	12200.3
523.477	12273.97
523.843	12312.84
524.21	12388.77
524.577	12363.69
524.943	12384.25
525.31	12472.38
525.676	12431.71
526.043	12460.86
526.409	12563.45
526.776	12588.77
527.142	12642.77
527.508	12611.14
527.874	12693.17
528.241	12677.58
528.607	12774.3
528.973	12872.6
529.339	12679.16
529.705	12753.73
530.071	12900.85
530.437	12889.55
530.803	12886.38
531.169	12866.95
531.535	12788.08
531.901	12871.92
532.267	12798.03
532.632	12923.9
532.998	12905.14
533.364	12947.63
533.73	12861.07
534.095	12878.25
534.461	12919.38
534.826	12895.88
535.192	12865.14
535.557	12974.52
535.923	12911.02
536.288	12872.6
536.653	12828.31
537.019	12818.36
537.384	12786.05
537.749	12771.13
538.114	12698.82
538.479	12810.45
538.845	12774.3
539.21	12716.22
539.575	12687.52
539.94	12701.3
540.305	12764.81
540.67	12663.11
541.034	12630.12
541.399	12652.49
541.764	12620.85
542.129	12541.53
542.494	12561.42
542.858	12625.37
543.223	12540.4
543.587	12590.12
543.952	12491.82
544.316	12534.76
544.681	12421.76
545.045	12459.95
545.41	12442.55
545.774	12448.88
546.138	12396
546.503	12384.48
546.867	12332.5
547.231	12399.62
547.595	12314.87
547.959	12313.29
548.324	12262.67
548.688	12269.68
549.052	12237.81
549.416	12174.09
549.779	12172.28
550.143	12021.55
550.507	12219.74
550.871	12111.94
551.235	12086.41
551.599	12151.94
551.962	12188.55
552.326	12114.88
552.689	12133.86
553.053	12000.08
553.417	11923.02
553.78	12109.68
554.143	12038.5
554.507	12066.52
554.87	12009.12
555.234	12008.44
555.597	11986.3
555.96	11961.66
556.323	11993.07
556.686	11902.68
557.05	11944.71
557.413	11971.83
557.776	11869.46
558.139	11923.25
558.502	11949.69
558.865	11862.68
559.228	11960.76
559.59	11847.09
559.953	11889.35
560.316	11957.82
560.679	11927.09
561.041	12003.47
561.404	11995.56
561.767	11997.37
562.129	11979.06
562.492	12106.29
562.854	12000.53
563.217	11955.34
563.579	12053.86
563.941	12116.46
564.304	11968.22
564.666	12106.52
565.028	12098.16
565.39	12098.38
565.753	12097.7
566.115	12085.5
566.477	12139.51
566.839	12142.68
567.201	12175.22
567.563	12204.59
567.925	12277.36
568.287	12223.35
568.648	12189.23
569.01	12251.82
569.372	12258.15
569.734	12305.16
570.095	12319.39
570.457	12339.73
570.819	12399.84
571.18	12339.96
571.542	12389.45
571.903	12388.32
572.265	12338.15
572.626	12425.38
572.987	12475.1
573.349	12417.92
573.71	12410.92
574.071	12450.01
574.432	12415.66
574.794	12589.44
575.155	12454.31
575.516	12482.55
575.877	12451.82
576.238	12433.06
576.599	12547.18
576.96	12527.07
577.32	12523.68
577.681	12522.1
578.042	12539.73
578.403	12548.31
578.763	12583.12
579.124	12566.84
579.485	12588.77
579.845	12513.06
580.206	12492.04
580.566	12527.98
580.927	12518.71
581.287	12599.39
581.648	12539.5
582.008	12552.83
582.368	12565.71
582.728	12542.66
583.089	12561.87
583.449	12567.52
583.809	12504.93
584.169	12526.85
584.529	12495.21
584.889	12613.4
585.249	12505.83
585.609	12484.14
585.969	12505.6
586.329	12562.78
586.688	12516.9
587.048	12540.4
587.408	12430.35
587.768	12550.35
588.127	12447.53
588.487	12478.71
588.846	12566.84
589.206	12428.54
589.565	12415.44
589.925	12537.92
590.284	12401.43
590.643	12493.4
591.003	12428.32
591.362	12442.78
591.721	12474.64
592.08	12420.86
592.44	12431.48
592.799	12419.73
593.158	12410.92
593.517	12373.86
593.876	12340.41
594.235	12345.61
594.593	12350.81
594.952	12461.76
595.311	12297.25
595.67	12304.93
596.029	12433.51
596.387	12447.3
596.746	12428.09
597.104	12322.11
597.463	12327.53
597.822	12365.49
598.18	12306.29
598.538	12329.11
598.897	12423.57
599.255	12252.73
599.613	12429
599.972	12400.07
600.33	12341.54
600.688	12308.77
601.046	12336.12
601.404	12363.91
601.762	12360.75
602.12	12447.53
602.478	12447.3
602.836	12382.44
603.194	12301.77
603.552	12291.6
603.91	12236.91
604.268	12339.28
604.625	12296.57
604.983	12381.54
605.341	12287.3
605.698	12317.36
606.056	12384.48
606.413	12352.16
606.771	12376.57
607.128	12400.97
607.485	12344.7
607.843	12378.15
608.2	12373.4
608.557	12427.87
608.914	12369.34
609.272	12461.54
609.629	12409.79
609.986	12475.55
610.343	12428.54
610.7	12562.55
611.057	12493.17
611.414	12482.33
611.771	12467.19
612.127	12597.35
612.484	12540.4
612.841	12581.08
613.198	12569.78
613.554	12557.13
613.911	12534.76
614.267	12597.13
614.624	12516.9
614.98	12557.81
615.337	12607.97
615.693	12630.12
616.05	12521.87
616.406	12675.09
616.762	12671.25
617.118	12604.58
617.475	12572.95
617.831	12560.29
618.187	12589.22
618.543	12675.54
618.899	12737.01
619.255	12686.39
619.611	12705.82
619.967	12679.38
620.323	12748.99
620.678	12629.44
621.034	12613.62
621.39	12633.06
621.746	12664.92
622.101	12797.35
622.457	12731.13
622.812	12747.4
623.168	12740.63
623.523	12754.86
623.879	12777.91
624.234	12663.11
624.589	12759.61
624.945	12697.69
625.3	12657.92
625.655	12725.94
626.01	12739.27
626.365	12673.28
626.72	12716.22
627.075	12701.76
627.43	12715.77
627.785	12634.64
628.14	12700.17
628.495	12692.27
628.85	12621.53
629.205	12608.43
629.559	12691.59
629.914	12615.66
630.269	12733.39
630.623	12633.28
630.978	12585.38
631.332	12677.58
631.687	12679.84
632.041	12628.31
632.396	12572.72
632.75	12524.36
633.104	12620.63
633.459	12570.01
633.813	12576.56
634.167	12476.23
634.521	12461.99
634.875	12502.89
635.229	12494.76
635.583	12433.97
635.937	12436.23
636.291	12418.37
636.645	12438.71
636.999	12437.36
637.352	12393.29
637.706	12339.73
638.06	12354.42
638.413	12277.81
638.767	12328.88
639.121	12325.95
639.474	12252.5
639.828	12294.99
640.181	12285.95
640.534	12253.86
640.888	12230.36
641.241	12140.87
641.594	12199.85
641.947	12312.39
642.301	12167.53
642.654	12275.1
643.007	12270.58
643.36	12177.93
643.713	12204.37
644.066	12254.31
644.419	12076.01
644.771	12030.36
645.124	11977.93
645.477	11942.91
645.83	11839.18
646.182	11781.78
646.535	11748.11
646.888	11716.92
647.24	11750.82
647.593	11776.13
647.945	11787.2
648.298	11770.26
648.65	11642.35
649.002	11732.29
649.355	11789.92
649.707	11696.36
650.059	11809.12
650.411	11885.28
650.763	12021.77
651.115	11971.38
651.467	12024.94
651.819	12049.12
652.171	12079.63
652.523	12032.85
652.875	12017.25
653.227	11907.88
653.578	12116.46
653.93	11960.08
654.282	11942.45
654.633	11950.36
654.985	11970.25
655.337	11994.43
655.688	11927.31
656.039	11959.18
656.391	11892.74
656.742	11956.69
657.094	11963.47
657.445	12018.61
657.796	11999.85
658.147	11852.97
658.498	11970.93
658.849	11963.24
659.2	12069
659.551	11903.36
659.902	12028.55
660.253	11927.77
660.604	11940.87
660.955	11943.81
661.306	12010.25
661.656	11994.2
662.007	12008.67
662.358	12007.76
662.708	11951.72
663.059	11946.52
663.409	11901.33
663.76	11978.39
664.11	12008.89
664.461	12064.49
664.811	12033.53
665.161	12022.23
665.511	12000.98
665.862	12029.01
666.212	12095.44
666.562	12068.1
666.912	12007.99
667.262	12017.25
667.612	11992.4
667.962	12033.07
668.312	12009.8
668.662	12014.54
669.011	11986.07
669.361	12031.94
669.711	11898.84
670.06	11966.63
670.41	11881.44
670.76	11975.22
671.109	11976.13
671.459	11963.7
671.808	11930.7
672.157	12000.76
672.507	11864.72
672.856	11920.53
673.205	11916.01
673.554	11919.4
673.904	11888.22
674.253	11910.59
674.602	11905.62
674.951	11715.12
675.3	11667.89
675.649	11821.1
675.998	11833.76
676.346	11778.39
676.695	11910.82
677.044	11746.3
677.393	11765.74
677.741	11761.67
678.09	11732.29
678.438	11712.4
678.787	11769.35
679.135	11726.41
679.484	11656.59
679.832	11702.23
680.181	11665.85
680.529	11653.87
680.877	11669.24
681.225	11591.73
681.573	11692.29
681.922	11581.33
682.27	11529.13
682.618	11552.41
682.966	11530.26
683.314	11494.56
683.661	11487.1
684.009	11402.58
684.357	11438.29
684.705	11396.71
685.053	11439.87
685.4	11410.04
685.748	11302.47
686.095	11328.23
686.443	11336.37
686.79	11222.47
687.138	11302.7
687.485	11250.72
687.832	11215.24
688.18	11218.86
688.527	11196.71
688.874	11065.64
689.221	11069.71
689.568	11091.18
689.915	10977.28
690.262	10968.24
690.609	10949.94
690.956	10944.74
691.303	11023.38
691.65	10857.06
691.997	10834.01
692.344	10752.43
692.69	10778.42
693.037	10812.31
693.383	10715.14
693.73	10713.11
694.077	10671.08
694.423	10687.35
694.769	10635.14
695.116	10643.28
695.462	10557.18
695.808	10468.37
696.155	10532.55
696.501	10480.8
696.847	10465.88
697.193	10325.1
697.539	10287.58
697.885	10286.23
698.231	10303.4
698.577	10195.61
698.923	10220.47
699.269	10135.72
699.614	10071.77
699.96	10082.39
700.306	10010.75
700.651	9987.7
700.997	9976.18
701.342	9906.58
701.688	9838.33
702.033	9875.39
702.379	9873.13
702.724	9841.94
703.069	9746.81
703.415	9675.4
703.76	9752.23
704.105	9705.23
704.45	9677.43
704.795	9570.99
705.14	9601.5
705.485	9573.93
705.83	9542.97
706.175	9540.03
706.52	9527.38
706.865	9531.67
707.209	9452.12
707.554	9458.68
707.899	9486.25
708.243	9342.75
708.588	9361.73
708.932	9316.76
709.277	9219.14
709.621	9330.55
709.966	9198.12
710.31	9166.03
710.654	9121.06
710.998	9115.18
711.342	9190.66
711.687	9141.62
712.031	9075.86
712.375	9007.84
712.719	9112.02
713.063	9012.81
713.407	9053.94
713.75	9004.23
714.094	8944.57
714.438	8937.34
714.782	8914.51
715.125	8932.36
715.469	8935.3
715.812	8948.18
716.156	8817.79
716.499	8892.14
716.843	8877.45
717.186	8821.63
717.53	8805.14
717.873	8836.77
718.216	8787.96
718.559	8721.07
718.902	8714.29
719.246	8698.92
719.589	8720.84
719.932	8715.65
720.275	8644.69
720.617	8655.08
720.96	8666.16
721.303	8679.94
721.646	8613.73
721.989	8649.89
722.331	8607.63
722.674	8565.37
723.016	8632.94
723.359	8605.37
723.701	8614.86
724.044	8545.26
724.386	8560.17
724.729	8518.14
725.071	8411.93
725.413	8507.06
725.755	8519.49
726.097	8494.86
726.439	8415.32
726.782	8461.87
727.124	8548.42
727.465	8459.61
727.807	8385.94
728.149	8396.11
728.491	8380.74
728.833	8450.12
729.175	8434.98
729.516	8408.08
729.858	8422.09
730.199	8395.43
730.541	8463
730.882	8469.55
731.224	8372.6
731.565	8402.21
731.906	8484.92
732.248	8418.93
732.589	8372.83
732.93	8410.12
733.271	8357.46
733.612	8379.84
733.953	8435.2
734.294	8361.76
734.635	8389.78
734.976	8405.82
735.317	8344.36
735.658	8364.24
735.999	8351.81
736.339	8421.64
736.68	8407.63
737.021	8443.56
737.361	8314.98
737.702	8415.99
738.042	8374.41
738.383	8393.62
738.723	8364.92
739.063	8354.07
739.404	8428.87
739.744	8399.72
740.084	8356.11
740.424	8439.04
740.764	8371.47
741.104	8407.86
741.444	8500.51
741.784	8399.72
742.124	8466.84
742.464	8490.79
742.804	8516.33
743.143	8532.15
743.483	8522.66
743.823	8520.62
744.162	8532.83
744.502	8516.1
744.841	8575.31
745.181	8636.1
745.52	8636.78
745.86	8653.95
746.199	8695.99
746.538	8681.52
746.877	8760.17
747.216	8819.37
747.556	8775.31
747.895	8932.59
748.234	8877
748.573	8912.25
748.911	9010.1
749.25	9009.88
749.589	9038.35
749.928	9147.73
750.267	9168.29
750.605	9247.16
750.944	9301.39
751.283	9411.22
751.621	9475.4
751.96	9468.17
752.298	9532.12
752.636	9666.58
752.975	9716.52
753.313	9752.23
753.651	9910.64
753.989	9903.19
754.327	10026.12
754.666	10053.24
755.004	10261.82
755.342	10349.05
755.679	10394.25
756.017	10501.14
756.355	10666.33
756.693	10693.22
757.031	10885.76
757.368	10881.47
757.706	11058.64
758.044	11067
758.381	11313.32
758.719	11450.04
759.056	11544.27
759.394	11690.71
759.731	11787.2
760.068	11891.38
760.405	12012.28
760.743	12135.9
761.08	12319.85
761.417	12388.09
761.754	12551.7
762.091	12592.61
762.428	12790.12
762.765	12868.31
763.102	13000.28
763.438	13137.68
763.775	13261.74
764.112	13466.26
764.449	13569.98
764.785	13667.15
765.122	13742.86
765.458	13889.52
765.795	14005.9
766.131	14130.87
766.467	14237.54
766.804	14315.73
767.14	14384.42
767.476	14530.41
767.812	14599.33
768.148	14672.55
768.485	14838.65
768.821	14850.17
769.157	15009.94
769.492	15069.38
769.828	15248.36
770.164	15087.46
770.5	15235.93
770.836	15386.43
771.171	15459.42
771.507	15503.04
771.842	15519.08
772.178	15655.35
772.513	15742.58
772.849	15646.31
773.184	15766.76
773.519	15919.98
773.855	15937.83
774.19	15974.21
774.525	15934.67
774.86	16004.27
775.195	16107.54
775.53	16148.22
775.865	16098.28
776.2	16089.24
776.535	16083.14
776.87	16132.85
777.205	16184.15
777.539	16165.85
777.874	16324.03
778.209	16184.38
778.543	16250.14
778.878	16166.07
779.212	16247.65
779.547	16240.87
779.881	16315.22
780.215	16273.87
780.55	16286.97
780.884	16264.37
781.218	16328.78
781.552	16317.03
781.886	16252.17
782.22	16245.17
782.554	16225.28
782.888	16127.43
783.222	16183.7
783.556	16191.16
783.889	16150.25
784.223	16140.54
784.557	16053.98
784.89	16056.7
785.224	16124.94
785.557	16075
785.891	16024.83
786.224	16197.03
786.558	16050.82
786.891	15962.01
787.224	15917.94
787.557	15987.55
787.891	15799.98
788.224	15868
788.557	15864.39
788.89	15889.7
789.223	15828.91
789.556	15784.16
789.888	15715.46
790.221	15760.66
790.554	15666.2
790.887	15745.97
791.219	15642.47
791.552	15577.84
791.884	15570.16
792.217	15568.12
792.549	15512.76
792.882	15480.67
793.214	15403.38
793.546	15360.9
793.879	15274.12
794.211	15287.45
794.543	15328.35
794.875	15235.93
795.207	15322.93
795.539	15279.54
795.871	15239.32
796.203	15148.92
796.535	15103.73
796.867	15041.36
797.198	15079.32
797.53	15029.38
797.862	14924.97
798.193	14936.95
798.525	14822.6
798.856	14954.13
799.188	14730.18
799.519	14750.29
799.85	14659.22
800.182	14703.51
800.513	14680.24
800.844	14568.83
801.175	14744.19
801.506	14616.06
801.837	14598.2
802.168	14486.79
802.499	14505.78
802.83	14401.15
803.161	14366.12
803.491	14347.81
803.822	14398.43
804.153	14308.49
804.483	14161.61
804.814	14154.15
805.145	14143.75
805.475	14135.84
805.805	14160.48
806.136	14073.25
806.466	14112.11
806.796	13993.47
807.126	13941.27
807.457	13887.71
807.787	13901.27
808.117	13827.6
808.447	13864.21
808.777	13873.25
809.107	13812.24
809.436	13799.35
809.766	13845.23
810.096	13779.24
810.426	13651.34
810.755	13666.93
811.085	13642.3
811.414	13607.27
811.744	13554.16
812.073	13519.59
812.403	13526.37
812.732	13404.11
813.061	13357.11
813.39	13380.16
813.719	13308.07
814.049	13472.13
814.378	13427.61
814.707	13332.02
815.036	13280.27
815.365	13238.92
815.693	13154.63
816.022	13048.41
816.351	13085.93
816.68	13064.91
817.008	13095.42
817.337	12996.44
817.665	12912.6
817.994	12992.14
818.322	13016.32
818.651	12884.12
818.979	12870.11
819.307	12916.67
819.636	12940.85
819.964	12811.58
820.292	12866.95
820.62	12850.23
820.948	12819.49
821.276	12820.4
821.604	12807.97
821.932	12869.44
822.259	12795.09
822.587	12843.9
822.915	12843
823.243	12850.45
823.57	12830.79
823.898	12795.54
824.225	12798.93
824.553	12728.87
824.88	12690.01
825.207	12783.79
825.535	12777.69
825.862	12764.58
826.189	12824.24
826.516	12858.81
826.843	12869.66
827.17	12930.22
827.497	12875.31
827.824	12807.29
828.151	12945.14
828.478	12866.72
828.805	12860.62
829.131	12793.73
829.458	12774.07
829.785	12805.93
830.111	12733.62
830.438	12873.73
830.764	12782.66
831.09	12850
831.417	12685.49
831.743	12777.46
832.069	12786.95
832.395	12721.87
832.722	12761.42
833.048	12661.98
833.374	12727.74
833.7	12684.81
834.026	12714.19
834.351	12709.21
834.677	12657.24
835.003	12674.19
835.329	12604.13
835.654	12699.04
835.98	12542.21
836.306	12722.09
836.631	12484.36
836.956	12632.61
837.282	12562.55
837.607	12490.46
837.932	12570.01
838.258	12497.24
838.583	12537.92
838.908	12416.79
839.233	12513.06
839.558	12488.65
839.883	12419.05
840.208	12393.29
840.533	12361.43
840.858	12328.21
841.182	12368.43
841.507	12358.71
841.832	12236.23
842.156	12251.37
842.481	12236.01
842.805	12216.57
843.13	12208.66
843.454	12209.11
843.778	12201.88
844.103	12098.38
844.427	12066.74
844.751	12099.06
845.075	12033.53
845.399	12026.29
845.723	11998.95
846.047	11893.64
846.371	11756.24
846.695	11752.18
847.019	11785.17
847.343	11681.22
847.666	11624.95
847.99	11657.72
848.313	11589.92
848.637	11579.07
848.96	11603.25
849.284	11476.03
849.607	11407.1
849.931	11349.7
850.254	11334.33
850.577	11236.26
850.9	11189.25
851.223	11100.44
851.546	11101.8
851.869	11033.33
852.192	11119.2
852.515	10966.43
852.838	10934.8
853.161	10898.19
853.483	10804.63
853.806	10819.32
854.129	10850.51
854.451	10672.88
854.774	10677.18
855.096	10727.12
855.419	10711.75
855.741	10632.43
856.063	10563.73
856.385	10516.96
856.708	10477.41
857.03	10433.79
857.352	10438.99
857.674	10390.86
857.996	10410.29
858.318	10331.88
858.64	10298.88
858.961	10303.63
859.283	10196.74
859.605	10196.29
859.926	10260.24
860.248	10218.66
860.57	10234.93
860.891	10227.47
861.212	10132.11
861.534	10090.07
861.855	10029.96
862.176	10080.36
862.498	10114.71
862.819	10041.04
863.14	10022.28
863.461	10003.52
863.782	9968.27
864.103	9994.71
864.424	9958.1
864.745	9960.36
865.065	9854.83
865.386	9874.71
865.707	9890.76
866.027	9846.24
866.348	9851.21
866.668	9810.53
866.989	9782.06
867.309	9706.81
867.63	9747.03
867.95	9716.3
868.27	9681.95
868.59	9787.71
868.91	9674.04
869.23	9697.32
869.55	9637.2
869.87	9680.14
870.19	9639.01
870.51	9694.83
870.83	9622.06
871.15	9578.67
871.469	9647.6
871.789	9589.3
872.109	9554.49
872.428	9469.07
872.748	9556.98
873.067	9453.03
873.386	9552.46
873.706	9423.42
874.025	9447.15
874.344	9485.8
874.663	9446.93
874.982	9393.14
875.301	9382.07
875.62	9300.26
875.939	9318.57
876.258	9316.53
876.577	9324.67
876.896	9247.16
877.214	9301.17
877.533	9293.71
877.852	9258.01
878.17	9280.15
878.489	9267.04
878.807	9190.66
879.125	9246.25
879.444	9213.03
879.762	9143.21
880.08	9170.32
880.398	9150.44
880.716	9128.29
881.034	9044
881.352	9110.21
881.67	9076.09
881.988	9121.51
882.306	9033.83
882.624	9030.67
882.941	9003.32
883.259	8916.55
883.577	8946.37
883.894	8887.62
884.212	8839.26
884.529	8851.69
884.846	8818.47
885.164	8874.74
885.481	8827.06
885.798	8850.56
886.115	8740.28
886.432	8726.04
886.75	8737.57
887.067	8768.3
887.383	8683.56
887.7	8682.43
888.017	8671.81
888.334	8637.68
888.651	8608.98
888.967	8603.56
889.284	8592.03
889.6	8533.96
889.917	8426.39
890.233	8467.97
890.55	8495.99
890.866	8452.38
891.182	8358.82
891.498	8411.02
891.815	8346.16
892.131	8349.55
892.447	8323.34
892.763	8291.48
893.079	8278.6
893.395	8283.57
893.71	8291.93
894.026	8234.98
894.342	8207.41
894.657	8133.74
894.973	8116.79
895.289	8155.21
895.604	8108.66
895.92	8021.65
896.235	7994.54
896.55	8017.13
896.865	7951.15
897.181	7964.93
897.496	7930.81
897.811	7915.22
898.126	7881.32
898.441	7866.18
898.756	7845.39
899.071	7790.93
899.386	7774.43
899.7	7734.66
900.015	7713.86
900.33	7588.67
900.644	7595
900.959	7662.57
901.273	7568.11
901.588	7556.13
901.902	7533.3
902.216	7432.97
902.531	7439.3
902.845	7370.6
903.159	7365.63
903.473	7349.81
903.787	7322.46
904.101	7240.43
904.415	7298.51
904.729	7229.13
905.042	7256.93
905.356	7170.15
905.67	7196.59
905.984	7189.13
906.297	7122.24
906.611	7060.32
906.924	7054.22
907.237	7053.09
907.551	7083.37
907.864	6965.64
908.177	6941.68
908.491	6959.08
908.804	6927.9
909.117	6870.05
909.43	6783.04
909.743	6801.35
910.056	6821.69
910.368	6708.24
910.681	6708.92
910.994	6712.31
911.307	6682.71
911.619	6619.88
911.932	6657.85
912.244	6562.71
912.557	6605.65
912.869	6544.63
913.181	6512.99
913.494	6542.14
913.806	6417.85
914.118	6465.08
914.43	6433.9
914.742	6447.46
915.054	6375.37
915.366	6377.85
915.678	6344.18
915.99	6304.41
916.302	6308.48
916.613	6250.4
916.925	6248.59
917.236	6190.97
917.548	6177.86
917.859	6185.77
918.171	6118.65
918.482	6065.09
918.794	6098.31
919.105	6060.35
919.416	6055.83
919.727	6041.82
920.038	6013.12
920.349	5979.9
920.66	5936.96
920.971	5949.39
921.282	5899.9
921.593	5851.09
921.903	5842.95
922.214	5787.59
922.525	5814.03
922.835	5741.04
923.146	5726.35
923.456	5732.22
923.767	5660.81
924.077	5724.31
924.387	5616.97
924.697	5604.54
925.008	5629.4
925.318	5603.41
925.628	5568.61
925.938	5530.42
926.248	5504.43
926.558	5483.87
926.867	5485.9
927.177	5428.28
927.487	5337.88
927.796	5391.67
928.106	5350.54
928.416	5368.62
928.725	5344.44
929.034	5348.5
929.344	5339.24
929.653	5286.13
929.962	5256.75
930.271	5235.29
930.581	5242.29
930.89	5191.22
931.199	5189.19
931.508	5138.79
931.817	5179.69
932.125	5060.83
932.434	5074.61
932.743	5043.2
933.051	5047.72
933.36	5017.21
933.669	4994.61
933.977	4949.42
934.286	4978.57
934.594	4916.42
934.902	4946.48
935.21	4875.07
935.519	4893.37
935.827	4804.79
936.135	4804.56
936.443	4775.19
936.751	4790.1
937.059	4740.38
937.367	4748.07
937.674	4750.33
937.982	4725.92
938.29	4712.36
938.597	4691.35
938.905	4684.34
939.213	4615.64
939.52	4644.57
939.827	4596.66
940.135	4605.7
940.442	4545.81
940.749	4573.83
941.056	4575.19
941.363	4523.44
941.67	4507.4
941.977	4439.83
942.284	4439.83
942.591	4419.26
942.898	4417.23
943.205	4396.66
943.511	4334.74
943.818	4382.88
944.125	4309.21
944.431	4302.88
944.738	4310.11
945.044	4305.14
945.35	4278.25
945.657	4213.39
945.963	4217.91
946.269	4171.59
946.575	4188.08
946.881	4185.82
947.187	4173.39
947.493	4133.17
947.799	4101.08
948.105	4115.54
948.41	4050.68
948.716	4025.6
949.022	4035.32
949.327	4059.27
949.633	3984.25
949.938	4008.43
950.244	3977.92
950.549	3948.09
950.854	3912.61
951.16	3945.15
951.465	3902.44
951.77	3891.14
952.075	3926.17
952.38	3868.99
952.685	3902.89
952.99	3818.83
953.294	3794.42
953.599	3789.9
953.904	3807.53
954.209	3740.86
954.513	3738.6
954.818	3759.62
955.122	3711.94
955.426	3706.29
955.731	3665.84
956.035	3660.19
956.339	3674.88
956.643	3641.88
956.948	3567.08
957.252	3588.78
957.556	3619.06
957.86	3594.88
958.163	3547.65
958.467	3551.49
958.771	3549
959.075	3536.35
959.378	3533.18
959.682	3473.75
959.985	3494.31
960.289	3464.49
960.592	3403.02
960.896	3461.55
961.199	3421.77
961.502	3369.12
961.805	3381.78
962.108	3357.6
962.411	3340.87
962.714	3318.27
963.017	3334.55
963.32	3351.95
963.623	3304.94
963.926	3278.5
964.228	3239.63
964.531	3279.41
964.833	3285.51
965.136	3198.05
965.438	3207.99
965.741	3226.3
966.043	3188.11
966.345	3173.19
966.648	3192.4
966.95	3109.24
967.252	3133.87
967.554	3133.42
967.856	3120.77
968.158	3078.51
968.46	3114.89
968.761	3076.7
969.063	3069.24
969.365	3014.1
969.666	3006.19
969.968	2992.86
970.269	2996.02
970.571	3007.1
970.872	2984.72
971.174	2962.58
971.475	2954.89
971.776	2950.15
972.077	2928
972.378	2918.06
972.679	2909.92
972.98	2865.18
973.281	2876.03
973.582	2874.9
973.883	2835.35
974.183	2852.75
974.484	2827.89
974.785	2841.9
975.085	2801
975.386	2824.28
975.686	2786.31
975.986	2786.99
976.287	2754.45
976.587	2766.2
976.887	2729.59
977.187	2768.01
977.487	2708.35
977.787	2648.24
978.087	2680.1
978.387	2698.63
978.687	2653.43
978.987	2653.43
979.286	2637.39
979.586	2649.59
979.885	2622.93
980.185	2606.43
980.484	2607.56
980.784	2592.87
981.083	2614.79
981.382	2586.09
981.682	2564.4
981.981	2572.76
982.28	2546.54
982.579	2539.31
982.878	2504.74
983.177	2459.09
983.475	2501.8
983.774	2488.24
984.073	2457.05
984.372	2450.73
984.67	2432.87
984.969	2407.11
985.267	2395.36
985.566	2396.49
985.864	2436.04
986.162	2391.75
986.461	2370.05
986.759	2379.54
987.057	2330.96
987.355	2332.54
987.653	2332.09
987.951	2323.95
988.249	2292.99
988.547	2318.3
988.844	2300.9
989.142	2283.27
989.44	2281.92
989.737	2287.79
990.035	2279.88
990.332	2215.93
990.63	2261.13
990.927	2207.57
991.224	2202.37
991.521	2199.21
991.819	2190.62
992.116	2171.64
992.413	2199.89
992.71	2181.81
993.006	2149.94
993.303	2145.65
993.6	2115.59
993.897	2125.31
994.193	2120.34
994.49	2125.09
994.787	2096.16
995.083	2064.97
995.379	2087.8
995.676	2063.62
995.972	2070.85
996.268	2017.29
996.565	2004.41
996.861	1997.86
997.157	2015.48
997.453	2021.81
997.749	2016.84
998.044	1992.43
998.34	2008.03
998.636	1938.65
998.932	1946.11
999.227	1909.95
999.523	1942.27
999.818	1951.3
1000.114	1902.72
1000.409	1888.71
1000.704	1882.15
1001	1885.32
1001.295	1870.63
1001.59	1864.75
1001.885	1881.93
1002.18	1837.86
1002.475	1839.22
1002.77	1799.9
1003.065	1784.08
1003.359	1787.47
1003.654	1789.05
1003.949	1785.21
1004.243	1792.66
1004.538	1750.63
1004.832	1747.69
1005.127	1756.96
1005.421	1751.31
1005.715	1704.53
1006.009	1721.71
1006.304	1729.62
1006.598	1695.04
1006.892	1716.06
1007.186	1650.75
1007.48	1678.09
1007.773	1661.14
1008.067	1660.92
1008.361	1661.37
1008.655	1615.72
1008.948	1631.99
1009.242	1628.83
1009.535	1618.21
1009.829	1632.44
1010.122	1602.84
1010.415	1578.66
1010.708	1593.12
1011.001	1549.96
1011.295	1551.77
1011.588	1562.61
1011.881	1522.16
1012.173	1539.79
1012.466	1524.65
1012.759	1536.4
1013.052	1515.16
1013.344	1483.29
1013.637	1500.92
1013.93	1464.31
1014.222	1494.14
1014.514	1472.45
1014.807	1466.35
1015.099	1452.11
1015.391	1440.13
1015.683	1433.35
1015.976	1446.23
1016.268	1433.8
1016.56	1403.75
1016.851	1394.71
1017.143	1397.65
1017.435	1384.54
1017.727	1379.34
1018.018	1362.17
1018.31	1387.93
1018.602	1335.95
1018.893	1356.52
1019.185	1340.02
1019.476	1326.91
1019.767	1322.39
1020.058	1302.06
1020.35	1316.07
1020.641	1298.67
1020.932	1290.98
1021.223	1285.33
1021.514	1283.75
1021.804	1255.5
1022.095	1268.84
1022.386	1272
1022.677	1234.49
1022.967	1232.91
1023.258	1226.35
1023.548	1197.43
1023.839	1213.02
1024.129	1225.9
1024.419	1210.31
1024.709	1233.81
1025	1186.58
1025.29	1157.88
1025.58	1171.66
1025.87	1141.83
1026.16	1144.77
1026.449	1141.38
1026.739	1146.81
1027.029	1141.16
1027.319	1129.41
1027.608	1103.87
1027.898	1088.05
1028.187	1063.42
1028.477	1090.54
1028.766	1107.49
1029.055	1067.49
1029.344	1084.66
1029.634	1029.75
1029.923	1047.37
1030.212	1024.78
1030.501	1033.36
1030.79	1047.15
1031.078	999.47
1031.367	1009.41
1031.656	1015.74
1031.945	1008.73
1032.233	987.71
1032.522	999.92
1032.81	994.49
1033.099	994.04
1033.387	972.8
1033.675	955.85
1033.963	963.76
1034.251	982.06
1034.54	975.06
1034.828	956.75
1035.116	968.73
1035.403	924.89
1035.691	969.18
1035.979	933.03
1036.267	941.84
1036.554	919.69
1036.842	916.76
1037.129	910.65
1037.417	920.82
1037.704	897.77
1037.992	902.52
1038.279	922.41
1038.566	895.97
1038.853	895.97
1039.14	895.97
