Data from hue_290_FLMS001491_00060.txt Node
Date: Tue Feb 07 15:52:56 GMT 2017
User: dcchb
Spectrometer: FLMS00149
Trigger mode: 0
Integration Time (sec): 2.000000E-2
Scans to average: 10
Electric dark correction enabled: true
Nonlinearity correction enabled: false
Boxcar width: 0
XAxis mode: Wavelengths
Number of Pixels in Spectrum: 2048
>>>>>Begin Spectral Data<<<<<
341.393	-26.24
341.776	-26.24
342.16	-26.24
342.543	-56.98
342.927	-59.24
343.31	-67.37
343.693	-71.44
344.077	-61.27
344.46	-56.75
344.843	-46.58
345.226	-34.83
345.61	-29.86
345.993	-16.75
346.376	-9.29
346.759	-7.26
347.142	25.96
347.525	68.44
347.908	40.2
348.291	74.77
348.674	91.95
349.057	100.08
349.44	123.58
349.823	154.54
350.206	145.28
350.588	201.55
350.971	207.88
351.354	213.75
351.737	241.77
352.119	253.98
352.502	255.11
352.884	259.17
353.267	272.96
353.65	285.39
354.032	286.29
354.414	292.39
354.797	313.41
355.179	306.86
355.562	322.9
355.944	304.6
356.326	317.25
356.709	310.02
357.091	291.94
357.473	329.23
357.855	330.81
358.238	328.78
358.62	303.24
359.002	317.48
359.384	330.36
359.766	334.65
360.148	323.13
360.53	339.85
360.912	318.38
361.294	334.2
361.676	318.61
362.057	329.91
362.439	336.23
362.821	308.21
363.203	300.53
363.584	309.79
363.966	319.29
364.348	299.85
364.729	316.8
365.111	311.15
365.493	305.05
365.874	319.29
366.256	307.31
366.637	302.11
367.019	307.08
367.4	300.3
367.781	318.38
368.163	299.85
368.544	303.47
368.925	294.65
369.306	325.39
369.688	308.44
370.069	311.83
370.45	315.67
370.831	317.48
371.212	308.21
371.593	297.37
371.974	320.19
372.355	295.33
372.736	306.63
373.117	319.74
373.498	293.75
373.879	311.15
374.26	312.51
374.641	295.33
375.021	311.6
375.402	310.02
375.783	324.26
376.163	291.94
376.544	300.08
376.925	322.68
377.305	299.4
377.686	311.15
378.066	318.61
378.447	321.32
378.827	326.06
379.208	315.44
379.588	327.19
379.968	311.6
380.349	326.29
380.729	325.61
381.109	326.06
381.489	336.23
381.87	339.62
382.25	337.59
382.63	320.87
383.01	332.39
383.39	326.74
383.77	318.38
384.15	324.03
384.53	332.39
384.91	331.71
385.29	349.57
385.67	338.27
386.049	340.08
386.429	335.33
386.809	349.12
387.189	350.25
387.568	348.89
387.948	343.01
388.328	344.37
388.707	362.9
389.087	335.56
389.466	353.86
389.846	351.15
390.225	360.64
390.605	356.35
390.984	361.09
391.363	364.26
391.743	341.66
392.122	369.91
392.501	352.73
392.881	379.85
393.26	370.36
393.639	373.97
394.018	377.36
394.397	388.44
394.776	391.15
395.155	378.27
395.534	386.18
395.913	366.06
396.292	382.11
396.671	366.52
397.05	401.77
397.429	370.36
397.808	378.72
398.186	392.73
398.565	396.57
398.944	398.83
399.323	404.03
399.701	395.44
400.08	383.92
400.458	411.49
400.837	393.86
401.215	410.58
401.594	423.01
401.972	412.62
402.351	439.06
402.729	407.64
403.107	412.16
403.486	425.72
403.864	430.24
404.242	422.33
404.62	438.15
404.999	435.89
405.377	432.5
405.755	442.45
406.133	446.06
406.511	449.23
406.889	462.78
407.267	462.11
407.645	460.52
408.023	479.28
408.401	490.35
408.779	469.79
409.156	485.16
409.534	528.32
409.912	492.84
410.29	491.48
410.667	511.14
411.045	520.64
411.422	523.35
411.8	531.26
412.178	527.42
412.555	535.32
412.933	556.57
413.31	577.81
413.687	571.03
414.065	569.22
414.442	573.29
414.819	608.77
415.197	590.69
415.574	590.92
415.951	607.41
416.328	618.94
416.705	611.71
417.082	631.59
417.46	631.82
417.837	625.94
418.214	641.76
418.591	660.29
418.967	664.36
419.344	672.27
419.721	677.69
420.098	697.58
420.475	713.63
420.852	698.48
421.228	725.38
421.605	721.53
421.982	728.54
422.358	729.9
422.735	747.97
423.111	756.34
423.488	744.13
423.864	765.6
424.241	778.71
424.617	773.96
424.994	818.48
425.37	813.28
425.746	806.96
426.123	825.94
426.499	852.6
426.875	840.18
427.251	864.58
427.627	875.2
428.003	874.3
428.379	887.41
428.756	909.1
429.132	907.97
429.507	897.8
429.883	921.76
430.259	915.88
430.635	924.24
431.011	953.84
431.387	961.08
431.763	994.07
432.138	993.39
432.514	999.49
432.89	1011.47
433.265	1024.13
433.641	1073.62
434.016	1043.11
434.392	1054.63
434.767	1056.67
435.143	1086.72
435.518	1114.74
435.894	1133.95
436.269	1136.44
436.644	1150
437.02	1173.73
437.395	1168.98
437.77	1171.92
438.145	1218.02
438.52	1188.42
438.895	1225.93
439.271	1223.89
439.646	1241.97
440.021	1246.72
440.395	1239.04
440.77	1232.48
441.145	1263.44
441.52	1271.35
441.895	1265.02
442.27	1293.5
442.645	1303.67
443.019	1354.74
443.394	1331.24
443.769	1307.51
444.143	1300.73
444.518	1342.76
444.892	1351.35
445.267	1354.51
445.641	1353.16
446.016	1335.76
446.39	1371.24
446.764	1356.32
447.139	1358.35
447.513	1382.99
447.887	1394.51
448.262	1401.06
448.636	1410.33
449.01	1415.53
449.384	1414.62
449.758	1430.22
450.132	1432.7
450.506	1445.58
450.88	1431.12
451.254	1450.56
451.628	1471.8
452.002	1479.48
452.376	1484.45
452.75	1499.37
453.123	1500.5
453.497	1518.58
453.871	1492.36
454.244	1532.81
454.618	1556.54
454.992	1560.16
455.365	1601.29
455.739	1586.82
456.112	1593.83
456.486	1619.14
456.859	1643.09
457.232	1666.59
457.606	1646.03
457.979	1643.32
458.352	1704.33
458.725	1667.5
459.099	1694.39
459.472	1732.58
459.845	1708.85
460.218	1750.89
460.591	1740.94
460.964	1756.76
461.337	1778.23
461.71	1824.78
462.083	1816.2
462.456	1835.18
462.829	1803.31
463.201	1839.47
463.574	1869.53
463.947	1885.12
464.32	1908.85
464.692	1931.9
465.065	1935.06
465.438	1971.45
465.81	1968.96
466.183	1978.45
466.555	2014.61
466.928	2033.59
467.3	2009.86
467.672	2043.53
468.045	2107.26
468.417	2102.06
468.789	2086.02
469.161	2118.79
469.534	2146.13
469.906	2158.79
470.278	2172.8
470.65	2239.91
471.022	2207.15
471.394	2274.94
471.766	2280.59
472.138	2297.31
472.51	2359.91
472.882	2363.3
473.253	2395.61
473.625	2389.29
473.997	2405.78
474.369	2427.03
474.74	2453.47
475.112	2506.12
475.484	2514.48
475.855	2543.63
476.227	2544.99
476.598	2624.99
476.97	2635.38
477.341	2671.77
477.713	2680.35
478.084	2709.05
478.455	2754.02
478.827	2772.1
479.198	2855.94
479.569	2831.54
479.94	2903.85
480.311	2891.42
480.682	2969.84
481.053	3003.73
481.424	3044.19
481.795	3096.39
482.166	3082.83
482.537	3121.47
482.908	3173.22
483.279	3192.2
483.65	3238.53
484.021	3261.58
484.391	3277.17
484.762	3298.64
485.133	3364.86
485.503	3357.4
485.874	3416.15
486.244	3441.69
486.615	3534.34
486.985	3514.46
487.356	3565.53
487.726	3560.78
488.097	3621.8
488.467	3638.07
488.837	3660.44
489.207	3761.68
489.578	3742.7
489.948	3787.89
490.318	3821.34
490.688	3832.64
491.058	3845.75
491.428	3955.12
491.798	3951.05
492.168	3975.69
492.538	3987.21
492.908	4069.47
493.278	4099.52
493.648	4117.15
494.017	4142.24
494.387	4174.78
494.757	4187.21
495.126	4168.22
495.496	4211.39
495.866	4243.25
496.235	4302.91
496.605	4306.98
496.974	4317.37
497.344	4368.44
497.713	4377.03
498.082	4375
498.452	4426.97
498.821	4426.07
499.19	4429.23
499.559	4485.28
499.928	4535.9
500.298	4537.03
500.667	4531.83
501.036	4552.17
501.405	4565.73
501.774	4584.94
502.143	4574.31
502.512	4598.49
502.88	4673.3
503.249	4670.36
503.618	4685.5
503.987	4694.54
504.356	4693.18
504.724	4706.06
505.093	4738.83
505.462	4723.01
505.83	4790.35
506.199	4800.07
506.567	4821.77
506.936	4823.12
507.304	4857.7
507.672	4890.69
508.041	4902.89
508.409	4909
508.777	4974.76
509.145	4950.8
509.514	4928.43
509.882	4959.16
510.25	5005.49
510.618	4957.36
510.986	5031.93
511.354	5036.45
511.722	5069.44
512.09	5071.93
512.458	5065.38
512.826	5131.36
513.193	5132.49
513.561	5160.97
513.929	5179.72
514.297	5177.91
514.664	5252.94
515.032	5214.07
515.4	5255.2
515.767	5266.95
516.135	5235.77
516.502	5229.89
516.869	5295.65
517.237	5272.15
517.604	5323.67
517.972	5346.95
518.339	5325.93
518.706	5339.04
519.073	5333.16
519.44	5396.21
519.808	5405.48
520.175	5390.34
520.542	5461.52
520.909	5468.75
521.276	5449.77
521.643	5519.15
522.009	5513.5
522.376	5554.4
522.743	5522.31
523.11	5586.72
523.477	5639.6
523.843	5672.14
524.21	5666.26
524.577	5661.29
524.943	5700.39
525.31	5676.88
525.676	5793.49
526.043	5789.88
526.409	5768.41
526.776	5876.43
527.142	5864
527.508	5862.19
527.874	5899.03
528.241	5924.56
528.607	5940.83
528.973	5988.51
529.339	5960.27
529.705	6064.22
530.071	6129.53
530.437	6077.78
530.803	6133.14
531.169	6094.73
531.535	6154.61
531.901	6161.84
532.267	6216.31
532.632	6257.89
532.998	6241.84
533.364	6282.07
533.73	6232.35
534.095	6303.99
534.461	6359.8
534.826	6362.52
535.192	6380.82
535.557	6363.42
535.923	6347.83
536.288	6393.48
536.653	6453.59
537.019	6436.86
537.384	6404.32
537.749	6458.56
538.114	6430.09
538.479	6489.74
538.845	6538.33
539.21	6493.36
539.575	6556.64
539.94	6533.36
540.305	6582.4
540.67	6632.79
541.034	6623.53
541.399	6635.05
541.764	6645.45
542.129	6686.58
542.494	6707.59
542.858	6717.54
543.223	6760.92
543.587	6766.35
543.952	6778.32
544.316	6768.16
544.681	6777.42
545.045	6802.5
545.41	6923.18
545.774	6902.84
546.138	6897.87
546.503	6900.58
546.867	6859.23
547.231	6953.91
547.595	6957.98
547.959	6987.36
548.324	6964.31
548.688	6988.04
549.052	6996.62
549.416	7018.77
549.779	7022.16
550.143	7008.83
550.507	7061.26
550.871	7113.68
551.235	7089.28
551.599	7143.74
551.962	7139.9
552.326	7170.4
552.689	7212.66
553.053	7174.7
553.417	7113.91
553.78	7297.18
554.143	7227.8
554.507	7232.78
554.87	7250.63
555.234	7324.07
555.597	7291.53
555.96	7256.96
556.323	7307.35
556.686	7350.51
557.05	7407.91
557.413	7364.07
557.776	7453.56
558.139	7408.59
558.502	7448.36
558.865	7458.08
559.228	7443.39
559.59	7514.58
559.953	7503.5
560.316	7611.75
560.679	7650.17
561.041	7615.59
561.404	7611.52
561.767	7653.1
562.129	7716.15
562.492	7723.16
562.854	7716.83
563.217	7695.14
563.579	7688.81
563.941	7804.96
564.304	7753.44
564.666	7801.57
565.028	7879.09
565.39	7868.01
565.753	7906.66
566.115	7955.69
566.477	8001.8
566.839	7943.27
567.201	8071.62
567.563	7953.43
567.925	8096.26
568.287	8058.29
568.648	8100.1
569.01	8094.67
569.372	8184.84
569.734	8216.48
570.095	8281.11
570.457	8239.3
570.819	8223.94
571.18	8348.9
571.542	8268.68
571.903	8356.81
572.265	8385.29
572.626	8472.74
572.987	8416.02
573.349	8459.64
573.71	8592.51
574.071	8542.35
574.432	8623.02
574.794	8696.24
575.155	8720.42
575.516	8678.16
575.877	8823.02
576.238	8839.74
576.599	8878.61
576.96	8931.94
577.32	9010.36
577.681	9000.64
578.042	9081.99
578.403	9124.48
578.763	9167.41
579.124	9235.44
579.485	9346.17
579.845	9390.01
580.206	9411.48
580.566	9480.17
580.927	9603.34
581.287	9666.38
581.648	9691.02
582.008	9787.96
582.368	9904.12
582.728	10035.64
583.089	10152.02
583.449	10175.52
583.809	10214.17
584.169	10396.08
584.529	10403.09
584.889	10574.61
585.249	10698.67
585.609	10685.34
585.969	10928.5
586.329	10960.36
586.688	11031.55
587.048	11196.29
587.408	11267.7
587.768	11404.19
588.127	11536.62
588.487	11685.31
588.846	11821.13
589.206	11843.73
589.565	12067.23
589.925	12248.92
590.284	12308.8
590.643	12397.16
591.003	12597.83
591.362	12789.47
591.721	12916.69
592.08	13069.46
592.44	13158.27
592.799	13310.13
593.158	13408.21
593.517	13584.02
593.876	13733.4
594.235	13856.78
594.593	13961.19
594.952	14144.91
595.311	14116.21
595.67	14374.06
596.029	14523.88
596.387	14684.33
596.746	14790.77
597.104	14879.35
597.463	14955.06
597.822	15179.01
598.18	15241.6
598.538	15330.64
598.897	15595.95
599.255	15559.56
599.613	15990.74
599.972	15866.45
600.33	16100.79
600.688	16189.6
601.046	16322.48
601.404	16476.83
601.762	16487
602.12	16764.5
602.478	16826.42
602.836	16957.04
603.194	16967.21
603.552	17166.3
603.91	17235
604.268	17254.21
604.625	17279.07
604.983	17449.68
605.341	17569.68
605.698	17618.04
606.056	17744.82
606.413	17834.98
606.771	17936
607.128	17992.04
607.485	18073.85
607.843	18145.26
608.2	18302.54
608.557	18400.39
608.914	18396.78
609.272	18578.01
609.629	18697.79
609.986	18737.56
610.343	18752.7
610.7	18927.84
611.057	18973.26
611.414	18999.25
611.771	19099.58
612.127	19198.56
612.484	19277.43
612.841	19504.09
613.198	19340.93
613.554	19357.2
613.911	19566.46
614.267	19572.34
614.624	19663.41
614.98	19736.4
615.337	19899.34
615.693	19944.31
616.05	19981.37
616.406	19987.02
616.762	20008.71
617.118	20034.47
617.475	20153.11
617.831	20179.78
618.187	20327.8
618.543	20323.05
618.899	20409.6
619.255	20427.68
619.611	20514.23
619.967	20530.73
620.323	20530.28
620.678	20669.71
621.034	20610.05
621.39	20546.1
621.746	20621.35
622.101	20911.06
622.457	20699.77
622.812	20761.01
623.168	21005.3
623.523	20921.23
623.879	20850.04
624.234	20868.12
624.589	20852.08
624.945	21024.73
625.3	21074.9
625.655	21015.69
626.01	21064.28
626.365	21152.86
626.72	21090.72
627.075	21102.24
627.43	21036.71
627.785	21123.94
628.14	21167.78
628.495	21147.89
628.85	21173.88
629.205	21111.73
629.559	21274.89
629.914	21101.79
630.269	21135.24
630.623	21171.39
630.978	21182.92
631.332	21279.41
631.687	21139.3
632.041	21115.12
632.396	21281.22
632.75	21076.25
633.104	21075.8
633.459	20984.28
633.813	21057.27
634.167	21069.02
634.521	21033.09
634.875	21146.08
635.229	21054.33
635.583	21016.14
635.937	20950.38
636.291	20919.65
636.645	20926.2
636.999	20977.5
637.352	21010.04
637.706	20885.52
638.06	20903.83
638.413	20879.42
638.767	20827.67
639.121	20857.28
639.474	20781.8
639.828	20837.84
640.181	20850.95
640.534	20849.37
640.888	20822.02
641.241	20779.54
641.594	20761.46
641.947	20881.23
642.301	20834.68
642.654	20848.01
643.007	20690.28
643.36	20730.95
643.713	20798.97
644.066	20888.91
644.419	20720.33
644.771	20616.83
645.124	20372.32
645.477	20312.66
645.83	20293.22
646.182	20126.9
646.535	20219.55
646.888	20251.19
647.24	20187.01
647.593	20207.58
647.945	20190.63
648.298	20127.58
648.65	20057.3
649.002	20091.65
649.355	20204.86
649.707	20137.3
650.059	20282.38
650.411	20386.1
650.763	20516.72
651.115	20839.88
651.467	20741.35
651.819	20680.78
652.171	20718.3
652.523	20573.89
652.875	20608.7
653.227	20483.95
653.578	20712.65
653.93	20581.58
654.282	20493.44
654.633	20516.49
654.985	20563.5
655.337	20585.87
655.688	20629.94
656.039	20625.64
656.391	20632.42
656.742	20651.18
657.094	20579.77
657.445	20642.59
657.796	20655.7
658.147	20543.61
658.498	20671.29
658.849	20587.23
659.2	20634.01
659.551	20633.1
659.902	20676.04
660.253	20562.82
660.604	20631.97
660.955	20565.08
661.306	20756.94
661.656	20670.16
662.007	20794.45
662.358	20631.75
662.708	20656.6
663.059	20692.08
663.409	20609.6
663.76	20650.05
664.11	20722.14
664.461	20799.42
664.811	20689.37
665.161	20718.75
665.511	20754.23
665.862	20714.91
666.212	20722.82
666.562	20764.85
666.912	20725.75
667.262	20713.33
667.612	20682.14
667.962	20663.61
668.312	20663.16
668.662	20695.25
669.011	20624.29
669.361	20643.27
669.711	20688.47
670.06	20552.65
670.41	20591.07
670.76	20582.71
671.109	20681.01
671.459	20592.65
671.808	20513.1
672.157	20619.09
672.507	20521.01
672.856	20473.33
673.205	20496.16
673.554	20573.22
673.904	20498.42
674.253	20577.74
674.602	20638.98
674.951	20253.9
675.3	20185.66
675.649	20561.01
675.998	20460.45
676.346	20468.13
676.695	20522.37
677.044	20219.55
677.393	20364.63
677.741	20455.25
678.09	20362.15
678.438	20281.02
678.787	20360.57
679.135	20247.35
679.484	20279.66
679.832	20303.62
680.181	20211.64
680.529	20219.1
680.877	20118.76
681.225	20203.96
681.573	20227.01
681.922	20015.49
682.27	20050.74
682.618	19971.42
682.966	19939.56
683.314	19983.4
683.661	19998.09
684.009	19747.7
684.357	19857.75
684.705	19705.67
685.053	19720.58
685.4	19717.19
685.748	19640.36
686.095	19658.66
686.443	19534.6
686.79	19584.09
687.138	19561.04
687.485	19563.75
687.832	19490.08
688.18	19420.48
688.527	19293.48
688.874	19300.71
689.221	19270.65
689.568	19126.93
689.915	19178.68
690.262	19144.1
690.609	19141.16
690.956	19054.84
691.303	18992.92
691.65	18895.52
691.997	18870.89
692.344	18825.24
692.69	18771
693.037	18705.47
693.383	18551.57
693.73	18626.37
694.077	18538.69
694.423	18467.06
694.769	18410.79
695.116	18352.71
695.462	18425.7
695.808	18299.6
696.155	18271.58
696.501	18264.8
696.847	18152.04
697.193	18022.77
697.539	18113.85
697.885	18043.34
698.231	17918.82
698.577	17893.74
698.923	17780.97
699.269	17752.5
699.614	17648.77
699.96	17544.37
700.306	17586.63
700.651	17441.32
700.997	17379.18
701.342	17352.28
701.688	17382.57
702.033	17304.83
702.379	17251.5
702.724	17165.4
703.069	17197.49
703.415	16957.27
703.76	16983.25
704.105	17070.71
704.45	16992.75
704.795	16826.87
705.14	16829.81
705.485	16680.44
705.83	16668.91
706.175	16700.55
706.52	16682.24
706.865	16527.45
707.209	16582.13
707.554	16557.05
707.899	16550.95
708.243	16464.17
708.588	16355.47
708.932	16258.75
709.277	16355.7
709.621	16285.42
709.966	16116.16
710.31	16167.46
710.654	15989.38
710.998	16056.05
711.342	16084.07
711.687	15950.96
712.031	15890.85
712.375	15861.7
712.719	15931.76
713.063	15833.68
713.407	15963.17
713.75	15858.99
714.094	15774.92
714.438	15672.33
714.782	15651.09
715.125	15601.82
715.469	15593.69
715.812	15493.8
716.156	15482.5
716.499	15513.01
716.843	15507.81
717.186	15402.05
717.53	15535.61
717.873	15511.2
718.216	15453.12
718.559	15444.99
718.902	15235.5
719.246	15310.3
719.589	15254.94
719.932	15126.35
720.275	15301.94
720.617	15218.78
720.96	15274.37
721.303	15135.39
721.646	15237.54
721.989	15136.07
722.331	15221.27
722.674	15131.33
723.016	15070.76
723.359	15148.5
723.701	15165.22
724.044	14972.46
724.386	14965
724.729	14954.61
725.071	14979.46
725.413	14962.97
725.755	14959.58
726.097	14980.59
726.439	14917.09
726.782	14805.46
727.124	14873.03
727.465	14876.19
727.807	14907.38
728.149	14779.7
728.491	14820.15
728.833	14848.17
729.175	14791.22
729.516	14783.76
729.858	14689.3
730.199	14773.82
730.541	14733.37
730.882	14726.82
731.224	14755.29
731.565	14685.91
731.906	14691.11
732.248	14703.31
732.589	14640.26
732.93	14623.99
733.271	14701.96
733.612	14731.11
733.953	14597.78
734.294	14667.16
734.635	14625.58
734.976	14646.14
735.317	14517.33
735.658	14584.67
735.999	14566.82
736.339	14607.5
736.68	14688.17
737.021	14550.78
737.361	14497.9
737.702	14697.21
738.042	14646.14
738.383	14655.41
738.723	14674.84
739.063	14560.94
739.404	14647.27
739.744	14634.62
740.084	14570.89
740.424	14623.99
740.764	14576.31
741.104	14681.62
741.444	14635.07
741.784	14621.51
742.124	14699.47
742.464	14697.89
742.804	14633.94
743.143	14656.08
743.483	14724.33
743.823	14668.74
744.162	14673.94
744.502	14812.01
744.841	14778.11
745.181	14874.61
745.52	14887.26
745.86	14913.7
746.199	14928.62
746.538	14972.91
746.877	14960.48
747.216	15080.71
747.556	15038.22
747.895	15121.16
748.234	15180.59
748.573	15182.85
748.911	15224.2
749.25	15308.04
749.589	15390.53
749.928	15428.27
750.267	15536.51
750.605	15562.05
750.944	15588.04
751.283	15616.74
751.621	15666.68
751.96	15713
752.298	15876.16
752.636	15920.46
752.975	16022.83
753.313	16039.32
753.651	16268.7
753.989	16228.92
754.327	16266.44
754.666	16384.85
755.004	16515.02
755.342	16666.88
755.679	16725.41
756.017	16730.38
756.355	16918.4
756.693	16986.64
757.031	17095.79
757.368	17097.15
757.706	17239.97
758.044	17325.84
758.381	17433.86
758.719	17520.64
759.056	17760.63
759.394	17738.49
759.731	17673.18
760.068	17897.58
760.405	17951.36
760.743	18103.9
761.08	18302.54
761.417	18347.51
761.754	18428.64
762.091	18471.8
762.428	18521.07
762.765	18550.44
763.102	18677.67
763.438	18819.59
763.775	18865.69
764.112	18949.53
764.449	19103.88
764.785	18992.69
765.122	19043.76
765.458	19070.66
765.795	19221.16
766.131	19284.89
766.467	19386.13
766.804	19231.1
767.14	19339.8
767.476	19529.85
767.812	19398.33
768.148	19642.39
768.485	19539.8
768.821	19440.14
769.157	19590.64
769.492	19674.71
769.828	19584.54
770.164	19594.26
770.5	19620.02
770.836	19700.02
771.171	19744.31
771.507	19674.26
771.842	19530.31
772.178	19708.83
772.513	19765.1
772.849	19653.92
773.184	19669.74
773.519	19700.47
773.855	19613.47
774.19	19583.64
774.525	19560.36
774.86	19677.65
775.195	19703.41
775.53	19657.99
775.865	19466.58
776.2	19366.47
776.535	19356.07
776.87	19426.13
777.205	19446.01
777.539	19303.42
777.874	19459.35
778.209	19322.63
778.543	19286.7
778.878	19242.4
779.212	19327.15
779.547	19163.08
779.881	19217.55
780.215	19147.26
780.55	19259.35
780.884	19134.38
781.218	19102.97
781.552	18992.24
781.886	18946.37
782.22	18898.01
782.554	18875.41
782.888	18751.12
783.222	18703.66
783.556	18620.27
783.889	18619.14
784.223	18439.03
784.557	18532.82
784.89	18561.07
785.224	18512.25
785.557	18398.58
785.891	18431.13
786.224	18393.16
786.558	18322.2
786.891	18145.26
787.224	18115.65
787.557	18126.05
787.891	18051.47
788.224	18110.68
788.557	18038.37
788.89	18013.06
789.223	18075.43
789.556	17887.19
789.888	17869.56
790.221	17851.25
790.554	17669.11
790.887	17648.1
791.219	17560.19
791.552	17577.14
791.884	17458.72
792.217	17387.76
792.549	17398.84
792.882	17293.53
793.214	17195.23
793.546	17252.17
793.879	17145.28
794.211	17041.56
794.543	17226.64
794.875	17062.57
795.207	17161.78
795.539	16991.16
795.871	16920.66
796.203	16865.07
796.535	16763.37
796.867	16744.62
797.198	16726.09
797.53	16664.84
797.862	16567.45
798.193	16609.25
798.525	16424.4
798.856	16512.31
799.188	16359.32
799.519	16288.58
799.85	16207.23
800.182	16190.51
800.513	16269.83
800.844	16120.45
801.175	16263.95
801.506	16095.37
801.837	16147.12
802.168	15948.93
802.499	15947.58
802.83	15939.44
803.161	15846.79
803.491	15876.84
803.822	15907.35
804.153	15816.73
804.483	15621.93
804.814	15542.61
805.145	15598.21
805.475	15627.81
805.805	15505.55
806.136	15570.64
806.466	15469.4
806.796	15415.39
807.126	15394.37
807.457	15276.18
807.787	15366.57
808.117	15240.25
808.447	15234.15
808.777	15229.85
809.107	15190.08
809.436	15086.58
809.766	15114.15
810.096	14968.84
810.426	14924.78
810.755	14985.57
811.085	14840.26
811.414	14960.26
811.744	14769.75
812.073	14791.45
812.403	14809.75
812.732	14794.61
813.061	14707.38
813.39	14611.11
813.719	14636.65
814.049	14652.92
814.378	14619.7
814.707	14554.39
815.036	14447.05
815.365	14383.32
815.693	14344.91
816.022	14357.33
816.351	14300.61
816.68	14250.67
817.008	14325.47
817.337	14199.15
817.665	14128.87
817.994	14187.4
818.322	14183.78
818.651	14069.88
818.979	13962.77
819.307	14072.37
819.636	14050.68
819.964	13960.73
820.292	13943.56
820.62	14032.82
820.948	13906.72
821.276	13958.25
821.604	13949.44
821.932	13941.75
822.259	13993.05
822.587	13922.32
822.915	13894.52
823.243	13900.85
823.57	13831.92
823.898	13825.82
824.225	13822.21
824.553	13857.01
824.88	13853.84
825.207	13945.59
825.535	13877.57
825.862	13890.45
826.189	13812.94
826.516	13985.37
826.843	13926.61
827.17	13941.07
827.497	13913.28
827.824	13948.76
828.151	13856.56
828.478	13886.84
828.805	13903.11
829.131	13855.2
829.458	13864.47
829.785	13831.92
830.111	13859.27
830.438	13861.3
830.764	13864.92
831.09	13869.89
831.417	13728.88
831.743	13857.46
832.069	13868.99
832.395	13771.81
832.722	13763.45
833.048	13705.83
833.374	13701.08
833.7	13671.7
834.026	13759.61
834.351	13700.63
834.677	13720.51
835.003	13661.99
835.329	13660.18
835.654	13674.41
835.98	13661.99
836.306	13724.81
836.631	13584.02
836.956	13600.29
837.282	13649.78
837.607	13625.38
837.932	13526.4
838.258	13513.51
838.583	13530.92
838.908	13441.2
839.233	13406.62
839.558	13370.92
839.883	13366.85
840.208	13343.35
840.533	13369.34
840.858	13333.41
841.182	13339.28
841.507	13336.12
841.832	13159.4
842.156	13214.09
842.481	13199.4
842.805	13150.36
843.13	13172.51
843.454	13116.46
843.778	13071.72
844.103	12994.21
844.427	13005.73
844.751	12984.72
845.075	12932.74
845.399	12920.54
845.723	12860.2
846.047	12826.98
846.371	12726.64
846.695	12746.76
847.019	12655.23
847.343	12608.45
847.666	12562.58
847.99	12479.19
848.313	12501.34
848.637	12398.52
848.96	12381.57
849.284	12352.19
849.607	12278.74
849.931	12184.06
850.254	12149.26
850.577	12063.61
850.9	12075.13
851.223	12021.58
851.546	11948.58
851.869	11807.8
852.192	11964.85
852.515	11777.06
852.838	11720.12
853.161	11761.47
853.483	11692.32
853.806	11688.25
854.129	11580.23
854.451	11644.19
854.774	11521.7
855.096	11566.9
855.419	11439.67
855.741	11420.69
856.063	11400.35
856.385	11427.47
856.708	11375.49
857.03	11294.59
857.352	11275.61
857.674	11219.56
857.996	11178.89
858.318	11142.05
858.64	11157.87
858.961	11101.83
859.283	11111.32
859.605	10991.55
859.926	11096.63
860.248	10947.93
860.57	10982.51
860.891	10963.07
861.212	10886.01
861.534	10853.7
861.855	10850.99
862.176	10829.74
862.498	10836.52
862.819	10803.53
863.14	10813.92
863.461	10693.48
863.782	10686.7
864.103	10766.24
864.424	10686.7
864.745	10700.26
865.065	10648.73
865.386	10682.4
865.707	10599.24
866.027	10597.43
866.348	10578.22
866.668	10561.95
866.989	10530.54
867.309	10470.43
867.63	10565.57
867.95	10472.69
868.27	10370.32
868.59	10491
868.91	10401.96
869.23	10409.42
869.55	10359.02
869.87	10431.34
870.19	10354.95
870.51	10384.11
870.83	10290.55
871.15	10327.16
871.469	10298.46
871.789	10235.63
872.109	10308.85
872.428	10187.05
872.748	10300.94
873.067	10183.88
873.386	10265.69
873.706	10161.74
874.025	10150.21
874.344	10183.88
874.663	10119.03
874.982	10114.51
875.301	10131
875.62	10063.44
875.939	10036.09
876.258	10086.26
876.577	10002.42
876.896	10027.28
877.214	10029.31
877.533	9980.5
877.852	9994.51
878.17	9983.66
878.489	9885.59
878.807	9934.85
879.125	9950.67
879.444	9850.79
879.762	9860.28
880.08	9879.71
880.398	9776.89
880.716	9822.09
881.034	9845.81
881.352	9746.16
881.67	9710.68
881.988	9772.37
882.306	9680.62
882.624	9707.74
882.941	9634.29
883.259	9660.73
883.577	9601.98
883.894	9568.76
884.212	9589.32
884.529	9503.22
884.846	9560.62
885.164	9536.9
885.481	9403.11
885.798	9459.61
886.115	9404.47
886.432	9404.92
886.75	9403.11
887.067	9385.49
887.383	9350.01
887.7	9336.45
888.017	9264.81
888.334	9332.16
888.651	9260.07
888.967	9215.32
889.284	9173.97
889.6	9144.82
889.917	9115.44
890.233	9101.2
890.55	9074.08
890.866	9063.69
891.182	9052.39
891.498	9022.33
891.815	8984.14
892.131	8966.06
892.447	8918.38
892.763	8968.1
893.079	8877.93
893.395	8926.74
893.71	8882
894.026	8850.36
894.342	8774.66
894.657	8747.54
894.973	8773.53
895.289	8690.14
895.604	8745.5
895.92	8616.02
896.235	8599.97
896.55	8590.93
896.865	8574.21
897.181	8525.4
897.496	8539.18
897.811	8503.93
898.126	8444.5
898.441	8362.01
898.756	8396.14
899.071	8364.5
899.386	8295.8
899.7	8263.03
900.015	8241.56
900.33	8166.31
900.644	8069.59
900.959	8156.59
901.273	8129.7
901.588	8097.61
901.902	8066.2
902.216	8014.68
902.531	8007.67
902.845	7926.77
903.159	7982.81
903.473	7865.53
903.787	7903.72
904.101	7861.01
904.415	7809.71
904.729	7792.08
905.042	7796.83
905.356	7764.74
905.67	7699.43
905.984	7738.07
906.297	7686.32
906.611	7664.18
906.924	7594.35
907.237	7605.42
907.551	7543.73
907.864	7571.75
908.177	7495.82
908.491	7456.05
908.804	7426.67
909.117	7388.48
909.43	7345.77
909.743	7341.93
910.056	7299.89
910.368	7339.67
910.681	7293.79
910.994	7173.79
911.307	7223.06
911.619	7164.08
911.932	7142.38
912.244	7102.84
912.557	7147.81
912.869	7056.51
913.181	7038.66
913.494	7023.97
913.806	6975.16
914.118	6934.03
914.43	6912.56
914.742	6924.54
915.054	6806.8
915.366	6905.1
915.678	6799.79
915.99	6818.1
916.302	6722.05
916.613	6715.05
916.925	6693.58
917.236	6663.53
917.548	6661.72
917.859	6604.54
918.171	6566.13
918.482	6570.65
918.794	6550.53
919.105	6556.18
919.416	6450.42
919.727	6431.89
920.038	6461.27
920.349	6375.4
920.66	6300.82
920.971	6326.36
921.282	6310.54
921.593	6281.39
921.903	6223.76
922.214	6229.19
922.525	6186.93
922.835	6154.39
923.146	6136.76
923.456	6141.05
923.767	6021.73
924.077	6122.52
924.387	6046.37
924.697	5999.36
925.008	5997.78
925.318	5965.69
925.628	6010.44
925.938	5946.03
926.248	5865.13
926.558	5829.2
926.867	5853.38
927.177	5814.06
927.487	5803.66
927.796	5780.38
928.106	5728.86
928.416	5696.55
928.725	5671.24
929.034	5656.77
929.344	5708.75
929.653	5633.95
929.962	5573.38
930.271	5559.83
930.581	5535.42
930.89	5505.14
931.199	5471.24
931.508	5493.84
931.817	5505.36
932.125	5429.66
932.434	5470.79
932.743	5398.02
933.051	5350.57
933.36	5386.04
933.669	5309.66
933.977	5289.32
934.286	5254.75
934.594	5288.19
934.902	5250.23
935.21	5254.52
935.519	5216.33
935.827	5182.89
936.135	5137.46
936.443	5127.29
936.751	5065.38
937.059	5053.17
937.367	5045.26
937.674	5038.48
937.982	5046.17
938.29	4996
938.597	4970.46
938.905	4911.48
939.213	4930.01
939.52	4876.45
939.827	4922.33
940.135	4861.09
940.442	4813.18
940.749	4830.35
941.056	4860.18
941.363	4789.22
941.67	4797.36
941.977	4749
942.284	4713.52
942.591	4708.1
942.898	4648.89
943.205	4674.65
943.511	4606.86
943.818	4654.99
944.125	4576.8
944.431	4620.19
944.738	4542
945.044	4534.09
945.35	4527.08
945.657	4538.61
945.963	4486.18
946.269	4465.39
946.575	4460.87
946.881	4451.15
947.187	4425.17
947.493	4411.38
947.799	4346.98
948.105	4349.24
948.41	4290.93
948.716	4335.68
949.022	4278.5
949.327	4269.01
949.633	4232.4
949.938	4243.93
950.244	4236.7
950.549	4180.43
950.854	4176.81
951.16	4137.94
951.465	4157.15
951.77	4118.06
952.075	4080.32
952.38	4100.43
952.685	4050.49
952.99	4030.37
953.294	3992.18
953.599	4028.57
953.904	3987.21
954.209	4007.32
954.513	3996.02
954.818	3916.25
955.122	3952.64
955.426	3898.63
955.731	3860.89
956.035	3887.1
956.339	3894.78
956.643	3832.87
956.948	3794.45
957.252	3782.47
957.556	3811.62
957.86	3743.83
958.163	3771.85
958.467	3779.31
958.771	3735.24
959.075	3712.19
959.378	3704.51
959.682	3688.24
959.985	3696.82
960.289	3637.62
960.592	3639.42
960.896	3653.44
961.199	3596.26
961.502	3590.84
961.805	3604.4
962.108	3556.71
962.411	3533.66
962.714	3509.48
963.017	3502.93
963.32	3499.54
963.623	3496.83
963.926	3469.03
964.228	3440.79
964.531	3433.1
964.833	3467.68
965.136	3408.92
965.438	3440.33
965.741	3375.7
966.043	3379.54
966.345	3336.38
966.648	3381.13
966.95	3355.36
967.252	3296.61
967.554	3301.58
967.856	3293.67
968.158	3266.55
968.46	3257.06
968.761	3247.12
969.063	3249.83
969.365	3210.28
969.666	3197.63
969.968	3182.49
970.269	3196.72
970.571	3166.44
970.872	3167.8
971.174	3070.63
971.475	3109.95
971.776	3086.22
972.077	3090.06
972.378	3059.55
972.679	3062.04
972.98	3001.02
973.281	3072.89
973.582	3039.21
973.883	3034.92
974.183	3010.97
974.484	3006.67
974.785	2956.05
975.085	2972.32
975.386	2911.53
975.686	2907.01
975.986	2937.07
976.287	2921.25
976.587	2872.21
976.887	2887.13
977.187	2860.91
977.487	2813.68
977.787	2816.17
978.087	2842.38
978.387	2791.08
978.687	2797.19
978.987	2779.33
979.286	2751.76
979.586	2720.8
979.885	2774.36
980.185	2756.74
980.484	2719
980.784	2691.43
981.083	2720.8
981.382	2686.23
981.682	2699.34
981.981	2667.25
982.28	2662.27
982.579	2617.76
982.878	2620.24
983.177	2628.6
983.475	2590.41
983.774	2591.77
984.073	2570.98
984.372	2577.08
984.67	2575.72
984.969	2546.35
985.267	2522.39
985.566	2514.03
985.864	2523.3
986.162	2513.8
986.461	2488.49
986.759	2520.13
987.057	2491.21
987.355	2457.99
987.653	2434.48
987.951	2427.7
988.249	2410.08
988.547	2432.68
988.844	2434.71
989.142	2406.46
989.44	2393.13
989.737	2358.55
990.035	2334.6
990.332	2328.5
990.63	2345.9
990.927	2326.01
991.224	2304.32
991.521	2308.84
991.819	2281.95
992.116	2288.95
992.413	2293.24
992.71	2256.64
993.006	2247.37
993.303	2241.27
993.6	2236.75
993.897	2197.65
994.193	2239.69
994.49	2211.21
994.787	2196.07
995.083	2181.16
995.379	2187.26
995.676	2160.37
995.972	2176.41
996.268	2131.22
996.565	2144.55
996.861	2090.31
997.157	2082.63
997.453	2127.83
997.749	2102.74
998.044	2045.57
998.34	2049.41
998.636	2055.51
998.932	2062.06
999.227	2018.9
999.523	2036.53
999.818	2022.07
1000.114	1978.22
1000.409	1971.9
1000.704	1995.63
1001	1966.7
1001.295	1960.37
1001.59	1963.54
1001.885	1923.99
1002.18	1914.5
1002.475	1892.13
1002.77	1909.53
1003.065	1908.62
1003.359	1884.44
1003.654	1863.2
1003.949	1874.27
1004.243	1850.54
1004.538	1863.88
1004.832	1795.4
1005.127	1815.29
1005.421	1832.92
1005.715	1795.86
1006.009	1799.25
1006.304	1794.95
1006.598	1770.77
1006.892	1742.75
1007.186	1750.66
1007.48	1735.75
1007.773	1766.03
1008.067	1723.32
1008.361	1714.95
1008.655	1705.92
1008.948	1695.29
1009.242	1670.89
1009.535	1651.91
1009.829	1677.67
1010.122	1656.2
1010.415	1621.17
1010.708	1620.72
1011.001	1631.34
1011.295	1612.36
1011.588	1614.84
1011.881	1592.92
1012.173	1593.15
1012.466	1589.76
1012.759	1574.17
1013.052	1579.82
1013.344	1560.16
1013.637	1529.42
1013.93	1526.94
1014.222	1528.75
1014.514	1509.76
1014.807	1497.79
1015.099	1495.98
1015.391	1513.15
1015.683	1472.7
1015.976	1504.79
1016.268	1485.13
1016.56	1474.06
1016.851	1433.61
1017.143	1423.66
1017.435	1442.65
1017.727	1437.9
1018.018	1428.63
1018.31	1418.69
1018.602	1418.47
1018.893	1396.32
1019.185	1391.8
1019.476	1368.75
1019.767	1366.49
1020.058	1340.05
1020.35	1348.18
1020.641	1336.66
1020.932	1334.4
1021.223	1293.72
1021.514	1318.13
1021.804	1307.73
1022.095	1311.8
1022.386	1281.97
1022.677	1253.72
1022.967	1279.49
1023.258	1263.89
1023.548	1262.31
1023.839	1270.67
1024.129	1217.34
1024.419	1218.92
1024.709	1242.42
1025	1222.09
1025.29	1211.47
1025.58	1191.58
1025.87	1213.05
1026.16	1194.97
1026.449	1154.52
1026.739	1176.66
1027.029	1176.89
1027.319	1142.77
1027.608	1142.77
1027.898	1137.57
1028.187	1129.43
1028.477	1131.24
1028.766	1121.3
1029.055	1087.63
1029.344	1109.77
1029.634	1114.07
1029.923	1091.47
1030.212	1104.8
1030.501	1078.81
1030.79	1065.25
1031.078	1041.53
1031.367	1065.93
1031.656	1049.66
1031.945	1025.26
1032.233	1040.85
1032.522	1013.5
1032.81	1011.02
1033.099	1011.7
1033.387	1007.85
1033.675	1016.44
1033.963	995.2
1034.251	997.91
1034.54	990
1034.828	975.99
1035.116	975.31
1035.403	989.55
1035.691	930.34
1035.979	955.43
1036.267	944.35
1036.554	925.6
1036.842	923.79
1037.129	945.03
1037.417	918.37
1037.704	931.25
1037.992	922.66
1038.279	901.19
1038.566	879.27
1038.853	879.27
1039.14	879.27
