Data from hue_130_FLMS001491_00060.txt Node
Date: Tue Feb 07 16:57:49 GMT 2017
User: dcchb
Spectrometer: FLMS00149
Trigger mode: 0
Integration Time (sec): 2.000000E-2
Scans to average: 10
Electric dark correction enabled: true
Nonlinearity correction enabled: false
Boxcar width: 0
XAxis mode: Wavelengths
Number of Pixels in Spectrum: 2048
>>>>>Begin Spectral Data<<<<<
341.393	-22.19
341.776	-22.19
342.16	-22.19
342.543	-62.87
342.927	-76.65
343.31	-67.16
343.693	-75.75
344.077	-59.48
344.46	-68.06
344.843	-42.3
345.226	-42.3
345.61	-7.5
345.993	-37.1
346.376	-6.82
346.759	1.99
347.142	32.27
347.525	46.06
347.908	47.41
348.291	67.3
348.674	104.81
349.057	106.62
349.44	144.59
349.823	153.85
350.206	155.43
350.588	217.35
350.971	215.32
351.354	233.62
351.737	234.98
352.119	254.87
352.502	268.2
352.884	276.33
353.267	272.27
353.65	272.27
354.032	308.88
354.414	300.97
354.797	307.75
355.179	318.82
355.562	319.05
355.944	327.86
356.326	347.97
356.709	325.82
357.091	328.31
357.473	334.64
357.855	338.71
358.238	333.51
358.62	336.45
359.002	325.15
359.384	331.02
359.766	353.17
360.148	332.83
360.53	340.74
360.912	336.67
361.294	338.48
361.676	330.8
362.057	330.12
362.439	341.87
362.821	334.86
363.203	319.05
363.584	344.13
363.966	342.32
364.348	324.47
364.729	305.49
365.111	304.81
365.493	326.05
365.874	324.92
366.256	303.68
366.637	316.33
367.019	325.6
367.4	296.22
367.781	332.6
368.163	307.97
368.544	335.09
368.925	321.31
369.306	309.55
369.688	319.95
370.069	313.85
370.45	305.03
370.831	305.49
371.212	324.69
371.593	314.53
371.974	311.14
372.355	322.66
372.736	307.97
373.117	327.18
373.498	324.24
373.879	312.27
374.26	303
374.641	313.17
375.021	325.82
375.402	320.85
375.783	342.1
376.163	350.91
376.544	302.55
376.925	349.55
377.305	328.76
377.686	329.89
378.066	335.32
378.447	334.41
378.827	332.83
379.208	348.2
379.588	345.94
379.968	344.58
380.349	338.03
380.729	330.34
381.109	321.76
381.489	331.7
381.87	346.62
382.25	355.65
382.63	338.48
383.01	364.24
383.39	348.65
383.77	345.26
384.15	364.47
384.53	366.5
384.91	359.72
385.29	359.72
385.67	360.4
386.049	371.02
386.429	370.12
386.809	369.21
387.189	373.73
387.568	358.82
387.948	361.53
388.328	370.34
388.707	373.73
389.087	356.11
389.466	356.56
389.846	370.8
390.225	384.81
390.605	365.37
390.984	369.44
391.363	367.63
391.743	389.1
392.122	371.25
392.501	384.58
392.881	396.78
393.26	397.01
393.639	386.39
394.018	371.02
394.397	404.24
394.776	393.39
395.155	398.14
395.534	409.66
395.913	398.37
396.292	415.54
396.671	403.11
397.05	388.87
397.429	392.04
397.808	422.55
398.186	387.29
398.565	409.89
398.944	406.27
399.323	412.83
399.701	422.32
400.08	412.15
400.458	401.98
400.837	419.83
401.215	393.85
401.594	418.25
401.972	429.1
402.351	425.94
402.729	425.03
403.107	412.6
403.486	434.97
403.864	432.26
404.242	439.95
404.62	437.01
404.999	443.34
405.377	440.85
405.755	430.45
406.133	436.33
406.511	451.02
406.889	445.6
407.267	462.09
407.645	430.23
408.023	455.99
408.401	440.4
408.779	465.26
409.156	462.32
409.534	459.15
409.912	458.02
410.29	462.32
410.667	465.71
411.045	492.83
411.422	474.97
411.8	477.46
412.178	498.7
412.555	490.79
412.933	480.4
413.31	497.57
413.687	502.32
414.065	503.9
414.442	505.26
414.819	515.2
415.197	502.09
415.574	524.92
415.951	526.27
416.328	526.72
416.705	519.49
417.082	520.62
417.46	528.98
417.837	515.2
418.214	534.41
418.591	563.33
418.967	555.42
419.344	535.76
419.721	557.01
420.098	562.88
420.475	519.04
420.852	572.82
421.228	550.9
421.605	568.53
421.982	547.29
422.358	556.1
422.735	588.19
423.111	588.42
423.488	573.28
423.864	597
424.241	586.61
424.617	582.09
424.994	584.58
425.37	609.66
425.746	624.35
426.123	605.14
426.499	611.02
426.875	611.24
427.251	614.4
427.627	608.53
428.003	648.75
428.379	637.68
428.756	655.53
429.132	643.78
429.507	681.07
429.883	674.74
430.259	675.65
430.635	678.36
431.011	688.3
431.387	687.62
431.763	692.14
432.138	685.14
432.514	693.95
432.89	699.6
433.265	713.16
433.641	755.87
434.016	724.91
434.392	732.14
434.767	743.21
435.143	735.08
435.518	749.32
435.894	757
436.269	759.94
436.644	749.77
437.02	769.88
437.395	780.73
437.77	800.61
438.145	804.46
438.52	793.16
438.895	822.76
439.271	822.76
439.646	815.3
440.021	818.47
440.395	815.53
440.77	875.19
441.145	837.9
441.52	835.87
441.895	844.46
442.27	850.33
442.645	857.11
443.019	864.79
443.394	873.61
443.769	903.21
444.143	871.35
444.518	892.82
444.892	881.06
445.267	902.08
445.641	929.88
446.016	899.37
446.39	899.82
446.764	917
447.139	891.46
447.513	941.85
447.887	933.49
448.262	944.11
448.636	967.84
449.01	957.22
449.384	949.76
449.758	981.85
450.132	968.29
450.506	992.02
450.88	991.8
451.254	986.37
451.628	1023.66
452.002	1016.65
452.376	1048.07
452.75	1050.33
453.123	1030.66
453.497	1047.39
453.871	1039.7
454.244	1099.59
454.618	1108.4
454.992	1091
455.365	1117.67
455.739	1126.48
456.112	1116.76
456.486	1144.79
456.859	1128.06
457.232	1189.08
457.606	1172.36
457.979	1177.1
458.352	1191.79
458.725	1232.92
459.099	1260.26
459.472	1252.58
459.845	1258.91
460.218	1266.14
460.591	1262.75
460.964	1289.64
461.337	1324.89
461.71	1336.87
462.083	1375.74
462.456	1397.89
462.829	1408.06
463.201	1408.73
463.574	1411.67
463.947	1427.94
464.32	1490.31
464.692	1477.66
465.065	1474.27
465.438	1526.47
465.81	1550.88
466.183	1532.57
466.555	1592.46
466.928	1620.93
467.3	1611.89
467.672	1668.61
468.045	1680.82
468.417	1704.09
468.789	1730.53
469.161	1753.36
469.534	1774.15
469.906	1796.29
470.278	1834.94
470.65	1877.87
471.022	1905.44
471.394	1942.73
471.766	1985.89
472.138	1995.16
472.51	2042.84
472.882	2135.72
473.253	2140.01
473.625	2190.86
473.997	2246.9
474.369	2236.96
474.74	2294.81
475.112	2371.19
475.484	2441.48
475.855	2452.32
476.227	2518.76
476.598	2592.66
476.97	2636.05
477.341	2739.32
477.713	2787
478.084	2843.72
478.455	2936.38
478.827	3004.62
479.198	3049.37
479.569	3151.51
479.94	3274.22
480.311	3322.36
480.682	3405.52
481.053	3505.4
481.424	3605.29
481.795	3721.89
482.166	3798.05
482.537	3865.17
482.908	3966.63
483.279	4075.56
483.65	4181.54
484.021	4341.99
484.391	4422.89
484.762	4475.32
485.133	4611.81
485.503	4731.81
485.874	4856.1
486.244	5043.44
486.615	5167.96
486.985	5219.26
487.356	5411.11
487.726	5494.28
488.097	5682.97
488.467	5755.06
488.837	5928.62
489.207	6033.7
489.578	6253.13
489.948	6369.28
490.318	6506.45
490.688	6594.36
491.058	6804.75
491.428	6929.72
491.798	7102.82
492.168	7251.29
492.538	7332.65
492.908	7472.08
493.278	7677.27
493.648	7769.7
494.017	7926.08
494.387	8085.85
494.757	8235
495.126	8402.45
495.496	8485.16
495.866	8526.06
496.235	8721.76
496.605	8867.3
496.974	9045.37
497.344	9138.93
497.713	9262.76
498.082	9365.36
498.452	9486.49
498.821	9643.77
499.19	9680.16
499.559	9852.35
499.928	9989.53
500.298	10096.64
500.667	10161.5
501.036	10288.73
501.405	10384.77
501.774	10481.72
502.143	10638.32
502.512	10723.52
502.88	10829.5
503.249	10875.83
503.618	11031.53
503.987	11056.16
504.356	11196.95
504.724	11287.34
505.093	11262.71
505.462	11359.88
505.83	11488.7
506.199	11629.26
506.567	11805.97
506.936	11753.55
507.304	11871.74
507.672	11975.69
508.041	11962.81
508.409	12184.5
508.777	12212.29
509.145	12398.05
509.514	12286.64
509.882	12424.49
510.25	12450.25
510.618	12557.37
510.986	12654.99
511.354	12708.32
511.722	12767.53
512.09	12920.3
512.458	12923.01
512.826	13038.03
513.193	13014.98
513.561	13048.2
513.929	13164.81
514.297	13182.21
514.664	13357.57
515.032	13339.95
515.4	13400.74
515.767	13434.18
516.135	13540.62
516.502	13449.77
516.869	13699.48
517.237	13680.73
517.604	13641.86
517.972	13726.6
518.339	13761.4
518.706	13791.01
519.073	13875.07
519.44	13789.65
519.808	13936.54
520.175	13979.93
520.542	14048.63
520.909	14114.84
521.276	14098.57
521.643	14172.92
522.009	14229.19
522.376	14266.48
522.743	14298.79
523.11	14360.26
523.477	14420.37
523.843	14385.12
524.21	14626.69
524.577	14575.39
524.943	14623.08
525.31	14580.14
525.676	14769.51
526.043	14792.56
526.409	14798.21
526.776	14854.03
527.142	14946.01
527.508	14798.21
527.874	14886.12
528.241	14919.11
528.607	14954.82
528.973	14997.08
529.339	14974.48
529.705	15030.75
530.071	15034.36
530.437	15067.58
530.803	15150.75
531.169	15052.9
531.535	15058.54
531.901	15024.87
532.267	15062.16
532.632	15061.93
532.998	15113.68
533.364	15108.03
533.73	15077.98
534.095	15154.59
534.461	15153.91
534.826	15116.62
535.192	15149.39
535.557	15150.07
535.923	15032.56
536.288	15073.01
536.653	15079.79
537.019	14951.88
537.384	14962.73
537.749	14954.82
538.114	14922.96
538.479	14849.96
538.845	14902.16
539.21	14784.43
539.575	14797.08
539.94	14828.04
540.305	14810.42
540.67	14767.48
541.034	14795.5
541.399	14747.14
541.764	14805.44
542.129	14803.64
542.494	14761.6
542.858	14721.38
543.223	14541.95
543.587	14582.63
543.952	14491.55
544.316	14609.07
544.681	14512.57
545.045	14534.26
545.41	14515.96
545.774	14502.63
546.138	14423.31
546.503	14388.73
546.867	14296.53
547.231	14385.12
547.595	14356.42
547.959	14374.95
548.324	14186.7
548.688	14224.22
549.052	14186.48
549.416	14221.73
549.779	14123.2
550.143	14102.86
550.507	14089.3
550.871	14052.7
551.235	14059.93
551.599	14154.84
551.962	13969.76
552.326	14074.62
552.689	14079.36
553.053	13945.35
553.417	13882.76
553.78	14058.57
554.143	13900.16
554.507	13960.27
554.87	13958.23
555.234	13999.14
555.597	13836.43
555.96	13820.61
556.323	13819.03
556.686	13794.4
557.05	13853.38
557.413	13836.43
557.776	13807.5
558.139	13828.52
558.502	13806.37
558.865	13814.06
559.228	13742.65
559.59	13759.82
559.953	13766.83
560.316	13884.79
560.679	13823.55
561.041	13873.27
561.404	13923.66
561.767	13879.14
562.129	13885.02
562.492	13941.74
562.854	13845.7
563.217	13877.33
563.579	13928.4
563.941	13973.83
564.304	13976.09
564.666	14037.33
565.028	14012.7
565.39	13956.2
565.753	14032.36
566.115	14042.3
566.477	14047.95
566.839	14041.17
567.201	14149.87
567.563	14087.95
567.925	14118.91
568.287	14135.63
568.648	14103.32
569.01	14231
569.372	14250.2
569.734	14144.44
570.095	14159.81
570.457	14275.97
570.819	14160.26
571.18	14252.92
571.542	14249.98
571.903	14215.63
572.265	14237.78
572.626	14322.07
572.987	14304.89
573.349	14346.93
573.71	14309.86
574.071	14401.84
574.432	14423.31
574.794	14458.79
575.155	14432.35
575.516	14421.73
575.877	14486.58
576.238	14450.65
576.599	14468.05
576.96	14453.59
577.32	14488.62
577.681	14502.4
578.042	14469.18
578.403	14518.67
578.763	14456.3
579.124	14492.01
579.485	14434.38
579.845	14542.85
580.206	14478.67
580.566	14486.81
580.927	14514.38
581.287	14605.68
581.648	14512.34
582.008	14570.87
582.368	14484.32
582.728	14494.94
583.089	14472.35
583.449	14532.91
583.809	14472.35
584.169	14496.3
584.529	14436.64
584.889	14485.68
585.249	14383.53
585.609	14322.97
585.969	14438.9
586.329	14397.77
586.688	14444.55
587.048	14446.13
587.408	14395.51
587.768	14370.65
588.127	14304.21
588.487	14331.56
588.846	14385.79
589.206	14311.22
589.565	14290.66
589.925	14409.3
590.284	14367.94
590.643	14331.78
591.003	14350.99
591.362	14368.85
591.721	14369.07
592.08	14391.22
592.44	14420.6
592.799	14309.19
593.158	14305.12
593.517	14374.72
593.876	14400.93
594.235	14162.75
594.593	14238
594.952	14306.25
595.311	14237.1
595.67	14280.71
596.029	14289.98
596.387	14265.8
596.746	14224.22
597.104	14187.61
597.463	14157.33
597.822	14264.22
598.18	14250.43
598.538	14243.42
598.897	14237.55
599.255	14110.1
599.613	14315.06
599.972	14229.41
600.33	14199.36
600.688	14186.7
601.046	14181.28
601.404	14270.77
601.762	14247.49
602.12	14223.99
602.478	14277.55
602.836	14377.43
603.194	14064.67
603.552	14264.89
603.91	14182.86
604.268	14262.63
604.625	14240.26
604.983	14316.42
605.341	14219.02
605.698	14312.8
606.056	14233.48
606.413	14278.9
606.771	14314.38
607.128	14313.71
607.485	14310.09
607.843	14336.98
608.2	14359.81
608.557	14435.96
608.914	14296.98
609.272	14343.76
609.629	14372.46
609.986	14459.69
610.343	14294.5
610.7	14488.62
611.057	14389.18
611.414	14386.7
611.771	14392.8
612.127	14423.31
612.484	14407.26
612.841	14492.23
613.198	14459.69
613.554	14463.76
613.911	14599.8
614.267	14443.42
614.624	14439.8
614.98	14502.18
615.337	14608.16
615.693	14535.39
616.05	14546.24
616.406	14632.79
616.762	14583.08
617.118	14589.86
617.475	14593.02
617.831	14652.91
618.187	14542.17
618.543	14676.41
618.899	14727.48
619.255	14692.68
619.611	14681.83
619.967	14729.51
620.323	14869.62
620.678	14737.42
621.034	14661.27
621.39	14651.1
621.746	14610.87
622.101	14788.5
622.457	14744.65
622.812	14827.82
623.168	14780.13
623.523	14659.46
623.879	14760.7
624.234	14605.22
624.589	14705.11
624.945	14748.5
625.3	14664.2
625.655	14739.01
626.01	14800.92
626.365	14720.47
626.72	14674.6
627.075	14732
627.43	14756.86
627.785	14604.77
628.14	14647.26
628.495	14689.51
628.85	14665.11
629.205	14576.75
629.559	14741.04
629.914	14659.91
630.269	14683.19
630.623	14627.14
630.978	14546.92
631.332	14707.37
631.687	14670.31
632.041	14542.63
632.396	14597.31
632.75	14561.61
633.104	14550.99
633.459	14498.79
633.813	14508.28
634.167	14434.83
634.521	14442.52
634.875	14502.63
635.229	14423.08
635.583	14379.69
635.937	14408.62
636.291	14397.55
636.645	14383.76
636.999	14286.81
637.352	14399.8
637.706	14317.77
638.06	14324.55
638.413	14318.45
638.767	14318.9
639.121	14219.7
639.474	14199.36
639.828	14256.76
640.181	14204.33
640.534	14220.15
640.888	14226.02
641.241	14133.15
641.594	14191
641.947	14063.09
642.301	14146.48
642.654	14147.38
643.007	14144.9
643.36	14120.94
643.713	14064.45
644.066	14194.84
644.419	14047.72
644.771	14048.4
645.124	13813.15
645.477	13824
645.83	13721.63
646.182	13711.91
646.535	13650.22
646.888	13686.6
647.24	13495.2
647.593	13723.44
647.945	13620.16
648.298	13634.18
648.65	13545.14
649.002	13507.4
649.355	13654.29
649.707	13480.28
650.059	13601.41
650.411	13788.52
650.763	13775.64
651.115	13911.46
651.467	13877.11
651.819	13912.36
652.171	13870.1
652.523	13841.85
652.875	13859.93
653.227	13764.34
653.578	13914.85
653.93	13849.76
654.282	13879.37
654.633	13802.08
654.985	13931.34
655.337	13941.51
655.688	13866.03
656.039	13920.5
656.391	13901.51
656.742	13851.8
657.094	13894.28
657.445	13939.48
657.796	13849.31
658.147	13839.82
658.498	13833.72
658.849	13899.93
659.2	14005.69
659.551	13866.71
659.902	13956.2
660.253	13901.29
660.604	13886.37
660.955	13815.87
661.306	13939.03
661.656	13941.74
662.007	13872.14
662.358	13905.13
662.708	14048.4
663.059	13944.9
663.409	13837.33
663.76	13918.91
664.11	13868.52
664.461	14002.3
664.811	13945.58
665.161	13929.76
665.511	13913.26
665.862	13903.32
666.212	13941.51
666.562	13993.49
666.912	13898.58
667.262	13962.3
667.612	13991.91
667.962	14001.17
668.312	13986.03
668.662	13976.09
669.011	13922.76
669.361	13928.63
669.711	13899.25
670.06	13922.08
670.41	13875.07
670.76	13870.1
671.109	13904
671.459	13946.26
671.808	13854.73
672.157	13938.8
672.507	13857.45
672.856	13822.87
673.205	13779.71
673.554	13867.16
673.904	13757.56
674.253	13852.25
674.602	13834.62
674.951	13546.95
675.3	13525.93
675.649	13685.7
675.998	13670.11
676.346	13709.65
676.695	13724.79
677.044	13645.47
677.393	13624.68
677.741	13722.53
678.09	13695.42
678.438	13646.15
678.787	13624.68
679.135	13639.37
679.484	13537.91
679.832	13584.91
680.181	13459.04
680.529	13499.26
680.877	13504.91
681.225	13503.33
681.573	13556.66
681.922	13473.5
682.27	13410.45
682.618	13352.15
682.966	13399.15
683.314	13368.65
683.661	13327.52
684.009	13285.48
684.357	13320.29
684.705	13276.44
685.053	13226.5
685.4	13222.89
685.748	13195.09
686.095	13109.67
686.443	13148.54
686.79	13037.58
687.138	13065.38
687.485	13094.53
687.832	12949.9
688.18	12916.68
688.527	12945.83
688.874	12888.43
689.221	12814.76
689.568	12814.99
689.915	12810.47
690.262	12862.44
690.609	12716.01
690.956	12659.51
691.303	12725.5
691.65	12622
691.997	12608.21
692.344	12499.74
692.69	12466.52
693.037	12532.96
693.383	12412.96
693.73	12380.65
694.077	12269.01
694.423	12299.75
694.769	12288.22
695.116	12210.71
695.462	12191.95
695.808	12159.86
696.155	12125.06
696.501	12074.44
696.847	12087.32
697.193	11994.67
697.539	12046.19
697.885	11876.71
698.231	11893.66
698.577	11890.04
698.923	11915.35
699.269	11801.91
699.614	11728.01
699.96	11668.8
700.306	11652.31
700.651	11585.64
700.997	11596.71
701.342	11609.37
701.688	11497.73
702.033	11425.65
702.379	11460
702.724	11430.84
703.069	11430.17
703.415	11268.59
703.76	11193.79
704.105	11279.89
704.45	11214.58
704.795	11147.24
705.14	11075.82
705.485	11175.48
705.83	11025.2
706.175	11102.04
706.52	11104.3
706.865	11028.14
707.209	10994.47
707.554	10921.7
707.899	10902.5
708.243	10916.96
708.588	10883.29
708.932	10769.17
709.277	10702.05
709.621	10767.58
709.966	10710.18
710.31	10685.1
710.654	10609.62
710.998	10561.94
711.342	10674.93
711.687	10500.47
712.031	10501.83
712.375	10474.48
712.719	10476.52
713.063	10502.73
713.407	10507.93
713.75	10489.4
714.094	10456.63
714.438	10393.36
714.782	10430.64
715.125	10340.25
715.469	10269.29
715.812	10279.01
716.156	10279.69
716.499	10225.9
716.843	10234.26
717.186	10263.87
717.53	10179.58
717.873	10260.93
718.216	10232.91
718.559	10192.46
718.902	10132.57
719.246	10117.21
719.589	10138.22
719.932	10053.93
720.275	10029.3
720.617	10063.65
720.96	10000.37
721.303	10031.33
721.646	10069.52
721.989	9932.8
722.331	10089.86
722.674	9999.69
723.016	9989.3
723.359	9985.23
723.701	9970.99
724.044	9872.01
724.386	9841.73
724.729	9925.35
725.071	9953.14
725.413	9889.19
725.755	9907.49
726.097	9898
726.439	9827.27
726.782	9819.59
727.124	9874.27
727.465	9781.17
727.807	9813.03
728.149	9807.38
728.491	9738.91
728.833	9813.48
729.175	9837.67
729.516	9745.24
729.858	9769.64
730.199	9788.63
730.541	9712.47
730.882	9719.93
731.224	9810.32
731.565	9813.03
731.906	9729.42
732.248	9770.77
732.589	9727.61
732.93	9699.82
733.271	9719.48
733.612	9765.35
733.953	9676.77
734.294	9681.51
734.635	9656.2
734.976	9768.51
735.317	9629.53
735.658	9682.64
735.999	9738.91
736.339	9679.48
736.68	9721.06
737.021	9663.21
737.361	9715.63
737.702	9786.37
738.042	9659.82
738.383	9723.32
738.723	9782.98
739.063	9722.19
739.404	9751.34
739.744	9819.36
740.084	9743.66
740.424	9799.47
740.764	9809.87
741.104	9891.22
741.444	9836.76
741.784	9810.55
742.124	9841.05
742.464	9884.67
742.804	9876.53
743.143	9828.85
743.483	9898.45
743.823	9869.53
744.162	9939.36
744.502	9977.55
744.841	9963.31
745.181	10094.61
745.52	10086.92
745.86	10073.59
746.199	10159.69
746.538	10196.07
746.877	10243.08
747.216	10235.17
747.556	10281.72
747.895	10299.35
748.234	10378.67
748.573	10457.08
748.911	10433.13
749.25	10546.12
749.589	10507.03
749.928	10646.68
750.267	10799.45
750.605	10801.26
750.944	10809.62
751.283	10995.83
751.621	11072.21
751.96	11058.42
752.298	11179.78
752.636	11343.39
752.975	11360.34
753.313	11364.4
753.651	11570.5
753.989	11679.2
754.327	11756.26
754.666	11915.8
755.004	11991.96
755.342	12140.66
755.679	12346.3
756.017	12425.62
756.355	12538.16
756.693	12625.16
757.031	12810.02
757.368	12902.22
757.706	12974.98
758.044	13189.89
758.381	13423.79
758.719	13471.24
759.056	13784.45
759.394	13841.4
759.731	13956.43
760.068	14137.21
760.405	14255.18
760.743	14326.81
761.08	14555.06
761.417	14650.87
761.754	14816.97
762.091	15081.82
762.428	15170.86
762.765	15273.23
763.102	15495.6
763.438	15641.58
763.775	15769.94
764.112	16009.25
764.449	16211.51
764.785	16282.47
765.122	16301.22
765.458	16432.07
765.795	16695.79
766.131	16854.88
766.467	17116.34
766.804	17137.36
767.14	17251.03
767.476	17397.47
767.812	17463.91
768.148	17680.4
768.485	17556.11
768.821	17785.7
769.157	17985.93
769.492	18018.92
769.828	18177.56
770.164	18220.5
770.5	18370.1
770.836	18495.29
771.171	18444.9
771.507	18655.29
771.842	18536.19
772.178	18840.37
772.513	18760.37
772.849	18839.46
773.184	18988.84
773.519	19055.5
773.855	19120.13
774.19	19146.8
774.525	19285.78
774.86	19292.78
775.195	19397.87
775.53	19398.54
775.865	19419.33
776.2	19427.92
776.535	19332.1
776.87	19381.37
777.205	19588.37
777.539	19496.62
777.874	19535.49
778.209	19515.6
778.543	19564.64
778.878	19521.93
779.212	19608.93
779.547	19582.95
779.881	19681.25
780.215	19540.46
780.55	19613.91
780.884	19601.02
781.218	19656.62
781.552	19645.54
781.886	19635.15
782.22	19624.53
782.554	19635.15
782.888	19487.35
783.222	19429.28
783.556	19420.01
783.889	19576.17
784.223	19316.29
784.557	19378.66
784.89	19457.75
785.224	19411.65
785.557	19305.44
785.891	19325.55
786.224	19316.29
786.558	19316.06
786.891	19227.02
787.224	19176.85
787.557	19223.86
787.891	19260.02
788.224	19264.99
788.557	19322.61
788.89	19193.8
789.223	19164.65
789.556	19007.59
789.888	19048.72
790.221	18992.23
790.554	18894.6
790.887	18900.93
791.219	18837.43
791.552	18934.38
791.884	18743.42
792.217	18850.76
792.549	18728.28
792.882	18635.17
793.214	18618.23
793.546	18636.53
793.879	18568.51
794.211	18531.22
794.543	18533.71
794.875	18480.15
795.207	18618.9
795.539	18491.45
795.871	18462.75
796.203	18262.53
796.535	18255.07
796.867	18314.28
797.198	18134.4
797.53	18138.69
797.862	18128.97
798.193	18140.27
798.525	18089.43
798.856	18109.54
799.188	17856.66
799.519	17847.17
799.85	17727.18
800.182	17774.41
800.513	17731.02
800.844	17627.29
801.175	17760.85
801.506	17743.67
801.837	17575.09
802.168	17541.19
802.499	17616.44
802.83	17399.73
803.161	17409.22
803.491	17462.55
803.822	17391.36
804.153	17349.56
804.483	17205.83
804.814	17054.88
805.145	17143.69
805.475	17195.66
805.805	17070.47
806.136	17078.15
806.466	17082.9
806.796	17050.13
807.126	16863.92
807.457	16858.05
807.787	16902.34
808.117	16869.34
808.447	16789.35
808.777	16797.93
809.107	16677.94
809.436	16717.03
809.766	16678.84
810.096	16586.41
810.426	16607.2
810.755	16578.96
811.085	16464.16
811.414	16457.6
811.744	16323.37
812.073	16376.93
812.403	16300.09
812.732	16249.02
813.061	16246.31
813.39	16217.61
813.719	16221
814.049	16218.06
814.378	16115.47
814.707	16039.76
815.036	16147.1
815.365	16039.08
815.693	15882.7
816.022	15949.59
816.351	15899.2
816.68	15823.5
817.008	15822.37
817.337	15754.12
817.665	15713.22
817.994	15704.63
818.322	15706.21
818.651	15655.37
818.979	15575.14
819.307	15613.78
819.636	15549.38
819.964	15519.1
820.292	15546.44
820.62	15478.87
820.948	15475.03
821.276	15543.5
821.604	15523.39
821.932	15475.03
822.259	15503.5
822.587	15561.81
822.915	15499.21
823.243	15510.28
823.57	15482.94
823.898	15480
824.225	15385.32
824.553	15465.54
824.88	15393.68
825.207	15539.89
825.535	15535.59
825.862	15550.06
826.189	15564.75
826.516	15531.3
826.843	15570.17
827.17	15585.76
827.497	15573.56
827.824	15505.76
828.151	15561.58
828.478	15436.84
828.805	15591.86
829.131	15479.1
829.458	15517.74
829.785	15518.87
830.111	15465.77
830.438	15639.55
830.764	15377.63
831.09	15549.83
831.417	15445.43
831.743	15512.32
832.069	15451.98
832.395	15475.93
832.722	15497.63
833.048	15373.34
833.374	15386.45
833.7	15289.5
834.026	15322.94
834.351	15414.69
834.677	15415.6
835.003	15350.97
835.329	15329.72
835.654	15314.81
835.98	15325.66
836.306	15332.44
836.631	15188.48
836.956	15286.79
837.282	15203.17
837.607	15253.79
837.932	15163.85
838.258	15224.64
838.583	15095.61
838.908	15203.85
839.233	15227.13
839.558	15041.37
839.883	15039.11
840.208	14999.56
840.533	14981.48
840.858	14951.43
841.182	14957.3
841.507	14828.04
841.832	14845.89
842.156	14841.38
842.481	14871.21
842.805	14800.7
843.13	14694.94
843.454	14771.77
843.778	14659.91
844.103	14616.75
844.427	14628.5
844.751	14670.31
845.075	14606.35
845.399	14453.81
845.723	14370.43
846.047	14516.64
846.371	14352.12
846.695	14460.37
847.019	14230.09
847.343	14214.27
847.666	14038.91
847.99	14040.94
848.313	14047.05
848.637	13952.59
848.96	13918.69
849.284	13915.52
849.607	13742.87
849.931	13773.83
850.254	13642.31
850.577	13664.01
850.9	13507.4
851.223	13479.6
851.546	13368.42
851.869	13418.14
852.192	13330.91
852.515	13247.52
852.838	13232.15
853.161	13290.91
853.483	13196.67
853.806	13079.16
854.129	13151.48
854.451	13050.24
854.774	12993.06
855.096	13009.33
855.419	12921.88
855.741	12900.18
856.063	12814.08
856.385	12804.82
856.708	12818.83
857.03	12707.42
857.352	12747.65
857.674	12642.79
857.996	12618.83
858.318	12570.7
858.64	12516.46
858.961	12523.02
859.283	12438.73
859.605	12470.59
859.926	12495.45
860.248	12419.07
860.57	12325.96
860.891	12341.78
861.212	12282.57
861.534	12232.18
861.855	12182.24
862.176	12311.95
862.498	12219.98
862.819	12159.64
863.14	12061.79
863.461	12125.06
863.782	12102.92
864.103	11999.42
864.424	12008.68
864.745	12101.33
865.065	11945.63
865.386	11871.74
865.707	11908.35
866.027	11929.81
866.348	11866.09
866.668	11880.32
866.989	11798.74
867.309	11861.79
867.63	11843.04
867.95	11810.95
868.27	11692.98
868.59	11712.64
868.91	11760.33
869.23	11678.52
869.55	11647.79
869.87	11677.62
870.19	11627.67
870.51	11678.07
870.83	11673.77
871.15	11566.89
871.469	11611.86
871.789	11585.19
872.109	11512.2
872.428	11483.72
872.748	11514.91
873.067	11464.29
873.386	11523.27
873.706	11428.13
874.025	11410.96
874.344	11366.44
874.663	11395.82
874.982	11376.16
875.301	11388.13
875.62	11273.33
875.939	11312.88
876.258	11318.3
876.577	11278.31
876.896	11252.32
877.214	11238.98
877.533	11262.26
877.852	11264.75
878.17	11175.26
878.489	11180.23
878.807	11235.14
879.125	11131.64
879.444	11123.28
879.762	11075.82
880.08	11133.45
880.398	11069.05
880.716	10967.13
881.034	11067.01
881.352	10997.86
881.67	11011.19
881.988	10973.45
882.306	10933.68
882.624	10945.43
882.941	10819.79
883.259	10741.37
883.577	10756.51
883.894	10779.56
884.212	10800.13
884.529	10785.21
884.846	10809.16
885.164	10676.06
885.481	10651.88
885.798	10721.03
886.115	10563.3
886.432	10592.9
886.75	10538.44
887.067	10547.25
887.383	10582.05
887.7	10565.56
888.017	10523.3
888.334	10483.3
888.651	10396.97
888.967	10405.33
889.284	10349.74
889.6	10362.17
889.917	10305.45
890.233	10286.24
890.55	10201.05
890.866	10256.64
891.182	10218.67
891.498	10157.88
891.815	10084.66
892.131	10073.82
892.447	10120.14
892.763	10037.43
893.079	9964.89
893.395	9923.76
893.71	9922.18
894.026	9930.54
894.342	9861.62
894.657	9868.85
894.973	9860.72
895.289	9738.91
895.604	9815.97
895.92	9751.79
896.235	9691.91
896.55	9688.52
896.865	9638.35
897.181	9618.24
897.496	9606.94
897.811	9529.88
898.126	9470.44
898.441	9452.36
898.756	9364.68
899.071	9398.13
899.386	9393.16
899.7	9253.95
900.015	9178.7
900.33	9214.18
900.644	9208.98
900.959	9155.2
901.273	9166.27
901.588	9113.16
901.902	9030.68
902.216	9050.57
902.531	9017.8
902.845	8946.84
903.159	8939.61
903.473	8865.49
903.787	8852.83
904.101	8845.15
904.415	8797.47
904.729	8778.26
905.042	8715.89
905.356	8782.33
905.67	8686.28
905.984	8663.01
906.297	8611.48
906.611	8607.87
906.924	8571.94
907.237	8522.45
907.551	8511.37
907.864	8394.54
908.177	8405.39
908.491	8414.43
908.804	8315.22
909.117	8283.81
909.43	8230.93
909.743	8214.88
910.056	8228.44
910.368	8205.17
910.681	8169.46
910.994	8151.83
911.307	8138.95
911.619	8020.76
911.932	8052.85
912.244	7952.29
912.557	7952.29
912.869	7945.74
913.181	7862.12
913.494	7871.84
913.806	7767.44
914.118	7796.59
914.43	7765.18
914.742	7695.57
915.054	7689.47
915.366	7649.47
915.678	7615.12
915.99	7594.56
916.302	7555.24
916.613	7475.24
916.925	7509.82
917.236	7452.64
917.548	7431.17
917.859	7420.78
918.171	7404.06
918.482	7282.7
918.794	7355.47
919.105	7260.56
919.416	7315.02
919.727	7227.56
920.038	7223.27
920.349	7137.62
920.66	7158.64
920.971	7174.68
921.282	7146.66
921.593	7030.96
921.903	7014.24
922.214	6973.11
922.525	6939.21
922.835	6898.08
923.146	6884.3
923.456	6879.32
923.767	6888.82
924.077	6830.29
924.387	6810.17
924.697	6762.49
925.008	6712.55
925.318	6699.89
925.628	6720.23
925.938	6640.69
926.248	6661.48
926.558	6636.85
926.867	6575.6
927.177	6590.07
927.487	6510.52
927.796	6479.34
928.106	6450.18
928.416	6439.11
928.725	6442.5
929.034	6348.49
929.344	6352.56
929.653	6375.61
929.962	6270.98
930.271	6260.58
930.581	6220.36
930.89	6217.2
931.199	6150.08
931.508	6141.27
931.817	6155.73
932.125	6133.81
932.434	6134.49
932.743	6039.35
933.051	6032.12
933.36	6046.35
933.669	5958.9
933.977	5948.95
934.286	5965.45
934.594	5965.22
934.902	5852.01
935.21	5856.75
935.519	5861.5
935.827	5818.79
936.135	5776.98
936.443	5774.5
936.751	5781.5
937.059	5734.04
937.367	5707.83
937.674	5689.07
937.982	5697.89
938.29	5676.87
938.597	5647.49
938.905	5544.44
939.213	5547.16
939.52	5481.85
939.827	5498.34
940.135	5452.24
940.442	5471.23
940.749	5498.8
941.056	5475.29
941.363	5381.74
941.67	5374.73
941.977	5369.76
942.284	5317.78
942.591	5285.24
942.898	5287.5
943.205	5239.14
943.511	5235.98
943.818	5204.11
944.125	5235.98
944.431	5212.02
944.738	5183.78
945.044	5142.87
945.35	5137.68
945.657	5100.84
945.963	5037.34
946.269	5017.23
946.575	5031.46
946.881	5002.99
947.187	5006.83
947.493	4988.53
947.799	4938.81
948.105	4900.39
948.41	4859.94
948.716	4869.89
949.022	4841.41
949.327	4854.75
949.633	4806.38
949.938	4831.69
950.244	4795.54
950.549	4772.71
950.854	4730
951.16	4749.89
951.465	4691.13
951.77	4678.93
952.075	4638.48
952.38	4639.38
952.685	4633.51
952.99	4576.11
953.294	4570.68
953.599	4515.32
953.904	4554.64
954.209	4480.52
954.513	4516.68
954.818	4450.91
955.122	4406.62
955.426	4404.36
955.731	4417.02
956.035	4374.53
956.339	4386.73
956.643	4384.93
956.948	4317.36
957.252	4360.97
957.556	4259.05
957.86	4215.21
958.163	4252.05
958.467	4221.09
958.771	4205.5
959.075	4210.47
959.378	4167.08
959.682	4187.19
959.985	4162.33
960.289	4205.5
960.592	4110.13
960.896	4100.19
961.199	4084.14
961.502	4063.58
961.805	4036.01
962.108	4031.04
962.411	4019.51
962.714	3963.47
963.017	3972.51
963.32	3972.51
963.623	3948.78
963.926	3929.12
964.228	3908.56
964.531	3887.54
964.833	3869.01
965.136	3849.12
965.438	3866.07
965.741	3840.53
966.043	3807.77
966.345	3777.03
966.648	3742.68
966.95	3773.64
967.252	3708.33
967.554	3722.8
967.856	3702.46
968.158	3683.25
968.46	3665.62
968.761	3635.12
969.063	3654.1
969.365	3614.33
969.666	3610.26
969.968	3607.77
970.269	3596.25
970.571	3587.89
970.872	3523.93
971.174	3522.12
971.475	3509.7
971.776	3522.12
972.077	3487.32
972.378	3478.06
972.679	3431.28
972.98	3429.7
973.281	3433.99
973.582	3407.33
973.883	3421.56
974.183	3361.9
974.484	3376.14
974.785	3351.73
975.085	3330.04
975.386	3354.67
975.686	3316.93
975.986	3327.33
976.287	3291.85
976.587	3241.91
976.887	3247.56
977.187	3259.53
977.487	3248.23
977.787	3246.65
978.087	3186.09
978.387	3186.99
978.687	3197.39
978.987	3154.9
979.286	3168.46
979.586	3149.25
979.885	3085.07
980.185	3098.41
980.484	3061.8
980.784	3071.52
981.083	3070.84
981.382	3035.36
981.682	3032.65
981.981	3050.72
982.28	3004.85
982.579	2954.68
982.878	2972.76
983.177	2950.61
983.475	2948.13
983.774	2916.94
984.073	2899.99
984.372	2916.27
984.67	2853.67
984.969	2937.73
985.267	2897.73
985.566	2844.4
985.864	2862.93
986.162	2844.18
986.461	2761.92
986.759	2812.77
987.057	2775.03
987.355	2782.03
987.653	2744.52
987.951	2768.7
988.249	2740
988.547	2719.43
988.844	2755.14
989.142	2732.99
989.44	2750.62
989.737	2669.94
990.035	2667.91
990.332	2625.43
990.63	2631.98
990.927	2622.26
991.224	2648.7
991.521	2614.58
991.819	2589.04
992.116	2597.4
992.413	2574.35
992.71	2556.73
993.006	2506.56
993.303	2533
993.6	2504.98
993.897	2503.39
994.193	2500.91
994.49	2460.68
994.787	2465.2
995.083	2466.79
995.379	2466.56
995.676	2443.28
995.972	2397.41
996.268	2420.23
996.565	2377.07
996.861	2377.07
997.157	2393.34
997.453	2396.05
997.749	2349.27
998.044	2332.55
998.34	2333
998.636	2329.84
998.932	2295.72
999.227	2264.3
999.523	2302.95
999.818	2265.21
1000.114	2252.1
1000.409	2226.57
1000.704	2211.65
1001	2208.04
1001.295	2183.86
1001.59	2211.88
1001.885	2172.33
1002.18	2171.65
1002.475	2146.34
1002.77	2162.16
1003.065	2101.6
1003.359	2142.5
1003.654	2127.81
1003.949	2089.62
1004.243	2060.02
1004.538	2069.51
1004.832	2060.47
1005.127	2044.88
1005.421	2040.13
1005.715	2039
1006.009	2032.9
1006.304	2015.72
1006.598	1968.95
1006.892	1993.35
1007.186	1950.64
1007.48	1974.14
1007.773	1947.03
1008.067	1956.52
1008.361	1912.9
1008.655	1903.86
1008.948	1879.46
1009.242	1895.5
1009.535	1902.96
1009.829	1857.54
1010.122	1885.33
1010.415	1861.6
1010.708	1844.88
1011.001	1858.67
1011.295	1810.53
1011.588	1823.19
1011.881	1794.49
1012.173	1763.98
1012.466	1766.69
1012.759	1774.6
1013.052	1773.7
1013.344	1772.57
1013.637	1763.3
1013.93	1716.52
1014.222	1689.86
1014.514	1723.08
1014.807	1708.39
1015.099	1687.6
1015.391	1693.47
1015.683	1676.3
1015.976	1661.16
1016.268	1646.02
1016.56	1616.64
1016.851	1637.88
1017.143	1639.01
1017.435	1598.79
1017.727	1572.57
1018.018	1597.88
1018.31	1587.49
1018.602	1570.31
1018.893	1556.3
1019.185	1542.29
1019.476	1565.57
1019.767	1540.93
1020.058	1515.17
1020.35	1488.73
1020.641	1525.57
1020.932	1504.32
1021.223	1486.25
1021.514	1479.92
1021.804	1442.63
1022.095	1463.65
1022.386	1434.04
1022.677	1421.62
1022.967	1452.35
1023.258	1424.1
1023.548	1393.37
1023.839	1398.34
1024.129	1396.53
1024.419	1380.49
1024.709	1348.85
1025	1358.34
1025.29	1353.37
1025.58	1336.19
1025.87	1317.44
1026.16	1347.49
1026.449	1319.47
1026.739	1314.05
1027.029	1295.52
1027.319	1296.42
1027.608	1292.58
1027.898	1255.29
1028.187	1272.24
1028.477	1262.52
1028.766	1228.85
1029.055	1250.09
1029.344	1234.5
1029.634	1220.04
1029.923	1211.68
1030.212	1191.34
1030.501	1186.59
1030.79	1187.27
1031.078	1222.52
1031.367	1193.15
1031.656	1183.43
1031.945	1169.87
1032.233	1136.65
1032.522	1143.2
1032.81	1105.69
1033.099	1134.84
1033.387	1110.21
1033.675	1125.58
1033.963	1105.47
1034.251	1106.6
1034.54	1076.09
1034.828	1086.03
1035.116	1076.54
1035.403	1058.69
1035.691	1082.64
1035.979	1066.6
1036.267	1046.03
1036.554	1025.02
1036.842	1042.42
1037.129	1036.54
1037.417	1034.73
1037.704	1028.63
1037.992	998.35
1038.279	1017.33
1038.566	993.6
1038.853	993.6
1039.14	993.6
