Data from hue_150_FLMS001491_00031.txt Node
Date: Tue Feb 07 16:53:56 GMT 2017
User: dcchb
Spectrometer: FLMS00149
Trigger mode: 0
Integration Time (sec): 2.000000E-2
Scans to average: 10
Electric dark correction enabled: true
Nonlinearity correction enabled: false
Boxcar width: 0
XAxis mode: Wavelengths
Number of Pixels in Spectrum: 2048
>>>>>Begin Spectral Data<<<<<
341.393	-6.36
341.776	-6.36
342.16	-6.36
342.543	-50.42
342.927	-41.38
343.31	-68.5
343.693	-65.34
344.077	-65.79
344.46	-51.55
344.843	-53.81
345.226	-31.44
345.61	-22.85
345.993	-36.19
346.376	-9.52
346.759	20.31
347.142	14.43
347.525	46.07
347.908	44.49
348.291	77.03
348.674	80.65
349.057	122
349.44	126.3
349.823	158.61
350.206	191.61
350.588	196.35
350.971	210.14
351.354	229.34
351.737	243.36
352.119	260.08
352.502	280.42
352.884	286.07
353.267	293.75
353.65	292.62
354.032	307.31
354.414	284.03
354.797	312.28
355.179	319.06
355.562	326.97
355.944	328.32
356.326	332.17
356.709	340.75
357.091	357.93
357.473	365.16
357.855	332.39
358.238	333.07
358.62	344.14
359.002	324.26
359.384	350.47
359.766	354.31
360.148	334.2
360.53	310.47
360.912	344.6
361.294	342.56
361.676	326.74
362.057	335.1
362.439	341.43
362.821	321.32
363.203	306.86
363.584	343.69
363.966	328.32
364.348	316.35
364.729	321.09
365.111	324.48
365.493	300.98
365.874	317.03
366.256	297.37
366.637	310.7
367.019	320.87
367.4	317.93
367.781	328.55
368.163	306.4
368.544	315.22
368.925	321.32
369.306	331.26
369.688	303.69
370.069	328.78
370.45	321.09
370.831	305.5
371.212	305.27
371.593	332.62
371.974	298.95
372.355	321.32
372.736	339.62
373.117	331.04
373.498	319.96
373.879	329.68
374.26	306.18
374.641	325.16
375.021	299.62
375.402	312.28
375.783	328.55
376.163	317.7
376.544	329.23
376.925	303.47
377.305	312.05
377.686	293.52
378.066	324.48
378.447	339.85
378.827	324.93
379.208	342.34
379.588	320.64
379.968	333.97
380.349	333.52
380.729	351.6
381.109	341.21
381.489	342.34
381.87	326.97
382.25	351.37
382.63	358.61
383.01	338.49
383.39	332.17
383.77	356.57
384.15	324.48
384.53	362.22
384.91	350.25
385.29	364.71
385.67	357.48
386.049	356.35
386.429	349.79
386.809	377.36
387.189	362.9
387.568	350.7
387.948	354.31
388.328	359.51
388.707	355.67
389.087	373.3
389.466	354.54
389.846	362.45
390.225	357.93
390.605	369.68
390.984	372.17
391.363	379.62
391.743	357.02
392.122	371.49
392.501	376.69
392.881	375.1
393.26	391.15
393.639	377.59
394.018	393.18
394.397	380.07
394.776	383.92
395.155	402.45
395.534	391.83
395.913	383.01
396.292	369
396.671	390.47
397.05	387.53
397.429	402.45
397.808	386.18
398.186	405.16
398.565	396.57
398.944	400.87
399.323	399.51
399.701	395.67
400.08	397.48
400.458	399.96
400.837	410.36
401.215	423.24
401.594	406.29
401.972	419.62
402.351	407.42
402.729	402.22
403.107	422.79
403.486	431.6
403.864	423.24
404.242	409.23
404.62	416.46
404.999	416.46
405.377	420.07
405.755	429.11
406.133	423.92
406.511	449
406.889	425.05
407.267	439.28
407.645	444.71
408.023	436.8
408.401	448.77
408.779	432.28
409.156	467.76
409.534	466.63
409.912	470.69
410.29	465.04
410.667	472.05
411.045	471.6
411.422	479.73
411.8	480.41
412.178	459.62
412.555	493.29
412.933	480.41
413.31	472.5
413.687	495.55
414.065	515.89
414.442	491.71
414.819	499.62
415.197	508.21
415.574	492.39
415.951	532.39
416.328	524.03
416.705	511.37
417.082	517.47
417.46	526.96
417.837	515.66
418.214	528.55
418.591	545.27
418.967	533.07
419.344	537.58
419.721	566.74
420.098	557.7
420.475	580.75
420.852	567.87
421.228	562.89
421.605	561.31
421.982	561.09
422.358	569.9
422.735	571.26
423.111	570.58
423.488	592.27
423.864	586.17
424.241	589.79
424.617	581.43
424.994	578.71
425.37	608.09
425.746	611.93
426.123	610.58
426.499	605.61
426.875	645.83
427.251	628.66
427.627	630.24
428.003	638.6
428.379	648.54
428.756	627.3
429.132	644.93
429.507	661.2
429.883	643.8
430.259	655.1
430.635	676.11
431.011	683.12
431.387	682.67
431.763	708.65
432.138	702.55
432.514	699.61
432.89	720.63
433.265	700.52
433.641	733.51
434.016	714.53
434.392	725.83
434.767	736.68
435.143	749.56
435.518	767.64
435.894	746.17
436.269	747.75
436.644	767.18
437.02	758.82
437.395	768.99
437.77	762.66
438.145	804.47
438.52	797.69
438.895	815.54
439.271	805.6
439.646	822.77
440.021	816
440.395	841.76
440.77	856.9
441.145	835.2
441.52	849.67
441.895	850.34
442.27	854.19
442.645	842.66
443.019	865.71
443.394	867.75
443.769	874.07
444.143	891.93
444.518	881.98
444.892	894.64
445.267	918.14
445.641	924.92
446.016	933.96
446.39	934.41
446.764	947.74
447.139	919.04
447.513	932.38
447.887	947.29
448.262	935.31
448.636	938.93
449.01	972.6
449.384	985.71
449.758	975.77
450.132	982.09
450.506	1000.4
450.88	1036.78
451.254	1005.82
451.628	1013.5
452.002	1024.58
452.376	1041.53
452.75	1033.62
453.123	1043.11
453.497	1068.64
453.871	1064.12
454.244	1061.86
454.618	1100.73
454.992	1081.53
455.365	1117
455.739	1132.6
456.112	1156.78
456.486	1123.33
456.859	1148.87
457.232	1205.14
457.606	1178.7
457.979	1188.19
458.352	1234.06
458.725	1238.36
459.099	1256.66
459.472	1288.07
459.845	1273.84
460.218	1293.27
460.591	1281.97
460.964	1309.77
461.337	1360.61
461.71	1347.05
462.083	1373.95
462.456	1380.27
462.829	1402.19
463.201	1401.97
463.574	1444.23
463.947	1453.04
464.32	1499.14
464.692	1482.64
465.065	1525.58
465.438	1564.45
465.81	1542.08
466.183	1602.87
466.555	1614.62
466.928	1644.45
467.3	1652.36
467.672	1674.5
468.045	1710.66
468.417	1707.72
468.789	1739.14
469.161	1745.46
469.534	1815.29
469.906	1835.63
470.278	1865.91
470.65	1898.68
471.022	1945.01
471.394	1992.01
471.766	2008.51
472.138	2039.69
472.51	2104.55
472.882	2122.18
473.253	2191.55
473.625	2224.55
473.997	2249.4
474.369	2269.97
474.74	2326.01
475.112	2416.18
475.484	2431.55
475.855	2477.65
476.227	2565.78
476.598	2634.03
476.97	2707.47
477.341	2745.89
477.713	2846.68
478.084	2870.4
478.455	3037.63
478.827	3029.95
479.198	3164.86
479.569	3219.1
479.94	3282.82
480.311	3350.39
480.682	3452.76
481.053	3585.41
481.424	3658.41
481.795	3764.39
482.166	3824.96
482.537	3923.94
482.908	4041.45
483.279	4169.13
483.65	4243.02
484.021	4376.81
484.391	4435.34
484.762	4548.78
485.133	4642.11
485.503	4764.14
485.874	4913.74
486.244	4999.61
486.615	5122.1
486.985	5283.9
487.356	5471.01
487.726	5520.73
488.097	5710.1
488.467	5780.16
488.837	5953.04
489.207	6111
489.578	6197.32
489.948	6306.7
490.318	6436.64
490.688	6582.85
491.058	6725.44
491.428	6926.34
491.798	7028.71
492.168	7240.23
492.538	7248.37
492.908	7424.86
493.278	7580.11
493.648	7729.94
494.017	7836.6
494.387	8011.29
494.757	8141.45
495.126	8254.9
495.496	8311.39
495.866	8445.17
496.235	8560.88
496.605	8709.57
496.974	8824.15
497.344	8980.75
497.713	8993.86
498.082	9193.4
498.452	9265.26
498.821	9352.72
499.19	9459.61
499.559	9594.75
499.928	9700.06
500.298	9836.32
500.667	9926.04
501.036	9945.02
501.405	10108.86
501.774	10110.44
502.143	10248.97
502.512	10314.05
502.88	10400.6
503.249	10450.32
503.618	10601.05
503.987	10655.28
504.356	10814.38
504.724	10775.06
505.093	10887.37
505.462	10891.66
505.83	11074.71
506.199	11137.98
506.567	11321.71
506.936	11305.21
507.304	11448.03
507.672	11427.69
508.041	11471.31
508.409	11643.51
508.777	11670.85
509.145	11740.45
509.514	11769.83
509.882	11854.35
510.25	11890.28
510.618	11910.85
510.986	12035.59
511.354	12139.31
511.722	12141.8
512.09	12323.26
512.458	12325.07
512.826	12391.74
513.193	12455.69
513.561	12426.99
513.929	12557.61
514.297	12579.53
514.664	12645.97
515.032	12660.2
515.4	12710.37
515.767	12868.79
516.135	12823.59
516.502	12701.11
516.869	12956.69
517.237	12885.51
517.604	12871.95
517.972	12991.95
518.339	13055
518.706	13020.87
519.073	13085.05
519.44	13082.79
519.808	13160.53
520.175	13124.6
520.542	13369.34
520.909	13364.37
521.276	13238.72
521.643	13397.59
522.009	13432.16
522.376	13466.06
522.743	13485.72
523.11	13538.37
523.477	13629.9
523.843	13648.2
524.21	13790.8
524.577	13735.66
524.943	13785.37
525.31	13755.32
525.676	13873.73
526.043	13916.22
526.409	13887.74
526.776	14021.75
527.142	13921.64
527.508	13965.25
527.874	14022.88
528.241	14115.76
528.607	14045.93
528.973	14049.55
529.339	13983.33
529.705	14090.45
530.071	14217.23
530.437	14160.73
530.803	14215.42
531.169	14123.67
531.535	14080.05
531.901	14062.88
532.267	14147.4
532.632	14119.15
532.998	14149.2
533.364	14108.08
533.73	14057.46
534.095	14161.86
534.461	14177.9
534.826	14179.94
535.192	14082.99
535.557	14132.48
535.923	14080.96
536.288	14165.02
536.653	14169.09
537.019	14039.15
537.384	13969.1
537.749	14047.06
538.114	13991.24
538.479	13907.85
538.845	13907.85
539.21	13861.98
539.575	13904.24
539.94	13766.39
540.305	13901.98
540.67	13808.42
541.034	13841.19
541.399	13786.05
541.764	13753.28
542.129	13740.4
542.494	13751.02
542.858	13626.51
543.223	13685.04
543.587	13622.21
543.952	13620.63
544.316	13567.07
544.681	13582.67
545.045	13553.97
545.41	13459.5
545.774	13472.39
546.138	13412.27
546.503	13433.29
546.867	13359.39
547.231	13334.99
547.595	13367.98
547.959	13321.88
548.324	13251.6
548.688	13194.88
549.052	13149.91
549.416	13236.23
549.779	13148.33
550.143	13064.26
550.507	13045.5
550.871	13093.86
551.235	12950.59
551.599	13070.14
551.962	13095.9
552.326	12977.48
552.689	13017.48
553.053	12939.74
553.417	12909.24
553.78	13025.39
554.143	12964.6
554.507	12927.77
554.87	12916.47
555.234	12969.35
555.597	12800.09
555.96	12837.37
556.323	12885.96
556.686	12825.17
557.05	12807.77
557.413	12794.89
557.776	12788.11
558.139	12789.69
558.502	12880.31
558.865	12773.42
559.228	12847.09
559.59	12768
559.953	12775.68
560.316	12958.73
560.679	12828.56
561.041	12866.98
561.404	12767.77
561.767	12887.32
562.129	12814.32
562.492	12914.66
562.854	12854.55
563.217	12891.38
563.579	12843.48
563.941	12844.15
564.304	12858.84
564.666	12927.99
565.028	12962.34
565.39	12923.47
565.753	12853.19
566.115	12966.64
566.477	13016.35
566.839	12992.17
567.201	13022.23
567.563	13033.3
567.925	13097.71
568.287	12954.89
568.648	13048.89
569.01	13036.69
569.372	13087.99
569.734	13100.87
570.095	13102
570.457	13109.91
570.819	13095.67
571.18	13178.83
571.542	13156.24
571.903	13189
572.265	13288.89
572.626	13296.12
572.987	13266.97
573.349	13244.14
573.71	13255.22
574.071	13240.75
574.432	13313.52
574.794	13308.55
575.155	13297.02
575.516	13285.5
575.877	13352.39
576.238	13277.59
576.599	13300.86
576.96	13287.53
577.32	13318.04
577.681	13388.77
578.042	13409.34
578.403	13318.94
578.763	13312.16
579.124	13378.38
579.485	13369.11
579.845	13417.92
580.206	13388.55
580.566	13321.2
580.927	13281.88
581.287	13448.43
581.648	13283.24
582.008	13380.64
582.368	13280.53
582.728	13344.03
583.089	13346.51
583.449	13334.08
583.809	13341.77
584.169	13347.64
584.529	13217.48
584.889	13443.23
585.249	13340.19
585.609	13304.03
585.969	13360.98
586.329	13274.42
586.688	13255.67
587.048	13230.36
587.408	13218.38
587.768	13248.66
588.127	13197.36
588.487	13267.19
588.846	13261.77
589.206	13160.3
589.565	13220.19
589.925	13248.44
590.284	13223.13
590.643	13196.91
591.003	13184.71
591.362	13285.5
591.721	13168.67
592.08	13175.67
592.44	13190.36
592.799	13177.03
593.158	13210.47
593.517	13189.68
593.876	13224.71
594.235	13150.81
594.593	13244.6
594.952	13109.91
595.311	13097.71
595.67	13093.86
596.029	13165.05
596.387	13178.61
596.746	13196.69
597.104	13049.8
597.463	13075.56
597.822	13109.68
598.18	13109.01
598.538	13065.39
598.897	13145.16
599.255	13052.51
599.613	13192.39
599.972	13139.74
600.33	13040.98
600.688	13068.1
601.046	13131.6
601.404	13160.76
601.762	13142.23
602.12	13210.7
602.478	13137.71
602.836	13172.73
603.194	13011.61
603.552	13101.1
603.91	13011.38
604.268	13090.48
604.625	13176.57
604.983	13178.16
605.341	13103.58
605.698	13109.68
606.056	13142.45
606.413	13085.73
606.771	13119.63
607.128	13154.2
607.485	13129.34
607.843	13131.6
608.2	13166.18
608.557	13200.75
608.914	13171.83
609.272	13182.22
609.629	13233.75
609.986	13304.25
610.343	13265.39
610.7	13351.49
611.057	13264.71
611.414	13281.2
611.771	13250.02
612.127	13308.55
612.484	13345.84
612.841	13259.51
613.198	13301.09
613.554	13272.17
613.911	13337.7
614.267	13356.91
614.624	13311.49
614.98	13421.77
615.337	13438.71
615.693	13455.89
616.05	13451.82
616.406	13489.11
616.762	13411.37
617.118	13443.69
617.475	13398.26
617.831	13407.3
618.187	13494.53
618.543	13521.88
618.899	13480.75
619.255	13449.79
619.611	13514.19
619.967	13550.12
620.323	13527.07
620.678	13495.44
621.034	13550.35
621.39	13421.31
621.746	13424.03
622.101	13625.83
622.457	13487.75
622.812	13542.89
623.168	13558.26
623.523	13501.99
623.879	13562.1
624.234	13520.07
624.589	13473.06
624.945	13470.58
625.3	13529.33
625.655	13433.06
626.01	13525.49
626.365	13477.58
626.72	13516.9
627.075	13441.2
627.43	13476
627.785	13421.99
628.14	13429.45
628.495	13530.46
628.85	13462.67
629.205	13443.46
629.559	13442.56
629.914	13413.18
630.269	13529.33
630.623	13378.83
630.978	13351.03
631.332	13497.92
631.687	13435.55
632.041	13355.1
632.396	13401.43
632.75	13370.02
633.104	13340.19
633.459	13292.28
633.813	13275.55
634.167	13302.67
634.521	13262.45
634.875	13300.86
635.229	13282.79
635.583	13189.91
635.937	13273.52
636.291	13249.79
636.645	13183.13
636.999	13169.12
637.352	13256.57
637.706	13133.19
638.06	13163.69
638.413	13104.03
638.767	13149.46
639.121	13091.15
639.474	13044.15
639.828	13057.93
640.181	13076.69
640.534	13131.6
640.888	13020.42
641.241	12970.03
641.594	12996.47
641.947	12963.47
642.301	13001.44
642.654	12913.3
643.007	13010.48
643.36	12980.87
643.713	12915.34
644.066	13028.1
644.419	12943.59
644.771	12771.84
645.124	12740.2
645.477	12716.02
645.83	12709.92
646.182	12623.82
646.535	12538.17
646.888	12529.36
647.24	12436.25
647.593	12532.07
647.945	12500.21
648.298	12433.09
648.65	12426.09
649.002	12384.5
649.355	12577.95
649.707	12482.58
650.059	12485.97
650.411	12684.16
650.763	12703.59
651.115	12830.82
651.467	12724.61
651.819	12782.23
652.171	12828.11
652.523	12770.71
652.875	12772.74
653.227	12683.48
653.578	12769.13
653.93	12795.12
654.282	12710.15
654.633	12655.91
654.985	12760.99
655.337	12738.62
655.688	12749.47
656.039	12756.92
656.391	12676.7
656.742	12708.56
657.094	12711.5
657.445	12806.19
657.796	12729.13
658.147	12675.57
658.498	12648.9
658.849	12757.83
659.2	12685.74
659.551	12756.92
659.902	12766.42
660.253	12740.65
660.604	12783.14
660.955	12746.98
661.306	12703.82
661.656	12757.15
662.007	12723.93
662.358	12801.44
662.708	12791.95
663.059	12745.17
663.409	12698.17
663.76	12793.08
664.11	12841.89
664.461	12784.72
664.811	12796.47
665.161	12752.63
665.511	12712.86
665.862	12814.1
666.212	12780.43
666.562	12780.2
666.912	12716.47
667.262	12784.95
667.612	12780.43
667.962	12791.5
668.312	12778.62
668.662	12829.69
669.011	12742.69
669.361	12744.5
669.711	12819.3
670.06	12777.71
670.41	12631.73
670.76	12718.51
671.109	12719.19
671.459	12749.92
671.808	12752.86
672.157	12722.8
672.507	12654.55
672.856	12611.17
673.205	12725.74
673.554	12684.16
673.904	12677.6
674.253	12676.93
674.602	12726.19
674.951	12503.82
675.3	12482.81
675.649	12654.33
675.998	12633.09
676.346	12635.8
676.695	12635.35
677.044	12598.96
677.393	12542.24
677.741	12597.61
678.09	12458.85
678.438	12506.99
678.787	12500.43
679.135	12547.44
679.484	12464.05
679.832	12414.79
680.181	12425.18
680.529	12411.85
680.877	12348.57
681.225	12349.93
681.573	12377.73
681.922	12388.57
682.27	12345.18
682.618	12289.37
682.966	12232.87
683.314	12311.29
683.661	12290.5
684.009	12206.2
684.357	12043.27
684.705	12156.94
685.053	12100.67
685.4	12175.92
685.748	12013.44
686.095	12035.59
686.443	12082.14
686.79	12004.85
687.138	11978.64
687.485	11993.78
687.832	11904.29
688.18	11920.11
688.527	11964.4
688.874	11790.85
689.221	11852.32
689.568	11814.35
689.915	11773.22
690.262	11757.4
690.609	11720.34
690.956	11749.04
691.303	11562.61
691.65	11540.69
691.997	11557.86
692.344	11439.22
692.69	11432.44
693.037	11528.71
693.383	11309.96
693.73	11340.92
694.077	11260.69
694.423	11294.82
694.769	11269.05
695.116	11173.46
695.462	11211.43
695.808	11194.25
696.155	11255.5
696.501	11047.14
696.847	11049.4
697.193	11019.12
697.539	11026.8
697.885	10964.88
698.231	10883.08
698.577	10919.46
698.923	10869.52
699.269	10747.26
699.614	10755.17
699.96	10658.9
700.306	10676.3
700.651	10590.88
700.997	10601.5
701.342	10535.74
701.688	10502.52
702.033	10512.69
702.379	10484.89
702.724	10455.52
703.069	10432.24
703.415	10372.58
703.76	10388.85
704.105	10374.84
704.45	10241.96
704.795	10240.83
705.14	10196.99
705.485	10133.26
705.83	10143.21
706.175	10076.09
706.52	10032.02
706.865	10011.01
707.209	9988.86
707.554	9958.81
707.899	10065.47
708.243	9900.28
708.588	9877.9
708.932	9865.25
709.277	9822.09
709.621	9809.43
709.966	9755.65
710.31	9760.85
710.654	9678.14
710.998	9791.8
711.342	9695.54
711.687	9697.57
712.031	9582.77
712.375	9640.4
712.719	9605.14
713.063	9613.73
713.407	9575.54
713.75	9480.85
714.094	9420.06
714.438	9507.07
714.782	9469.33
715.125	9499.61
715.469	9496.22
715.812	9409.67
716.156	9382.1
716.499	9345.94
716.843	9366.28
717.186	9317.24
717.53	9418.93
717.873	9386.39
718.216	9319.05
718.559	9340.52
718.902	9249.9
719.246	9223.46
719.589	9260.29
719.932	9183.23
720.275	9235.44
720.617	9187.07
720.96	9226.85
721.303	9209
721.646	9190.24
721.989	9132.84
722.331	9174.87
722.674	9128.09
723.016	9110.47
723.359	9107.3
723.701	9089.68
724.044	9147.75
724.386	9147.08
724.729	9148.66
725.071	9125.61
725.413	9037.93
725.755	9049
726.097	9010.81
726.439	9002.45
726.782	9067.3
727.124	9012.62
727.465	9013.52
727.807	9016.23
728.149	8987.98
728.491	8915.44
728.833	8966.06
729.175	8982.11
729.516	8929.23
729.858	9005.84
730.199	9006.29
730.541	8866.63
730.882	8970.58
731.224	8951.37
731.565	8911.38
731.906	8889
732.248	8943.47
732.589	8896.24
732.93	8878.83
733.271	8887.42
733.612	8959.96
733.953	8905.5
734.294	8922.22
734.635	8882.22
734.976	8899.62
735.317	8852.85
735.658	8901.43
735.999	8918.83
736.339	8901.21
736.68	8931.94
737.021	8878.83
737.361	8889.46
737.702	8914.99
738.042	8908.21
738.383	8877.25
738.723	8949.79
739.063	8919.74
739.404	8997.25
739.744	8949.34
740.084	8949.34
740.424	8919.06
740.764	8989.79
741.104	8997.93
741.444	9025.95
741.784	9001.99
742.124	9021.43
742.464	9006.97
742.804	9044.71
743.143	9059.62
743.483	9150.92
743.823	9100.98
744.162	9142.78
744.502	9099.39
744.841	9147.98
745.181	9223.68
745.52	9224.36
745.86	9290.35
746.199	9266.85
746.538	9338.03
746.877	9407.63
747.216	9463
747.556	9440.63
747.895	9514.07
748.234	9535.54
748.573	9558.14
748.911	9627.29
749.25	9661.41
749.589	9695.76
749.928	9842.2
750.267	9898.47
750.605	9888.53
750.944	9992.03
751.283	10026.37
751.621	10120.16
751.96	10206.94
752.298	10250.78
752.636	10456.42
752.975	10438.12
753.313	10491.22
753.651	10704.32
753.989	10703.42
754.327	10860.25
754.666	10954.49
755.004	11033.58
755.342	11181.15
755.679	11326.68
756.017	11302.5
756.355	11537.3
756.693	11662.04
757.031	11826.55
757.368	11870.39
757.706	12124.4
758.044	12203.94
758.381	12401.45
758.719	12511.06
759.056	12670.83
759.394	12851.61
759.731	12876.47
760.068	13100.87
760.405	13137.71
760.743	13344.48
761.08	13492.5
761.417	13607.98
761.754	13815.65
762.091	13967.51
762.428	14143.78
762.765	14314.85
763.102	14495.86
763.438	14680.04
763.775	14677.78
764.112	14889.75
764.449	15106.92
764.785	15282.51
765.122	15363.86
765.458	15442.5
765.795	15508.94
766.131	15715.26
766.467	15865.54
766.804	15998.42
767.14	16061.47
767.476	16249.04
767.812	16370.39
768.148	16564.51
768.485	16581.68
768.821	16748.46
769.157	16751.62
769.492	16925.4
769.828	17106.41
770.164	17113.65
770.5	17269.35
770.836	17385.28
771.171	17384.15
771.507	17520.87
771.842	17594.54
772.178	17712.73
772.513	17797.24
772.849	17826.4
773.184	17846.96
773.519	17981.42
773.855	17960.86
774.19	18045.82
774.525	18187.74
774.86	18312.26
775.195	18237.46
775.53	18335.53
775.865	18332.37
776.2	18271.58
776.535	18343.67
776.87	18451.92
777.205	18331.02
777.539	18426.83
777.874	18540.28
778.209	18409.66
778.543	18582.99
778.878	18481.29
779.212	18596.32
779.547	18509.99
779.881	18597.9
780.215	18541.18
780.55	18726.94
780.884	18569.88
781.218	18589.77
781.552	18561.97
781.886	18634.51
782.22	18604.68
782.554	18666.83
782.888	18576.88
783.222	18466.38
783.556	18449.2
783.889	18409.66
784.223	18425.7
784.557	18438.36
784.89	18560.16
785.224	18430.22
785.557	18468.41
785.891	18386.83
786.224	18349.77
786.558	18382.99
786.891	18272.49
787.224	18327.85
787.557	18287.17
787.891	18196.33
788.224	18334.18
788.557	18357.46
788.89	18267.29
789.223	18246.5
789.556	18174.18
789.888	18102.32
790.221	18079.95
790.554	18030.46
790.887	18123.34
791.219	17912.5
791.552	18022.77
791.884	18012.83
792.217	17840.18
792.549	17869.56
792.882	17815.55
793.214	17696.68
793.546	17780.52
793.879	17687.87
794.211	17558.61
794.543	17646.97
794.875	17625.05
795.207	17636.57
795.539	17600.19
795.871	17563.35
796.203	17371.49
796.535	17371.49
796.867	17359.06
797.198	17327.65
797.53	17437.25
797.862	17277.94
798.193	17269.12
798.525	17163.36
798.856	17158.16
799.188	16992.07
799.519	17051.05
799.85	16957.04
800.182	16939.64
800.513	17022.8
800.844	16866.65
801.175	16953.65
801.506	16950.49
801.837	16772.86
802.168	16759.08
802.499	16695.58
802.83	16611.51
803.161	16655.8
803.491	16638.18
803.822	16596.37
804.153	16512.76
804.483	16449.93
804.814	16506.2
805.145	16342.14
805.475	16394.12
805.805	16261.92
806.136	16309.83
806.466	16218.98
806.796	16254.46
807.126	16148.93
807.457	16195.03
807.787	16174.01
808.117	16108.7
808.447	16038.19
808.777	16032.32
809.107	15913.68
809.436	15902.83
809.766	15946.45
810.096	15852.44
810.426	15764.98
810.755	15858.76
811.085	15849.5
811.414	15704.87
811.744	15619.45
812.073	15580.13
812.403	15607.7
812.732	15533.12
813.061	15508.72
813.39	15457.64
813.719	15449.96
814.049	15600.47
814.378	15448.38
814.707	15367.48
815.036	15349.85
815.365	15346.23
815.693	15166.35
816.022	15304.43
816.351	15219.01
816.68	15163.87
817.008	15180.82
817.337	14962.74
817.665	15116.64
817.994	15043.42
818.322	15007.94
818.651	14985.57
818.979	14913.93
819.307	15012.68
819.636	14918.22
819.964	14849.07
820.292	14979.69
820.62	14915.96
820.948	14817.89
821.276	14896.98
821.604	14806.36
821.932	14898.56
822.259	14913.93
822.587	14889.75
822.915	14808.85
823.243	14893.59
823.57	14741.28
823.898	14838.45
824.225	14771.56
824.553	14838.23
824.88	14765.23
825.207	14875.29
825.535	14777.21
825.862	14823.31
826.189	14784.22
826.516	14874.61
826.843	14911.44
827.17	14847.04
827.497	14882.97
827.824	14849.52
828.151	14906.92
828.478	14837.77
828.805	14918.9
829.131	14943.76
829.458	14790.54
829.785	14766.14
830.111	14789.64
830.438	15006.36
830.764	14856.53
831.09	14872.35
831.417	14782.18
831.743	14867.83
832.069	14838.68
832.395	14761.17
832.722	14881.61
833.048	14764.78
833.374	14793.26
833.7	14700.15
834.026	14778.11
834.351	14716.65
834.677	14712.81
835.003	14732.47
835.329	14696.53
835.654	14676.42
835.98	14630.55
836.306	14659.93
836.631	14547.84
836.956	14623.99
837.282	14672.81
837.607	14637.33
837.932	14582.41
838.258	14544.9
838.583	14450.89
838.908	14457.67
839.233	14560.49
839.558	14474.62
839.883	14353.04
840.208	14303.32
840.533	14448.18
840.858	14333.15
841.182	14320.5
841.507	14360.27
841.832	14163.89
842.156	14229.88
842.481	14263.55
842.805	14208.86
843.13	14166.83
843.454	14101.97
843.778	14077.79
844.103	14106.27
844.427	14032.15
844.751	14081.18
845.075	13957.34
845.399	13909.89
845.723	13861.75
846.047	13826.73
846.371	13774.52
846.695	13771.81
847.019	13609.11
847.343	13535.66
847.666	13511.48
847.99	13468.32
848.313	13462.89
848.637	13364.59
848.96	13360.98
849.284	13311.26
849.607	13245.5
849.931	13214.09
850.254	13050.02
850.577	13044.6
850.9	12986.52
851.223	12984.26
851.546	12887.77
851.869	12763.48
852.192	12866.07
852.515	12715.57
852.838	12640.09
853.161	12655.68
853.483	12624.72
853.806	12512.86
854.129	12546.53
854.451	12443.03
854.774	12458.18
855.096	12454.79
855.419	12444.16
855.741	12370.04
856.063	12195.36
856.385	12281.23
856.708	12203.94
857.03	12214.57
857.352	12131.86
857.674	12076.94
857.996	12080.56
858.318	12024.97
858.64	11982.71
858.961	11949.94
859.283	11988.36
859.605	11814.58
859.926	11901.35
860.248	11840.56
860.57	11801.02
860.891	11804.86
861.212	11692.77
861.534	11724.64
861.855	11704.3
862.176	11743.62
862.498	11686.44
862.819	11711.08
863.14	11647.8
863.461	11579.33
863.782	11562.61
864.103	11542.27
864.424	11507.47
864.745	11553.34
865.065	11391.31
865.386	11421.59
865.707	11443.29
866.027	11485.55
866.348	11410.52
866.668	11361.71
866.989	11303.18
867.309	11221.15
867.63	11322.84
867.95	11246.68
868.27	11222.5
868.59	11237.87
868.91	11207.36
869.23	11220.47
869.55	11154.93
869.87	11212.56
870.19	11167.36
870.51	11165.55
870.83	11185.21
871.15	11140.47
871.469	11106.8
871.789	11123.3
872.109	11024.99
872.428	11006.46
872.748	11049.62
873.067	10999.91
873.386	11110.19
873.706	10972.79
874.025	10881.04
874.344	10877.65
874.663	10921.49
874.982	10898.89
875.301	10824.32
875.62	10852.79
875.939	10846.01
876.258	10812.79
876.577	10748.16
876.896	10805.11
877.214	10777.09
877.533	10748.16
877.852	10668.62
878.17	10759.01
878.489	10790.87
878.807	10715.85
879.125	10698.9
879.444	10672.01
879.762	10629.07
880.08	10688.5
880.398	10520.83
880.716	10586.59
881.034	10591.56
881.352	10531.67
881.67	10533.48
881.988	10527.15
882.306	10456.42
882.624	10406.25
882.941	10400.38
883.259	10396.08
883.577	10385.24
883.894	10379.36
884.212	10328.97
884.529	10279.7
884.846	10258.01
885.164	10267.05
885.481	10223.43
885.798	10218.91
886.115	10243.54
886.432	10204.22
886.75	10147.73
887.067	10198.8
887.383	10082.87
887.7	10033.38
888.017	10109.54
888.334	10014.4
888.651	10039.03
888.967	10040.39
889.284	9921.97
889.6	9916.1
889.917	9907.96
890.233	9902.08
890.55	9823.44
890.866	9778.25
891.182	9784.12
891.498	9727.17
891.815	9668.87
892.131	9660.96
892.447	9666.61
892.763	9630
893.079	9609.89
893.395	9567.63
893.71	9531.47
894.026	9467.52
894.342	9447.41
894.657	9424.58
894.973	9356.11
895.289	9382.78
895.604	9396.33
895.92	9264.13
896.235	9280.63
896.55	9238.82
896.865	9261.88
897.181	9235.66
897.496	9211.71
897.811	9110.47
898.126	9097.36
898.441	9095.55
898.756	8997.48
899.071	8944.82
899.386	8992.96
899.7	8918.83
900.015	8907.53
900.33	8851.49
900.644	8841.55
900.959	8821.66
901.273	8800.42
901.588	8765.84
901.902	8618.5
902.216	8738.5
902.531	8675.45
902.845	8672.74
903.159	8548.67
903.473	8542.57
903.787	8513.42
904.101	8434.55
904.415	8414.44
904.729	8445.63
905.042	8375.57
905.356	8342.13
905.67	8293.31
905.984	8306.19
906.297	8270.26
906.611	8231.85
906.924	8200.43
907.237	8150.49
907.551	8126.09
907.864	8090.83
908.177	7989.59
908.491	8091.96
908.804	7969.93
909.117	7935.36
909.43	7858.97
909.743	7917.73
910.056	7875.7
910.368	7824.62
910.681	7796.38
910.994	7779.65
911.307	7767.9
911.619	7651.97
911.932	7760.67
912.244	7693.1
912.557	7629.83
912.869	7558.19
913.181	7566.1
913.494	7535.82
913.806	7560.22
914.118	7465.31
914.43	7393
914.742	7435.71
915.054	7362.26
915.366	7368.82
915.678	7338.99
915.99	7297.18
916.302	7251.31
916.613	7147.81
916.925	7214.47
917.236	7153.46
917.548	7160.91
917.859	7187.58
918.171	7098.54
918.482	7014.48
918.794	6996.62
919.105	6998.66
919.416	6957.75
919.727	7019.22
920.038	6955.95
920.349	6881.37
920.66	6877.53
920.971	6889.51
921.282	6860.13
921.593	6781.71
921.903	6786.91
922.214	6732
922.525	6700.59
922.835	6664.43
923.146	6634.15
923.456	6587.6
923.767	6573.58
924.077	6548.5
924.387	6564.09
924.697	6481.16
925.008	6458.56
925.318	6459.69
925.628	6421.5
925.938	6331.33
926.248	6359.58
926.558	6351.67
926.867	6327.94
927.177	6285.23
927.487	6266.47
927.796	6186.25
928.106	6208.4
928.416	6147.38
928.725	6177.66
929.034	6136.31
929.344	6129.98
929.653	6109.42
929.962	5997.1
930.271	6047.95
930.581	5996.88
930.89	5953.71
931.199	5939.48
931.508	5895.86
931.817	5931.34
932.125	5880.72
932.434	5883.43
932.743	5839.37
933.051	5839.37
933.36	5838.46
933.669	5691.12
933.977	5740.39
934.286	5733.61
934.594	5717.34
934.902	5665.59
935.21	5632.37
935.519	5670.56
935.827	5614.74
936.135	5586.72
936.443	5522.76
936.751	5468.08
937.059	5520.28
937.367	5497.91
937.674	5451.35
937.982	5429.21
938.29	5395.54
938.597	5388.76
938.905	5369.55
939.213	5363.9
939.52	5339.94
939.827	5268.08
940.135	5283.45
940.442	5245.71
940.749	5214.98
941.056	5213.62
941.363	5167.97
941.67	5137.01
941.977	5147.18
942.284	5112.15
942.591	5098.14
942.898	5095.21
943.205	5080.29
943.511	5047.97
943.818	5002.55
944.125	5003.46
944.431	4907.19
944.738	4960.29
945.044	4916.45
945.35	4905.15
945.657	4872.39
945.963	4808.21
946.269	4852.95
946.575	4860.41
946.881	4792.39
947.187	4774.99
947.493	4747.87
947.799	4723.01
948.105	4714.2
948.41	4647.53
948.716	4673.97
949.022	4657.93
949.327	4677.14
949.633	4626.97
949.938	4625.39
950.244	4589.91
950.549	4518.95
950.854	4548.33
951.16	4511.94
951.465	4469.91
951.77	4524.6
952.075	4456.35
952.38	4441.44
952.685	4423.36
952.99	4392.17
953.294	4376.81
953.599	4345.85
953.904	4377.71
954.209	4325.06
954.513	4344.72
954.818	4286.41
955.122	4286.19
955.426	4288.22
955.731	4240.76
956.035	4207.32
956.339	4232.4
956.643	4160.99
956.948	4150.6
957.252	4128.45
957.556	4179.3
957.86	4137.72
958.163	4081.67
958.467	4088.9
958.771	4079.64
959.075	4096.81
959.378	4024.05
959.682	4048
959.985	3981.11
960.289	3986.31
960.592	3937.27
960.896	3931.62
961.199	3926.65
961.502	3906.08
961.805	3894.33
962.108	3854.56
962.411	3854.11
962.714	3848.01
963.017	3841.68
963.32	3780.66
963.623	3758.97
963.926	3784.96
964.228	3786.99
964.531	3753.09
964.833	3751.74
965.136	3666.99
965.438	3704.73
965.741	3666.77
966.043	3662.7
966.345	3657.05
966.648	3580.22
966.95	3608.46
967.252	3615.47
967.554	3597.17
967.856	3577.96
968.158	3530.95
968.46	3546.09
968.761	3570.05
969.063	3509.71
969.365	3505.42
969.666	3466.1
969.968	3445.76
970.269	3423.84
970.571	3462.48
970.872	3431.52
971.174	3404.85
971.475	3349.94
971.776	3355.36
972.077	3353.78
972.378	3375.48
972.679	3316.95
972.98	3325.53
973.281	3264.07
973.582	3285.54
973.883	3292.31
974.183	3278.53
974.484	3246.44
974.785	3233.56
975.085	3197.85
975.386	3260.9
975.686	3169.38
975.986	3174.35
976.287	3142.26
976.587	3134.8
976.887	3107.69
977.187	3119.66
977.487	3106.78
977.787	3084.86
978.087	3083.96
978.387	3072.43
978.687	3074.47
978.987	3039.44
979.286	3038.31
979.586	3017.29
979.885	3001.02
980.185	2969.84
980.484	2936.39
980.784	2952.89
981.083	2953.57
981.382	2927.13
981.682	2934.58
981.981	2876.96
982.28	2895.04
982.579	2854.81
982.878	2888.03
983.177	2858.2
983.475	2854.13
983.774	2801.48
984.073	2831.76
984.372	2811.2
984.67	2794.7
984.969	2774.81
985.267	2784.76
985.566	2779.56
985.864	2752.89
986.162	2720.8
986.461	2732.33
986.759	2691.43
987.057	2684.42
987.355	2668.38
987.653	2636.06
987.951	2648.49
988.249	2677.42
988.547	2653.46
988.844	2642.84
989.142	2585.67
989.44	2577.98
989.737	2577.53
990.035	2560.36
990.332	2548.15
990.63	2552.22
990.927	2528.49
991.224	2527.14
991.521	2543.41
991.819	2463.64
992.116	2471.77
992.413	2429.74
992.71	2445.11
993.006	2452.79
993.303	2472.9
993.6	2408.95
993.897	2409.4
994.193	2401.72
994.49	2397.2
994.787	2409.17
995.083	2378.67
995.379	2355.62
995.676	2355.39
995.972	2341.83
996.268	2337.09
996.565	2307.48
996.861	2311.1
997.157	2285.34
997.453	2264.77
997.749	2275.17
998.044	2240.36
998.34	2245.79
998.636	2235.39
998.932	2199.69
999.227	2212.12
999.523	2181.84
999.818	2199.24
1000.114	2151.1
1000.409	2171.89
1000.704	2177.09
1001	2137.54
1001.295	2136.86
1001.59	2105
1001.885	2140.25
1002.18	2077.88
1002.475	2083.08
1002.77	2092.8
1003.065	2065.68
1003.359	2040.37
1003.654	2069.97
1003.949	2007.15
1004.243	2035.17
1004.538	2026.13
1004.832	1984.33
1005.127	2017.32
1005.421	1992.91
1005.715	1983.2
1006.009	1942.52
1006.304	1953.59
1006.598	1934.16
1006.892	1935.97
1007.186	1915.18
1007.48	1866.36
1007.773	1860.26
1008.067	1883.31
1008.361	1850.54
1008.655	1838.12
1008.948	1850.77
1009.242	1844.22
1009.535	1801.73
1009.829	1813.71
1010.122	1793.82
1010.415	1815.07
1010.708	1768.51
1011.001	1771.45
1011.295	1746.37
1011.588	1735.52
1011.881	1734.16
1012.173	1721.06
1012.466	1713.37
1012.759	1691.45
1013.052	1716.54
1013.344	1707.05
1013.637	1697.78
1013.93	1668.4
1014.222	1679.02
1014.514	1666.82
1014.807	1671.57
1015.099	1627.73
1015.391	1631.79
1015.683	1601.51
1015.976	1606.26
1016.268	1606.03
1016.56	1589.99
1016.851	1575.52
1017.143	1579.37
1017.435	1563.32
1017.727	1528.75
1018.018	1547.73
1018.31	1515.86
1018.602	1529.65
1018.893	1496.2
1019.185	1511.34
1019.476	1472.25
1019.767	1479.93
1020.058	1460.5
1020.35	1454.4
1020.641	1467.73
1020.932	1411.46
1021.223	1432.02
1021.514	1433.61
1021.804	1393.38
1022.095	1399.48
1022.386	1371.24
1022.677	1383.21
1022.967	1379.37
1023.258	1380.05
1023.548	1351.57
1023.839	1380.5
1024.129	1338.69
1024.419	1355.64
1024.709	1316.77
1025	1330.78
1025.29	1315.87
1025.58	1298.69
1025.87	1292.82
1026.16	1268.41
1026.449	1283.55
1026.739	1261.86
1027.029	1232.71
1027.319	1243.78
1027.608	1249.66
1027.898	1260.05
1028.187	1242.2
1028.477	1215.53
1028.766	1191.58
1029.055	1235.65
1029.344	1190.9
1029.634	1192.26
1029.923	1201.97
1030.212	1183.22
1030.501	1172.82
1030.79	1153.61
1031.078	1133.73
1031.367	1138.02
1031.656	1149.55
1031.945	1131.47
1032.233	1143.22
1032.522	1127.85
1032.81	1103.67
1033.099	1115.87
1033.387	1100.73
1033.675	1097.57
1033.963	1063.67
1034.251	1054.41
1034.54	1062.99
1034.828	1047.18
1035.116	1052.15
1035.403	1047.63
1035.691	1049.89
1035.979	1016.44
1036.267	1037.23
1036.554	1013.96
1036.842	1022.54
1037.129	1003.11
1037.417	980.28
1037.704	1012.15
1037.992	969.21
1038.279	976.44
1038.566	978.48
1038.853	978.48
1039.14	978.48
