Data from hue_60_FLMS001491_3.txt Node
Date: Mon Feb 06 15:11:50 GMT 2017
User: dcchb
Spectrometer: FLMS00149
Trigger mode: 0
Integration Time (sec): 2.000000E-2
Scans to average: 10
Electric dark correction enabled: true
Nonlinearity correction enabled: false
Boxcar width: 0
XAxis mode: Wavelengths
Number of Pixels in Spectrum: 2048
>>>>>Begin Spectral Data<<<<<
341.393	24.14
341.776	24.14
342.16	24.14
342.543	-46.82
342.927	-58.12
343.31	-69.87
343.693	-77.1
344.077	-82.3
344.46	-65.13
344.843	-66.03
345.226	-34.84
345.61	-31.23
345.993	-0.49
346.376	-13.15
346.759	41.31
347.142	24.36
347.525	52.16
347.908	64.59
348.291	81.09
348.674	81.09
349.057	95.55
349.44	140.07
349.823	127.86
350.206	147.75
350.588	188.2
350.971	220.97
351.354	240.4
351.737	235.88
352.119	244.47
352.502	249.67
352.884	292.15
353.267	304.81
353.65	300.97
354.032	325.82
354.414	313.17
354.797	318.59
355.179	317.01
355.562	317.24
355.944	328.31
356.326	340.06
356.709	323.79
357.091	347.07
357.473	352.26
357.855	352.72
358.238	363.56
358.62	348.65
359.002	363.11
359.384	354.3
359.766	350.23
360.148	344.58
360.53	350.23
360.912	335.54
361.294	347.29
361.676	343.68
362.057	329.67
362.439	362.66
362.821	339.16
363.203	334.41
363.584	331.47
363.966	339.38
364.348	340.06
364.729	354.75
365.111	318.82
365.493	330.57
365.874	329.89
366.256	329.89
366.637	340.97
367.019	322.66
367.4	333.51
367.781	320.18
368.163	327.86
368.544	311.36
368.925	340.74
369.306	321.08
369.688	311.36
370.069	331.47
370.45	333.06
370.831	318.59
371.212	324.92
371.593	317.46
371.974	327.63
372.355	321.98
372.736	335.99
373.117	303
373.498	311.14
373.879	309.55
374.26	340.29
374.641	332.83
375.021	321.31
375.402	336.22
375.783	343.45
376.163	343
376.544	343.68
376.925	341.64
377.305	329.67
377.686	316.33
378.066	314.98
378.447	339.61
378.827	335.99
379.208	339.84
379.588	306.16
379.968	333.73
380.349	337.12
380.729	341.42
381.109	337.58
381.489	330.12
381.87	358.82
382.25	347.29
382.63	334.19
383.01	352.04
383.39	331.7
383.77	367.86
384.15	340.06
384.53	346.62
384.91	348.65
385.29	352.49
385.67	352.72
386.049	354.07
386.429	356.56
386.809	363.34
387.189	369.44
387.568	343.9
387.948	364.24
388.328	355.65
388.707	366.05
389.087	385.48
389.466	378.48
389.846	378.48
390.225	354.98
390.605	367.63
390.984	358.82
391.363	384.13
391.743	392.04
392.122	370.8
392.501	379.38
392.881	375.99
393.26	368.08
393.639	387.52
394.018	386.61
394.397	388.65
394.776	383.22
395.155	387.07
395.534	397.24
395.913	373.73
396.292	392.26
396.671	378.03
397.05	392.72
397.429	390
397.808	371.25
398.186	396.11
398.565	407.4
398.944	381.87
399.323	397.46
399.701	383.45
400.08	389.1
400.458	392.94
400.837	381.19
401.215	401.98
401.594	406.27
401.972	413.51
402.351	396.11
402.729	424.58
403.107	406.95
403.486	405.37
403.864	404.47
404.242	404.47
404.62	429.55
404.999	413.28
405.377	427.97
405.755	447.86
406.133	418.48
406.511	429.55
406.889	429.55
407.267	439.04
407.645	430.68
408.023	432.04
408.401	425.26
408.779	414.86
409.156	452.83
409.534	478.82
409.912	452.15
410.29	472.04
410.667	443.79
411.045	448.08
411.422	455.76
411.8	470.23
412.178	473.84
412.555	465.26
412.933	477.91
413.31	479.27
413.687	473.62
414.065	490.57
414.442	497.35
414.819	482.43
415.197	493.73
415.574	490.57
415.951	519.94
416.328	490.11
416.705	526.27
417.082	498.93
417.46	505.26
417.837	486.05
418.214	502.77
418.591	518.14
418.967	526.72
419.344	511.13
419.721	516.1
420.098	533.5
420.475	535.99
420.852	546.38
421.228	529.66
421.605	513.39
421.982	511.81
422.358	568.08
422.735	534.18
423.111	544.35
423.488	543.22
423.864	534.18
424.241	564.01
424.617	563.56
424.994	566.72
425.37	570.11
425.746	557.01
426.123	571.24
426.499	585.48
426.875	578.25
427.251	585.25
427.627	587.29
428.003	563.78
428.379	598.36
428.756	605.14
429.132	613.73
429.507	642.88
429.883	617.34
430.259	640.17
430.635	623.22
431.011	624.57
431.387	641.75
431.763	637.68
432.138	615.99
432.514	642.43
432.89	650.34
433.265	673.84
433.641	630.22
434.016	652.82
434.392	673.84
434.767	672.03
435.143	693.27
435.518	684.69
435.894	728.53
436.269	703.22
436.644	682.43
437.02	690.33
437.395	699.83
437.77	717
438.145	717.23
438.52	729.66
438.895	712.03
439.271	717.68
439.646	733.72
440.021	744.8
440.395	746.15
440.77	736.89
441.145	748.41
441.52	752.93
441.895	763.33
442.27	771.24
442.645	767.4
443.019	780.28
443.394	768.07
443.769	797.22
444.143	793.16
444.518	792.25
444.892	789.99
445.267	778.92
445.641	785.7
446.016	811.91
446.39	819.15
446.764	820.28
447.139	821.63
447.513	814.4
447.887	799.03
448.262	839.03
448.636	842.42
449.01	819.82
449.384	841.52
449.758	834.74
450.132	867.05
450.506	847.17
450.88	857.34
451.254	861.18
451.628	885.81
452.002	888.97
452.376	898.24
452.75	910.89
453.123	881.29
453.497	897.79
453.871	917.22
454.244	931.23
454.618	940.95
454.992	947.5
455.365	950.67
455.739	948.86
456.112	959.03
456.486	969.65
456.859	973.94
457.232	1011
457.606	1020.72
457.979	1006.03
458.352	1020.27
458.725	1050.1
459.099	1042.64
459.472	1063.88
459.845	1091.23
460.218	1058.46
460.591	1090.55
460.964	1078.57
461.337	1131.23
461.71	1132.13
462.083	1165.12
462.456	1181.62
462.829	1170.77
463.201	1178.68
463.574	1194.5
463.947	1227.27
464.32	1235.86
464.692	1234.73
465.065	1290.55
465.438	1269.08
465.81	1300.71
466.183	1324.22
466.555	1334.84
466.928	1330.09
467.3	1377.1
467.672	1364.67
468.045	1435.85
468.417	1439.92
468.789	1437.66
469.161	1472.91
469.534	1483.76
469.906	1520.82
470.278	1540.48
470.65	1576.19
471.022	1619.58
471.394	1656.86
471.766	1672.46
472.138	1690.76
472.51	1739.8
472.882	1765.33
473.253	1823.19
473.625	1857.31
473.997	1906.8
474.369	1940.47
474.74	1953.58
475.112	2008.49
475.484	2088.94
475.855	2147.7
476.227	2137.75
476.598	2232.67
476.97	2297.07
477.341	2358.31
477.713	2402.61
478.084	2473.56
478.455	2566.9
478.827	2612.54
479.198	2692.99
479.569	2772.99
479.94	2837.4
480.311	2909.94
480.682	2998.07
481.053	3110.61
481.424	3239.65
481.795	3264.5
482.166	3384.28
482.537	3495.23
482.908	3622.01
483.279	3658.17
483.65	3765.96
484.021	3913.3
484.391	4022.9
484.762	4126.4
485.133	4216.12
485.503	4342.44
485.874	4511.03
486.244	4595.32
486.615	4745.37
486.985	4868.3
487.356	5040.96
487.726	5141.97
488.097	5330.21
488.467	5412.7
488.837	5584.9
489.207	5741.5
489.578	5894.27
489.948	6047.93
490.318	6231.88
490.688	6388.72
491.058	6517.3
491.428	6681.36
491.798	6858.08
492.168	7058.98
492.538	7201.12
492.908	7369.93
493.278	7534.22
493.648	7676.14
494.017	7867.32
494.387	8004.72
494.757	8249.46
495.126	8410.81
495.496	8515.44
495.866	8641.31
496.235	8864.36
496.605	9089.66
496.974	9222.31
497.344	9380.5
497.713	9592.7
498.082	9758.57
498.452	9912.92
498.821	10010.99
499.19	10118.79
499.559	10382.28
499.928	10588.38
500.298	10688.72
500.667	10867.92
501.036	10965.32
501.405	11161.47
501.774	11288.25
502.143	11509.94
502.512	11563.95
502.88	11809.59
503.249	11954.22
503.618	12174.1
503.987	12232.4
504.356	12403.47
504.724	12546.29
505.093	12683.24
505.462	12860.18
505.83	13048.65
506.199	13156.9
506.567	13453.62
506.936	13568.19
507.304	13692.25
507.672	13882.3
508.041	14016.99
508.409	14184.9
508.777	14385.79
509.145	14521.16
509.514	14621.04
509.882	14854.71
510.25	14873.24
510.618	15112.1
510.986	15234.13
511.354	15402.49
511.722	15594.58
512.09	15727.23
512.458	15815.59
512.826	16045.86
513.193	16083.83
513.561	16277.27
513.929	16400.2
514.297	16688.78
514.664	16846.52
515.032	16844.03
515.4	17172.61
515.767	17113.86
516.135	17356.34
516.502	17310.24
516.869	17661.87
517.237	17733.05
517.604	17804.24
517.972	18113.15
518.339	18194.28
518.706	18335.97
519.073	18349.53
519.44	18623.65
519.808	18844.43
520.175	18827.03
520.542	19118.1
520.909	19213.24
521.276	19436.28
521.643	19657.52
522.009	19834.46
522.376	19845.09
522.743	20052.99
523.11	20172.53
523.477	20481.9
523.843	20602.58
524.21	20841.67
524.577	20959.18
524.943	21118.27
525.31	21182.45
525.676	21519.39
526.043	21594.19
526.409	21744.7
526.776	22031.69
527.142	22084.35
527.508	22198.24
527.874	22352.82
528.241	22536.09
528.607	22589.65
528.973	22864.89
529.339	22838.23
529.705	23169.74
530.071	23342.85
530.437	23360.93
530.803	23580.35
531.169	23809.95
531.535	23700.58
531.901	23880.01
532.267	24093.56
532.632	24113.22
532.998	24260.11
533.364	24341.46
533.73	24447
534.095	24666.88
534.461	24714.34
534.826	24850.15
535.192	24973.54
535.557	25175.11
535.923	25158.84
536.288	25298.05
536.653	25484.94
537.019	25407.65
537.384	25595.89
537.749	25752.73
538.114	25828.66
538.479	25744.14
538.845	25967.86
539.21	25882.89
539.575	26069.1
539.94	26184.13
540.305	26360.17
540.67	26327.85
541.034	26500.96
541.399	26596.09
541.764	26612.82
542.129	26717
542.494	26747.28
542.858	26927.61
543.223	27016.42
543.587	27152.46
543.952	27135.06
544.316	27118.34
544.681	27278.11
545.045	27399.69
545.41	27464.09
545.774	27410.99
546.138	27645.56
546.503	27827.47
546.867	27824.31
547.231	28025.89
547.595	28073.34
547.959	28136.84
548.324	28177.3
548.688	28266.11
549.052	28382.49
549.416	28424.97
549.779	28470.85
550.143	28579.09
550.507	28855.02
550.871	28848.24
551.235	28941.8
551.599	29075.58
551.962	29214.1
552.326	29195.8
552.689	29367.77
553.053	29354.44
553.417	29363.71
553.78	29826.97
554.143	29742.45
554.507	29918.72
554.87	29952.39
555.234	30238.94
555.597	30003.24
555.96	30239.84
556.323	30386.96
556.686	30418.37
557.05	30742.43
557.413	30713.27
557.776	30838.02
558.139	31038.69
558.502	30947.17
558.865	31188.29
559.228	31463.76
559.59	31534.5
559.953	31680.25
560.316	31963.86
560.679	31853.81
561.041	32059
561.404	32191.88
561.767	32363.85
562.129	32416.51
562.492	32597.97
562.854	32725.2
563.217	32768.59
563.579	32951.41
563.941	33079.77
564.304	33211.06
564.666	33485.4
565.028	33541.67
565.39	33680.88
565.753	33840.2
566.115	33918.39
566.477	34096.01
566.839	34190.25
567.201	34253.29
567.563	34414.19
567.925	34722.43
568.287	34629.33
568.648	34732.38
569.01	34966.27
569.372	35154.51
569.734	35036.1
570.095	35308.86
570.457	35391.8
570.819	35517.89
571.18	35501.4
571.542	35731.9
571.903	35767.38
572.265	35898.22
572.626	35946.81
572.987	36146.8
573.349	36218.89
573.71	36443.29
574.071	36420.02
574.432	36561.48
574.794	36828.59
575.155	36798.99
575.516	36801.25
575.877	36892.32
576.238	37018.65
576.599	37111.75
576.96	37149.04
577.32	37125.76
577.681	37271.29
578.042	37436.26
578.403	37519.42
578.763	37495.47
579.124	37576.37
579.485	37660.66
579.845	37858.85
580.206	37644.17
580.566	37716.25
580.927	37695.46
581.287	37869.47
581.648	37883.93
582.008	37980.2
582.368	38001.22
582.728	38156.92
583.089	38011.84
583.449	38062.91
583.809	38048.67
584.169	38126.86
584.529	38001.22
584.889	38379.51
585.249	38175.68
585.609	38084.83
585.969	38328.67
586.329	38137.26
586.688	38331.15
587.048	38310.81
587.408	38185.85
587.768	38264.71
588.127	38177.94
588.487	38245.73
588.846	38527.98
589.206	38127.54
589.565	38192.4
589.925	38604.14
590.284	38456.57
590.643	38457.7
591.003	38579.73
591.362	38653.18
591.721	38476.91
592.08	38585.84
592.44	38685.72
592.799	38784.02
593.158	38623.12
593.517	38716.23
593.876	38756.68
594.235	38675.1
594.593	38774.08
594.952	38926.17
595.311	38709.67
595.67	38800.29
596.029	39041.64
596.387	39032.83
596.746	39176.55
597.104	38912.61
597.463	39044.81
597.822	39172.03
598.18	39014.98
598.538	38913.28
598.897	39253.61
599.255	38851.82
599.613	39643.44
599.972	39222.2
600.33	39404.57
600.688	39220.85
601.046	39262.43
601.404	39494.29
601.762	39471.24
602.12	39592.59
602.478	39592.59
602.836	39597.11
603.194	39440.95
603.552	39678.46
603.91	39453.16
604.268	39742.19
604.625	39562.53
604.983	39906.03
605.341	39661.51
605.698	39882.75
606.056	39909.64
606.413	40030.54
606.771	40051.56
607.128	40233.48
607.485	40093.59
607.843	40097.21
608.2	40358.67
608.557	40496.52
608.914	40383.08
609.272	40494.94
609.629	40739.23
609.986	40797.3
610.343	40521.6
610.7	41077.52
611.057	40744.42
611.414	40783.52
611.771	40820.81
612.127	41085.66
612.484	41146.22
612.841	41217.86
613.198	41076.62
613.554	41181.93
613.911	41350.73
614.267	41317.06
614.624	41313.9
614.98	41474.35
615.337	41539.43
615.693	41352.09
616.05	41492.65
616.406	41688.58
616.762	41566.55
617.118	41698.52
617.475	41632.31
617.831	41858.07
618.187	41911.17
618.543	41914.11
618.899	42219.41
619.255	42199.3
619.611	42132.64
619.967	42193.65
620.323	42216.93
620.678	42207.44
621.034	42228.9
621.39	42326.53
621.746	42290.37
622.101	42715.22
622.457	42427.32
622.812	42601.1
623.168	42597.26
623.523	42584.83
623.879	42582.57
624.234	42376.7
624.589	42576.69
624.945	42567.65
625.3	42751.15
625.655	42670.02
626.01	42803.13
626.365	42827.08
626.72	42704.15
627.075	42711.38
627.43	42682.45
627.785	42757.25
628.14	42744.14
628.495	42658.5
628.85	42691.72
629.205	42619.18
629.559	42855.1
629.914	42707.99
630.269	42676.8
630.623	42654.43
630.978	42584.15
631.332	42722.22
631.687	42766.29
632.041	42568.78
632.396	42676.8
632.75	42623.47
633.104	42591.61
633.459	42379.18
633.813	42359.97
634.167	42299.86
634.521	42438.84
634.875	42414.21
635.229	42459.41
635.583	42248.11
635.937	42290.15
636.291	42304.83
636.645	42302.57
636.999	42008.12
637.352	42365.4
637.706	42136.25
638.06	42325.4
638.413	42210.37
638.767	42124.5
639.121	42121.56
639.474	41911.85
639.828	41999.31
640.181	41961.57
640.534	42144.39
640.888	41921.79
641.241	41670.05
641.594	41822.13
641.947	42047.44
642.301	41796.37
642.654	41790.95
643.007	41800.89
643.36	41866.43
643.713	41811.97
644.066	41772.42
644.419	41483.39
644.771	41409.49
645.124	41012.66
645.477	41000.46
645.83	40711.2
646.182	40566.12
646.535	40449.52
646.888	40601.38
647.24	40212.01
647.593	40625.33
647.945	40345.56
648.298	40345.34
648.65	40321.84
649.002	40156.64
649.355	40443.64
649.707	40239.35
650.059	40497.65
650.411	40806.57
650.763	40948.26
651.115	41218.31
651.467	41185.54
651.819	41113
652.171	40956.39
652.523	40981.7
652.875	40995.94
653.227	40881.37
653.578	41018.99
653.93	40929.5
654.282	40704.42
654.633	40650.19
654.985	40736.29
655.337	40762.73
655.688	40784.42
656.039	40844.53
656.391	40547.82
656.742	40609.06
657.094	40611.55
657.445	40601.6
657.796	40542.39
658.147	40535.39
658.498	40587.14
658.849	40569.06
659.2	40545.56
659.551	40417.65
659.902	40593.92
660.253	40374.49
660.604	40549.4
660.955	40401.61
661.306	40499.01
661.656	40478.89
662.007	40431.66
662.358	40407.03
662.708	40494.49
663.059	40459.46
663.409	40176.98
663.76	40445.67
664.11	40346.24
664.461	40358.22
664.811	40433.92
665.161	40322.51
665.511	40323.64
665.862	40282.51
666.212	40304.43
666.562	40484.32
666.912	40292.46
667.262	40339.24
667.612	40316.19
667.962	40254.94
668.312	40327.71
668.662	40432.11
669.011	40299.69
669.361	40284.1
669.711	40278.9
670.06	40169.07
670.41	40075.51
670.76	39919.59
671.109	40201.84
671.459	40115.06
671.808	39922.3
672.157	40108.73
672.507	39723.66
672.856	39805.69
673.205	39840.49
673.554	40081.16
673.904	39768.86
674.253	40156.87
674.602	40068.96
674.951	39449.77
675.3	39217.46
675.649	39915.74
675.998	39825.58
676.346	39803.43
676.695	39931.11
677.044	39583.32
677.393	39860.6
677.741	39939.25
678.09	39743.32
678.438	39508.98
678.787	39796.2
679.135	39670.1
679.484	39460.61
679.832	39487.73
680.181	39325.48
680.529	39402.31
680.877	39270.11
681.225	39230.11
681.573	39413.38
681.922	39150.57
682.27	39128.87
682.618	39207.51
682.966	39065.82
683.314	39192.15
683.661	38992.15
684.009	38697.02
684.357	38858.14
684.705	38652.05
685.053	38854.76
685.4	38652.05
685.748	38461.77
686.095	38515.56
686.443	38330.02
686.79	38279.18
687.138	38342.45
687.485	38349.91
687.832	38194.43
688.18	38292.74
688.527	37978.39
688.874	38031.95
689.221	37950.37
689.568	37943.14
689.915	37899.53
690.262	37669.7
690.609	37679.64
690.956	37514.45
691.303	37504.28
691.65	37302.48
691.997	37381.57
692.344	37079.89
692.69	37063.84
693.037	37176.38
693.383	36667.47
693.73	36872.43
694.077	36812.77
694.423	36809.84
694.769	36559.45
695.116	36404.42
695.462	36315.16
695.808	36350.64
696.155	36462.73
696.501	36053.02
696.847	36163.75
697.193	35861.61
697.539	35995.4
697.885	35694.39
698.231	35674.05
698.577	35598.57
698.923	35628.85
699.269	35486.71
699.614	35398.8
699.96	35303.44
700.306	35349.54
700.651	35334.62
700.997	35012.6
701.342	34949.32
701.688	34972.82
702.033	34885.82
702.379	34821.41
702.724	34721.98
703.069	34901.86
703.415	34291.49
703.76	34420.75
704.105	34404.48
704.45	34196.35
704.795	34019.4
705.14	34016.46
705.485	34002.45
705.83	33728.79
706.175	33844.04
706.52	33722.46
706.865	33723.14
707.209	33620.32
707.554	33609.92
707.899	33489.02
708.243	33355.01
708.588	33407.67
708.932	33047.45
709.277	33138.75
709.621	33165.87
709.966	32847.46
710.31	32953.67
710.654	32777.63
710.998	32696.27
711.342	32761.36
711.687	32632.09
712.031	32413.34
712.375	32315.04
712.719	32372.67
713.063	32473.68
713.407	32443.85
713.75	32271.43
714.094	32174.25
714.438	32097.87
714.782	32099.45
715.125	31975.16
715.469	31947.14
715.812	31723.42
716.156	31753.92
716.499	31720.25
716.843	31498.11
717.186	31487.04
717.53	31600.26
717.873	31670.31
718.216	31605.45
718.559	31400.94
718.902	31121.17
719.246	31120.5
719.589	31161.62
719.932	31042.53
720.275	31079.82
720.617	30942.65
720.96	31031.46
721.303	30946.04
721.646	30978.35
721.989	30853.16
722.331	30933.16
722.674	30799.37
723.016	30840.05
723.359	30700.17
723.701	30604.12
724.044	30430.34
724.386	30366.39
724.729	30429.21
725.071	30311.25
725.413	30465.6
725.755	30267.64
726.097	30309.22
726.439	30118.04
726.782	30121.65
727.124	30274.19
727.465	30130.24
727.807	29915.56
728.149	29910.81
728.491	29894.99
728.833	30048.43
729.175	29925.95
729.516	29785.16
729.858	29730.02
730.199	29633.98
730.541	29509.69
730.882	29566.86
731.224	29698.61
731.565	29415.46
731.906	29479.18
732.248	29458.62
732.589	29147.44
732.93	29209.36
733.271	29259.53
733.612	29096.82
733.953	29230.83
734.294	29054.11
734.635	28982.02
734.976	29015.24
735.317	28943.38
735.658	28970.04
735.999	28914.68
736.339	28831.29
736.68	29080.55
737.021	28640.11
737.361	28704.06
737.702	28857.05
738.042	28735.7
738.383	28764.4
738.723	28667.68
739.063	28503.84
739.404	28669.03
739.744	28523.05
740.084	28457.51
740.424	28529.83
740.764	28257.07
741.104	28387.91
741.444	28166.67
741.784	28157.64
742.124	28192.21
742.464	28173.68
742.804	28080.58
743.143	28080.35
743.483	28022.5
743.823	27939.56
744.162	27806.46
744.502	27883.74
744.841	27810.53
745.181	27818.21
745.52	27721.49
745.86	27673.13
746.199	27756.52
746.538	27647.14
746.877	27754.26
747.216	27684.2
747.556	27454.38
747.895	27413.93
748.234	27377.09
748.573	27356.53
748.911	27283.99
749.25	27375.51
749.589	27184.33
749.928	27114.05
750.267	27259.58
750.605	27202.18
750.944	27049.87
751.283	26930.77
751.621	27038.34
751.96	26873.83
752.298	26908.4
752.636	26768.07
752.975	26806.03
753.313	26704.79
753.651	26686.49
753.989	26609.2
754.327	26578.47
754.666	26492.37
755.004	26455.08
755.342	26493.27
755.679	26408.53
756.017	26199.27
756.355	26329.43
756.693	26132.38
757.031	26211.25
757.368	25981.65
757.706	25911.82
758.044	25909.11
758.381	25972.61
758.719	25847.64
759.056	25799.28
759.394	25698.49
759.731	25582.34
760.068	25532.39
760.405	25269.8
760.743	25361.78
761.08	25282.68
761.417	25270.93
761.754	25171.5
762.091	25082.01
762.428	25103.93
762.765	24808.12
763.102	24926.53
763.438	24778.06
763.775	24663.94
764.112	24707.1
764.449	24676.14
764.785	24584.85
765.122	24270.05
765.458	24240.9
765.795	24294.91
766.131	24199.1
766.467	24040.46
766.804	24044.3
767.14	23827.58
767.476	23822.38
767.812	23856.73
768.148	23762.04
768.485	23719.33
768.821	23535.84
769.157	23586.23
769.492	23524.31
769.828	23422.39
770.164	23266.69
770.5	23165
770.836	23216.07
771.171	22993.7
771.507	23013.82
771.842	22895.85
772.178	22859.47
772.513	22714.39
772.849	22697.67
773.184	22528.4
773.519	22547.16
773.855	22506.26
774.19	22325.92
774.525	22357.79
774.86	22277.11
775.195	22075.76
775.53	22094.29
775.865	21947.86
776.2	21801.42
776.535	21626.51
776.87	21650.69
777.205	21601.65
777.539	21629.67
777.874	21533.4
778.209	21236.24
778.543	21144.71
778.878	21182.45
779.212	21183.81
779.547	21057.48
779.881	21147.2
780.215	21016.58
780.55	20943.36
780.884	20864.49
781.218	20825.85
781.552	20771.39
781.886	20743.37
782.22	20547.67
782.554	20485.52
782.888	20247.56
783.222	20192.2
783.556	20130.05
783.889	20147.68
784.223	20062.48
784.557	19892.77
784.89	19989.49
785.224	19802.15
785.557	19765.54
785.891	19735.48
786.224	19568.48
786.558	19604.41
786.891	19382.95
787.224	19374.36
787.557	19261.82
787.891	19212.33
788.224	19254.37
788.557	19231.99
788.89	19162.62
789.223	19126.69
789.556	18823.19
789.888	18929.4
790.221	18893.92
790.554	18636.98
790.887	18721.95
791.219	18539.58
791.552	18534.61
791.884	18428.4
792.217	18476.76
792.549	18339.36
792.882	18206.26
793.214	18086.71
793.546	18294.62
793.879	18101.85
794.211	17866.61
794.543	18028.64
794.875	17853.05
795.207	17908.87
795.539	17823.9
795.871	17811.92
796.203	17666.39
796.535	17617.8
796.867	17498.03
797.198	17498.71
797.53	17458.03
797.862	17423.23
798.193	17433.17
798.525	17331.48
798.856	17243.12
799.188	17127.42
799.519	17026.4
799.85	16961.32
800.182	17003.58
800.513	16920.19
800.844	16850.59
801.175	16917.93
801.506	16832.51
801.837	16749.12
802.168	16704.83
802.499	16596.36
802.83	16620.99
803.161	16611.05
803.491	16487.43
803.822	16475.46
804.153	16364.5
804.483	16287.44
804.814	16232.53
805.145	16194.11
805.475	16218.29
805.805	16082.25
806.136	16105.52
806.466	16098.74
806.796	16121.57
807.126	15999.31
807.457	15854.46
807.787	15901.91
808.117	15830.05
808.447	15779.2
808.777	15792.99
809.107	15712.31
809.436	15621.02
809.766	15718.19
810.096	15556.84
810.426	15500.34
810.755	15453.11
811.085	15518.19
811.414	15458.31
811.744	15309.61
812.073	15256.28
812.403	15341.02
812.732	15154.81
813.061	15204.3
813.39	15121.82
813.719	15061.93
814.049	15137.19
814.378	14927.02
814.707	15001.37
815.036	15015.61
815.365	14876.63
815.693	14770.42
816.022	14833.92
816.351	14729.74
816.68	14638.22
817.008	14764.09
817.337	14526.58
817.665	14580.37
817.994	14588.73
818.322	14586.47
818.651	14470.09
818.979	14606.35
819.307	14499.24
819.636	14419.24
819.964	14420.14
820.292	14444.32
820.62	14399.58
820.948	14292.24
821.276	14434.61
821.604	14247.72
821.932	14298.34
822.259	14324.1
822.587	14336.08
822.915	14204.33
823.243	14270.77
823.57	14224.22
823.898	14266.93
824.225	14191.9
824.553	14181.05
824.88	14171.79
825.207	14253.14
825.535	14175.63
825.862	14187.16
826.189	14153.71
826.516	14220.15
826.843	14245.23
827.17	14292.46
827.497	14280.94
827.824	14255.18
828.151	14259.47
828.478	14264.22
828.805	14345.8
829.131	14195.52
829.458	14175.63
829.785	14166.59
830.111	14124.33
830.438	14149.64
830.764	14131.34
831.09	14296.3
831.417	14132.69
831.743	14239.36
832.069	14105.12
832.395	14065.35
832.722	14225.12
833.048	14094.5
833.374	14089.08
833.7	13968.63
834.026	14007.5
834.351	14020.38
834.677	14133.15
835.003	14019.48
835.329	13941.29
835.654	13940.38
835.98	13963.66
836.306	13977.22
836.631	13955.3
836.956	13919.37
837.282	13942.87
837.607	13841.18
837.932	13794.4
838.258	13779.71
838.583	13855.64
838.908	13699.94
839.233	13784.91
839.558	13690.45
839.883	13651.8
840.208	13564.12
840.533	13616.1
840.858	13592.14
841.182	13621.52
841.507	13567.96
841.832	13525.48
842.156	13483.22
842.481	13431.92
842.805	13438.02
843.13	13447.97
843.454	13325.93
843.778	13305.37
844.103	13275.99
844.427	13286.39
844.751	13330.91
845.075	13241.42
845.399	13211.81
845.723	13102.44
846.047	13135.88
846.371	13047.52
846.695	13043
847.019	12887.53
847.343	12848.66
847.666	12776.34
847.99	12736.8
848.313	12738.15
848.637	12645.27
848.96	12574.32
849.284	12541.1
849.607	12471.49
849.931	12481.66
850.254	12367.54
850.577	12344.27
850.9	12172.07
851.223	12261.56
851.546	12188.34
851.869	12098.85
852.192	12226.3
852.515	12024.05
852.838	11974.11
853.161	11977.72
853.483	11891.4
853.806	11866.54
854.129	11901.79
854.451	11813.88
854.774	11779.53
855.096	11731.85
855.419	11627
855.741	11671.97
856.063	11561.46
856.385	11636.26
856.708	11521.69
857.03	11496.15
857.352	11531.41
857.674	11470.62
857.996	11417.51
858.318	11377.51
858.64	11334.8
858.961	11356.5
859.283	11284.63
859.605	11246.89
859.926	11300.9
860.248	11214.13
860.57	11153.79
860.891	11157.63
861.212	11135.03
861.534	11053.45
861.855	11103.17
862.176	11030.18
862.498	11024.53
862.819	11042.38
863.14	10918.54
863.461	10962.61
863.782	10888.03
864.103	10936.39
864.424	10906.34
864.745	10876.51
865.065	10748.6
865.386	10796.74
865.707	10754.7
866.027	10819.11
866.348	10766.45
866.668	10696.85
866.989	10808.71
867.309	10627.47
867.63	10641.94
867.95	10700.69
868.27	10603.52
868.59	10578.21
868.91	10609.62
869.23	10571.88
869.55	10600.81
869.87	10594.71
870.19	10530.3
870.51	10565.56
870.83	10528.27
871.15	10429.74
871.469	10440.59
871.789	10468.61
872.109	10402.62
872.428	10394.94
872.748	10417.54
873.067	10439.91
873.386	10405.56
873.706	10384.32
874.025	10336.86
874.344	10244.43
874.663	10362.85
874.982	10238.78
875.301	10258.22
875.62	10276.75
875.939	10222.74
876.258	10180.03
876.577	10134.38
876.896	10185.45
877.214	10171.89
877.533	10195.85
877.852	10149.3
878.17	10170.31
878.489	10145.45
878.807	10150.65
879.125	10082.86
879.444	10052.12
879.762	10006.47
880.08	10068.17
880.398	9980.94
880.716	9987.72
881.034	10006.47
881.352	9967.83
881.67	9986.36
881.988	9884.44
882.306	9831.79
882.624	9841.73
882.941	9802.86
883.259	9747.05
883.577	9741.17
883.894	9711.57
884.212	9725.35
884.529	9683.77
884.846	9658.46
885.164	9652.36
885.481	9612.13
885.798	9658.46
886.115	9555.19
886.432	9505.92
886.75	9563.55
887.067	9571.46
887.383	9510.89
887.7	9544.34
888.017	9433.16
888.334	9493.49
888.651	9432.03
888.967	9393.16
889.284	9328.07
889.6	9347.96
889.917	9277.68
890.233	9271.8
890.55	9270.45
890.866	9234.52
891.182	9187.51
891.498	9212.37
891.815	9105.48
892.131	9093.28
892.447	9098.7
892.763	9074.07
893.079	9021.64
893.395	9000.85
893.71	9005.37
894.026	8953.39
894.342	8890.57
894.657	8885.37
894.973	8832.27
895.289	8827.52
895.604	8829.78
895.92	8780.07
896.235	8727.86
896.55	8773.06
896.865	8743.46
897.181	8658.49
897.496	8632.27
897.811	8601.99
898.126	8562.22
898.441	8557.25
898.756	8526.97
899.071	8462.79
899.386	8498.94
899.7	8400.87
900.015	8389.57
900.33	8354.77
900.644	8305.28
900.959	8287.2
901.273	8332.85
901.588	8298.72
901.902	8204.04
902.216	8215.56
902.531	8162
902.845	8159.07
903.159	8134.66
903.473	8023.02
903.787	7988.45
904.101	8043.81
904.415	7973.76
904.729	7980.76
905.042	7891.28
905.356	7915.23
905.67	7894.44
905.984	7880.88
906.297	7847.43
906.611	7763.82
906.924	7747.55
907.237	7685.63
907.551	7697.61
907.864	7657.84
908.177	7611.73
908.491	7636.14
908.804	7501.68
909.117	7554.34
909.43	7493.32
909.743	7443.15
910.056	7417.62
910.368	7410.16
910.681	7350.95
910.994	7376.94
911.307	7312.31
911.619	7254.91
911.932	7275.02
912.244	7244.74
912.557	7211.07
912.869	7169.94
913.181	7086.32
913.494	7134.23
913.806	7046.55
914.118	7075.03
914.43	7031.41
914.742	6985.76
915.054	6942.37
915.366	6925.88
915.678	6964.07
915.99	6873.9
916.302	6844.52
916.613	6838.87
916.925	6771.98
917.236	6799.33
917.548	6727.92
917.859	6762.27
918.171	6664.87
918.482	6674.36
918.794	6634.59
919.105	6569.95
919.416	6552.1
919.727	6508.49
920.038	6578.99
920.349	6496.51
920.66	6462.16
920.971	6439.56
921.282	6374.25
921.593	6376.97
921.903	6356.63
922.214	6327.7
922.525	6278.21
922.835	6307.81
923.146	6238.44
923.456	6183.75
923.767	6196.18
924.077	6169.29
924.387	6127.03
924.697	6157.31
925.008	6100.81
925.318	6075.96
925.628	6040.7
925.938	5976.3
926.248	6019.01
926.558	5920.71
926.867	5929.29
927.177	5932.91
927.487	5859.92
927.796	5795.74
928.106	5839.58
928.416	5846.36
928.725	5838.67
929.034	5748.51
929.344	5786.25
929.653	5761.16
929.962	5711.67
930.271	5668.96
930.581	5702.86
930.89	5594.84
931.199	5609.08
931.508	5607.04
931.817	5534.95
932.125	5539.7
932.434	5546.48
932.743	5442.75
933.051	5446.59
933.36	5421.51
933.669	5412.7
933.977	5388.52
934.286	5352.36
934.594	5374.05
934.902	5341.06
935.21	5303.32
935.519	5292.93
935.827	5256.54
936.135	5233.27
936.443	5192.36
936.751	5164.79
937.059	5171.12
937.367	5119.82
937.674	5118.69
937.982	5172.48
938.29	5099.03
938.597	5110.11
938.905	5059.94
939.213	4994.18
939.52	5012.71
939.827	5051.58
940.135	4946.49
940.442	4967.28
940.749	4889.55
941.056	4915.08
941.363	4879.15
941.67	4888.42
941.977	4819.04
942.284	4803.67
942.591	4790.34
942.898	4774.07
943.205	4767.06
943.511	4756.44
943.818	4690.68
944.125	4683.9
944.431	4637.58
944.738	4658.82
945.044	4623.56
945.35	4593.74
945.657	4578.82
945.963	4553.51
946.269	4523
946.575	4490.91
946.881	4490.91
947.187	4485.49
947.493	4430.8
947.799	4466.96
948.105	4428.32
948.41	4390.58
948.716	4415.89
949.022	4346.06
949.327	4380.86
949.633	4325.49
949.938	4289.56
950.244	4328.88
950.549	4273.07
950.854	4210.02
951.16	4253.41
951.465	4230.13
951.77	4210.69
952.075	4171.6
952.38	4141.77
952.685	4157.59
952.99	4087.76
953.294	4118.04
953.599	4098.61
953.904	4056.8
954.209	4074.88
954.513	4040.53
954.818	4013.64
955.122	3999.85
955.426	3958.72
955.731	3967.31
956.035	3907.88
956.339	3913.53
956.643	3892.74
956.948	3913.98
957.252	3877.37
957.556	3883.7
957.86	3851.61
958.163	3820.42
958.467	3812.51
958.771	3818.16
959.075	3785.39
959.378	3786.75
959.682	3807.54
959.985	3751.95
960.289	3707.66
960.592	3703.59
960.896	3704.49
961.199	3683.7
961.502	3644.83
961.805	3651.84
962.108	3629.24
962.411	3633.53
962.714	3588.79
963.017	3533.42
963.32	3579.52
963.623	3549.92
963.926	3550.15
964.228	3532.97
964.531	3498.17
964.833	3522.58
965.136	3499.75
965.438	3463.37
965.741	3455.46
966.043	3454.33
966.345	3383.6
966.648	3416.36
966.95	3396.48
967.252	3377.5
967.554	3348.57
967.856	3353.09
968.158	3320.55
968.46	3285.07
968.761	3286.42
969.063	3300.66
969.365	3249.36
969.666	3229.7
969.968	3215.01
970.269	3207.1
970.571	3220.21
970.872	3215.24
971.174	3174.34
971.475	3166.43
971.776	3122.36
972.077	3163.72
972.378	3125.53
972.679	3105.19
972.98	3113.32
973.281	3096.15
973.582	3063.83
973.883	3087.11
974.183	3038.07
974.484	3040.33
974.785	3021.8
975.085	2971.86
975.386	3000.33
975.686	3044.4
975.986	2958.98
976.287	2966.89
976.587	2965.53
976.887	2909.49
977.187	2916.49
977.487	2919.43
977.787	2850.28
978.087	2857.74
978.387	2826.78
978.687	2861.58
978.987	2819.54
979.286	2826.1
979.586	2809.6
979.885	2789.49
980.185	2759.43
980.484	2788.13
980.784	2764.4
981.083	2749.72
981.382	2753.11
981.682	2714.69
981.981	2702.03
982.28	2674.24
982.579	2697.06
982.878	2670.62
983.177	2655.93
983.475	2644.18
983.774	2620.68
984.073	2636.72
984.372	2610.96
984.67	2606.89
984.969	2598.76
985.267	2604.63
985.566	2591.3
985.864	2570.51
986.162	2561.25
986.461	2566.9
986.759	2521.25
987.057	2506.78
987.355	2500.46
987.653	2467.92
987.951	2489.61
988.249	2502.49
988.547	2469.27
988.844	2446.22
989.142	2456.39
989.44	2417.3
989.737	2415.94
990.035	2430.18
990.332	2399.22
990.63	2402.83
990.927	2376.17
991.224	2375.26
991.521	2344.75
991.819	2365.55
992.116	2349.05
992.413	2314.7
992.71	2313.12
993.006	2283.74
993.303	2271.08
993.6	2297.98
993.897	2280.58
994.193	2292.33
994.49	2251.2
994.787	2269.05
995.083	2248.94
995.379	2216.4
995.676	2190.63
995.972	2184.31
996.268	2196.96
996.565	2190.18
996.861	2152.67
997.157	2120.13
997.453	2152.44
997.749	2154.48
998.044	2115.38
998.34	2112.22
998.636	2116.96
998.932	2053.01
999.227	2086.68
999.523	2046.23
999.818	2049.85
1000.114	2037.19
1000.409	2048.72
1000.704	2027.02
1001	2023.18
1001.295	2009.17
1001.59	2013.01
1001.885	1985.89
1002.18	1973.92
1002.475	1922.62
1002.77	1967.36
1003.065	1970.08
1003.359	1952.45
1003.654	1937.99
1003.949	1916.52
1004.243	1913.13
1004.538	1901.15
1004.832	1884.2
1005.127	1843.52
1005.421	1864.32
1005.715	1842.85
1006.009	1847.37
1006.304	1848.04
1006.598	1808.95
1006.892	1816.18
1007.186	1814.83
1007.48	1810.53
1007.773	1792.23
1008.067	1770.31
1008.361	1733.02
1008.655	1751.32
1008.948	1749.97
1009.242	1745.45
1009.535	1763.3
1009.829	1696.18
1010.122	1713.81
1010.415	1710.87
1010.708	1691.21
1011.001	1686.01
1011.295	1680.14
1011.588	1654.15
1011.881	1657.99
1012.173	1627.71
1012.466	1635.85
1012.759	1631.1
1013.052	1596.75
1013.344	1600.37
1013.637	1596.53
1013.93	1610.99
1014.222	1565.57
1014.514	1557.2
1014.807	1566.7
1015.099	1542.29
1015.391	1528.96
1015.683	1551.78
1015.976	1527.83
1016.268	1506.36
1016.56	1515.85
1016.851	1485.57
1017.143	1469.75
1017.435	1479.01
1017.727	1467.04
1018.018	1454.38
1018.31	1426.81
1018.602	1420.94
1018.893	1421.62
1019.185	1418.45
1019.476	1420.26
1019.767	1409.41
1020.058	1411.22
1020.35	1387.72
1020.641	1370.32
1020.932	1364.89
1021.223	1369.87
1021.514	1353.37
1021.804	1356.98
1022.095	1327.83
1022.386	1325.12
1022.677	1322.86
1022.967	1316.31
1023.258	1317.66
1023.548	1301.17
1023.839	1286.03
1024.129	1302.97
1024.419	1253.71
1024.709	1249.87
1025	1242.86
1025.29	1240.83
1025.58	1239.93
1025.87	1245.35
1026.16	1212.13
1026.449	1242.86
1026.739	1201.73
1027.029	1219.13
1027.319	1202.86
1027.608	1168.51
1027.898	1175.29
1028.187	1158.12
1028.477	1150.21
1028.766	1170.32
1029.055	1135.97
1029.344	1126.03
1029.634	1111.57
1029.923	1107.73
1030.212	1140.27
1030.501	1113.83
1030.79	1112.7
1031.078	1102.75
1031.367	1088.29
1031.656	1065.01
1031.945	1067.05
1032.233	1052.36
1032.522	1075.86
1032.81	1051.91
1033.099	1065.47
1033.387	1019.37
1033.675	1040.16
1033.963	1042.42
1034.251	1033.15
1034.54	1005.13
1034.828	994.51
1035.116	1041.29
1035.403	1003.77
1035.691	992.7
1035.979	989.76
1036.267	979.59
1036.554	977.79
1036.842	955.41
1037.129	961.29
1037.417	955.41
1037.704	947.5
1037.992	948.86
1038.279	912.93
1038.566	951.12
1038.853	951.12
1039.14	951.12
