Data from hue_22_FLMS001491_00063.txt Node
Date: Tue Feb 07 17:10:28 GMT 2017
User: dcchb
Spectrometer: FLMS00149
Trigger mode: 0
Integration Time (sec): 2.000000E-2
Scans to average: 10
Electric dark correction enabled: true
Nonlinearity correction enabled: false
Boxcar width: 0
XAxis mode: Wavelengths
Number of Pixels in Spectrum: 2048
>>>>>Begin Spectral Data<<<<<
341.393	2.3
341.776	2.3
342.16	2.3
342.543	-63.91
342.927	-51.26
343.31	-89.9
343.693	-77.02
344.077	-77.02
344.46	-51.71
344.843	-56
345.226	-58.94
345.61	-30.01
345.993	-4.93
346.376	2.53
346.759	35.97
347.142	28.29
347.525	32.58
347.908	58.8
348.291	71.9
348.674	99.47
349.057	115.97
349.44	149.42
349.823	140.83
350.206	173.6
350.588	200.04
350.971	207.95
351.354	223.09
351.737	245.46
352.119	247.04
352.502	259.24
352.884	303.76
353.267	277.55
353.65	296.76
354.032	313.03
354.414	305.8
354.797	308.96
355.179	330.66
355.562	344.44
355.944	334.95
356.326	343.08
356.709	341.28
357.091	344.67
357.473	334.5
357.855	350.77
358.238	352.58
358.62	349.41
359.002	333.82
359.384	331.79
359.766	353.03
360.148	350.77
360.53	358.45
360.912	359.58
361.294	357.32
361.676	329.98
362.057	340.6
362.439	352.58
362.821	314.16
363.203	347.38
363.584	325.68
363.966	325.46
364.348	317.32
364.729	331.79
365.111	319.36
365.493	326.81
365.874	326.59
366.256	299.92
366.637	312.8
367.019	318
367.4	339.92
367.781	318.9
368.163	318.45
368.544	325.91
368.925	337.89
369.306	332.69
369.688	339.02
370.069	341.95
370.45	317.55
370.831	320.03
371.212	306.25
371.593	325.23
371.974	333.59
372.355	318.45
372.736	311.45
373.117	343.08
373.498	348.06
373.879	319.81
374.26	337.66
374.641	327.04
375.021	315.29
375.402	329.75
375.783	324.1
376.163	337.66
376.544	337.43
376.925	317.1
377.305	327.49
377.686	322.29
378.066	326.59
378.447	364.55
378.827	333.59
379.208	332.46
379.588	340.15
379.968	336.53
380.349	348.28
380.729	335.63
381.109	341.73
381.489	357.77
381.87	367.94
382.25	358.45
382.63	350.09
383.01	352.12
383.39	371.78
383.77	340.82
384.15	343.99
384.53	341.28
384.91	363.2
385.29	357.55
385.67	355.29
386.049	366.59
386.429	386.25
386.809	360.48
387.189	376.3
387.568	374.95
387.948	361.84
388.328	380.15
388.707	378.56
389.087	373.14
389.466	380.15
389.846	396.64
390.225	363.87
390.605	387.6
390.984	383.99
391.363	372.24
391.743	381.05
392.122	362.07
392.501	401.61
392.881	386.02
393.26	382.41
393.639	402.52
394.018	375.85
394.397	393.7
394.776	393.7
395.155	406.36
395.534	382.86
395.913	390.77
396.292	414.27
396.671	409.98
397.05	402.52
397.429	404.78
397.808	413.82
398.186	407.94
398.565	412.23
398.944	438.45
399.323	422.4
399.701	415.4
400.08	431.67
400.458	417.66
400.837	419.24
401.215	428.73
401.594	437.32
401.972	438.22
402.351	425.34
402.729	428.73
403.107	419.01
403.486	420.37
403.864	441.39
404.242	452.91
404.62	460.6
404.999	443.19
405.377	447.71
405.755	428.28
406.133	456.53
406.511	455.85
406.889	450.2
407.267	454.72
407.645	483.42
408.023	489.75
408.401	472.12
408.779	469.63
409.156	478.22
409.534	483.19
409.912	476.41
410.29	463.53
410.667	476.41
411.045	481.61
411.422	485
411.8	492.46
412.178	496.53
412.555	505.57
412.933	493.81
413.31	505.11
413.687	516.19
414.065	517.54
414.442	513.02
414.819	514.61
415.197	522.51
415.574	501.05
415.951	505.57
416.328	527.94
416.705	539.69
417.082	535.62
417.46	547.37
417.837	543.76
418.214	534.04
418.591	541.95
418.967	535.4
419.344	565.45
419.721	554.6
420.098	570.42
420.475	561.16
420.852	550.08
421.228	595.05
421.605	583.3
421.982	569.52
422.358	552.34
422.735	567.26
423.111	593.93
423.488	614.49
423.864	578.56
424.241	611.78
424.617	608.61
424.994	589.41
425.37	611.1
425.746	592.8
426.123	623.53
426.499	635.51
426.875	614.94
427.251	629.18
427.627	632.34
428.003	644.77
428.379	650.87
428.756	644.09
429.132	662.4
429.507	673.47
429.883	680.93
430.259	679.12
430.635	677.54
431.011	684.32
431.387	714.37
431.763	720.93
432.138	689.06
432.514	706.46
432.89	707.59
433.265	718.89
433.641	734.94
434.016	747.37
434.392	753.92
434.767	729.74
435.143	745.11
435.518	763.41
435.894	762.73
436.269	768.16
436.644	771.77
437.02	788.04
437.395	788.04
437.77	793.92
438.145	828.04
438.52	787.14
438.895	818.78
439.271	822.17
439.646	853.13
440.021	825.11
440.395	836.63
440.77	833.01
441.145	843.86
441.52	873.47
441.895	865.78
442.27	872.56
442.645	869.62
443.019	848.83
443.394	875.73
443.769	863.97
444.143	869.85
444.518	876.63
444.892	866.91
445.267	913.24
445.641	896.97
446.016	910.07
446.39	924.31
446.764	919.11
447.139	911.88
447.513	932.67
447.887	933.58
448.262	922.28
448.636	953.92
449.01	964.99
449.384	977.19
449.758	954.59
450.132	996.17
450.506	985.78
450.88	963.63
451.254	975.38
451.628	995.5
452.002	1016.96
452.376	1011.09
452.75	1022.61
453.123	1010.19
453.497	1037.08
453.871	1080.47
454.244	1081.14
454.618	1056.74
454.992	1079.11
455.365	1070.52
455.739	1087.02
456.112	1103.52
456.486	1132.44
456.859	1107.13
457.232	1113.23
457.606	1134.02
457.979	1151.65
458.352	1191.2
458.725	1215.6
459.099	1226
459.472	1207.02
459.845	1221.71
460.218	1219.22
460.591	1255.38
460.964	1265.77
461.337	1263.51
461.71	1302.61
462.083	1323.62
462.456	1327.69
462.829	1327.47
463.201	1353.45
463.574	1359.1
463.947	1371.08
464.32	1402.27
464.692	1441.13
465.065	1420.57
465.438	1456.73
465.81	1439.1
466.183	1484.3
466.555	1502.38
466.928	1499.21
467.3	1533.56
467.672	1530.17
468.045	1570.62
468.417	1575.82
468.789	1584.41
469.161	1618.53
469.534	1647.68
469.906	1679.55
470.278	1672.54
470.65	1720
471.022	1729.94
471.394	1748.02
471.766	1780.79
472.138	1799.32
472.51	1844.29
472.882	1878.41
473.253	1896.94
473.625	1902.82
473.997	1933.1
474.369	1968.13
474.74	2023.27
475.112	2023.72
475.484	2067.11
475.855	2114.34
476.227	2087.9
476.598	2176.26
476.97	2199.53
477.341	2270.04
477.713	2325.63
478.084	2303.26
478.455	2364.73
478.827	2394.78
479.198	2471.39
479.569	2458.06
479.94	2581.67
480.311	2627.77
480.682	2658.73
481.053	2726.98
481.424	2743.25
481.795	2761.1
482.166	2822.34
482.537	2860.08
482.908	2938.27
483.279	2968.55
483.65	3039.28
484.021	3077.48
484.391	3121.54
484.762	3184.59
485.133	3201.31
485.503	3265.27
485.874	3359.95
486.244	3382.55
486.615	3496.9
486.985	3514.3
487.356	3638.14
487.726	3583.68
488.097	3726.95
488.467	3699.15
488.837	3804.91
489.207	3838.59
489.578	3876.1
489.948	3929.43
490.318	4000.16
490.688	4049.2
491.058	4116.77
491.428	4160.38
491.798	4184.79
492.168	4298.01
492.538	4338.46
492.908	4386.37
493.278	4389.76
493.648	4477.44
494.017	4509.08
494.387	4535.74
494.757	4587.04
495.126	4658.45
495.496	4673.37
495.866	4732.35
496.235	4780.48
496.605	4851.67
496.974	4861.84
497.344	4904.09
497.713	4929.18
498.082	4977.54
498.452	5026.8
498.821	5098.44
499.19	5070.64
499.559	5125.78
499.928	5133.69
500.298	5244.42
500.667	5272.45
501.036	5267.93
501.405	5295.95
501.774	5325.55
502.143	5368.94
502.512	5415.72
502.88	5437.19
503.249	5424.08
503.618	5529.84
503.987	5477.86
504.356	5537.75
504.724	5560.12
505.093	5625.21
505.462	5661.36
505.83	5733.22
506.199	5708.14
506.567	5785.2
506.936	5778.42
507.304	5813
507.672	5859.55
508.041	5888.48
508.409	5929.83
508.777	5931.19
509.145	5992.43
509.514	5994.69
509.882	6007.12
510.25	6045.99
510.618	6068.36
510.986	6118.07
511.354	6197.17
511.722	6164.4
512.09	6239.65
512.458	6261.12
512.826	6261.35
513.193	6302.93
513.561	6346.99
513.929	6389.7
514.297	6436.03
514.664	6420.44
515.032	6466.09
515.4	6522.58
515.767	6526.42
516.135	6588.34
516.502	6546.76
516.869	6610.04
517.237	6645.97
517.604	6593.77
517.972	6667.21
518.339	6692.75
518.706	6744.95
519.073	6778.62
519.44	6826.53
519.808	6850.94
520.175	6874.66
520.542	6898.39
520.909	6962.12
521.276	6981.33
521.643	7009.8
522.009	7063.59
522.376	7085.05
522.743	7145.62
523.11	7216.35
523.477	7164.15
523.843	7220.64
524.21	7323.24
524.577	7417.7
524.943	7453.18
525.31	7415.44
525.676	7498.83
526.043	7520.75
526.409	7586.74
526.776	7617.92
527.142	7638.71
527.508	7721.2
527.874	7749.9
528.241	7763.45
528.607	7765.04
528.973	7827.86
529.339	7804.36
529.705	7930.68
530.071	8006.16
530.437	7982.66
530.803	8068.53
531.169	8148.75
531.535	8049.77
531.901	8143.33
532.267	8181.07
532.632	8266.72
532.998	8329.77
533.364	8353.04
533.73	8384
534.095	8424.23
534.461	8395.08
534.826	8428.75
535.192	8479.14
535.557	8553.94
535.923	8550.1
536.288	8576.31
536.653	8642.3
537.019	8671.9
537.384	8666.03
537.749	8767.27
538.114	8770.43
538.479	8765.46
538.845	8888.17
539.21	8825.12
539.575	8906.02
539.94	8870.32
540.305	9018.56
540.67	8988.96
541.034	9026.25
541.399	9083.65
541.764	9054.72
542.129	9126.36
542.494	9135.85
542.858	9211.78
543.223	9195.73
543.587	9244.55
543.952	9268.95
544.316	9288.61
544.681	9328.61
545.045	9422.62
545.41	9484.99
545.774	9446.57
546.138	9533.13
546.503	9549.85
546.867	9527.93
547.231	9612.67
547.595	9606.8
547.959	9675.27
548.324	9673.23
548.688	9716.4
549.052	9749.16
549.416	9808.82
549.779	9773.8
550.143	9798.2
550.507	9936.05
550.871	9880.91
551.235	10002.94
551.599	10004.75
551.962	10056.28
552.326	10036.84
552.689	10139.66
553.053	10092.66
553.417	10063.96
553.78	10259.43
554.143	10179.66
554.507	10293.11
554.87	10282.94
555.234	10382.82
555.597	10300.11
555.96	10344.4
556.323	10470.5
556.686	10442.25
557.05	10547.56
557.413	10541.91
557.776	10619.65
558.139	10646.54
558.502	10638.41
558.865	10684.73
559.228	10790.04
559.59	10766.54
559.953	10791.85
560.316	10898.96
560.679	10882.02
561.041	10980.09
561.404	10924.73
561.767	11052.18
562.129	10975.12
562.492	11098.28
562.854	11120.43
563.217	11067.77
563.579	11139.18
563.941	11230.71
564.304	11216.7
564.666	11275.23
565.028	11299.63
565.39	11379.4
565.753	11362.46
566.115	11423.24
566.477	11523.81
566.839	11495.11
567.201	11580.75
567.563	11636.35
567.925	11627.53
568.287	11684.93
568.648	11762.44
569.01	11853.29
569.372	11852.61
569.734	11926.06
570.095	11969.67
570.457	11989.56
570.819	12000.4
571.18	12032.04
571.542	12220.29
571.903	12183.45
572.265	12237.01
572.626	12184.81
572.987	12316.55
573.349	12420.73
573.71	12443.33
574.071	12483.33
574.432	12553.84
574.794	12678.58
575.155	12717.9
575.516	12706.83
575.877	12780.5
576.238	12891.45
576.599	12963.54
576.96	12970.1
577.32	13091.9
577.681	13243.31
578.042	13337.09
578.403	13370.76
578.763	13475.39
579.124	13546.13
579.485	13719
579.845	13801.94
580.206	13926.46
580.566	13972.56
580.927	14183.62
581.287	14348.14
581.648	14447.8
582.008	14663.84
582.368	14779.77
582.728	14932.08
583.089	15041.68
583.449	15309.02
583.809	15443.25
584.169	15699.74
584.529	15796.01
584.889	16051.6
585.249	16013.18
585.609	16254.76
585.969	16545.37
586.329	16714.86
586.688	17045.47
587.048	17205.01
587.408	17431.9
587.768	17741.5
588.127	17879.8
588.487	18069.85
588.846	18578.54
589.206	18652.89
589.565	18993.89
589.925	19191.4
590.284	19422.58
590.643	19791.16
591.003	20080.64
591.362	20452.16
591.721	20629.33
592.08	20895.09
592.44	21313.83
592.799	21574.84
593.158	21938
593.517	22163.3
593.876	22626.79
594.235	22865.43
594.593	23136.61
594.952	23526.2
595.311	23759.87
595.67	24233.76
596.029	24562.33
596.387	24970.23
596.746	25298.59
597.104	25443.89
597.463	25770.66
597.822	26185.79
598.18	26411.78
598.538	26776.97
598.897	27185.77
599.255	27261.92
599.613	28020.55
599.972	28068.23
600.33	28523.13
600.688	28622.79
601.046	29173.96
601.404	29579.83
601.762	29839.26
602.12	30226.82
602.478	30468.85
602.836	30850.08
603.194	30931.88
603.552	31300.91
603.91	31450.06
604.268	31938.86
604.625	32101.12
604.983	32499.07
605.341	32738.84
605.698	33041.66
606.056	33434.64
606.413	33671.93
606.771	34049.32
607.128	34318.46
607.485	34324.56
607.843	34697.89
608.2	35146.24
608.557	35455.83
608.914	35501.48
609.272	36043.16
609.629	36269.82
609.986	36526.09
610.343	36574.22
610.7	37098.73
611.057	37190.25
611.414	37451.49
611.771	37611.26
612.127	37894.87
612.484	37970.12
612.841	38450.33
613.198	38414.17
613.554	38695.75
613.911	39204.21
614.267	39190.88
614.624	39341.38
614.98	39527.14
615.337	39864.53
615.693	40024.53
616.05	40071.76
616.406	40565.08
616.762	40493.67
617.118	40749.71
617.475	40860.66
617.831	41153.08
618.187	41153.99
618.543	41419.29
618.899	41881.88
619.255	41834.65
619.611	41957.58
619.967	42267.63
620.323	42384.92
620.678	42406.16
621.034	42569.09
621.39	42636.66
621.746	42620.16
622.101	43206.59
622.457	43014.05
622.812	43256.31
623.168	43342.63
623.523	43461.05
623.879	43773.58
624.234	43327.04
624.589	43707.14
624.945	43881.6
625.3	43887.48
625.655	43904.2
626.01	44016.96
626.365	44109.84
626.72	44123.63
627.075	44181.71
627.43	44310.52
627.785	44226.22
628.14	44377.18
628.495	44466.67
628.85	44630.96
629.205	44578.53
629.559	44642.48
629.914	44599.1
630.269	44715.02
630.623	44688.13
630.978	44675.7
631.332	44880.44
631.687	44975.58
632.041	44951.18
632.396	45153.66
632.75	45028.24
633.104	44957.28
633.459	44768.36
633.813	44969.71
634.167	44989.82
634.521	45019.88
634.875	45128.35
635.229	45082.47
635.583	44953.21
635.937	44931.74
636.291	44934.91
636.645	45084.05
636.999	44857.62
637.352	45037.73
637.706	44872.08
638.06	45108.23
638.413	44870.05
638.767	44906.88
639.121	44924.74
639.474	44762.03
639.828	44796.15
640.181	44952.08
640.534	45035.69
640.888	44934.91
641.241	44589.6
641.594	44894.68
641.947	45031.4
642.301	44913.66
642.654	44893.55
643.007	44941.91
643.36	44920.9
643.713	44821.24
644.066	45037.05
644.419	44821.91
644.771	44455.6
645.124	44242.49
645.477	44160.46
645.83	43901.26
646.182	43810.19
646.535	43803.86
646.888	43827.82
647.24	43567.94
647.593	43870.3
647.945	43823.97
648.298	43627.37
648.65	43597.77
649.002	43530.42
649.355	43710.76
649.707	43589.86
650.059	43815.61
650.411	44224.87
650.763	44338.09
651.115	44752.54
651.467	44584.86
651.819	44541.24
652.171	44409.95
652.523	44305.54
652.875	44335.83
653.227	44366.79
653.578	44612.65
653.93	44469.83
654.282	44270.29
654.633	44353.68
654.985	44295.6
655.337	44414.47
655.688	44284.98
656.039	44440.46
656.391	44088.6
656.742	44210.86
657.094	44239.33
657.445	44417.41
657.796	44290.18
658.147	44139.45
658.498	44140.8
658.849	44167.69
659.2	44124.53
659.551	44349.16
659.902	44223.29
660.253	44169.95
660.604	44286.34
660.955	44080.69
661.306	44148.03
661.656	44112.78
662.007	44197.3
662.358	44305.54
662.708	44176.96
663.059	44100.8
663.409	43798.44
663.76	44212.67
664.11	44151.88
664.461	44084.98
664.811	44217.86
665.161	44097.87
665.511	43909.85
665.862	44052.44
666.212	44124.76
666.562	44158.2
666.912	44108.04
667.262	44118.43
667.612	44103.97
667.962	44046.34
668.312	44042.05
668.662	44149.84
669.011	44063.52
669.361	44005.44
669.711	43987.36
670.06	43954.59
670.41	43843.18
670.76	43818.55
671.109	43968.83
671.459	43951.66
671.808	43983.29
672.157	44035.72
672.507	43744.43
672.856	43741.27
673.205	43935.16
673.554	43972.45
673.904	43805.44
674.253	44000.24
674.602	43780.36
674.951	43291.79
675.3	42927.05
675.649	43672.57
675.998	43693.58
676.346	43608.39
676.695	43786.24
677.044	43306.7
677.393	43444.78
677.741	43520.48
678.09	43487.49
678.438	43392.8
678.787	43484.1
679.135	43533.14
679.484	43309.64
679.832	43473.02
680.181	43252.69
680.529	43235.52
680.877	43239.58
681.225	43085.92
681.573	43393.03
681.922	43024.22
682.27	43065.35
682.618	42976.09
682.966	42774.96
683.314	42842.76
683.661	42736.32
684.009	42660.62
684.357	42506.04
684.705	42537.45
685.053	42691.58
685.4	42496.33
685.748	42417.23
686.095	42244.58
686.443	42055.43
686.79	42141.08
687.138	42254.52
687.485	42282.77
687.832	42009.79
688.18	42148.76
688.527	41801.43
688.874	41957.58
689.221	41840.75
689.568	41774.76
689.915	41778.38
690.262	41664.03
690.609	41473.3
690.956	41394.66
691.303	41256.81
691.65	41169.36
691.997	41180.65
692.344	40967.33
692.69	40918.29
693.037	40880.32
693.383	40542.93
693.73	40763.49
694.077	40431.52
694.423	40496.38
694.769	40558.75
695.116	40377.51
695.462	40267.01
695.808	40008.26
696.155	40139.78
696.501	39960.57
696.847	40007.58
697.193	39583.41
697.539	39787.92
697.885	39454.15
698.231	39592
698.577	39384.09
698.923	39442.4
699.269	39277.65
699.614	39049.41
699.96	38868.62
700.306	39053.03
700.651	38741.17
700.997	38696.65
701.342	38553.6
701.688	38555.64
702.033	38465.7
702.379	38409.65
702.724	38333.95
703.069	38256.21
703.415	38086.95
703.76	38097.35
704.105	38052.15
704.45	37942.55
704.795	37751.59
705.14	37650.8
705.485	37587.3
705.83	37421.66
706.175	37624.82
706.52	37421.21
706.865	37329.23
707.209	37309.34
707.554	37093.76
707.899	37169.01
708.243	36990.03
708.588	36875
708.932	36586.88
709.277	36592.07
709.621	36689.47
709.966	36476.82
710.31	36585.75
710.654	36128.81
710.998	36284.51
711.342	36324.96
711.687	36226.43
712.031	35972.88
712.375	35881.36
712.719	36052.2
713.063	35787.35
713.407	36046.78
713.75	35748.25
714.094	35739.22
714.438	35497.41
714.782	35522.05
715.125	35396.63
715.469	35725.2
715.812	35481.14
716.156	35061.04
716.499	35083.64
716.843	35285.89
717.186	34997.09
717.53	35246.12
717.873	35128.38
718.216	34993.02
718.559	34961.38
718.902	34624.44
719.246	34654.27
719.589	34719.13
719.932	34487.27
720.275	34598.45
720.617	34529.3
720.96	34431
721.303	34527.04
721.646	34321.85
721.989	34082.31
722.331	34221.52
722.674	34135.87
723.016	34139.03
723.359	34234.17
723.701	34038.47
724.044	33884.35
724.386	33796.89
724.729	34038.47
725.071	33771.81
725.413	33827.4
725.755	33702.43
726.097	33682.55
726.439	33400.07
726.782	33506.51
727.124	33633.28
727.465	33448.65
727.807	33395.77
728.149	33419.5
728.491	33276.46
728.833	33375.66
729.175	33186.29
729.516	33251.6
729.858	33144.26
730.199	33149
730.541	32899.52
730.882	32990.59
731.224	33097.93
731.565	32910.82
731.906	32742.23
732.248	32801.21
732.589	32704.49
732.93	32612.07
733.271	32560.54
733.612	32521.67
733.953	32533.42
734.294	32312.41
734.635	32306.76
734.976	32411.85
735.317	32203.72
735.658	32246.65
735.999	32352.41
736.339	32287.1
736.68	32313.99
737.021	32190.16
737.361	31982.7
737.702	32132.98
738.042	32006.66
738.383	31970.05
738.723	32073.1
739.063	31859.32
739.404	31957.17
739.744	31963.04
740.084	31726.21
740.424	31850.73
740.764	31695.03
741.104	31779.55
741.444	31611.64
741.784	31539.78
742.124	31576.61
742.464	31561.02
742.804	31450.06
743.143	31424.53
743.483	31437.41
743.823	31255.27
744.162	31110.86
744.502	31137.98
744.841	31072.67
745.181	31208.71
745.52	31100.02
745.86	30958.55
746.199	31055.5
746.538	31092.33
746.877	31000.36
747.216	31111.09
747.556	31085.78
747.895	30878.33
748.234	30791.32
748.573	30708.61
748.911	30729.4
749.25	30651.44
749.589	30528.28
749.928	30724.43
750.267	30699.8
750.605	30452.12
750.944	30440.82
751.283	30407.15
751.621	30454.16
751.96	30312.92
752.298	30215.07
752.636	30351.33
752.975	30205.12
753.313	30081.96
753.651	30122.41
753.989	29955.64
754.327	29916.09
754.666	29827.73
755.004	29681.07
755.342	29760.39
755.679	29612.37
756.017	29626.83
756.355	29585.71
756.693	29481.3
757.031	29539.38
757.368	29376.67
757.706	29391.59
758.044	29252.61
758.381	29266.62
758.719	29263.91
759.056	29229.1
759.394	29094.19
759.731	29049
760.068	28864.37
760.405	28849.45
760.743	28736.01
761.08	28748.21
761.417	28548.67
761.754	28700.08
762.091	28455.57
762.428	28341.9
762.765	28309.35
763.102	28409.24
763.438	28091.28
763.775	27978.97
764.112	28087.21
764.449	28018.29
764.785	27893.55
765.122	27725.42
765.458	27653.1
765.795	27560.45
766.131	27517.96
766.467	27515.03
766.804	27270.29
767.14	27255.37
767.476	27270.96
767.812	27196.62
768.148	27124.3
768.485	26908.04
768.821	26879.34
769.157	26725.67
769.492	26729.28
769.828	26592.34
770.164	26399.8
770.5	26411.1
770.836	26302.63
771.171	26080.94
771.507	26149.41
771.842	26005.69
772.178	26011.79
772.513	25929.3
772.849	25787.16
773.184	25638.01
773.519	25737.9
773.855	25513.95
774.19	25487.06
774.525	25331.13
774.86	25410.67
775.195	25330.68
775.53	25083
775.865	25012.94
776.2	24844.36
776.535	24658.15
776.87	24662.9
777.205	24581.77
777.539	24501.32
777.874	24589.45
778.209	24301.55
778.543	24237.6
778.878	24170.03
779.212	24169.12
779.547	23951.73
779.881	24017.72
780.215	23890.94
780.55	23801.68
780.884	23639.19
781.218	23671.28
781.552	23672.87
781.886	23445.08
782.22	23380.67
782.554	23370.05
782.888	23147.23
783.222	23100.23
783.556	23027.01
783.889	22970.51
784.223	22826.11
784.557	22676.28
784.89	22615.72
785.224	22459.11
785.557	22588.15
785.891	22448.72
786.224	22334.6
786.558	22357.65
786.891	22034.27
787.224	22081.95
787.557	21970.09
787.891	21966.7
788.224	21947.04
788.557	21915.62
788.89	21775.06
789.223	21734.16
789.556	21651.68
789.888	21589.31
790.221	21582.07
790.554	21335.98
790.887	21322.65
791.219	21190.22
791.552	21101.41
791.884	21069.54
792.217	21119.71
792.549	21017.57
792.882	20834.07
793.214	20813.05
793.546	20743.45
793.879	20614.87
794.211	20495.1
794.543	20467.53
794.875	20441.99
795.207	20500.75
795.539	20432.95
795.871	20354.31
796.203	20203.58
796.535	20027.31
796.867	20051.27
797.198	20046.75
797.53	19970.59
797.862	19815.11
798.193	19904.83
798.525	19700.99
798.856	19838.39
799.188	19605.18
799.519	19451.51
799.85	19373.09
800.182	19425.75
800.513	19461.68
800.844	19229.37
801.175	19324.05
801.506	19182.81
801.837	19252.42
802.168	19008.36
802.499	19002.03
802.83	18875.48
803.161	18941.24
803.491	18903.05
803.822	18994.35
804.153	18734.01
804.483	18534.47
804.814	18572.66
805.145	18535.15
805.475	18513.68
805.805	18485.88
806.136	18433
806.466	18443.17
806.796	18288.6
807.126	18217.42
807.457	18156.63
807.787	18244.53
808.117	18126.8
808.447	18038.66
808.777	18038.21
809.107	17956.86
809.436	17958.89
809.766	17883.19
810.096	17778.33
810.426	17754.15
810.755	17760.25
811.085	17710.99
811.414	17724.32
811.744	17583.31
812.073	17605.68
812.403	17505.8
812.732	17334.5
813.061	17406.82
813.39	17330.43
813.719	17261.28
814.049	17322.98
814.378	17190.78
814.707	17172.25
815.036	17223.09
815.365	17078.92
815.693	16898.36
816.022	16977.22
816.351	16827.85
816.68	16899.03
817.008	16795.31
817.337	16716.21
817.665	16689.55
817.994	16726.61
818.322	16599.61
818.651	16570.68
818.979	16585.37
819.307	16616.33
819.636	16582.66
819.964	16406.84
820.292	16567.06
820.62	16485.71
820.948	16386.73
821.276	16471.93
821.604	16410.23
821.932	16385.37
822.259	16424.7
822.587	16358.48
822.915	16412.49
823.243	16358.71
823.57	16341.76
823.898	16296.11
824.225	16214.76
824.553	16227.64
824.88	16354.41
825.207	16362.78
825.535	16268.32
825.862	16318.94
826.189	16301.53
826.516	16337.92
826.843	16287.52
827.17	16354.64
827.497	16363.23
827.824	16286.62
828.151	16411.81
828.478	16353.51
828.805	16374.53
829.131	16254.76
829.458	16228.77
829.785	16284.81
830.111	16208.2
830.438	16298.6
830.764	16234.87
831.09	16300.63
831.417	16215.21
831.743	16184.93
832.069	16273.74
832.395	16104.93
832.722	16196
833.048	16122.56
833.374	16147.87
833.7	16104.25
834.026	16109
834.351	16175.89
834.677	16131.37
835.003	16176.57
835.329	16125.72
835.654	16117.58
835.98	16000.53
836.306	15948.1
836.631	15890.02
836.956	15996.01
837.282	15956.01
837.607	15972.05
837.932	15844.15
838.258	15859.06
838.583	15842.79
838.908	15803.47
839.233	15852.73
839.558	15740.42
839.883	15668.78
840.208	15603.25
840.533	15631.5
840.858	15678.5
841.182	15607.54
841.507	15643.7
841.832	15544.27
842.156	15505.17
842.481	15558.73
842.805	15442.8
843.13	15414.78
843.454	15390.6
843.778	15302.24
844.103	15206.2
844.427	15170.72
844.751	15249.81
845.075	15212.07
845.399	15119.64
845.723	15011.4
846.047	14994.68
846.371	14997.39
846.695	14975.47
847.019	14801.24
847.343	14760.11
847.666	14622.26
847.99	14679.43
848.313	14608.92
848.637	14525.99
848.96	14456.39
849.284	14426.33
849.607	14385.43
849.931	14262.27
850.254	14165.32
850.577	14193.79
850.9	14158.09
851.223	13993.8
851.546	13901.6
851.869	13923.97
852.192	13950.64
852.515	13787.48
852.838	13810.3
853.161	13733.69
853.483	13635.39
853.806	13713.58
854.129	13605.33
854.451	13601.27
854.774	13516.98
855.096	13459.58
855.419	13393.14
855.741	13335.96
856.063	13345.23
856.385	13284.89
856.708	13255.06
857.03	13206.93
857.352	13253.48
857.674	13148.4
857.996	13143.2
858.318	13088.96
858.64	13003.99
858.961	12994.28
859.283	12978.23
859.605	12925.35
859.926	12892.81
860.248	12869.53
860.57	12821.4
860.891	12845.58
861.212	12807.62
861.534	12747.73
861.855	12716.32
862.176	12672.25
862.498	12646.04
862.819	12654.17
863.14	12655.75
863.461	12573.27
863.782	12478.58
864.103	12558.13
864.424	12414.18
864.745	12490.79
865.065	12437.46
865.386	12383.22
865.707	12357.68
866.027	12399.26
866.348	12357.46
866.668	12300.06
866.989	12322.43
867.309	12226.61
867.63	12211.47
867.95	12217.12
868.27	12119.72
868.59	12170.8
868.91	12177.12
869.23	12073.4
869.55	11995.89
869.87	12155.2
870.19	12058.48
870.51	12074.08
870.83	12078.37
871.15	11873.85
871.469	11967.41
871.789	11988.65
872.109	12040.63
872.428	11901.2
872.748	11937.81
873.067	11940.52
873.386	11840.86
873.706	11912.05
874.025	11759.06
874.344	11774.65
874.663	11817.36
874.982	11739.62
875.301	11738.94
875.62	11717.02
875.939	11738.94
876.258	11693.75
876.577	11657.36
876.896	11634.09
877.214	11627.53
877.533	11606.29
877.852	11680.41
878.17	11582.11
878.489	11629.34
878.807	11566.29
879.125	11585.05
879.444	11530.59
879.762	11489.01
880.08	11485.39
880.398	11480.42
880.716	11439.97
881.034	11409.01
881.352	11401.78
881.67	11449.23
881.988	11344.6
882.306	11284.04
882.624	11286.3
882.941	11219.63
883.259	11187.32
883.577	11141.22
883.894	11173.76
884.212	11098.96
884.529	11171.05
884.846	11090.37
885.164	11075.91
885.481	11012.41
885.798	11048.34
886.115	11004.5
886.432	10985.06
886.75	10932.41
887.067	10945.74
887.383	10852.86
887.7	10911.39
888.017	10841.11
888.334	10860.1
888.651	10747.78
888.967	10707.11
889.284	10789.36
889.6	10705.3
889.917	10604.06
890.233	10603.38
890.55	10567.67
890.866	10582.36
891.182	10581.91
891.498	10484.96
891.815	10418.3
892.131	10398.19
892.447	10417.17
892.763	10394.57
893.079	10417.62
893.395	10317.96
893.71	10291.3
894.026	10273.9
894.342	10171.98
894.657	10199.1
894.973	10245.2
895.289	10173.11
895.604	10150.51
895.92	10082.04
896.235	10043.17
896.55	9960.68
896.865	10010.4
897.181	9967.24
897.496	9923.85
897.811	9904.19
898.126	9834.81
898.441	9803.4
898.756	9796.62
899.071	9748.49
899.386	9715.27
899.7	9633.69
900.015	9660.13
900.33	9528.83
900.644	9495.84
900.959	9529.96
901.273	9526.8
901.588	9447.25
901.902	9420.36
902.216	9355.73
902.531	9381.94
902.845	9379
903.159	9314.6
903.473	9256.97
903.787	9283.87
904.101	9182.4
904.415	9150.54
904.729	9096.07
905.042	9087.94
905.356	9075.96
905.67	9005.68
905.984	9043.19
906.297	8953.71
906.611	8983.76
906.924	8962.97
907.237	8843.65
907.551	8881.84
907.864	8737.21
908.177	8746.03
908.491	8761.85
908.804	8731.56
909.117	8619.48
909.43	8576.99
909.743	8633.94
910.056	8542.87
910.368	8501.51
910.681	8512.36
910.994	8447.73
911.307	8437.33
911.619	8290.45
911.932	8355.3
912.244	8264.01
912.557	8303.33
912.869	8207.96
913.181	8215.87
913.494	8203.67
913.806	8074.41
914.118	8148.53
914.43	8063.11
914.742	8083.45
915.054	8024.92
915.366	7955.99
915.678	7997.12
915.99	7947.63
916.302	7824.24
916.613	7830.57
916.925	7797.35
917.236	7821.53
917.548	7763.68
917.859	7747.64
918.171	7645.72
918.482	7684.13
918.794	7641.42
919.105	7630.12
919.416	7543.8
919.727	7506.51
920.038	7524.82
920.349	7470.13
920.66	7409.57
920.971	7427.87
921.282	7421.54
921.593	7327.99
921.903	7287.99
922.214	7278.27
922.525	7239.4
922.835	7176.58
923.146	7156.92
923.456	7151.94
923.767	7109.91
924.077	7094.32
924.387	7095.22
924.697	6972.29
925.008	6984.94
925.318	6899.52
925.628	6903.14
925.938	6838.73
926.248	6827.43
926.558	6806.64
926.867	6807.32
927.177	6783.82
927.487	6779.53
927.796	6709.02
928.106	6662.92
928.416	6696.82
928.725	6669.25
929.034	6582.24
929.344	6541.11
929.653	6545.41
929.962	6549.47
930.271	6473.09
930.581	6487.56
930.89	6432.87
931.199	6380.89
931.508	6410.72
931.817	6381.12
932.125	6347.22
932.434	6322.36
932.743	6286.43
933.051	6243.95
933.36	6168.47
933.669	6176.15
933.977	6197.39
934.286	6153.78
934.594	6140.45
934.902	6102.93
935.21	6044.4
935.519	6064.74
935.827	6056.83
936.135	6024.29
936.443	5958.08
936.751	5965.99
937.059	5908.59
937.367	5848.25
937.674	5919.66
937.982	5822.04
938.29	5831.53
938.597	5848.93
938.905	5754.92
939.213	5763.96
939.52	5727.35
939.827	5751.3
940.135	5641.93
940.442	5627.69
940.749	5629.05
941.056	5574.13
941.363	5583.4
941.67	5575.71
941.977	5510.18
942.284	5445.77
942.591	5473.12
942.898	5452.55
943.205	5431.09
943.511	5353.8
943.818	5335.72
944.125	5359.22
944.431	5332.78
944.738	5372.1
945.044	5311.32
945.35	5265.89
945.657	5217.53
945.963	5207.14
946.269	5205.56
946.575	5182.96
946.881	5163.52
947.187	5196.29
947.493	5069.29
947.799	5088.04
948.105	5073.58
948.41	5027.03
948.716	5037.2
949.022	4998.33
949.327	5013.47
949.633	4928.27
949.938	4936.86
950.244	4905
950.549	4878.11
950.854	4886.47
951.16	4825.23
951.465	4801.27
951.77	4807.37
952.075	4776.64
952.38	4773.48
952.685	4778.22
952.99	4728.96
953.294	4680.6
953.599	4631.78
953.904	4693.25
954.209	4651.67
954.513	4643.31
954.818	4589.3
955.122	4588.85
955.426	4537.32
955.731	4523.77
956.035	4528.06
956.339	4496.42
956.643	4474.73
956.948	4458.46
957.252	4441.73
957.556	4435.63
957.86	4423.88
958.163	4366.26
958.467	4369.42
958.771	4358.8
959.075	4362.87
959.378	4315.86
959.682	4325.35
959.985	4220.04
960.289	4240.61
960.592	4219.82
960.896	4147.05
961.199	4197.45
961.502	4188.63
961.805	4165.13
962.108	4122.87
962.411	4107.73
962.714	4041.97
963.017	4061.4
963.32	4055.53
963.623	3977.56
963.926	4022.31
964.228	3996.32
964.531	3952.93
964.833	3938.7
965.136	3971.92
965.438	3928.75
965.741	3933.95
966.043	3879.71
966.345	3855.53
966.648	3896.21
966.95	3847.62
967.252	3834.97
967.554	3800.17
967.856	3779.38
968.158	3799.04
968.46	3789.55
968.761	3741.19
969.063	3741.64
969.365	3730.11
969.666	3688.76
969.968	3701.64
970.269	3673.62
970.571	3661.87
970.872	3666.16
971.174	3629.78
971.475	3598.82
971.776	3591.13
972.077	3607.18
972.378	3548.88
972.679	3564.02
972.98	3535.99
973.281	3509.55
973.582	3575.32
973.883	3515.88
974.183	3467.07
974.484	3461.87
974.785	3429.1
975.085	3420.52
975.386	3419.61
975.686	3403.57
975.986	3346.85
976.287	3354.76
976.587	3336.45
976.887	3353.85
977.187	3314.76
977.487	3297.13
977.787	3269.79
978.087	3278.6
978.387	3296
978.687	3270.24
978.987	3222.1
979.286	3201.09
979.586	3193.18
979.885	3168.09
980.185	3168.55
980.484	3141.65
980.784	3118.83
981.083	3150.92
981.382	3115.21
981.682	3126.06
981.981	3132.16
982.28	3113.18
982.579	3068.21
982.878	3053.07
983.177	3045.84
983.475	3016.46
983.774	3029.12
984.073	3003.13
984.372	3016.23
984.67	2948.89
984.969	2949.12
985.267	2973.75
985.566	2918.16
985.864	2913.64
986.162	2881.32
986.461	2918.38
986.759	2917.25
987.057	2895.11
987.355	2835
987.653	2856.24
987.951	2797.26
988.249	2812.85
988.547	2787.77
988.844	2780.99
989.142	2750.48
989.44	2745.96
989.737	2722
990.035	2737.6
990.332	2737.82
990.63	2689.24
990.927	2698.28
991.224	2680.2
991.521	2672.06
991.819	2658.73
992.116	2620.31
992.413	2631.39
992.71	2611.5
993.006	2594.32
993.303	2609.47
993.6	2645.4
993.897	2575.79
994.193	2540.77
994.49	2566.3
994.787	2536.7
995.083	2521.56
995.379	2530.82
995.676	2462.12
995.972	2451.05
996.268	2462.35
996.565	2451.5
996.861	2461.22
997.157	2435.68
997.453	2435.46
997.749	2422.13
998.044	2430.03
998.34	2407.21
998.636	2402.69
998.932	2357.72
999.227	2371.51
999.523	2332.18
999.818	2330.38
1000.114	2343.26
1000.409	2293.09
1000.704	2323.37
1001	2293.99
1001.295	2261.68
1001.59	2259.87
1001.885	2246.31
1002.18	2204.05
1002.475	2216.26
1002.77	2243.6
1003.065	2170.38
1003.359	2207.44
1003.654	2186.88
1003.949	2163.15
1004.243	2164.96
1004.538	2131.51
1004.832	2146.88
1005.127	2129.48
1005.421	2073.89
1005.715	2086.09
1006.009	2072.53
1006.304	2039.76
1006.598	2055.13
1006.892	2062.81
1007.186	2034.79
1007.48	2009.71
1007.773	2023.49
1008.067	1982.82
1008.361	1973.78
1008.655	1962.48
1008.948	1962.48
1009.242	1970.39
1009.535	1953.89
1009.829	1952.99
1010.122	1934.45
1010.415	1925.64
1010.708	1894
1011.001	1866.21
1011.295	1869.6
1011.588	1854.46
1011.881	1844.06
1012.173	1814.23
1012.466	1812.65
1012.759	1811.97
1013.052	1794.8
1013.344	1832.76
1013.637	1819.43
1013.93	1760.9
1014.222	1761.13
1014.514	1772.43
1014.807	1748.7
1015.099	1727.23
1015.391	1751.63
1015.683	1745.99
1015.976	1701.47
1016.268	1729.49
1016.56	1680
1016.851	1679.55
1017.143	1680.45
1017.435	1661.69
1017.727	1644.07
1018.018	1639.77
1018.31	1621.02
1018.602	1605.42
1018.893	1623.95
1019.185	1590.28
1019.476	1615.59
1019.767	1573.79
1020.058	1561.58
1020.35	1553.22
1020.641	1515.48
1020.932	1545.54
1021.223	1538.31
1021.514	1514.8
1021.804	1514.35
1022.095	1476.39
1022.386	1486.78
1022.677	1437.07
1022.967	1451.98
1023.258	1448.59
1023.548	1431.87
1023.839	1449.04
1024.129	1443.17
1024.419	1422.15
1024.709	1424.86
1025	1389.38
1025.29	1368.82
1025.58	1410.4
1025.87	1359.1
1026.16	1347.58
1026.449	1351.87
1026.739	1338.54
1027.029	1334.47
1027.319	1323.4
1027.608	1318.65
1027.898	1287.69
1028.187	1286.56
1028.477	1307.8
1028.766	1269.39
1029.055	1260.35
1029.344	1285.21
1029.634	1274.13
1029.923	1249.73
1030.212	1256.96
1030.501	1263.96
1030.79	1228.94
1031.078	1236.62
1031.367	1188.03
1031.656	1194.81
1031.945	1184.87
1032.233	1169.5
1032.522	1185.32
1032.81	1158.43
1033.099	1147.58
1033.387	1162.72
1033.675	1154.14
1033.963	1137.41
1034.251	1129.05
1034.54	1111.43
1034.828	1146.9
1035.116	1107.36
1035.403	1085.89
1035.691	1084.53
1035.979	1083.4
1036.267	1071.2
1036.554	1076.62
1036.842	1067.13
1037.129	1031.2
1037.417	1054.7
1037.704	1051.54
1037.992	1022.84
1038.279	1051.31
1038.566	1032.56
1038.853	1032.56
1039.14	1032.56
