Data from hue_340_FLMS001491_12.txt Node
Date: Mon Feb 06 15:42:20 GMT 2017
User: dcchb
Spectrometer: FLMS00149
Trigger mode: 0
Integration Time (sec): 2.000000E-2
Scans to average: 10
Electric dark correction enabled: true
Nonlinearity correction enabled: false
Boxcar width: 0
XAxis mode: Wavelengths
Number of Pixels in Spectrum: 2048
>>>>>Begin Spectral Data<<<<<
341.393	-24.89
341.776	-24.89
342.16	-24.89
342.543	-60.59
342.927	-72.34
343.31	-63.53
343.693	-78.67
344.077	-77.99
344.46	-70.53
344.843	-58.78
345.226	-36.86
345.61	-27.6
345.993	-13.36
346.376	-14.49
346.759	20.08
347.142	28.45
347.525	53.98
347.908	51.27
348.291	81.55
348.674	103.7
349.057	102.79
349.44	125.39
349.823	147.09
350.206	163.81
350.588	210.36
350.971	207.65
351.354	202.23
351.737	239.06
352.119	237.03
352.502	265.73
352.884	253.98
353.267	299.4
353.65	297.59
354.032	303.47
354.414	290.59
354.797	324.48
355.179	314.99
355.562	310.02
355.944	319.96
356.326	348.21
356.709	329
357.091	331.49
357.473	327.42
357.855	364.48
358.238	329.68
358.62	327.87
359.002	342.34
359.384	341.88
359.766	314.31
360.148	335.33
360.53	337.36
360.912	329.45
361.294	327.42
361.676	317.48
362.057	333.07
362.439	314.54
362.821	315.9
363.203	337.59
363.584	329.45
363.966	316.12
364.348	341.43
364.729	326.74
365.111	324.71
365.493	337.59
365.874	333.3
366.256	300.08
366.637	275.9
367.019	293.98
367.4	307.08
367.781	285.39
368.163	321.55
368.544	293.3
368.925	300.3
369.306	331.71
369.688	330.36
370.069	303.92
370.45	312.51
370.831	308.66
371.212	292.85
371.593	308.89
371.974	330.58
372.355	313.64
372.736	290.59
373.117	290.36
373.498	324.26
373.879	319.96
374.26	312.73
374.641	296.91
375.021	302.79
375.402	312.05
375.783	325.84
376.163	322.9
376.544	313.86
376.925	319.06
377.305	304.37
377.686	312.73
378.066	329.23
378.447	312.05
378.827	312.73
379.208	322.45
379.588	325.39
379.968	334.2
380.349	333.07
380.729	332.84
381.109	329.45
381.489	322.9
381.87	318.61
382.25	322
382.63	339.85
383.01	340.75
383.39	345.5
383.77	329
384.15	338.27
384.53	340.3
384.91	322.45
385.29	340.53
385.67	348.66
386.049	366.06
386.429	354.76
386.809	343.24
387.189	335.56
387.568	327.87
387.948	319.96
388.328	349.79
388.707	344.37
389.087	380.98
389.466	348.44
389.846	355.22
390.225	340.3
390.605	366.97
390.984	358.38
391.363	337.36
391.743	363.13
392.122	337.82
392.501	379.17
392.881	370.13
393.26	346.18
393.639	354.99
394.018	374.65
394.397	367.42
394.776	375.56
395.155	372.17
395.534	388.66
395.913	377.81
396.292	377.81
396.671	387.76
397.05	380.07
397.429	378.04
397.808	381.66
398.186	383.46
398.565	399.74
398.944	381.2
399.323	385.27
399.701	377.81
400.08	392.73
400.458	387.76
400.837	375.1
401.215	390.02
401.594	400.41
401.972	413.52
402.351	405.61
402.729	396.12
403.107	389.57
403.486	400.41
403.864	377.59
404.242	382.11
404.62	383.24
404.999	409.68
405.377	406.97
405.755	409.9
406.133	412.16
406.511	413.07
406.889	434.08
407.267	409.68
407.645	432.28
408.023	421.66
408.401	424.37
408.779	429.79
409.156	422.79
409.534	453.52
409.912	446.74
410.29	447.64
410.667	451.03
411.045	455.55
411.422	454.42
411.8	449.68
412.178	458.94
412.555	479.96
412.933	486.51
413.31	484.7
413.687	476.12
414.065	473.41
414.442	497.13
414.819	505.72
415.197	494.42
415.574	500.75
415.951	510.69
416.328	499.85
416.705	519.28
417.082	511.6
417.46	528.77
417.837	535.55
418.214	521.09
418.591	548.88
418.967	516.57
419.344	535.55
419.721	541.2
420.098	545.72
420.475	551.82
420.852	532.39
421.228	545.95
421.605	577.81
421.982	553.63
422.358	558.38
422.735	593.4
423.111	565.38
423.488	573.06
423.864	576.91
424.241	613.06
424.617	598.6
424.994	604.93
425.37	604.93
425.746	594.53
426.123	610.35
426.499	637.47
426.875	601.09
427.251	620.29
427.627	648.32
428.003	640.63
428.379	647.64
428.756	663.23
429.132	639.5
429.507	666.62
429.883	663.01
430.259	681.76
430.635	695.09
431.011	680.63
431.387	701.65
431.763	702.33
432.138	695.09
432.514	738.03
432.89	708.2
433.265	719.73
433.641	747.75
434.016	745.04
434.392	761.31
434.767	755.88
435.143	752.49
435.518	768.09
435.894	755.43
436.269	777.35
436.644	800.85
437.02	785.26
437.395	791.36
437.77	775.77
438.145	804.02
438.52	794.53
438.895	828.2
439.271	824.58
439.646	823.68
440.021	827.29
440.395	846.28
440.77	834.75
441.145	862.1
441.52	855.09
441.895	855.54
442.27	844.24
442.645	865.26
443.019	868.42
443.394	875.43
443.769	870.23
444.143	877.01
444.518	890.57
444.892	887.63
445.267	889.67
445.641	920.85
446.016	903.45
446.39	899.84
446.764	927.18
447.139	896.9
447.513	909.33
447.887	916.11
448.262	928.08
448.636	900.97
449.01	931.02
449.384	966.95
449.758	953.17
450.132	953.84
450.506	950.91
450.88	986.61
451.254	954.52
451.628	1007.63
452.002	975.09
452.376	981.41
452.75	976.67
453.123	990.68
453.497	988.19
453.871	1006.72
454.244	1016.67
454.618	1030
454.992	1034.29
455.365	1047.18
455.739	1070.45
456.112	1077.91
456.486	1061.86
456.859	1101.86
457.232	1080.4
457.606	1059.15
457.979	1103.22
458.352	1102.32
458.725	1157
459.099	1126.95
459.472	1129.43
459.845	1143.44
460.218	1161.98
460.591	1173.27
460.964	1174.18
461.337	1207.17
461.71	1210.11
462.083	1213.95
462.456	1217.11
462.829	1210.34
463.201	1247.62
463.574	1252.82
463.947	1257.79
464.32	1274.06
464.692	1281.75
465.065	1306.15
465.438	1308.86
465.81	1331.24
466.183	1306.83
466.555	1352.7
466.928	1362.65
467.3	1360.84
467.672	1414.85
468.045	1436.09
468.417	1423.21
468.789	1413.04
469.161	1456.43
469.534	1463.21
469.906	1481.97
470.278	1506.6
470.65	1480.38
471.022	1528.52
471.394	1563.77
471.766	1551.8
472.138	1559.48
472.51	1605.81
472.882	1610.55
473.253	1637.22
473.625	1654.39
473.997	1667.27
474.369	1694.39
474.74	1716.31
475.112	1741.85
475.484	1763.54
475.855	1773.48
476.227	1826.82
476.598	1844.67
476.97	1856.87
477.341	1883.99
477.713	1937.1
478.084	1952.46
478.455	1962.18
478.827	2010.54
479.198	2030.43
479.569	2013.03
479.94	2099.13
480.311	2113.81
480.682	2185
481.053	2183.64
481.424	2219.35
481.795	2231.33
482.166	2280.14
482.537	2327.14
482.908	2331.44
483.279	2370.3
483.65	2371.21
484.021	2438.33
484.391	2468.38
484.762	2496.63
485.133	2497.08
485.503	2527.36
485.874	2580.69
486.244	2634.93
486.615	2678.09
486.985	2671.99
487.356	2722.61
487.726	2759.22
488.097	2810.07
488.467	2821.59
488.837	2833.8
489.207	2913.12
489.578	2942.27
489.948	2965.77
490.318	2991.98
490.688	2987.46
491.058	3048.03
491.428	3067.46
491.798	3095.94
492.168	3151.53
492.538	3159.44
492.908	3223.84
493.278	3276.04
493.648	3236.5
494.017	3327.57
494.387	3296.38
494.757	3362.6
495.126	3365.53
495.496	3421.12
495.866	3364.86
496.235	3425.42
496.605	3455.93
496.974	3480.78
497.344	3491.63
497.713	3558.52
498.082	3567.56
498.452	3591.74
498.821	3627.67
499.19	3623.15
499.559	3639.88
499.928	3682.36
500.298	3703.15
500.667	3701.12
501.036	3714
501.405	3769.82
501.774	3749.03
502.143	3784.28
502.512	3797.61
502.88	3852.75
503.249	3818.4
503.618	3849.14
503.987	3897.5
504.356	3869.25
504.724	3877.16
505.093	3913.54
505.462	3918.06
505.83	3951.73
506.199	3977.95
506.567	4029.7
506.936	4014.1
507.304	4030.83
507.672	4059.07
508.041	4077.38
508.409	4077.83
508.777	4104.27
509.145	4153.31
509.514	4120.99
509.882	4201.22
510.25	4163.03
510.618	4210.48
510.986	4191.05
511.354	4257.03
511.722	4252.29
512.09	4271.27
512.458	4256.13
512.826	4290.25
513.193	4300.88
513.561	4298.84
513.929	4338.61
514.297	4331.61
514.664	4359.41
515.032	4356.24
515.4	4413.64
515.767	4449.8
516.135	4480.08
516.502	4397.82
516.869	4486.86
517.237	4451.61
517.604	4434.21
517.972	4555.78
518.339	4549.46
518.706	4509.01
519.073	4544.49
519.44	4574.09
519.808	4624.03
520.175	4603.24
520.542	4596.69
520.909	4642.34
521.276	4602.79
521.643	4709.9
522.009	4680.75
522.376	4697.02
522.743	4734.08
523.11	4715.55
523.477	4786.29
523.843	4786.06
524.21	4851.14
524.577	4868.77
524.943	4890.92
525.31	4913.97
525.676	4941.31
526.043	4977.02
526.409	4974.76
526.776	4994.64
527.142	5078.48
527.508	5094.08
527.874	5040.29
528.241	5072.15
528.607	5117.8
528.973	5139.27
529.339	5156.22
529.705	5236.9
530.071	5239.83
530.437	5247.29
530.803	5293.39
531.169	5335.65
531.535	5259.04
531.901	5333.39
532.267	5317.57
532.632	5372.94
532.998	5410.22
533.364	5460.85
533.73	5392.37
534.095	5480.05
534.461	5497.23
534.826	5560.28
535.192	5518.02
535.557	5599.15
535.923	5583.33
536.288	5552.14
536.653	5655.42
537.019	5607.73
537.384	5630.78
537.749	5701.06
538.114	5665.81
538.479	5714.62
538.845	5744.23
539.21	5737.9
539.575	5816.99
539.94	5841.17
540.305	5827.39
540.67	5818.35
541.034	5884.79
541.399	5882.08
541.764	5911
542.129	5900.83
542.494	5958.23
542.858	6012.92
543.223	6029.42
543.587	6095.63
543.952	6031.68
544.316	6065.8
544.681	6089.3
545.045	6162.75
545.41	6142.41
545.774	6171.79
546.138	6197.32
546.503	6214.5
546.867	6246.59
547.231	6323.42
547.595	6304.44
547.959	6322.07
548.324	6383.76
548.688	6324.1
549.052	6384.89
549.416	6395.51
549.779	6435.28
550.143	6503.3
550.507	6475.73
550.871	6517.77
551.235	6474.83
551.599	6546.01
551.962	6586.92
552.326	6567.03
552.689	6623.75
553.053	6590.76
553.417	6588.27
553.78	6680.47
554.143	6606.8
554.507	6746.01
554.87	6695.39
555.234	6754.82
555.597	6704.65
555.96	6715.5
556.323	6765.44
556.686	6818.78
557.05	6857.87
557.413	6887.7
557.776	6851.54
558.139	6937.87
558.502	6918.66
558.865	6952.56
559.228	6962.27
559.59	6975.61
559.953	6990.3
560.316	7128.6
560.679	7029.17
561.041	7151.87
561.404	7166.11
561.767	7177.18
562.129	7119.78
562.492	7240.23
562.854	7265.54
563.217	7242.27
563.579	7209.73
563.941	7252.21
564.304	7359.33
564.666	7405.43
565.028	7450.4
565.39	7366.11
565.753	7438.87
566.115	7470.74
566.477	7532.43
566.839	7521.13
567.201	7552.99
567.563	7473.45
567.925	7617.4
568.287	7599.09
568.648	7607.91
569.01	7705.08
569.372	7680.45
569.734	7670.73
570.095	7784.4
570.457	7789.37
570.819	7862.36
571.18	7916.37
571.542	7967.67
571.903	7960.44
572.265	7997.28
572.626	8005.86
572.987	8064.84
573.349	8080.89
573.71	8177.61
574.071	8188.91
574.432	8232.75
574.794	8346.64
575.155	8363.37
575.516	8356.36
575.877	8399.98
576.238	8481.78
576.599	8557.49
576.96	8648.56
577.32	8769.23
577.681	8766.97
578.042	8820.98
578.403	8956.8
578.763	9002.9
579.124	9023.24
579.485	9166.28
579.845	9267.3
580.206	9324.7
580.566	9479.5
580.927	9648.31
581.287	9736.44
581.648	9771.69
582.008	9999.71
582.368	10074.06
582.728	10221.4
583.089	10393.6
583.449	10456.19
583.809	10671.1
584.169	10820.7
584.529	10889.4
584.889	11142.96
585.249	11285.78
585.609	11450.97
585.969	11698.2
586.329	11824.97
586.688	12028.81
587.048	12242.36
587.408	12434.9
587.768	12664.72
588.127	12849.13
588.487	13055.67
588.846	13379.28
589.206	13474.19
589.565	13760.06
589.925	14061.07
590.284	14220.39
590.643	14479.37
591.003	14802.29
591.362	15066.24
591.721	15280.25
592.08	15574.48
592.44	15855.83
592.799	16106.89
593.158	16385.76
593.517	16614.22
593.876	16966.76
594.235	17227.32
594.593	17399.74
594.952	17767.87
595.311	17883.34
595.67	18327.4
596.029	18737.56
596.387	18923.32
596.746	19326.24
597.104	19507.48
597.463	19685.78
597.822	20043.74
598.18	20318.31
598.538	20531.41
598.897	21010.72
599.255	21032.19
599.613	21661.55
599.972	21673.53
600.33	22080.07
600.688	22328.65
601.046	22522.54
601.404	22936.54
601.762	23240.94
602.12	23487.49
602.478	23733.36
602.836	23968.61
603.194	24016.52
603.552	24450.85
603.91	24605.43
604.268	25025.08
604.625	25036.38
604.983	25407.21
605.341	25599.98
605.698	26006.07
606.056	26263.01
606.413	26513.4
606.771	26797.46
607.128	26988.19
607.485	27027.06
607.843	27360.16
608.2	27638.57
608.557	27887.83
608.914	27960.37
609.272	28398.55
609.629	28572.78
609.986	28930.96
610.343	28916.05
610.7	29309.71
611.057	29357.39
611.414	29552.19
611.771	29693.43
612.127	29962.12
612.484	30098.16
612.841	30412.96
613.198	30547.64
613.554	30716.45
613.911	31068.53
614.267	31058.82
614.624	31291.58
614.98	31458.13
615.337	31626.71
615.693	31750.32
616.05	31927.04
616.406	32214.72
616.762	32219.01
617.118	32315.05
617.475	32563.64
617.831	32842.95
618.187	32910.97
618.543	33058.09
618.899	33235.71
619.255	33312.54
619.611	33453.78
619.967	33614.68
620.323	33819.87
620.678	33824.39
621.034	33677.73
621.39	33909.36
621.746	34027.1
622.101	34495.11
622.457	34218.28
622.812	34444.94
623.168	34603.36
623.523	34688.1
623.879	34947.3
624.234	34776.23
624.589	34864.37
624.945	35081.08
625.3	35226.84
625.655	35160.18
626.01	35228.88
626.365	35348.87
626.72	35462.77
627.075	35552.48
627.43	35449.89
627.785	35561.52
628.14	35761.74
628.495	35735.3
628.85	35687.17
629.205	35726.72
629.559	35829.54
629.914	35788.86
630.269	35899.59
630.623	35773.49
630.978	35814.62
631.332	36005.8
631.687	36101.62
632.041	36025.69
632.396	36122.19
632.75	36059.81
633.104	36131.23
633.459	36029.31
633.813	35974.85
634.167	36022.75
634.521	36103.43
634.875	36282.18
635.229	36123.77
635.583	36085.8
635.937	36113.6
636.291	35967.39
636.645	36100.49
636.999	36113.82
637.352	36361.5
637.706	35941.4
638.06	36099.81
638.413	36184.11
638.767	36119.47
639.121	36187.72
639.474	35863.66
639.828	36138.46
640.181	36171.22
640.534	36069.53
640.888	36074.05
641.241	35858.46
641.594	35951.34
641.947	36113.15
642.301	36078.35
642.654	36096.88
643.007	36093.94
643.36	36056.2
643.713	36001.06
644.066	36124.9
644.419	36031.11
644.771	35698.92
645.124	35395.43
645.477	35234.53
645.83	35247.63
646.182	34932.84
646.535	34966.06
646.888	35030.92
647.24	34785.72
647.593	35081.31
647.945	34983.91
648.298	34822.56
648.65	34840.19
649.002	34785.27
649.355	34939.62
649.707	34909.79
650.059	34881.77
650.411	35374.63
650.763	35424.58
651.115	35928.74
651.467	35666.6
651.819	35693.95
652.171	35655.08
652.523	35574.63
652.875	35691.91
653.227	35426.84
653.578	35614.85
653.93	35696.21
654.282	35360.17
654.633	35391.58
654.985	35596.32
655.337	35527.4
655.688	35510.22
656.039	35613.5
656.391	35204.92
656.742	35193.62
657.094	35324.92
657.445	35492.15
657.796	35420.06
658.147	35282.66
658.498	35385.48
658.849	35415.54
659.2	35322.66
659.551	35281.53
659.902	35310.68
660.253	35408.31
660.604	35373.96
660.955	35183
661.306	35401.75
661.656	35297.12
662.007	35343.22
662.358	35437.91
662.708	35358.36
663.059	35306.39
663.409	35159.27
663.76	35404.46
664.11	35333.28
664.461	35370.34
664.811	35263.68
665.161	35258.71
665.511	35156.34
665.862	35210.35
666.212	35447.4
666.562	35367.4
666.912	35259.61
667.262	35179.84
667.612	35268.87
667.962	35251.02
668.312	35265.49
668.662	35558.36
669.011	35225.71
669.361	35198.82
669.711	35139.39
670.06	35088.99
670.41	35098.71
670.76	35013.74
671.109	35093.29
671.459	35084.47
671.808	35014.64
672.157	35238.59
672.507	34971.71
672.856	34976
673.205	35013.29
673.554	35064.13
673.904	35020.07
674.253	35235.88
674.602	34955.21
674.951	34566.52
675.3	34416.92
675.649	34945.27
675.998	34852.84
676.346	34841.54
676.695	34929
677.044	34759.28
677.393	34858.49
677.741	34788.66
678.09	34782.33
678.438	34759.51
678.787	34635.9
679.135	34737.14
679.484	34681.77
679.832	34775.1
680.181	34471.38
680.529	34659.4
680.877	34542.79
681.225	34611.49
681.573	34535.11
681.922	34388.22
682.27	34302.57
682.618	34419.41
682.966	34207.66
683.314	34397.94
683.661	34284.27
684.009	34069.13
684.357	33988.46
684.705	33947.33
685.053	33943.49
685.4	33987.33
685.748	33729.93
686.095	33846.09
686.443	33733.1
686.79	33672.98
687.138	33750.27
687.485	33632.76
687.832	33572.2
688.18	33602.7
688.527	33531.97
688.874	33503.05
689.221	33336.72
689.568	33300.11
689.915	33256.95
690.262	33219.66
690.609	33105.09
690.956	33110.29
691.303	33007.69
691.65	32708.26
691.997	32962.49
692.344	32580.81
692.69	32580.13
693.037	32648.6
693.383	32300.37
693.73	32487.71
694.077	32100.82
694.423	32300.82
694.769	32262.85
695.116	32077.09
695.462	31993.48
695.808	31986.93
696.155	31975.4
696.501	31786.48
696.847	31687.27
697.193	31509.88
697.539	31727.5
697.885	31494.51
698.231	31338.81
698.577	31288.19
698.923	31301.52
699.269	31129.32
699.614	30944.92
699.96	30970.91
700.306	31007.07
700.651	30866.5
700.997	30793.29
701.342	30802.33
701.688	30729.79
702.033	30587.42
702.379	30438.49
702.724	30470.13
703.069	30491.6
703.415	30102.68
703.76	30168.9
704.105	30257.03
704.45	30212.28
704.795	30038.73
705.14	29869.47
705.485	29963.48
705.83	29708.12
706.175	29792.86
706.52	29664.95
706.865	29560.78
707.209	29634.45
707.554	29477.16
707.899	29455.92
708.243	29327.11
708.588	29278.07
708.932	29142.93
709.277	29039.21
709.621	29050.06
709.966	28852.32
710.31	28925.31
710.654	28756.05
710.998	28857.29
711.342	28704.75
711.687	28662.04
712.031	28594.47
712.375	28670.63
712.719	28582.72
713.063	28447.13
713.407	28553.8
713.75	28410.98
714.094	28348.15
714.438	28213.24
714.782	28268.16
715.125	28174.6
715.469	28121.04
715.812	27915.4
716.156	27932.8
716.499	27804.44
716.843	27898.22
717.186	27765.12
717.53	27872.01
717.873	27947.49
718.216	27855.06
718.559	27588.17
718.902	27527.16
719.246	27528.06
719.589	27482.19
719.932	27334.85
720.275	27459.14
720.617	27374.39
720.96	27332.59
721.303	27290.78
721.646	27275.41
721.989	27055.53
722.331	27256.43
722.674	27113.16
723.016	27058.92
723.359	27097.11
723.701	27069.77
724.044	26888.3
724.386	26826.61
724.729	26901.64
725.071	26849.89
725.413	26806.27
725.755	26792.26
726.097	26738.93
726.439	26441.99
726.782	26437.24
727.124	26614.87
727.465	26447.19
727.807	26457.13
728.149	26354.98
728.491	26296.46
728.833	26407.41
729.175	26286.96
729.516	26276.57
729.858	26281.09
730.199	26182.11
730.541	26171.04
730.882	26162
731.224	26288.77
731.565	26001.1
731.906	25929.69
732.248	25996.8
732.589	25863.47
732.93	25778.95
733.271	25876.13
733.612	25799.97
733.953	25957.03
734.294	25620.99
734.635	25722.23
734.976	25642.69
735.317	25528.57
735.658	25511.39
735.999	25537.38
736.339	25394.33
736.68	25493.99
737.021	25468
737.361	25355.24
737.702	25455.8
738.042	25368.34
738.383	25287.89
738.723	25316.59
739.063	25250.61
739.404	25247.9
739.744	25135.36
740.084	25106.2
740.424	25153.66
740.764	25056.71
741.104	25133.32
741.444	24957.28
741.784	24940.78
742.124	24844.74
742.464	24910.96
742.804	24815.14
743.143	24833.67
743.483	24762.03
743.823	24757.51
744.162	24630.28
744.502	24685.42
744.841	24467.58
745.181	24768.59
745.52	24541.7
745.86	24606.1
746.199	24470.51
746.538	24468.93
746.877	24513.23
747.216	24370.18
747.556	24426.9
747.895	24360.01
748.234	24224.19
748.573	24259.9
748.911	24203.18
749.25	24191.88
749.589	24129.96
749.928	24194.59
750.267	24186.23
750.605	24124.08
750.944	24068.94
751.283	23972.67
751.621	24034.37
751.96	23860.14
752.298	23834.83
752.636	23854.49
752.975	23717.09
753.313	23743.53
753.651	23706.47
753.989	23623.98
754.327	23582.18
754.666	23496.08
755.004	23440.94
755.342	23588.73
755.679	23456.76
756.017	23161.4
756.355	23400.26
756.693	23170.44
757.031	23259.02
757.368	23130.44
757.706	23082.3
758.044	22972.25
758.381	22965.92
758.719	22823.78
759.056	22961.63
759.394	22908.07
759.731	22660.84
760.068	22688.41
760.405	22560.28
760.743	22571.36
761.08	22614.97
761.417	22414.98
761.754	22334.98
762.091	22287.75
762.428	22180.41
762.765	22098.83
763.102	22247.75
763.438	22057.7
763.775	21974.76
764.112	21909.45
764.449	21975.21
764.785	21884.82
765.122	21709.91
765.458	21612.96
765.795	21549.91
766.131	21627.65
766.467	21567.31
766.804	21435.57
767.14	21275.34
767.476	21288.9
767.812	21220.66
768.148	21220.88
768.485	21056.59
768.821	20950.83
769.157	20979.99
769.492	20881.46
769.828	20907.67
770.164	20729.37
770.5	20706.77
770.836	20687.34
771.171	20577.96
771.507	20493.9
771.842	20314.47
772.178	20267.24
772.513	20177.07
772.849	20220.91
773.184	20108.6
773.519	20034.93
773.855	19924.19
774.19	19943.18
774.525	19895.49
774.86	19855.04
775.195	19734.14
775.53	19703.86
775.865	19563.07
776.2	19405.34
776.535	19345.23
776.87	19338.67
777.205	19208.51
777.539	19131.22
777.874	19245.57
778.209	19047.15
778.543	19003.09
778.878	18862.98
779.212	18927.16
779.547	18836.99
779.881	18800.16
780.215	18647.84
780.55	18660.95
780.884	18526.94
781.218	18474.51
781.552	18447.17
781.886	18380.96
782.22	18232.94
782.554	18219.15
782.888	18092.83
783.222	18073.85
783.556	17887.41
783.889	17896.45
784.223	17818.71
784.557	17758.15
784.89	17674.08
785.224	17684.25
785.557	17572.17
785.891	17529.91
786.224	17532.62
786.558	17530.81
786.891	17312.06
787.224	17253.53
787.557	17188.9
787.891	17340.53
788.224	17159.75
788.557	17154.77
788.89	17118.84
789.223	16985.97
789.556	16808.57
789.888	16854.67
790.221	16785.07
790.554	16514.57
790.887	16646.99
791.219	16586.65
791.552	16567.67
791.884	16459.43
792.217	16451.74
792.549	16353.89
792.882	16217.85
793.214	16260.11
793.546	16261.69
793.879	16073.22
794.211	16063.05
794.543	16128.81
794.875	16010.4
795.207	16162.94
795.539	15916.39
795.871	15874.36
796.203	15752.78
796.535	15623.52
796.867	15591.65
797.198	15628.04
797.53	15590.97
797.862	15462.16
798.193	15487.02
798.525	15404.09
798.856	15440.92
799.188	15315.05
799.519	15219.46
799.85	15174.04
800.182	15149.4
800.513	15117.99
800.844	15012.68
801.175	15058.78
801.506	15026.24
801.837	14924.55
802.168	14932.23
802.499	14919.58
802.83	14793.48
803.161	14770.88
803.491	14746.7
803.822	14743.31
804.153	14640.49
804.483	14516.43
804.814	14513.71
805.145	14432.59
805.475	14477.56
805.805	14374.28
806.136	14340.16
806.466	14334.06
806.796	14328.63
807.126	14228.75
807.457	14220.61
807.787	14123.44
808.117	14177.45
808.447	14095.87
808.777	14103.78
809.107	14051.35
809.436	14022.88
809.766	13985.82
810.096	13938.81
810.426	13850.68
810.755	13884.8
811.085	13697.01
811.414	13846.39
811.744	13705.83
812.073	13672.15
812.403	13590.35
812.732	13492.27
813.061	13499.28
813.39	13436
813.719	13443.69
814.049	13520.29
814.378	13389.9
814.707	13373.86
815.036	13450.24
815.365	13285.95
815.693	13160.53
816.022	13246.63
816.351	13237.82
816.68	13143.58
817.008	13125.28
817.337	13063.81
817.665	12893.42
817.994	13034.66
818.322	12998.27
818.651	12848.45
818.979	12901.55
819.307	12881.21
819.636	12903.14
819.964	12852.97
820.292	12872.85
820.62	12838.96
820.948	12816.36
821.276	12785.62
821.604	12791.27
821.932	12796.92
822.259	12826.98
822.587	12671.95
822.915	12684.61
823.243	12856.58
823.57	12733.65
823.898	12694.33
824.225	12655.91
824.553	12718.06
824.88	12751.27
825.207	12717.83
825.535	12771.39
825.862	12764.83
826.189	12640.09
826.516	12798.51
826.843	12800.77
827.17	12748.56
827.497	12851.61
827.824	12789.92
828.151	12735.23
828.478	12733.87
828.805	12814.1
829.131	12646.64
829.458	12683.48
829.785	12564.84
830.111	12681.67
830.438	12736.36
830.764	12712.41
831.09	12649.13
831.417	12574.78
831.743	12644.61
832.069	12661.56
832.395	12618.17
832.722	12653.42
833.048	12603.71
833.374	12615.91
833.7	12513.32
834.026	12548.79
834.351	12591.05
834.677	12645.06
835.003	12596.02
835.329	12557.38
835.654	12560.09
835.98	12520.32
836.306	12475.35
836.631	12498.17
836.956	12473.32
837.282	12472.86
837.607	12348.35
837.932	12348.57
838.258	12310.83
838.583	12401.91
838.908	12281.46
839.233	12324.17
839.558	12198.3
839.883	12227.9
840.208	12210.05
840.533	12248.92
840.858	12202.81
841.182	12191.29
841.507	12117.85
841.832	12140.67
842.156	12079.2
842.481	12092.31
842.805	11989.94
843.13	12023.16
843.454	11963.95
843.778	11979.09
844.103	11868.81
844.427	11868.13
844.751	11880.34
845.075	11833.56
845.399	11837.85
845.723	11720.79
846.047	11733.45
846.371	11674.24
846.695	11657.07
847.019	11596.05
847.343	11502.49
847.666	11460.69
847.99	11417.98
848.313	11440.12
848.637	11318.32
848.96	11291.88
849.284	11342.27
849.607	11205.55
849.931	11183.41
850.254	11080.13
850.577	11000.13
850.9	10924.2
851.223	10956.52
851.546	10919.23
851.869	10854.83
852.192	10906.13
852.515	10820.25
852.838	10725.79
853.161	10705.23
853.483	10674.27
853.806	10697.77
854.129	10624.55
854.451	10610.54
854.774	10543.88
855.096	10534.61
855.419	10469.08
855.741	10339.36
856.063	10426.59
856.385	10367.16
856.708	10314.73
857.03	10289.64
857.352	10281.06
857.674	10281.28
857.996	10257.33
858.318	10077.45
858.64	10234.96
858.961	10135.75
859.283	10074.74
859.605	10055.53
859.926	10114.96
860.248	10055.3
860.57	9990.9
860.891	10022.08
861.212	9972.59
861.534	9928.07
861.855	9886.72
862.176	9972.36
862.498	9935.76
862.819	9906.6
863.14	9778.92
863.461	9786.38
863.782	9827.51
864.103	9829.09
864.424	9765.59
864.745	9740.05
865.065	9696.89
865.386	9634.07
865.707	9704.58
866.027	9692.15
866.348	9648.76
866.668	9671.36
866.989	9571.47
867.309	9566.5
867.63	9600.85
867.95	9561.75
868.27	9499.16
868.59	9534.86
868.91	9468.65
869.23	9483.11
869.55	9423.68
869.87	9516.78
870.19	9441.76
870.51	9416.67
870.83	9475.2
871.15	9374.87
871.469	9330.57
871.789	9371.02
872.109	9330.35
872.428	9298.48
872.748	9368.31
873.067	9356.11
873.386	9326.73
873.706	9304.59
874.025	9243.34
874.344	9240.63
874.663	9249.22
874.982	9181.2
875.301	9189.11
875.62	9147.98
875.939	9124.03
876.258	9145.49
876.577	9101.88
876.896	9137.81
877.214	9071.37
877.533	9125.16
877.852	9093.29
878.17	9018.72
878.489	9062.78
878.807	9117.92
879.125	9056.91
879.444	8998.38
879.762	8944.14
880.08	8988.89
880.398	8928.1
880.716	8952.28
881.034	8905.05
881.352	8957.02
881.67	8898.27
881.988	8887.87
882.306	8898.49
882.624	8824.37
882.941	8720.19
883.259	8809.68
883.577	8728.56
883.894	8787.99
884.212	8754.77
884.529	8782.57
884.846	8749.12
885.164	8670.48
885.481	8624.15
885.798	8693.08
886.115	8576.92
886.432	8596.81
886.75	8590.93
887.067	8623.02
887.383	8519.97
887.7	8525.17
888.017	8535.34
888.334	8489.92
888.651	8435.46
888.967	8411.73
889.284	8450.37
889.6	8373.99
889.917	8313.2
890.233	8308.45
890.55	8278.85
890.866	8331.73
891.182	8290.83
891.498	8258.29
891.815	8189.36
892.131	8232.07
892.447	8205.86
892.763	8170.83
893.079	8076.37
893.395	8114.11
893.71	8049.7
894.026	8041.12
894.342	8051.96
894.657	7985.3
894.973	7988.24
895.289	7952.31
895.604	7889.48
895.92	7879.09
896.235	7817.17
896.55	7875.7
896.865	7750.95
897.181	7799.31
897.496	7760.22
897.811	7747.34
898.126	7686.32
898.441	7666.66
898.756	7685.42
899.071	7627.12
899.386	7674.57
899.7	7588.25
900.015	7545.99
900.33	7496.5
900.644	7469.83
900.959	7472.54
901.273	7460.57
901.588	7404.97
901.902	7354.13
902.216	7374.69
902.531	7333.79
902.845	7339.89
903.159	7232.55
903.473	7234.58
903.787	7210.18
904.101	7192.55
904.415	7195.71
904.729	7143.96
905.042	7093.34
905.356	7100.12
905.67	7122.72
905.984	7117.75
906.297	7020.35
906.611	7020.58
906.924	7009.05
907.237	6974.93
907.551	6944.65
907.864	6877.08
908.177	6864.42
908.491	6840.02
908.804	6821.71
909.117	6782.39
909.43	6728.38
909.743	6682.73
910.056	6713.02
910.368	6671.43
910.681	6629.18
910.994	6639.35
911.307	6571.32
911.619	6507.37
911.932	6546.24
912.244	6503.3
912.557	6499.46
912.869	6433.47
913.181	6437.77
913.494	6407.26
913.806	6362.74
914.118	6341.95
914.43	6322.29
914.742	6325
915.054	6271.45
915.366	6296.76
915.678	6288.17
915.99	6246.59
916.302	6193.93
916.613	6112.81
916.925	6111.45
917.236	6108.06
917.548	6090.21
917.859	6062.86
918.171	6054.05
918.482	6019.25
918.794	5976.09
919.105	6002.53
919.416	5897.22
919.727	5929.76
920.038	5909.65
920.349	5812.93
920.66	5868.29
920.971	5836.88
921.282	5798.92
921.593	5724.57
921.903	5772.7
922.214	5717.79
922.525	5723.21
922.835	5697.22
923.146	5637.79
923.456	5604.57
923.767	5624.91
924.077	5618.58
924.387	5520.5
924.697	5531.58
925.008	5552.82
925.318	5482.54
925.628	5511.47
925.938	5438.25
926.248	5427.85
926.558	5403.67
926.867	5401.41
927.177	5395.08
927.487	5325.26
927.796	5259.72
928.106	5231.25
928.416	5234.86
928.725	5257.91
929.034	5213.39
929.344	5189.67
929.653	5200.96
929.962	5141.31
930.271	5117.58
930.581	5113.74
930.89	5067.41
931.199	5073.06
931.508	5057.92
931.817	5019.95
932.125	5038.26
932.434	4978.82
932.743	4942.21
933.051	4916.68
933.36	4940.86
933.669	4882.1
933.977	4880.75
934.286	4868.54
934.594	4849.11
934.902	4817.02
935.21	4789.68
935.519	4784.25
935.827	4736.57
936.135	4701.09
936.443	4692.5
936.751	4674.65
937.059	4662.45
937.367	4635.56
937.674	4633.97
937.982	4624.48
938.29	4585.16
938.597	4580.42
938.905	4571.83
939.213	4555.11
939.52	4522.56
939.827	4499.51
940.135	4492.73
940.442	4462.91
940.749	4438.27
941.056	4427.65
941.363	4372.51
941.67	4388.33
941.977	4356.02
942.284	4324.83
942.591	4361.21
942.898	4283.93
943.205	4299.75
943.511	4271.72
943.818	4267.88
944.125	4259.97
944.431	4236.92
944.738	4198.51
945.044	4217.26
945.35	4211.39
945.657	4164.83
945.963	4097.04
946.269	4147.89
946.575	4116.7
946.881	4113.08
947.187	4090.94
947.493	4002.13
947.799	4071.96
948.105	4026.76
948.41	3988.57
948.716	3985.86
949.022	3950.6
949.327	3928.68
949.633	3918.96
949.938	3942.47
950.244	3915.58
950.549	3896.82
950.854	3906.08
951.16	3864.5
951.465	3812.75
951.77	3800.1
952.075	3801
952.38	3793.32
952.685	3804.84
952.99	3755.81
953.294	3738.63
953.599	3692.98
953.904	3717.16
954.209	3658.18
954.513	3671.97
954.818	3645.3
955.122	3640.33
955.426	3618.86
955.731	3634.68
956.035	3549.71
956.339	3534.57
956.643	3582.02
956.948	3523.72
957.252	3528.69
957.556	3531.18
957.86	3484.85
958.163	3500.67
958.467	3528.01
958.771	3485.08
959.075	3426.1
959.378	3378.41
959.682	3441.46
959.985	3403.95
960.289	3387
960.592	3366.21
960.896	3366.44
961.199	3332.31
961.502	3344.29
961.805	3318.75
962.108	3283.5
962.411	3306.1
962.714	3261.81
963.017	3265.87
963.32	3204.41
963.623	3212.99
963.926	3214.58
964.228	3184.07
964.531	3192.43
964.833	3149.04
965.136	3194.24
965.438	3137.97
965.741	3122.38
966.043	3072.21
966.345	3096.39
966.648	3066.78
966.95	3091.19
967.252	3082.83
967.554	3052.32
967.856	3010.29
968.158	3046.22
968.46	3008.25
968.761	3036.5
969.063	3001.47
969.365	2951.98
969.666	2993.57
969.968	2926.67
970.269	2923.06
970.571	2944.53
970.872	2885.55
971.174	2889.84
971.475	2874.7
971.776	2869.5
972.077	2865.89
972.378	2858.43
972.679	2876.51
972.98	2836.28
973.281	2812.78
973.582	2788.82
973.883	2794.7
974.183	2766.23
974.484	2772.1
974.785	2729.17
975.085	2757.41
975.386	2728.26
975.686	2750.41
975.986	2673.8
976.287	2700.69
976.587	2660.24
976.887	2663.63
977.187	2706.79
977.487	2646.46
977.787	2626.34
978.087	2609.17
978.387	2591.99
978.687	2604.42
978.987	2606.23
979.286	2572.56
979.586	2576.63
979.885	2546.57
980.185	2524.43
980.484	2534.37
980.784	2577.31
981.083	2508.15
981.382	2528.49
981.682	2528.72
981.981	2486.01
982.28	2471.09
982.579	2435.39
982.878	2428.61
983.177	2448.27
983.475	2441.94
983.774	2427.48
984.073	2434.26
984.372	2405.78
984.67	2395.16
984.969	2376.86
985.267	2361.49
985.566	2354.71
985.864	2333.7
986.162	2318.1
986.461	2337.76
986.759	2323.07
987.057	2295.96
987.355	2280.82
987.653	2286.24
987.951	2293.47
988.249	2273.36
988.547	2291.66
988.844	2224.32
989.142	2239.91
989.44	2234.72
989.737	2242.62
990.035	2207.82
990.332	2195.17
990.63	2190.87
990.927	2169.18
991.224	2186.13
991.521	2147.49
991.819	2149.29
992.116	2154.49
992.413	2133.7
992.71	2126.24
993.006	2149.07
993.303	2096.19
993.6	2101.84
993.897	2078.79
994.193	2094.83
994.49	2052.35
994.787	2041.05
995.083	2015.51
995.379	2030.43
995.676	2047.15
995.972	2025.46
996.268	2003.99
996.565	1986.59
996.861	1979.58
997.157	1971.45
997.453	1973.71
997.749	1968.06
998.044	1951.78
998.34	1930.09
998.636	1918.34
998.932	1937.55
999.227	1906.59
999.523	1899.36
999.818	1850.54
1000.114	1849.64
1000.409	1864.78
1000.704	1860.04
1001	1870.21
1001.295	1846.7
1001.59	1815.97
1001.885	1843.54
1002.18	1805.57
1002.475	1808.06
1002.77	1795.18
1003.065	1755.18
1003.359	1774.39
1003.654	1781.85
1003.949	1749.98
1004.243	1765.8
1004.538	1725.12
1004.832	1730.1
1005.127	1700.94
1005.421	1729.19
1005.715	1708.63
1006.009	1696.88
1006.304	1696.65
1006.598	1668.85
1006.892	1670.89
1007.186	1673.83
1007.48	1622.53
1007.773	1617.33
1008.067	1633.83
1008.361	1611.91
1008.655	1636.76
1008.948	1600.38
1009.242	1604.22
1009.535	1621.17
1009.829	1593.6
1010.122	1577.78
1010.415	1575.52
1010.708	1541.85
1011.001	1521.29
1011.295	1543.66
1011.588	1517.22
1011.881	1523.32
1012.173	1518.58
1012.466	1527.84
1012.759	1490.78
1013.052	1483.55
1013.344	1477.9
1013.637	1455.75
1013.93	1438.13
1014.222	1479.71
1014.514	1454.85
1014.807	1436.77
1015.099	1439.71
1015.391	1429.76
1015.683	1411.69
1015.976	1417.79
1016.268	1385.02
1016.56	1377.11
1016.851	1366.04
1017.143	1364
1017.435	1348.86
1017.727	1345.47
1018.018	1351.8
1018.31	1352.7
1018.602	1347.28
1018.893	1300.73
1019.185	1321.29
1019.476	1276.77
1019.767	1307.96
1020.058	1290.79
1020.35	1267.74
1020.641	1247.17
1020.932	1273.84
1021.223	1257.57
1021.514	1220.28
1021.804	1227.96
1022.095	1221.18
1022.386	1242.42
1022.677	1210.11
1022.967	1236.1
1023.258	1215.76
1023.548	1189.54
1023.839	1160.62
1024.129	1186.83
1024.419	1184.8
1024.709	1176.44
1025	1165.36
1025.29	1155.42
1025.58	1147.06
1025.87	1123.78
1026.16	1134.63
1026.449	1135.76
1026.739	1131.47
1027.029	1108.19
1027.319	1084.69
1027.608	1113.61
1027.898	1107.74
1028.187	1075.65
1028.477	1072.03
1028.766	1091.69
1029.055	1056.22
1029.344	1064.58
1029.634	1077.23
1029.923	1025.48
1030.212	1043.33
1030.501	1021.19
1030.79	1053.96
1031.078	1023
1031.367	1008.76
1031.656	1005.82
1031.945	993.17
1032.233	990.91
1032.522	997.69
1032.81	957.01
1033.099	985.48
1033.387	985.26
1033.675	966.5
1033.963	957.69
1034.251	979.16
1034.54	941.19
1034.828	928.53
1035.116	935.09
1035.403	922.21
1035.691	940.51
1035.979	907.29
1036.267	911.36
1036.554	910.91
1036.842	885.15
1037.129	884.69
1037.417	906.84
1037.704	862.77
1037.992	879.5
1038.279	875.2
1038.566	888.99
1038.853	888.99
1039.14	888.99
