Data from hue_150_FLMS001491_00059.txt Node
Date: Tue Feb 07 16:54:14 GMT 2017
User: dcchb
Spectrometer: FLMS00149
Trigger mode: 0
Integration Time (sec): 2.000000E-2
Scans to average: 10
Electric dark correction enabled: true
Nonlinearity correction enabled: false
Boxcar width: 0
XAxis mode: Wavelengths
Number of Pixels in Spectrum: 2048
>>>>>Begin Spectral Data<<<<<
341.393	5.76
341.776	5.76
342.16	5.76
342.543	-71.98
342.927	-61.13
343.31	-65.87
343.693	-55.7
344.077	-56.38
344.46	-80.11
344.843	-67.91
345.226	-48.93
345.61	-30.62
345.993	-13.45
346.376	1.47
346.759	16.61
347.142	42.15
347.525	42.82
347.908	50.73
348.291	84.18
348.674	81.69
349.057	99.32
349.44	131.63
349.823	130.51
350.206	163.27
350.588	203.27
350.971	210.5
351.354	218.64
351.737	224.29
352.119	250.28
352.502	246.89
352.884	283.95
353.267	271.97
353.65	302.93
354.032	292.53
354.414	299.31
354.797	321.46
355.179	307.9
355.562	330.27
355.944	294.34
356.326	327.79
356.709	316.71
357.091	336.6
357.473	353.55
357.855	351.06
358.238	337.51
358.62	334.57
359.002	315.13
359.384	340.67
359.766	349.48
360.148	327.79
360.53	351.06
360.912	334.12
361.294	336.6
361.676	336.15
362.057	326.66
362.439	319.43
362.821	330.5
363.203	339.31
363.584	324.85
363.966	302.48
364.348	331.63
364.729	319.43
365.111	327.11
365.493	311.97
365.874	309.48
366.256	313.1
366.637	327.11
367.019	305.42
367.4	293.89
367.781	308.58
368.163	327.56
368.544	314
368.925	301.8
369.306	332.99
369.688	335.02
370.069	318.97
370.45	322.82
370.831	320.33
371.212	280.33
371.593	317.17
371.974	315.81
372.355	299.54
372.736	311.74
373.117	326.21
373.498	338.18
373.879	305.19
374.26	295.47
374.641	306.77
375.021	327.34
375.402	307.22
375.783	328.69
376.163	316.71
376.544	324.85
376.925	310.61
377.305	329.37
377.686	309.48
378.066	326.43
378.447	329.82
378.827	343.61
379.208	317.84
379.588	324.17
379.968	335.02
380.349	326.21
380.729	339.54
381.109	364.17
381.489	335.7
381.87	308.35
382.25	338.64
382.63	323.49
383.01	349.03
383.39	338.86
383.77	356.49
384.15	330.5
384.53	318.75
384.91	333.44
385.29	345.19
385.67	328.92
386.049	336.15
386.429	347
386.809	354.23
387.189	325.08
387.568	364.62
387.948	349.03
388.328	340.22
388.707	332.76
389.087	358.3
389.466	363.04
389.846	360.1
390.225	365.53
390.605	343.15
390.984	350.61
391.363	367.79
391.743	358.07
392.122	368.69
392.501	375.92
392.881	389.71
393.26	369.59
393.639	353.55
394.018	374.34
394.397	374.11
394.776	381.35
395.155	367.33
395.534	364.85
395.913	384.51
396.292	360.33
396.671	368.46
397.05	373.89
397.429	368.46
397.808	376.6
398.186	383.83
398.565	405.3
398.944	372.76
399.323	387.22
399.701	396.26
400.08	371.4
400.458	385.41
400.837	408.46
401.215	401.68
401.594	386.77
401.972	399.65
402.351	401.23
402.729	419.76
403.107	399.65
403.486	425.41
403.864	408.24
404.242	408.92
404.62	413.66
404.999	412.08
405.377	418.63
405.755	404.85
406.133	411.18
406.511	426.99
406.889	426.32
407.267	436.26
407.645	431.29
408.023	448.69
408.401	419.31
408.779	433.32
409.156	415.24
409.534	430.16
409.912	462.7
410.29	435.36
410.667	431.97
411.045	446.43
411.422	445.53
411.8	447.56
412.178	457.05
412.555	462.93
412.933	467.67
413.31	462.02
413.687	476.94
414.065	474.68
414.442	489.37
414.819	492.76
415.197	488.69
415.574	498.63
415.951	477.39
416.328	490.95
416.705	488.69
417.082	489.14
417.46	524.62
417.837	496.15
418.214	497.5
418.591	492.76
418.967	506.99
419.344	525.97
419.721	509.48
420.098	519.42
420.475	526.65
420.852	541.57
421.228	526.2
421.605	525.07
421.982	538.63
422.358	532.08
422.735	537.95
423.111	532.3
423.488	556.26
423.864	551.51
424.241	544.51
424.617	538.18
424.994	553.54
425.37	559.87
425.746	580.44
426.123	581.79
426.499	578.63
426.875	567.78
427.251	566.2
427.627	586.09
428.003	596.03
428.379	603.94
428.756	603.03
429.132	608.23
429.507	635.35
429.883	608.46
430.259	617.5
430.635	634.9
431.011	618.85
431.387	628.57
431.763	641.9
432.138	636.71
432.514	629.47
432.89	658.85
433.265	663.15
433.641	665.18
434.016	681.68
434.392	660.43
434.767	683.94
435.143	686.87
435.518	691.17
435.894	721
436.269	713.77
436.644	717.38
437.02	706.54
437.395	705.41
437.77	755.8
438.145	734.78
438.52	748.12
438.895	731.62
439.271	759.19
439.646	770.71
440.021	779.75
440.395	752.64
440.77	756.93
441.145	762.13
441.52	801
441.895	767.32
442.27	789.24
442.645	805.29
443.019	792.41
443.394	796.48
443.769	819.3
444.143	795.35
444.518	836.7
444.892	810.71
445.267	831.05
445.641	815.91
446.016	836.48
446.39	818.17
446.764	878.28
447.139	845.74
447.513	857.72
447.887	868.11
448.262	866.08
448.636	857.04
449.01	874.21
449.384	865.4
449.758	919.18
450.132	903.82
450.506	931.84
450.88	899.07
451.254	894.55
451.628	912.41
452.002	951.73
452.376	964.16
452.75	919.18
453.123	958.05
453.497	988.34
453.871	968
454.244	998.73
454.618	986.75
454.992	982.01
455.365	1017.94
455.739	1010.71
456.112	1046.41
456.486	1056.58
456.859	1040.54
457.232	1085.28
457.606	1062.23
457.979	1089.35
458.352	1114.21
458.725	1103.59
459.099	1120.54
459.472	1149.91
459.845	1183.58
460.218	1173.87
460.591	1180.42
460.964	1178.61
461.337	1213.87
461.71	1259.29
462.083	1243.24
462.456	1242.34
462.829	1253.87
463.201	1267.65
463.574	1298.61
463.947	1314.2
464.32	1332.06
464.692	1353.75
465.065	1370.25
465.438	1387.42
465.81	1392.62
466.183	1458.83
466.555	1445.72
466.928	1445.05
467.3	1506.74
467.672	1491.37
468.045	1534.31
468.417	1543.35
468.789	1562.56
469.161	1599.39
469.534	1616.79
469.906	1676
470.278	1706.96
470.65	1708.32
471.022	1736.79
471.394	1772.04
471.766	1807.98
472.138	1839.61
472.51	1878.48
472.882	1890.01
473.253	1974.98
473.625	1992.83
473.997	2035.54
474.369	2073.96
474.74	2102.43
475.112	2160.73
475.484	2183.33
475.855	2262.43
476.227	2308.75
476.598	2360.5
476.97	2390.11
477.341	2500.61
477.713	2526.6
478.084	2609.54
478.455	2642.08
478.827	2696.99
479.198	2809.53
479.569	2855.86
479.94	2967.72
480.311	3027.38
480.682	3110.99
481.053	3209.97
481.424	3291.78
481.795	3388.72
482.166	3437.08
482.537	3527.93
482.908	3624.42
483.279	3727.7
483.65	3853.35
484.021	3957.3
484.391	4009.95
484.762	4095.6
485.133	4194.35
485.503	4292.43
485.874	4422.6
486.244	4523.38
486.615	4690.84
486.985	4793.43
487.356	4931.06
487.726	5005.41
488.097	5169.47
488.467	5225.96
488.837	5340.09
489.207	5510.25
489.578	5624.6
489.948	5754.54
490.318	5900.52
490.688	5968.32
491.058	6108.43
491.428	6254.64
491.798	6415.09
492.168	6583.44
492.538	6630.9
492.908	6800.61
493.278	6944.56
493.648	6994.05
494.017	7175.07
494.387	7284.67
494.757	7384.33
495.126	7515.4
495.496	7567.6
495.866	7701.38
496.235	7882.62
496.605	7970.98
496.974	8061.82
497.344	8195.38
497.713	8245.09
498.082	8466.11
498.452	8522.37
498.821	8622.71
499.19	8702.48
499.559	8793.55
499.928	8908.35
500.298	9033.77
500.667	9184.5
501.036	9167.1
501.405	9308.57
501.774	9324.16
502.143	9547.88
502.512	9589.01
502.88	9705.17
503.249	9755.11
503.618	9759.63
503.987	9892.28
504.356	9945.16
504.724	9974.09
505.093	10096.57
505.462	10119.39
505.83	10282.78
506.199	10365.04
506.567	10495.2
506.936	10468.54
507.304	10639.61
507.672	10678.93
508.041	10721.86
508.409	10790.11
508.777	10866.49
509.145	10887.51
509.514	10969.54
509.882	11031.46
510.25	11032.14
510.618	11092.7
510.986	11190.1
511.354	11229.2
511.722	11219.7
512.09	11403.43
512.458	11376.54
512.826	11456.53
513.193	11503.31
513.561	11512.13
513.929	11618.56
514.297	11649.75
514.664	11710.54
515.032	11736.98
515.4	11814.49
515.767	11790.54
516.135	11861.04
516.502	11763.19
516.869	11950.31
517.237	12009.74
517.604	11976.07
517.972	12079.12
518.339	11997.76
518.706	12018.33
519.073	12161.83
519.44	12190.3
519.808	12236.4
520.175	12197.08
520.542	12281.15
520.909	12327.7
521.276	12214.71
521.643	12392.33
522.009	12430.52
522.376	12460.58
522.743	12493.12
523.11	12581.25
523.477	12559.78
523.843	12577.64
524.21	12703.96
524.577	12811.08
524.943	12730.17
525.31	12810.85
525.676	12814.47
526.043	12849.72
526.409	12822.83
526.776	12915.03
527.142	12960
527.508	12856.05
527.874	12931.3
528.241	12999.77
528.607	12904.86
528.973	13069.83
529.339	12904.86
529.705	12999.32
530.071	13092.2
530.437	13051.75
530.803	13030.5
531.169	13093.55
531.535	12996.83
531.901	12979.43
532.267	13003.16
532.632	12960
532.998	12937.17
533.364	13045.19
533.73	12898.3
534.095	13060.56
534.461	12986.89
534.826	13041.13
535.192	12967.23
535.557	13008.13
535.923	12914.8
536.288	12900.79
536.653	12956.83
537.019	12844.52
537.384	12928.36
537.749	12808.59
538.114	12780.34
538.479	12716.84
538.845	12801.36
539.21	12691.08
539.575	12692.21
539.94	12676.62
540.305	12646.33
540.67	12590.52
541.034	12630.74
541.399	12583.96
541.764	12565.21
542.129	12578.99
542.494	12446.57
542.858	12547.35
543.223	12496.06
543.587	12475.04
543.952	12370.41
544.316	12420.8
544.681	12259.23
545.045	12352.78
545.41	12271.2
545.774	12290.64
546.138	12239.11
546.503	12259.9
546.867	12104.43
547.231	12223.52
547.595	12110.98
547.959	12170.41
548.324	12069.17
548.688	11977.43
549.052	12023.75
549.416	11918.22
549.779	11935.39
550.143	11929.29
550.507	11946.69
550.871	11895.39
551.235	11825.79
551.599	11837.32
551.962	11842.06
552.326	11823.08
552.689	11810.42
553.053	11743.31
553.417	11708.96
553.78	11865.56
554.143	11655.85
554.507	11663.76
554.87	11675.51
555.234	11710.09
555.597	11588.06
555.96	11614.5
556.323	11645
556.686	11607.49
557.05	11612.01
557.413	11542.63
557.776	11580.15
558.139	11623.08
558.502	11499.25
558.865	11489.08
559.228	11591.45
559.59	11546.7
559.953	11520.49
560.316	11689.52
560.679	11616.08
561.041	11653.59
561.404	11593.48
561.767	11614.04
562.129	11583.09
562.492	11619.02
562.854	11571.79
563.217	11501.51
563.579	11540.6
563.941	11555.29
564.304	11609.07
564.666	11624.44
565.028	11614.72
565.39	11627.83
565.753	11662.63
566.115	11698.79
566.477	11695.85
566.839	11705.12
567.201	11748.28
567.563	11649.3
567.925	11778.33
568.287	11745.11
568.648	11783.31
569.01	11761.16
569.372	11795.96
569.734	11696.08
570.095	11762.74
570.457	11784.66
570.819	11856.07
571.18	11823.08
571.542	11790.09
571.903	11745.34
572.265	11853.59
572.626	11914.38
572.987	11877.31
573.349	11885
573.71	11929.29
574.071	11842.74
574.432	11990.76
574.794	12119.34
575.155	11952.79
575.516	11942.62
575.877	11975.17
576.238	11966.58
576.599	11954.6
576.96	11939.91
577.32	11927.03
577.681	11999.12
578.042	12016.52
578.403	11954.37
578.763	11930.87
579.124	11967.26
579.485	11976.07
579.845	11938.1
580.206	11933.36
580.566	11955.73
580.927	11993.24
581.287	12002.06
581.648	11902.4
582.008	12033.69
582.368	11990.53
582.728	11983.07
583.089	11972.68
583.449	11959.57
583.809	11903.75
584.169	12030.53
584.529	11949.63
584.889	11996.41
585.249	11941.95
585.609	11917.99
585.969	11983.53
586.329	11961.83
586.688	11890.65
587.048	11932.68
587.408	11797.54
587.768	11887.94
588.127	11835.96
588.487	11834.15
588.846	11928.16
589.206	11847.71
589.565	11835.51
589.925	11855.62
590.284	11816.75
590.643	11817.66
591.003	11858.11
591.362	11828.05
591.721	11869.63
592.08	11851.33
592.44	11863.98
592.799	11800.25
593.158	11746.47
593.517	11735.17
593.876	11755.28
594.235	11710.31
594.593	11691.11
594.952	11769.75
595.311	11750.31
595.67	11803.87
596.029	11778.11
596.387	11800.71
596.746	11840.03
597.104	11769.52
597.463	11770.42
597.822	11777.43
598.18	11712.8
598.538	11738.56
598.897	11800.03
599.255	11623.54
599.613	11741.95
599.972	11727.49
600.33	11762.52
600.688	11684.33
601.046	11693.14
601.404	11797.54
601.762	11724.1
602.12	11749.63
602.478	11738.11
602.836	11779.46
603.194	11633.71
603.552	11701.5
603.91	11706.02
604.268	11758.45
604.625	11661.95
604.983	11746.92
605.341	11700.37
605.698	11703.76
606.056	11809.07
606.413	11720.93
606.771	11777.2
607.128	11764.32
607.485	11692.01
607.843	11727.26
608.2	11811.78
608.557	11885.9
608.914	11741.05
609.272	11777.43
609.629	11817.88
609.986	11919.12
610.343	11774.27
610.7	11878.22
611.057	11839.8
611.414	11888.39
611.771	11870.99
612.127	11937.2
612.484	11910.76
612.841	11918.44
613.198	11896.3
613.554	11798.22
613.911	11912.57
614.267	11930.65
614.624	11859.24
614.98	11967.03
615.337	12015.84
615.693	11966.8
616.05	11960.25
616.406	11943.08
616.762	12023.3
617.118	11986.46
617.475	12041.38
617.831	11946.24
618.187	12005.9
618.543	12061.72
618.899	12049.51
619.255	12092
619.611	12014.03
619.967	12081.6
620.323	12101.94
620.678	12101.26
621.034	12056.29
621.39	12081.38
621.746	12074.6
622.101	12127.03
622.457	12087.7
622.812	12076.18
623.168	12115.5
623.523	12150.53
623.879	12033.47
624.234	12016.75
624.589	12076.41
624.945	12132
625.3	12076.18
625.655	12016.97
626.01	12047.03
626.365	12112.56
626.72	11975.39
627.075	12065.78
627.43	12078.89
627.785	12034.82
628.14	12003.64
628.495	12028.5
628.85	12098.1
629.205	11943.3
629.559	12075.95
629.914	12021.49
630.269	11995.05
630.623	12016.97
630.978	11908.5
631.332	12037.54
631.687	12011.55
632.041	11932.45
632.396	12012.68
632.75	11885.68
633.104	12021.49
633.459	11939.23
633.813	11935.84
634.167	11890.42
634.521	11893.36
634.875	11917.54
635.229	11894.94
635.583	11808.16
635.937	11728.62
636.291	11806.81
636.645	11724.32
636.999	11780.14
637.352	11783.08
637.706	11626.02
638.06	11742.18
638.413	11723.65
638.767	11643.87
639.121	11690.43
639.474	11646.13
639.828	11638
640.181	11666.47
640.534	11669.41
640.888	11518.68
641.241	11535.63
641.594	11581.05
641.947	11653.37
642.301	11665.34
642.654	11567.72
643.007	11585.57
643.36	11574.5
643.713	11490.66
644.066	11582.41
644.419	11457.89
644.771	11440.49
645.124	11364.33
645.477	11370.66
645.83	11235.3
646.182	11191.23
646.535	11209.31
646.888	11259.48
647.24	11127.96
647.593	11232.13
647.945	11193.72
648.298	11102.65
648.65	11138.13
649.002	11100.84
649.355	11166.83
649.707	11191.46
650.059	11176.54
650.411	11358.01
650.763	11339.25
651.115	11407.5
651.467	11412.69
651.819	11423.32
652.171	11388.97
652.523	11364.11
652.875	11296.54
653.227	11300.83
653.578	11429.64
653.93	11376.31
654.282	11311.23
654.633	11356.65
654.985	11402.98
655.337	11392.81
655.688	11355.29
656.039	11431.45
656.391	11398.91
656.742	11282.08
657.094	11388.51
657.445	11418.8
657.796	11463.31
658.147	11352.81
658.498	11394.39
658.849	11413.82
659.2	11394.39
659.551	11413.37
659.902	11407.5
660.253	11488.17
660.604	11352.13
660.955	11348.29
661.306	11440.94
661.656	11410.89
662.007	11465.35
662.358	11351.68
662.708	11386.25
663.059	11447.5
663.409	11332.02
663.76	11461.28
664.11	11456.99
664.461	11491.56
664.811	11405.69
665.161	11463.99
665.511	11380.83
665.862	11433.26
666.212	11473.03
666.562	11437.1
666.912	11443.65
667.262	11380.38
667.612	11481.62
667.962	11406.37
668.312	11456.08
668.662	11427.84
669.011	11414.05
669.361	11342.87
669.711	11386.25
670.06	11358.91
670.41	11324.11
670.76	11386.93
671.109	11472.81
671.459	11346.03
671.808	11328.85
672.157	11386.71
672.507	11331.57
672.856	11367.05
673.205	11347.39
673.554	11381.28
673.904	11288.18
674.253	11311.91
674.602	11255.64
674.951	11133.61
675.3	11022.65
675.649	11261.29
675.998	11201.63
676.346	11233.94
676.695	11237.11
677.044	11226.03
677.393	11196.88
677.741	11196.88
678.09	11156.43
678.438	11169.99
678.787	11237.56
679.135	11222.87
679.484	11110.78
679.832	11140.61
680.181	10980.39
680.529	11093.61
680.877	11053.16
681.225	11101.52
681.573	11133.83
681.922	10927.74
682.27	11003.44
682.618	11032.82
682.966	10943.78
683.314	10994.17
683.661	10852.71
684.009	10833.27
684.357	10817.46
684.705	10889.09
685.053	10857
685.4	10837.12
685.748	10761.19
686.095	10698.59
686.443	10750.34
686.79	10660.4
687.138	10763.9
687.485	10709.44
687.832	10611.81
688.18	10637.8
688.527	10594.18
688.874	10619.27
689.221	10552.83
689.568	10500.18
689.915	10518.03
690.262	10513.73
690.609	10454.53
690.956	10428.77
691.303	10371.37
691.65	10376.34
691.997	10410.01
692.344	10315.77
692.69	10297.24
693.037	10202.33
693.383	10183.57
693.73	10212.73
694.077	10092.28
694.423	10108.55
694.769	10097.93
695.116	10049.57
695.462	10050.02
695.808	9957.14
696.155	10013.18
696.501	9965.05
696.847	9922.79
697.193	9850.02
697.539	9801.66
697.885	9721.44
698.231	9737.48
698.577	9684.83
698.923	9696.81
699.269	9690.48
699.614	9573.19
699.96	9564.38
700.306	9563.93
700.651	9539.75
700.997	9449.36
701.342	9466.76
701.688	9358.96
702.033	9377.27
702.379	9426.08
702.724	9373.43
703.069	9395.12
703.415	9249.59
703.76	9121.23
704.105	9212.3
704.45	9244.39
704.795	9262.92
705.14	9079.65
705.485	9099.53
705.83	9103.38
706.175	9102.25
706.52	9032.19
706.865	8993.55
707.209	8969.14
707.554	8943.38
707.899	8924.85
708.243	8905.87
708.588	8851.41
708.932	8832.2
709.277	8769.37
709.621	8785.42
709.966	8752.65
710.31	8790.62
710.654	8708.13
710.998	8681.01
711.342	8748.13
711.687	8642.15
712.031	8624.97
712.375	8624.97
712.719	8618.19
713.063	8594.69
713.407	8563.28
713.75	8528.02
714.094	8511.75
714.438	8462.04
714.782	8415.71
715.125	8446.9
715.469	8409.61
715.812	8412.77
716.156	8404.86
716.499	8406.9
716.843	8378.88
717.186	8345.88
717.53	8393.79
717.873	8359.44
718.216	8344.98
718.559	8320.35
718.902	8247.35
719.246	8310.18
719.589	8245.55
719.932	8231.76
720.275	8216.17
720.617	8247.81
720.96	8195.6
721.303	8229.5
721.646	8262.04
721.989	8200.35
722.331	8237.64
722.674	8208.71
723.016	8204.87
723.359	8173.01
723.701	8200.8
724.044	8114.93
724.386	8112.67
724.729	8180.69
725.071	8159.67
725.413	8139.33
725.755	8140.69
726.097	8121.03
726.439	8085.1
726.782	8118.09
727.124	8135.49
727.465	8096.17
727.807	8102.27
728.149	8075.15
728.491	8087.36
728.833	8051.88
729.175	8085.32
729.516	8074.48
729.858	8061.6
730.199	8060.24
730.541	8054.82
730.882	8072.9
731.224	8009.39
731.565	8035.83
731.906	8047.36
732.248	8009.85
732.589	7938.66
732.93	7914.26
733.271	7965.55
733.612	8028.38
733.953	8065.66
734.294	7976.63
734.635	7985.21
734.976	7980.92
735.317	7959
735.658	7977.76
735.999	7971.88
736.339	7995.38
736.68	8032.44
737.021	7991.32
737.361	8027.47
737.702	8024.31
738.042	8033.8
738.383	8061.14
738.723	8016.17
739.063	8016.4
739.404	8058.21
739.744	8041.26
740.084	8041.71
740.424	8060.92
740.764	8093.69
741.104	8097.08
741.444	8103.18
741.784	8129.62
742.124	8161.71
742.464	8089.39
742.804	8163.29
743.143	8168.94
743.483	8127.13
743.823	8155.83
744.162	8198.09
744.502	8233.34
744.841	8257.3
745.181	8283.51
745.52	8381.14
745.86	8388.14
746.199	8410.06
746.538	8424.75
746.877	8503.39
747.216	8520.57
747.556	8565.99
747.895	8671.3
748.234	8599.89
748.573	8680.56
748.911	8733.89
749.25	8749.71
749.589	8837.17
749.928	8900.22
750.267	8962.14
750.605	8993.55
750.944	9048.46
751.283	9141.12
751.621	9167.33
751.96	9199.19
752.298	9401.9
752.636	9441.9
752.975	9440.99
753.313	9543.82
753.651	9786.75
753.989	9701.55
754.327	9892.06
754.666	9888.21
755.004	10101.54
755.342	10186.06
755.679	10372.27
756.017	10435.54
756.355	10540.85
756.693	10730.23
757.031	10784.01
757.368	10927.51
757.706	11055.87
758.044	11181.97
758.381	11351
758.719	11474.84
759.056	11592.58
759.394	11761.16
759.731	11834.15
760.068	12040.02
760.405	12121.6
760.743	12341.26
761.08	12577.64
761.417	12581.03
761.754	12798.42
762.091	12985.53
762.428	13082.48
762.765	13253.55
763.102	13388.01
763.438	13546.65
763.775	13646.08
764.112	13825.96
764.449	14034.32
764.785	14081.55
765.122	14327.42
765.458	14372.62
765.795	14556.34
766.131	14703.68
766.467	14807.86
766.804	14907.74
767.14	14995.2
767.476	15235.64
767.812	15236.77
768.148	15511.34
768.485	15513.83
768.821	15650.77
769.157	15779.59
769.492	15816.19
769.828	15947.72
770.164	16031.56
770.5	16124.89
770.836	16251.21
771.171	16300.7
771.507	16408.04
771.842	16350.19
772.178	16583.63
772.513	16712.44
772.849	16695.27
773.184	16728.26
773.519	16905.43
773.855	16835.15
774.19	17008.93
774.525	17107.69
774.86	17130.06
775.195	17289.38
775.53	17271.75
775.865	17233.56
776.2	17227.46
776.535	17250.73
776.87	17374.35
777.205	17292.99
777.539	17435.13
777.874	17553.78
778.209	17463.61
778.543	17475.81
778.878	17364.18
779.212	17515.81
779.547	17474.68
779.881	17632.64
780.215	17602.36
780.55	17631.06
780.884	17601.68
781.218	17681
781.552	17676.71
781.886	17662.02
782.22	17577.5
782.554	17563.94
782.888	17456.6
783.222	17522.14
783.556	17534.79
783.889	17470.84
784.223	17461.35
784.557	17598.97
784.89	17558.75
785.224	17416.38
785.557	17433.33
785.891	17415.47
786.224	17416.6
786.558	17480.33
786.891	17339.77
787.224	17161.02
787.557	17227.68
787.891	17269.04
788.224	17312.65
788.557	17356.27
788.89	17247.34
789.223	17318.98
789.556	17171.86
789.888	17144.07
790.221	17081.7
790.554	17088.03
790.887	17113.79
791.219	17022.04
791.552	17073.11
791.884	17023.17
792.217	16960.57
792.549	16948.37
792.882	16930.29
793.214	16798.99
793.546	16841.7
793.879	16651.2
794.211	16656.4
794.543	16803.29
794.875	16681.93
795.207	16738.2
795.539	16747.24
795.871	16674.93
796.203	16500.24
796.535	16406.69
796.867	16448.72
797.198	16435.39
797.53	16366.91
797.862	16340.02
798.193	16440.13
798.525	16257.09
798.856	16299.12
799.188	16203.53
799.519	16098.45
799.85	16085.34
800.182	16054.83
800.513	16022.74
800.844	15918.56
801.175	16019.13
801.506	15977.09
801.837	16018.45
802.168	15868.4
802.499	15916.3
802.83	15767.16
803.161	15738.46
803.491	15781.84
803.822	15727.16
804.153	15632.7
804.483	15610.1
804.814	15494.62
805.145	15502.53
805.475	15529.65
805.805	15412.82
806.136	15448.29
806.466	15459.59
806.796	15457.11
807.126	15302.54
807.457	15190.9
807.787	15222.31
808.117	15223.89
808.447	15132.6
808.777	15142.99
809.107	15111.81
809.436	15045.59
809.766	15027.51
810.096	15063.9
810.426	14953.84
810.755	14998.14
811.085	15013.05
811.414	14874.98
811.744	14811.7
812.073	14800.63
812.403	14786.84
812.732	14698.26
813.061	14677.92
813.39	14650.35
813.719	14675.66
814.049	14714.98
814.378	14705.26
814.707	14533.97
815.036	14563.8
815.365	14491.26
815.693	14389.57
816.022	14432.28
816.351	14392.73
816.68	14280.42
817.008	14397.93
817.337	14267.99
817.665	14243.13
817.994	14270.25
818.322	14294.43
818.651	14190.93
818.979	14095.56
819.307	14248.55
819.636	14206.07
819.964	14012.17
820.292	14077.93
820.62	14103.92
820.948	14041.1
821.276	14144.6
821.604	14067.54
821.932	14072.96
822.259	14053.08
822.587	13937.83
822.915	13936.47
823.243	14128.78
823.57	14040.65
823.898	14020.54
824.225	13999.52
824.553	14026.64
824.88	13987.09
825.207	14124.04
825.535	14077.48
825.862	14119.06
826.189	14052.62
826.516	14098.73
826.843	14143.92
827.17	14072.51
827.497	14120.42
827.824	14037.48
828.151	14139.63
828.478	14089.69
828.805	14192.73
829.131	14058.5
829.458	14017.82
829.785	14013.98
830.111	14065.51
830.438	14146.63
830.764	14093.3
831.09	14035.22
831.417	14001.78
831.743	14050.59
832.069	13995.45
832.395	14030.03
832.722	14055.79
833.048	14017.6
833.374	13939.86
833.7	13905.96
834.026	13961.55
834.351	13995
834.677	14040.65
835.003	13949.12
835.329	13973.08
835.654	13940.76
835.98	13920.65
836.306	13921.55
836.631	13842.23
836.956	13857.38
837.282	13977.15
837.607	13835.46
837.932	13763.37
838.258	13808.34
838.583	13782.8
838.908	13676.59
839.233	13781.22
839.558	13696.02
839.883	13632.3
840.208	13542.13
840.533	13545.97
840.858	13606.53
841.182	13568.8
841.507	13583.71
841.832	13460.78
842.156	13487.22
842.481	13451.51
842.805	13467.56
843.13	13388.01
843.454	13379.42
843.778	13330.16
844.103	13242.93
844.427	13308.01
844.751	13322.02
845.075	13221.23
845.399	13210.61
845.723	13166.77
846.047	13131.75
846.371	13028.7
846.695	13072.09
847.019	12903.5
847.343	12916.16
847.666	12762.04
847.99	12810.4
848.313	12745.31
848.637	12691.3
848.96	12653.79
849.284	12677.29
849.607	12577.41
849.931	12539.22
850.254	12406.11
850.577	12391.65
850.9	12261.71
851.223	12259.9
851.546	12219.23
851.869	12237.76
852.192	12236.85
852.515	12063.98
852.838	12017.88
853.161	12076.41
853.483	11939.23
853.806	11929.74
854.129	11925
854.451	11853.59
854.774	11741.95
855.096	11773.59
855.419	11773.59
855.741	11687.04
856.063	11641.39
856.385	11592.58
856.708	11516.42
857.03	11500.38
857.352	11556.19
857.674	11411.56
857.996	11447.72
858.318	11414.05
858.64	11376.54
858.961	11330.66
859.283	11292.25
859.605	11265.35
859.926	11273.94
860.248	11247.5
860.57	11206.82
860.891	11216.77
861.212	11111.91
861.534	11101.74
861.855	11041.18
862.176	11067.17
862.498	11050.9
862.819	11059.71
863.14	10962.08
863.461	10985.13
863.782	10950.33
864.103	10971.8
864.424	10921.41
864.745	10965.02
865.065	10953.05
865.386	10842.77
865.707	10812.94
866.027	10822.65
866.348	10786.72
866.668	10801.86
866.989	10770.45
867.309	10727.29
867.63	10774.07
867.95	10768.19
868.27	10639.61
868.59	10681.87
868.91	10652.94
869.23	10704.24
869.55	10591.47
869.87	10637.35
870.19	10620.4
870.51	10589.67
870.83	10652.71
871.15	10501.98
871.469	10501.31
871.789	10593.28
872.109	10500.63
872.428	10394.64
872.748	10424.25
873.067	10525.49
873.386	10461.98
873.706	10403
874.025	10376.34
874.344	10352.38
874.663	10357.81
874.982	10332.27
875.301	10267.64
875.62	10276.23
875.939	10301.09
876.258	10285.72
876.577	10262.22
876.896	10205.95
877.214	10190.58
877.533	10201.65
877.852	10209.79
878.17	10204.82
878.489	10142.22
878.807	10161.2
879.125	10109.45
879.444	10090.47
879.762	10116.23
880.08	10092.73
880.398	10052.05
880.716	10030.81
881.034	9994.65
881.352	10016.57
881.67	9932.28
881.988	10031.49
882.306	9905.39
882.624	9875.56
882.941	9820.19
883.259	9810.25
883.577	9878.05
883.894	9820.87
884.212	9824.04
884.529	9816.13
884.846	9810.48
885.164	9773.42
885.481	9779.74
885.798	9754.88
886.115	9638.05
886.432	9635.57
886.75	9669.01
887.067	9589.69
887.383	9578.84
887.7	9606.41
888.017	9558.96
888.334	9553.31
888.651	9552.63
888.967	9517.6
889.284	9442.8
889.6	9418.17
889.917	9326.87
890.233	9401.9
890.55	9259.08
890.866	9325.07
891.182	9257.27
891.498	9291.85
891.815	9162.58
892.131	9157.61
892.447	9163.26
892.763	9082.13
893.079	9097.73
893.395	9062.7
893.71	9040.55
894.026	9015.24
894.342	9002.81
894.657	8913.32
894.973	8943.38
895.289	8930.05
895.604	8899.54
895.92	8815.7
896.235	8790.39
896.55	8749.26
896.865	8764.4
897.181	8783.16
897.496	8715.14
897.811	8723.27
898.126	8598.08
898.441	8590.62
898.756	8573.9
899.071	8574.35
899.386	8496.61
899.7	8390.63
900.015	8458.2
900.33	8391.76
900.644	8379.78
900.959	8425.65
901.273	8382.72
901.588	8277.86
901.902	8281.7
902.216	8193.57
902.531	8194.7
902.845	8162.16
903.159	8137.98
903.473	8094.36
903.787	8035.61
904.101	8112.67
904.415	8042.84
904.729	7979.34
905.042	7893.24
905.356	7933.92
905.67	7932.56
905.984	7850.3
906.297	7905.67
906.611	7825.44
906.924	7862.73
907.237	7761.49
907.551	7742.51
907.864	7732.11
908.177	7682.85
908.491	7642.85
908.804	7606.24
909.117	7597.2
909.43	7539.58
909.743	7481.5
910.056	7500.71
910.368	7421.16
910.681	7377.77
910.994	7349.75
911.307	7359.69
911.619	7310.2
911.932	7326.93
912.244	7221.84
912.557	7185.91
912.869	7173.94
913.181	7162.41
913.494	7126.48
913.806	7103.66
914.118	7046.93
914.43	7069.76
914.742	7071.79
915.054	7008.06
915.366	6908.86
915.678	6935.52
915.99	6872.7
916.302	6837.45
916.613	6826.83
916.925	6827.5
917.236	6806.94
917.548	6769.65
917.859	6812.36
918.171	6740.05
918.482	6658.02
918.794	6686.49
919.105	6592.26
919.416	6576.44
919.727	6598.81
920.038	6540.51
920.349	6482.65
920.66	6474.97
920.971	6471.36
921.282	6468.19
921.593	6462.32
921.903	6359.04
922.214	6383.9
922.525	6350.23
922.835	6314.07
923.146	6327.86
923.456	6255.32
923.767	6279.5
924.077	6213.28
924.387	6200.63
924.697	6166.73
925.008	6172.38
925.318	6103.23
925.628	6112.04
925.938	6053.51
926.248	6009.9
926.558	5988.88
926.867	5986.4
927.177	5989.11
927.487	5972.16
927.796	5923.8
928.106	5868.21
928.416	5859.62
928.725	5872.5
929.034	5856.68
929.344	5828.43
929.653	5816.91
929.962	5768.77
930.271	5753.86
930.581	5674.99
930.89	5694.43
931.199	5685.16
931.508	5636.12
931.817	5661.43
932.125	5582.34
932.434	5575.33
932.743	5534.2
933.051	5556.58
933.36	5500.08
933.669	5428.67
933.977	5424.83
934.286	5458.73
934.594	5365.85
934.902	5370.82
935.21	5365.17
935.519	5322.91
935.827	5331.5
936.135	5251.27
936.443	5286.98
936.751	5243.36
937.059	5253.53
937.367	5225.96
937.674	5192.29
937.982	5192.97
938.29	5115.68
938.597	5117.94
938.905	5035.91
939.213	5090.15
939.52	5029.59
939.827	5042.01
940.135	5025.52
940.442	5013.31
940.749	4956.37
941.056	4991.62
941.363	4911.85
941.67	4896.26
941.977	4903.71
942.284	4837.73
942.591	4839.99
942.898	4818.74
943.205	4817.16
943.511	4782.13
943.818	4791.17
944.125	4713.89
944.431	4755.02
944.738	4662.36
945.044	4705.75
945.35	4697.39
945.657	4611.97
945.963	4597.51
946.269	4586.66
946.575	4615.13
946.881	4557.51
947.187	4523.61
947.493	4499.43
947.799	4516.38
948.105	4450.17
948.41	4463.95
948.716	4488.13
949.022	4407.45
949.327	4386.89
949.633	4349.15
949.938	4376.95
950.244	4410.62
950.549	4317.06
950.854	4284.29
951.16	4265.09
951.465	4265.54
951.77	4261.47
952.075	4227.8
952.38	4231.41
952.685	4234.58
952.99	4133.11
953.294	4237.06
953.599	4174.92
953.904	4142.38
954.209	4077.97
954.513	4115.03
954.818	4104.86
955.122	4103.96
955.426	4030.29
955.731	4041.14
956.035	4033.45
956.339	4033.45
956.643	3985.09
956.948	3964.75
957.252	3934.7
957.556	3955.94
957.86	3927.92
958.163	3895.38
958.467	3847.7
958.771	3844.98
959.075	3859.9
959.378	3837.75
959.682	3823.29
959.985	3805.21
960.289	3789.62
960.592	3774.93
960.896	3754.36
961.199	3753.69
961.502	3733.57
961.805	3679.56
962.108	3685.44
962.411	3672.56
962.714	3593.46
963.017	3622.84
963.32	3637.31
963.623	3591.21
963.926	3590.53
964.228	3582.39
964.531	3528.61
964.833	3577.65
965.136	3503.75
965.438	3526.35
965.741	3485.67
966.043	3490.42
966.345	3460.59
966.648	3479.57
966.95	3427.82
967.252	3442.96
967.554	3432.79
967.856	3409.29
968.158	3355.5
968.46	3368.61
968.761	3294.26
969.063	3368.84
969.365	3310.31
969.666	3311.21
969.968	3287.48
970.269	3244.1
970.571	3274.15
970.872	3211.33
971.174	3253.36
971.475	3175.17
971.776	3187.6
972.077	3210.2
972.378	3158
972.679	3140.37
972.98	3142.63
973.281	3169.75
973.582	3135.85
973.883	3165
974.183	3087.04
974.484	3096.75
974.785	3050.43
975.085	3048.85
975.386	3114.16
975.686	3024.67
975.986	3033.48
976.287	3007.49
976.587	2979.24
976.887	2995.74
977.187	2968.85
977.487	2933.37
977.787	2933.37
978.087	2901.05
978.387	2916.65
978.687	2944.67
978.987	2867.16
979.286	2882.75
979.586	2863.77
979.885	2812.47
980.185	2840.04
980.484	2816.76
980.784	2817.44
981.083	2832.13
981.382	2826.25
981.682	2797.78
981.981	2759.36
982.28	2752.81
982.579	2736.99
982.878	2751.45
983.177	2683.43
983.475	2729.98
983.774	2703.32
984.073	2671.68
984.372	2674.17
984.67	2639.37
984.969	2647.05
985.267	2660.61
985.566	2640.27
985.864	2623.09
986.162	2621.74
986.461	2590.55
986.759	2555.98
987.057	2567.05
987.355	2555.75
987.653	2546.03
987.951	2520.05
988.249	2519.37
988.547	2495.19
988.844	2469.2
989.142	2483.66
989.44	2460.16
989.737	2474.62
990.035	2439.37
990.332	2440.27
990.63	2388.98
990.927	2380.16
991.224	2403.67
991.521	2386.94
991.819	2405.25
992.116	2370.9
992.413	2382.2
992.71	2349.66
993.006	2318.92
993.303	2318.7
993.6	2318.92
993.897	2296.32
994.193	2280.05
994.49	2308.53
994.787	2272.6
995.083	2273.05
995.379	2259.94
995.676	2232.14
995.972	2188.53
996.268	2220.85
996.565	2181.52
996.861	2195.99
997.157	2179.94
997.453	2155.31
997.749	2139.49
998.044	2155.54
998.34	2136.1
998.636	2140.62
998.932	2121.64
999.227	2078.02
999.523	2083
999.818	2070.12
1000.114	2092.04
1000.409	2113.28
1000.704	2037.57
1001	2043.68
1001.295	2043.45
1001.59	2056.56
1001.885	2010.91
1002.18	2030.34
1002.475	1991.7
1002.77	1991.93
1003.065	1974.07
1003.359	1970.68
1003.654	1967.97
1003.949	1922.55
1004.243	1932.94
1004.538	1916.67
1004.832	1905.6
1005.127	1927.75
1005.421	1877.8
1005.715	1861.76
1006.009	1860.86
1006.304	1861.08
1006.598	1861.98
1006.892	1813.17
1007.186	1813.17
1007.48	1822.21
1007.773	1800.74
1008.067	1759.39
1008.361	1805.72
1008.655	1765.72
1008.948	1748.32
1009.242	1726.85
1009.535	1747.86
1009.829	1732.04
1010.122	1723.23
1010.415	1714.64
1010.708	1708.99
1011.001	1691.82
1011.295	1662.44
1011.588	1699.5
1011.881	1665.83
1012.173	1679.39
1012.466	1670.35
1012.759	1632.84
1013.052	1624.48
1013.344	1607.75
1013.637	1603.91
1013.93	1599.39
1014.222	1591.03
1014.514	1557.36
1014.807	1575.21
1015.099	1549.45
1015.391	1544.48
1015.683	1509.68
1015.976	1562.11
1016.268	1509.45
1016.56	1510.36
1016.851	1483.01
1017.143	1491.37
1017.435	1455.44
1017.727	1444.59
1018.018	1471.03
1018.31	1463.13
1018.602	1418.83
1018.893	1465.39
1019.185	1427.19
1019.476	1405.73
1019.767	1434.65
1020.058	1405.5
1020.35	1381.32
1020.641	1403.69
1020.932	1358.04
1021.223	1399.4
1021.514	1342.68
1021.804	1351.94
1022.095	1313.75
1022.386	1352.17
1022.677	1332.96
1022.967	1316.24
1023.258	1303.81
1023.548	1317.82
1023.839	1308.55
1024.129	1283.92
1024.419	1291.6
1024.709	1269.91
1025	1273.53
1025.29	1224.49
1025.58	1241.21
1025.87	1214.77
1026.16	1257.26
1026.449	1240.53
1026.739	1212.96
1027.029	1213.19
1027.319	1227.88
1027.608	1187.2
1027.898	1160.53
1028.187	1177.03
1028.477	1180.65
1028.766	1155.11
1029.055	1168.67
1029.344	1137.71
1029.634	1146.98
1029.923	1125.06
1030.212	1118.95
1030.501	1117.15
1030.79	1096.36
1031.078	1110.14
1031.367	1087.32
1031.656	1096.13
1031.945	1063.14
1032.233	1064.72
1032.522	1046.87
1032.81	1071.27
1033.099	1067.43
1033.387	1052.29
1033.675	1079.63
1033.963	1045.28
1034.251	1040.99
1034.54	1035.11
1034.828	995.34
1035.116	1013.19
1035.403	1004.83
1035.691	978.84
1035.979	1005.06
1036.267	982.23
1036.554	990.37
1036.842	950.37
1037.129	986.75
1037.417	973.19
1037.704	985.17
1037.992	941.56
1038.279	939.07
1038.566	938.62
1038.853	938.62
1039.14	938.62
