Data from hue_100_FLMS001491_00044.txt Node
Date: Tue Feb 07 17:03:14 GMT 2017
User: dcchb
Spectrometer: FLMS00149
Trigger mode: 0
Integration Time (sec): 2.000000E-2
Scans to average: 10
Electric dark correction enabled: true
Nonlinearity correction enabled: false
Boxcar width: 0
XAxis mode: Wavelengths
Number of Pixels in Spectrum: 2048
>>>>>Begin Spectral Data<<<<<
341.393	-14.46
341.776	-14.46
342.16	-14.46
342.543	-62.15
342.927	-85.2
343.31	-61.69
343.693	-58.08
344.077	-77.06
344.46	-44.97
344.843	-58.98
345.226	-48.13
345.61	-30.51
345.993	-9.94
346.376	0
346.759	33.45
347.142	29.6
347.525	23.73
347.908	43.39
348.291	71.64
348.674	92.43
349.057	95.14
349.44	113.9
349.823	141.01
350.206	187.34
350.588	190.05
350.971	235.47
351.354	217.4
351.737	238.19
352.119	264.63
352.502	257.85
352.884	287.68
353.267	296.26
353.65	295.36
354.032	310.73
354.414	291.97
354.797	318.18
355.179	338.97
355.562	345.75
355.944	331.74
356.326	329.26
356.709	344.17
357.091	336.94
357.473	346.21
357.855	343.95
358.238	356.15
358.62	359.54
359.002	305.08
359.384	340.56
359.766	345.3
360.148	342.59
360.53	338.52
360.912	352.53
361.294	343.04
361.676	363.15
362.057	340.1
362.439	332.42
362.821	334.45
363.203	347.56
363.584	351.18
363.966	318.86
364.348	331.06
364.729	322.7
365.111	307.34
365.493	314.57
365.874	320.9
366.256	322.25
366.637	328.58
367.019	326.32
367.4	324.29
367.781	317.73
368.163	335.36
368.544	328.35
368.925	296.49
369.306	327.45
369.688	328.8
370.069	329.03
370.45	338.52
370.831	319.99
371.212	323.61
371.593	328.13
371.974	309.6
372.355	334.91
372.736	306.88
373.117	318.41
373.498	314.12
373.879	320.9
374.26	333.78
374.641	308.47
375.021	318.86
375.402	326.55
375.783	318.18
376.163	333.78
376.544	340.56
376.925	339.2
377.305	329.26
377.686	336.26
378.066	347.79
378.447	350.05
378.827	317.28
379.208	334.45
379.588	345.53
379.968	345.98
380.349	343.27
380.729	352.31
381.109	337.84
381.489	351.63
381.87	331.06
382.25	358.18
382.63	363.15
383.01	365.19
383.39	352.99
383.77	382.14
384.15	351.18
384.53	374
384.91	351.4
385.29	375.58
385.67	361.35
386.049	381.91
386.429	367.22
386.809	379.88
387.189	385.75
387.568	389.59
387.948	357.73
388.328	372.87
388.707	382.36
389.087	370.39
389.466	379.88
389.846	379.2
390.225	376.26
390.605	408.35
390.984	395.92
391.363	381.91
391.743	402.7
392.122	392.08
392.501	398.86
392.881	428.92
393.26	405.64
393.639	407.45
394.018	402.48
394.397	392.76
394.776	414
395.155	415.58
395.534	400.89
395.913	406.32
396.292	410.61
396.671	411.29
397.05	415.13
397.429	412.87
397.808	411.29
398.186	421.01
398.565	427.79
398.944	409.25
399.323	413.77
399.701	430.72
400.08	413.55
400.458	431.18
400.837	431.18
401.215	432.76
401.594	442.7
401.972	441.34
402.351	458.29
402.729	436.15
403.107	444.73
403.486	453.55
403.864	443.15
404.242	464.85
404.62	449.93
404.999	450.38
405.377	443.83
405.755	476.15
406.133	461.23
406.511	440.89
406.889	477.05
407.267	493.09
407.645	468.01
408.023	494.9
408.401	474.11
408.779	497.61
409.156	491.06
409.534	492.64
409.912	492.64
410.29	521.57
410.667	508.01
411.045	533.32
411.422	509.82
411.8	528.8
412.178	523.38
412.555	506.2
412.933	547.56
413.31	545.75
413.687	533.77
414.065	519.53
414.442	550.27
414.819	556.37
415.197	556.14
415.574	539.65
415.951	543.94
416.328	556.82
416.705	560.21
417.082	590.27
417.46	546.88
417.837	577.39
418.214	580.1
418.591	570.83
418.967	572.87
419.344	591.85
419.721	594.56
420.098	582.81
420.475	618.97
420.852	596.37
421.228	601.57
421.605	624.16
421.982	625.75
422.358	628.46
422.735	642.92
423.111	638.85
423.488	628.91
423.864	645.86
424.241	644.05
424.617	655.8
424.994	663.03
425.37	657.61
425.746	671.39
426.123	664.16
426.499	666.2
426.875	689.02
427.251	691.73
427.627	672.3
428.003	714.11
428.379	714.78
428.756	702.58
429.132	722.01
429.507	708.68
429.883	737.16
430.259	728.79
430.635	723.6
431.011	719.98
431.387	740.55
431.763	764.5
432.138	748.45
432.514	781.45
432.89	784.61
433.265	814.67
433.641	803.82
434.016	819.41
434.392	823.93
434.767	798.4
435.143	835.91
435.518	829.58
435.894	852.86
436.269	855.57
436.644	855.34
437.02	857.15
437.395	886.3
437.77	874.1
438.145	887.21
438.52	910.94
438.895	882.01
439.271	906.42
439.646	923.14
440.021	943.7
440.395	966.53
440.77	903.48
441.145	937.83
441.52	950.03
441.895	959.52
442.27	988.67
442.645	979.41
443.019	950.71
443.394	981.67
443.769	1018.28
444.143	988.45
444.518	989.8
444.892	968.79
445.267	987.54
445.641	1020.76
446.016	1036.36
446.39	1036.36
446.764	1024.61
447.139	1034.55
447.513	1035.9
447.887	1054.66
448.262	1054.44
448.636	1035.68
449.01	1068.9
449.384	1091.27
449.758	1084.27
450.132	1119.29
450.506	1130.37
450.88	1131.5
451.254	1128.11
451.628	1134.89
452.002	1172.17
452.376	1169.69
452.75	1160.87
453.123	1175.11
453.497	1211.04
453.871	1197.71
454.244	1215.79
454.618	1257.59
454.992	1244.71
455.365	1258.05
455.739	1293.3
456.112	1280.42
456.486	1308.67
456.859	1320.19
457.232	1337.82
457.606	1322.45
457.979	1354.54
458.352	1370.36
458.725	1368.1
459.099	1420.53
459.472	1409.68
459.845	1459.62
460.218	1458.72
460.591	1490.81
460.964	1471.6
461.337	1533.52
461.71	1546.17
462.083	1566.96
462.456	1560.86
462.829	1593.86
463.201	1607.42
463.574	1593.63
463.947	1653.06
464.32	1680.18
464.692	1674.76
465.065	1707.07
465.438	1728.09
465.81	1764.47
466.183	1796.34
466.555	1823.91
466.928	1845.6
467.3	1810.35
467.672	1882.21
468.045	1902.77
468.417	1944.36
468.789	1961.53
469.161	1976.9
469.534	2040.62
469.906	2081.75
470.278	2114.07
470.65	2139.15
471.022	2188.87
471.394	2249.88
471.766	2283.78
472.138	2298.02
472.51	2375.3
472.882	2402.2
473.253	2403.55
473.625	2484.23
473.997	2566.26
474.369	2592.47
474.74	2629.31
475.112	2694.62
475.484	2797.89
475.855	2818.68
476.227	2873.6
476.598	3007.38
476.97	3036.3
477.341	3089.41
477.713	3167.6
478.084	3249.41
478.455	3364.88
478.827	3404.88
479.198	3544.09
479.569	3565.1
479.94	3694.14
480.311	3739.56
480.682	3896.39
481.053	3965.77
481.424	4097.97
481.795	4180.46
482.166	4265.42
482.537	4340.45
482.908	4535.25
483.279	4611.63
483.65	4763.72
484.021	4896.82
484.391	4987.67
484.762	5112.63
485.133	5189.92
485.503	5410.93
485.874	5490.48
486.244	5622
486.615	5809.56
486.985	5892.95
487.356	6077.81
487.726	6214.3
488.097	6387.85
488.467	6463.56
488.837	6642.76
489.207	6796.43
489.578	6953.72
489.948	7158.68
490.318	7329.3
490.688	7395.96
491.058	7653.81
491.428	7734.71
491.798	7893.58
492.168	8151.42
492.538	8254.02
492.908	8421.7
493.278	8544.86
493.648	8620.34
494.017	8850.61
494.387	9072.08
494.757	9165.63
495.126	9321.34
495.496	9493.99
495.866	9554.55
496.235	9693.98
496.605	9830.7
496.974	10005.39
497.344	10131.03
497.713	10260.07
498.082	10426.39
498.452	10548.2
498.821	10654.18
499.19	10829.09
499.559	10973.5
499.928	11132.14
500.298	11152.02
500.667	11358.12
501.036	11398.12
501.405	11499.81
501.774	11554.5
502.143	11747.71
502.512	11811.67
502.88	11989.74
503.249	12023.19
503.618	12156.06
503.987	12228.38
504.356	12277.64
504.724	12425.66
505.093	12499.56
505.462	12652.1
505.83	12688.71
506.199	12834.46
506.567	13042.14
506.936	13036.27
507.304	13232.87
507.672	13205.75
508.041	13318.52
508.409	13457.27
508.777	13570.94
509.145	13616.37
509.514	13590.6
509.882	13756.47
510.25	13769.13
510.618	13855.68
510.986	14004.83
511.354	14011.38
511.722	14133.19
512.09	14353.75
512.458	14297.25
512.826	14401.88
513.193	14541.31
513.561	14532.05
513.929	14557.13
514.297	14593.29
514.664	14771.36
515.032	14780.4
515.4	14863.34
515.767	14957.57
516.135	15003
516.502	14922.55
516.869	15147.85
517.237	15252.25
517.604	15135.2
517.972	15321.63
518.339	15324.12
518.706	15275.08
519.073	15393.95
519.44	15474.17
519.808	15568.18
520.175	15585.8
520.542	15715.74
520.909	15713.03
521.276	15700.6
521.643	15791.68
522.009	15816.53
522.376	15951.44
522.743	16024.89
523.11	16097.88
523.477	16207.48
523.843	16195.51
524.21	16277.99
524.577	16392.11
524.943	16426.91
525.31	16475.05
525.676	16615.16
526.043	16607.92
526.409	16656.96
526.776	16726.34
527.142	16673.23
527.508	16761.37
527.874	16833.91
528.241	16870.52
528.607	16824.42
528.973	16994.81
529.339	16869.39
529.705	16995.49
530.071	17044.75
530.437	16963.4
530.803	17099.89
531.169	17103.28
531.535	17043.62
531.901	17040
532.267	17040.91
532.632	17142.6
532.998	17111.64
533.364	17197.97
533.73	17141.7
534.095	17215.37
534.461	17185.54
534.826	17253.56
535.192	17204.97
535.557	17320
535.923	17183.05
536.288	17237.51
536.653	17188.7
537.019	17116.16
537.384	17129.04
537.749	17141.24
538.114	17169.72
538.479	17070.51
538.845	17122.94
539.21	17060.34
539.575	17069.38
539.94	17039.1
540.305	17063.73
540.67	16953.45
541.034	16998.88
541.399	16831.2
541.764	16962.94
542.129	16954.58
542.494	16935.6
542.858	16920.69
543.223	16859.44
543.587	16917.52
543.952	16790.29
544.316	16835.04
544.681	16679.79
545.045	16865.77
545.41	16794.81
545.774	16730.63
546.138	16762.95
546.503	16730.41
546.867	16646.34
547.231	16691.31
547.595	16637.3
547.959	16755.72
548.324	16512.56
548.688	16495.39
549.052	16528.6
549.416	16526.12
549.779	16431.88
550.143	16521.37
550.507	16470.75
550.871	16480.02
551.235	16409.51
551.599	16505.1
551.962	16404.54
552.326	16461.26
552.689	16405.67
553.053	16323.86
553.417	16317.54
553.78	16453.35
554.143	16315.5
554.507	16353.02
554.87	16354.37
555.234	16400.92
555.597	16259.69
555.96	16288.16
556.323	16320.93
556.686	16231.21
557.05	16352.11
557.413	16330.19
557.776	16313.24
558.139	16368.61
558.502	16375.61
558.865	16299.68
559.228	16362.51
559.59	16412
559.953	16333.36
560.316	16374.71
560.679	16409.74
561.041	16368.38
561.404	16356.86
561.767	16438.89
562.129	16404.99
562.492	16509.85
562.854	16346.91
563.217	16433.69
563.579	16447.48
563.941	16556.85
564.304	16617.64
564.666	16649.28
565.028	16611.54
565.39	16599.79
565.753	16746.68
566.115	16736.74
566.477	16701.93
566.839	16700.8
567.201	16882.72
567.563	16787.36
567.925	16848.82
568.287	16841.82
568.648	16857.64
569.01	16908.93
569.372	16937.86
569.734	16847.47
570.095	17010.85
570.457	17091.08
570.819	17025.09
571.18	16971.31
571.542	17118.42
571.903	16983.06
572.265	17153.22
572.626	17073.9
572.987	17174.92
573.349	17153.45
573.71	17151.19
574.071	17097.18
574.432	17264.4
574.794	17317.51
575.155	17265.31
575.516	17162.71
575.877	17208.59
576.238	17308.47
576.599	17278.64
576.96	17292.43
577.32	17303.05
577.681	17399.32
578.042	17318.41
578.403	17282.94
578.763	17295.14
579.124	17365.42
579.485	17338.3
579.845	17423.04
580.206	17383.05
580.566	17428.69
580.927	17370.39
581.287	17533.1
581.648	17400.9
582.008	17375.14
582.368	17389.37
582.728	17405.87
583.089	17316.83
583.449	17396.83
583.809	17365.65
584.169	17369.49
584.529	17266.89
584.889	17454.91
585.249	17330.84
585.609	17304.63
585.969	17293.1
586.329	17291.3
586.688	17305.76
587.048	17336.27
587.408	17345.53
587.768	17267.12
588.127	17273.44
588.487	17154.58
588.846	17246.55
589.206	17163.62
589.565	17270.96
589.925	17272.77
590.284	17184.41
590.643	17236.83
591.003	17211.98
591.362	17292.65
591.721	17211.98
592.08	17217.17
592.44	17306.66
592.799	17202.26
593.158	17181.47
593.517	17219.89
593.876	17124.3
594.235	17219.43
594.593	17212.65
594.952	17184.18
595.311	17127.01
595.67	17064.41
596.029	17245.87
596.387	17211.75
596.746	17184.18
597.104	17029.38
597.463	17118.65
597.822	17104.86
598.18	17124.3
598.538	17027.8
598.897	17233.9
599.255	16989.38
599.613	17252.2
599.972	17189.15
600.33	17169.04
600.688	17134.01
601.046	17206.55
601.404	17196.16
601.762	17138.53
602.12	17216.95
602.478	17188.02
602.836	17168.81
603.194	17113.67
603.552	17167.68
603.91	17134.92
604.268	17232.09
604.625	17078.2
604.983	17203.39
605.341	17150.96
605.698	17163.39
606.056	17262.6
606.413	17187.57
606.771	17174.24
607.128	17263.27
607.485	17175.59
607.843	17122.94
608.2	17206.78
608.557	17295.36
608.914	17238.42
609.272	17333.56
609.629	17324.06
609.986	17404.97
610.343	17291.97
610.7	17407.23
611.057	17399.77
611.414	17411.75
611.771	17463.72
612.127	17545.98
612.484	17465.08
612.841	17528.13
613.198	17510.95
613.554	17412.42
613.911	17540.1
614.267	17529.71
614.624	17486.32
614.98	17524.06
615.337	17601.8
615.693	17490.16
616.05	17639.08
616.406	17712.75
616.762	17573.78
617.118	17637.05
617.475	17616.26
617.831	17685.86
618.187	17707.78
618.543	17673.43
618.899	17794.79
619.255	17658.52
619.611	17693.77
619.967	17750.04
620.323	17806.31
620.678	17727.9
621.034	17603.15
621.39	17667.78
621.746	17667.33
622.101	17839.53
622.457	17762.7
622.812	17673.66
623.168	17756.37
623.523	17726.99
623.879	17743.26
624.234	17640.21
624.589	17771.06
624.945	17692.19
625.3	17861.68
625.655	17750.72
626.01	17753.66
626.365	17804.28
626.72	17708.69
627.075	17699.2
627.43	17623.27
627.785	17726.77
628.14	17752.08
628.495	17783.04
628.85	17748.01
629.205	17640.21
629.559	17785.07
629.914	17611.51
630.269	17720.89
630.623	17625.53
630.978	17610.16
631.332	17625.53
631.687	17635.02
632.041	17552.31
632.396	17619.42
632.75	17521.57
633.104	17523.83
633.459	17454.23
633.813	17399.09
634.167	17467.79
634.521	17412.65
634.875	17488.35
635.229	17493.33
635.583	17330.39
635.937	17408.13
636.291	17332.43
636.645	17435.25
636.999	17312.09
637.352	17434.12
637.706	17331.3
638.06	17313.9
638.413	17237.29
638.767	17202.03
639.121	17317.28
639.474	17148.25
639.828	17169.04
640.181	17118.19
640.534	17155.48
640.888	17113.45
641.241	17032.32
641.594	17138.31
641.947	17051.53
642.301	17019.89
642.654	17091.08
643.007	17049.04
643.36	17056.05
643.713	17071.19
644.066	17099.89
644.419	16866.22
644.771	16798.2
645.124	16835.94
645.477	16744.64
645.83	16589.17
646.182	16508.49
646.535	16482.96
646.888	16540.13
647.24	16326.58
647.593	16470.75
647.945	16447.48
648.298	16355.5
648.65	16360.93
649.002	16355.05
649.355	16418.78
649.707	16409.74
650.059	16515.27
650.411	16675.72
650.763	16643.63
651.115	16870.74
651.467	16817.86
651.819	16867.35
652.171	16729.28
652.523	16733.35
652.875	16702.61
653.227	16708.94
653.578	16724.98
653.93	16694.7
654.282	16618.55
654.633	16636.4
654.985	16771.54
655.337	16715.27
655.688	16666.45
656.039	16696.28
656.391	16667.36
656.742	16657.19
657.094	16668.71
657.445	16757.75
657.796	16740.35
658.147	16675.27
658.498	16673.91
658.849	16726.79
659.2	16732.22
659.551	16818.77
659.902	16759.11
660.253	16730.63
660.604	16680.69
660.955	16703.52
661.306	16757.53
661.656	16705.1
662.007	16678.66
662.358	16702.16
662.708	16779.45
663.059	16726.11
663.409	16626.91
663.76	16837.07
664.11	16799.33
664.461	16691.09
664.811	16671.88
665.161	16758.66
665.511	16649.28
665.862	16702.39
666.212	16794.13
666.562	16802.5
666.912	16687.24
667.262	16732.22
667.612	16811.31
667.962	16837.52
668.312	16874.13
668.662	16840.91
669.011	16754.36
669.361	16693.12
669.711	16739.22
670.06	16740.35
670.41	16691.09
670.76	16624.42
671.109	16743.06
671.459	16794.13
671.808	16720.69
672.157	16635.72
672.507	16501.71
672.856	16543.52
673.205	16667.13
673.554	16668.49
673.904	16600.24
674.253	16757.75
674.602	16722.72
674.951	16387.14
675.3	16341.72
675.649	16528.38
675.998	16614.93
676.346	16518.89
676.695	16675.95
677.044	16481.83
677.393	16527.25
677.741	16440.47
678.09	16506.68
678.438	16440.47
678.787	16447.7
679.135	16416.07
679.484	16320.7
679.832	16278.89
680.181	16252.91
680.529	16271.89
680.877	16255.39
681.225	16176.07
681.573	16199.8
681.922	16091.78
682.27	16082.97
682.618	16120.25
682.966	16078.22
683.314	16107.37
683.661	15936.08
684.009	15965.46
684.357	15952.57
684.705	15886.14
685.053	15861.28
685.4	15858.79
685.748	15766.14
686.095	15788.29
686.443	15687.05
686.79	15731.11
687.138	15731.34
687.485	15717.55
687.832	15619.25
688.18	15654.96
688.527	15438.92
688.874	15481.85
689.221	15524.56
689.568	15488.63
689.915	15474.17
690.262	15448.41
690.609	15455.64
690.956	15311.46
691.303	15276.89
691.65	15146.72
691.997	15212.71
692.344	15085.25
692.69	15097.91
693.037	15016.55
693.383	14921.19
693.73	14982.66
694.077	14844.58
694.423	14880.96
694.769	14793.06
695.116	14740.86
695.462	14772.94
695.808	14704.92
696.155	14696.56
696.501	14536.79
696.847	14626.06
697.193	14390.81
697.539	14439.62
697.885	14344.03
698.231	14301.32
698.577	14291.38
698.923	14270.36
699.269	14150.14
699.614	14119.85
699.96	14063.13
700.306	14024.72
700.651	14008.45
700.997	13861.1
701.342	13840.31
701.688	13786.76
702.033	13773.42
702.379	13717.15
702.724	13747.89
703.069	13775.68
703.415	13613.43
703.76	13655.91
704.105	13575.69
704.45	13471.28
704.795	13470.83
705.14	13380.67
705.485	13352.64
705.83	13391.06
706.175	13298.41
706.52	13218.41
706.865	13157.17
707.209	13183.83
707.554	13147.22
707.899	13142.25
708.243	13096.15
708.588	12978.42
708.932	12872.66
709.277	12942.48
709.621	12918.3
709.966	12881.02
710.31	12812.09
710.654	12753.34
710.998	12804.18
711.342	12787.91
711.687	12748.14
712.031	12672.21
712.375	12619.78
712.719	12585.43
713.063	12585.43
713.407	12625.66
713.75	12492.55
714.094	12557.64
714.438	12388.37
714.782	12461.59
715.125	12330.07
715.469	12361.93
715.812	12302.28
716.156	12331.88
716.499	12370.75
716.843	12344.31
717.186	12237.19
717.53	12356.74
717.873	12273.58
718.216	12238.1
718.559	12173.01
718.902	12112.22
719.246	12068.38
719.589	12118.33
719.932	12109.29
720.275	12132.79
720.617	12101.6
720.96	12102.51
721.303	12008.72
721.646	12107.25
721.989	11996.29
722.331	12079.23
722.674	12034.03
723.016	11992.9
723.359	11985.67
723.701	11951.55
724.044	11864.55
724.386	11930.31
724.729	11908.84
725.071	11834.94
725.413	11937.77
725.755	11900.48
726.097	11738.45
726.439	11735.51
726.782	11765.11
727.124	11846.24
727.465	11814.38
727.807	11711.78
728.149	11712.01
728.491	11763.08
728.833	11747.94
729.175	11659.35
729.516	11674.95
729.858	11702.52
730.199	11728.28
730.541	11627.26
730.882	11712.91
731.224	11695.51
731.565	11606.25
731.906	11647.15
732.248	11668.39
732.589	11601.95
732.93	11632.69
733.271	11656.19
733.612	11614.16
733.953	11654.83
734.294	11618.68
734.635	11578
734.976	11645.34
735.317	11545.23
735.658	11592.69
735.999	11680.14
736.339	11556.53
736.68	11652.12
737.021	11599.92
737.361	11587.04
737.702	11632.69
738.042	11595.63
738.383	11560.15
738.723	11643.08
739.063	11607.83
739.404	11732.12
739.744	11597.21
740.084	11643.08
740.424	11659.13
740.764	11587.72
741.104	11685.34
741.444	11704.33
741.784	11595.85
742.124	11651.9
742.464	11759.92
742.804	11707.26
743.143	11704.1
743.483	11809.18
743.823	11657.77
744.162	11780.03
744.502	11836.07
744.841	11778.67
745.181	11947.03
745.52	11869.07
745.86	12027.25
746.199	11928.05
746.538	12038.33
746.877	12100.02
747.216	12256.85
747.556	12069.51
747.895	12227.02
748.234	12258.89
748.573	12321.48
748.911	12346.57
749.25	12364.19
749.589	12428.83
749.928	12560.35
750.267	12662.72
750.605	12603.96
750.944	12756.5
751.283	12782.94
751.621	12885.76
751.96	12918.53
752.298	13130.05
752.636	13238.07
752.975	13287.56
753.313	13372.08
753.651	13499.53
753.989	13544.5
754.327	13656.36
754.666	13674.67
755.004	13904.95
755.342	14087.54
755.679	14227.87
756.017	14248.21
756.355	14476
756.693	14539.05
757.031	14714.64
757.368	14856.33
757.706	14964.13
758.044	15079.38
758.381	15195.76
758.719	15422.19
759.056	15562.53
759.394	15705.35
759.731	15816.76
760.068	16020.37
760.405	16173.13
760.743	16312.79
761.08	16531.09
761.417	16680.69
761.754	16804.3
762.091	17117.29
762.428	17138.98
762.765	17246.33
763.102	17508.01
763.438	17613.1
763.775	17663.72
764.112	17913.2
764.449	18165.17
764.785	18244.94
765.122	18399.52
765.458	18453.98
765.795	18519.97
766.131	18725.38
766.467	18886.51
766.804	19045.83
767.14	19053.74
767.476	19220.06
767.812	19307.29
768.148	19448.53
768.485	19564.01
768.821	19535.98
769.157	19741.85
769.492	19872.25
769.828	20011.9
770.164	19982.53
770.5	20090.32
770.836	20209.86
771.171	20203.31
771.507	20262.52
771.842	20364.66
772.178	20537.99
772.513	20529.86
772.849	20697.99
773.184	20664.32
773.519	20736.4
773.855	20735.5
774.19	20748.38
774.525	20960.35
774.86	21043.74
775.195	21024.53
775.53	21047.13
775.865	21051.42
776.2	21018.88
776.535	20940.69
776.87	20950.18
777.205	21134.59
777.539	21048.94
777.874	21227.46
778.209	21077.64
778.543	21176.84
778.878	21132.33
779.212	21134.81
779.547	21219.33
779.881	21296.16
780.215	21114.93
780.55	21164.19
780.884	21141.37
781.218	21133.23
781.552	21083.51
781.886	21073.8
782.22	21073.57
782.554	21093
782.888	21002.16
783.222	20944.31
783.556	21010.07
783.889	20999.67
784.223	20770.75
784.557	20853.46
784.89	20991.54
785.224	20879.9
785.557	20697.08
785.891	20674.94
786.224	20730.3
786.558	20793.58
786.891	20608.95
787.224	20603.3
787.557	20553.81
787.891	20506.81
788.224	20512.46
788.557	20516.97
788.89	20577.09
789.223	20495.73
789.556	20367.15
789.888	20364.44
790.221	20305.45
790.554	20238.34
790.887	20209.64
791.219	20223.2
791.552	20146.14
791.884	20106.14
792.217	20096.87
792.549	20045.12
792.882	19982.53
793.214	19803.77
793.546	19934.62
793.879	19792.47
794.211	19789.99
794.543	19818.91
794.875	19646.04
795.207	19810.78
795.539	19677.45
795.871	19675.87
796.203	19520.84
796.535	19356.55
796.867	19372.15
797.198	19348.19
797.53	19433.39
797.862	19350.23
798.193	19291.24
798.525	19240.4
798.856	19271.13
799.188	19052.38
799.519	19061.65
799.85	18879.05
800.182	18975.77
800.513	18992.95
800.844	18823.91
801.175	18962.67
801.506	18839.28
801.837	18780.3
802.168	18792.05
802.499	18675.44
802.83	18607.19
803.161	18554.77
803.491	18463.7
803.822	18610.81
804.153	18402.45
804.483	18373.98
804.814	18289.46
805.145	18279.29
805.475	18268.22
805.805	18216.7
806.136	18142.12
806.466	18173.08
806.796	18085.4
807.126	18026.19
807.457	18003.14
807.787	18041.33
808.117	17879.98
808.447	17916.59
808.777	17832.98
809.107	17863.94
809.436	17703.04
809.766	17728.35
810.096	17623.27
810.426	17662.59
810.755	17651.51
811.085	17641.34
811.414	17501.69
811.744	17364.06
812.073	17331.75
812.403	17373.1
812.732	17359.32
813.061	17257.17
813.39	17162.03
813.719	17185.54
814.049	17188.7
814.378	17175.14
814.707	17126.56
815.036	17129.95
815.365	17051.3
815.693	16928.82
816.022	16951.19
816.351	16872.32
816.68	16845.66
817.008	16878.2
817.337	16604.31
817.665	16634.14
817.994	16677.3
818.322	16754.14
818.651	16614.93
818.979	16614.03
819.307	16700.35
819.636	16573.58
819.964	16493.58
820.292	16578.32
820.62	16605.44
820.948	16507.14
821.276	16586.68
821.604	16357.31
821.932	16592.11
822.259	16499.68
822.587	16520.02
822.915	16480.92
823.243	16515.72
823.57	16502.84
823.898	16485.67
824.225	16440.7
824.553	16380.36
824.88	16378.1
825.207	16404.54
825.535	16454.26
825.862	16472.79
826.189	16374.94
826.516	16471.21
826.843	16551.88
827.17	16451.09
827.497	16459.45
827.824	16537.87
828.151	16512.33
828.478	16414.03
828.805	16522.73
829.131	16523.18
829.458	16395.95
829.785	16353.69
830.111	16434.14
830.438	16518.89
830.764	16389.85
831.09	16475.5
831.417	16351.89
831.743	16449.96
832.069	16470.3
832.395	16332
832.722	16404.99
833.048	16297.42
833.374	16296.52
833.7	16198.9
834.026	16306.24
834.351	16403.64
834.677	16323.41
835.003	16335.16
835.329	16288.84
835.654	16228.27
835.98	16118.45
836.306	16214.04
836.631	16153.47
836.956	16195.51
837.282	16277.76
837.607	16204.09
837.932	16023.31
838.258	16064.21
838.583	16120.71
838.908	16020.14
839.233	15992.8
839.558	15996.19
839.883	15966.13
840.208	15892.46
840.533	15846.36
840.858	15881.84
841.182	15797.1
841.507	15860.6
841.832	15744.22
842.156	15651.34
842.481	15746.7
842.805	15719.36
843.13	15709.87
843.454	15577.44
843.778	15544.9
844.103	15511
844.427	15538.35
844.751	15465.58
845.075	15526.15
845.399	15387.62
845.723	15393.49
846.047	15374.29
846.371	15165.02
846.695	15211.8
847.019	15073.05
847.343	15061.98
847.666	14929.32
847.99	14880.06
848.313	14880.29
848.637	14707.86
848.96	14822.21
849.284	14817.69
849.607	14631.25
849.931	14561.65
850.254	14429
850.577	14468.32
850.9	14328.44
851.223	14340.64
851.546	14158.72
851.869	14204.37
852.192	14285.73
852.515	14098.16
852.838	14022.23
853.161	14084.38
853.483	13963.02
853.806	13884.15
854.129	13935
854.451	13848.45
854.774	13721.45
855.096	13695.23
855.419	13683.93
855.741	13688
856.063	13632.86
856.385	13589.7
856.708	13511.51
857.03	13399.87
857.352	13479.65
857.674	13469.48
857.996	13371.17
858.318	13281.01
858.64	13240.56
858.961	13196.94
859.283	13160.78
859.605	13124.4
859.926	13142.93
860.248	13091.63
860.57	13067.9
860.891	13017.06
861.212	12938.87
861.534	12957.4
861.855	12865.88
862.176	12856.61
862.498	12903.39
862.819	12906.1
863.14	12833.79
863.461	12724.19
863.782	12792.43
864.103	12784.3
864.424	12772.55
864.745	12770.06
865.065	12699.33
865.386	12649.61
865.707	12500.46
866.027	12585.88
866.348	12563.51
866.668	12583.4
866.989	12595.38
867.309	12476.73
867.63	12502.04
867.95	12475.6
868.27	12449.16
868.59	12476.96
868.91	12497.75
869.23	12381.82
869.55	12296.63
869.87	12370.52
870.19	12420.01
870.51	12424.98
870.83	12344.08
871.15	12295.27
871.469	12367.36
871.789	12316.51
872.109	12183.86
872.428	12173.47
872.748	12261.82
873.067	12266.57
873.386	12176.85
873.706	12178.66
874.025	12105.22
874.344	12036.07
874.663	12121.94
874.982	12031.55
875.301	12082.17
875.62	12000.59
875.939	11998.55
876.258	11944.32
876.577	11930.31
876.896	11947.26
877.214	11838.33
877.533	11889.63
877.852	11851.89
878.17	11814.15
878.489	11943.64
878.807	11854.83
879.125	11760.14
879.444	11775.28
879.762	11724.21
880.08	11711.1
880.398	11648.06
880.716	11683.99
881.034	11628.39
881.352	11662.52
881.67	11615.51
881.988	11538.91
882.306	11523.54
882.624	11488.06
882.941	11383.43
883.259	11410.1
883.577	11338.46
883.894	11446.48
884.212	11357.44
884.529	11347.72
884.846	11312.47
885.164	11320.38
885.481	11233.15
885.798	11258.46
886.115	11214.17
886.432	11194.73
886.75	11247.39
887.067	11208.74
887.383	11152.25
887.7	11219.37
888.017	11029.99
888.334	11103.21
888.651	11107.05
888.967	11020.5
889.284	10905.48
889.6	10963.1
889.917	10877.23
890.233	10917
890.55	10850.56
890.866	10866.61
891.182	10750.45
891.498	10774.86
891.815	10747.74
892.131	10679.27
892.447	10643.79
892.763	10620.74
893.079	10579.38
893.395	10617.35
893.71	10557.46
894.026	10524.7
894.342	10425.71
894.657	10393.17
894.973	10400.18
895.289	10372.61
895.604	10379.39
895.92	10236.79
896.235	10196.79
896.55	10215.78
896.865	10209.22
897.181	10189.56
897.496	10130.58
897.811	10076.12
898.126	10018.27
898.441	10027.31
898.756	9953.41
899.071	9960.87
899.386	9952.05
899.7	9789.8
900.015	9839.06
900.33	9751.61
900.644	9689.91
900.959	9726.07
901.273	9696.24
901.588	9629.13
901.902	9620.09
902.216	9567.21
902.531	9534.21
902.845	9458.28
903.159	9515.46
903.473	9415.12
903.787	9449.47
904.101	9342.35
904.415	9364.73
904.729	9257.61
905.042	9249.7
905.356	9246.76
905.67	9169.02
905.984	9228.91
906.297	9155.01
906.611	9146.65
906.924	9029.82
907.237	9005.41
907.551	8908.47
907.864	8879.99
908.177	8916.38
908.491	8926.77
908.804	8820.56
909.117	8746.44
909.43	8796.38
909.743	8688.81
910.056	8692.2
910.368	8663.73
910.681	8587.8
910.994	8593.9
911.307	8622.6
911.619	8522.71
911.932	8514.35
912.244	8436.16
912.557	8448.37
912.869	8388.71
913.181	8353.45
913.494	8309.84
913.806	8289.5
914.118	8244.08
914.43	8210.18
914.742	8211.76
915.054	8132.89
915.366	8128.15
915.678	8107.36
915.99	8009.96
916.302	8022.39
916.613	7890.41
916.925	7921.37
917.236	7913.92
917.548	7861.94
917.859	7825.78
918.171	7812
918.482	7741.49
918.794	7729.29
919.105	7743.53
919.416	7644.09
919.727	7623.08
920.038	7628.95
920.349	7569.52
920.66	7522.97
920.971	7539.01
921.282	7493.14
921.593	7433.7
921.903	7381.27
922.214	7433.02
922.525	7393.93
922.835	7283.65
923.146	7302.18
923.456	7247.95
923.767	7224.44
924.077	7233.93
924.387	7226.25
924.697	7127.5
925.008	7109.42
925.318	7085.92
925.628	7075.07
925.938	7055.18
926.248	6970.21
926.558	6970.89
926.867	6994.17
927.177	6914.39
927.487	6881.18
927.796	6829.88
928.106	6767.51
928.416	6815.64
928.725	6798.69
929.034	6770.67
929.344	6753.04
929.653	6731.35
929.962	6591.47
930.271	6625.59
930.581	6589.43
930.89	6618.36
931.199	6544.69
931.508	6528.19
931.817	6546.27
932.125	6483.9
932.434	6452.49
932.743	6398.7
933.051	6381.98
933.36	6371.81
933.669	6348.99
933.977	6297.24
934.286	6236.67
934.594	6224.92
934.902	6207.97
935.21	6165.49
935.519	6184.47
935.827	6191.25
936.135	6114.19
936.443	6046.17
936.751	6055.43
937.059	6022.67
937.367	6018.6
937.674	6005.72
937.982	5968.88
938.29	5948.77
938.597	5947.87
938.905	5853.41
939.213	5860.64
939.52	5801.43
939.827	5876.46
940.135	5792.39
940.442	5765.95
940.749	5739.96
941.056	5686.4
941.363	5691.15
941.67	5656.35
941.977	5633.75
942.284	5570.93
942.591	5601.89
942.898	5617.93
943.205	5530.93
943.511	5484.6
943.818	5525.28
944.125	5478.95
944.431	5449.57
944.738	5440.99
945.044	5401.89
945.35	5340.65
945.657	5319.63
945.963	5308.56
946.269	5313.08
946.575	5292.74
946.881	5259.3
947.187	5263.59
947.493	5204.61
947.799	5226.53
948.105	5180.43
948.41	5135.46
948.716	5168.68
949.022	5090.26
949.327	5071.51
949.633	5023.82
949.938	5027.21
950.244	5029.47
950.549	5009.36
950.854	5006.65
951.16	4958.06
951.465	4946.76
951.77	4929.59
952.075	4862.92
952.38	4862.25
952.685	4863.6
952.99	4836.26
953.294	4808.91
953.599	4782.02
953.904	4795.81
954.209	4758.52
954.513	4742.47
954.818	4723.72
955.122	4670.84
955.426	4671.74
955.731	4659.76
956.035	4623.61
956.339	4584.74
956.643	4607.34
956.948	4564.17
957.252	4545.64
957.556	4513.78
957.86	4514.01
958.163	4543.16
958.467	4423.84
958.771	4458.64
959.075	4476.94
959.378	4407.79
959.682	4422.26
959.985	4409.6
960.289	4365.08
960.592	4346.55
960.896	4325.31
961.199	4286.89
961.502	4331.19
961.805	4261.36
962.108	4242.15
962.411	4269.72
962.714	4164.41
963.017	4144.52
963.32	4156.95
963.623	4129.16
963.926	4119.67
964.228	4087.35
964.531	4080.57
964.833	4096.62
965.136	4036.28
965.438	4012.1
965.741	4028.82
966.043	4019.78
966.345	3992.66
966.648	3961.25
966.95	3939.33
967.252	3871.99
967.554	3953.34
967.856	3882.61
968.158	3869.05
968.46	3873.8
968.761	3858.66
969.063	3842.84
969.365	3827.24
969.666	3826.11
969.968	3784.76
970.269	3740.69
970.571	3760.13
970.872	3784.08
971.174	3724.2
971.475	3728.49
971.776	3688.26
972.077	3664.08
972.378	3629.06
972.679	3673.58
972.98	3594.71
973.281	3618.44
973.582	3592
973.883	3570.3
974.183	3556.97
974.484	3535.73
974.785	3505.44
975.085	3516.07
975.386	3460.47
975.686	3468.61
975.986	3452.34
976.287	3426.58
976.587	3449.85
976.887	3455.28
977.187	3429.74
977.487	3372.11
977.787	3403.75
978.087	3369.63
978.387	3348.39
978.687	3307.26
978.987	3304.55
979.286	3318.78
979.586	3298.44
979.885	3282.63
980.185	3249.63
980.484	3226.81
980.784	3247.15
981.083	3200.37
981.382	3210.31
981.682	3164.66
981.981	3176.41
982.28	3131.22
982.579	3124.21
982.878	3112.46
983.177	3123.53
983.475	3130.31
983.774	3068.62
984.073	3079.02
984.372	3030.2
984.67	3056.87
984.969	3021.39
985.267	3020.94
985.566	2984.55
985.864	2991.11
986.162	2954.5
986.461	2973.93
986.759	2954.72
987.057	2917.89
987.355	2900.26
987.653	2926.25
987.951	2892.13
988.249	2889.42
988.547	2922.18
988.844	2863.88
989.142	2840.6
989.44	2806.71
989.737	2815.97
990.035	2826.14
990.332	2811
990.63	2780.49
990.927	2775.97
991.224	2766.25
991.521	2697.33
991.819	2691.45
992.116	2676.31
992.413	2737.78
992.71	2684.45
993.006	2644
993.303	2668.86
993.6	2682.19
993.897	2632.02
994.193	2651.91
994.49	2652.81
994.787	2598.58
995.083	2572.81
995.379	2588.41
995.676	2530.33
995.972	2546.83
996.268	2553.83
996.565	2542.98
996.861	2490.78
997.157	2523.32
997.453	2508.63
997.749	2455.75
998.044	2443.55
998.34	2401.97
998.636	2422.76
998.932	2432.03
999.227	2427.96
999.523	2418.92
999.818	2337.57
1000.114	2354.51
1000.409	2356.55
1000.704	2328.07
1001	2359.94
1001.295	2322.42
1001.59	2329.2
1001.885	2317.23
1002.18	2246.04
1002.475	2262.99
1002.77	2256.66
1003.065	2201.75
1003.359	2240.17
1003.654	2238.59
1003.949	2210.79
1004.243	2209.21
1004.538	2193.84
1004.832	2160.17
1005.127	2193.61
1005.421	2155.42
1005.715	2135.54
1006.009	2123.79
1006.304	2129.44
1006.598	2110.23
1006.892	2104.58
1007.186	2073.39
1007.48	2042.66
1007.773	2046.5
1008.067	2035.2
1008.361	2020.74
1008.655	2015.09
1008.948	2013.05
1009.242	1995.2
1009.535	1960.85
1009.829	1966.05
1010.122	1952.72
1010.415	1920.18
1010.708	1944.36
1011.001	1944.58
1011.295	1898.93
1011.588	1919.95
1011.881	1851.93
1012.173	1854.41
1012.466	1842.21
1012.759	1819.61
1013.052	1832.04
1013.344	1809.22
1013.637	1792.72
1013.93	1818.71
1014.222	1820.97
1014.514	1796.56
1014.807	1782.1
1015.099	1773.51
1015.391	1767.41
1015.683	1755.43
1015.976	1708.66
1016.268	1724.02
1016.56	1718.15
1016.851	1703.23
1017.143	1699.16
1017.435	1691.48
1017.727	1660.3
1018.018	1663.91
1018.31	1683.35
1018.602	1661.43
1018.893	1628.66
1019.185	1611.26
1019.476	1626.62
1019.767	1610.13
1020.058	1600.41
1020.35	1597.7
1020.641	1559.96
1020.932	1526.74
1021.223	1549.56
1021.514	1545.04
1021.804	1527.64
1022.095	1533.29
1022.386	1517.7
1022.677	1509.34
1022.967	1486.97
1023.258	1469.57
1023.548	1473.18
1023.839	1451.04
1024.129	1487.64
1024.419	1423.47
1024.709	1407.65
1025	1435.89
1025.29	1418.95
1025.58	1397.93
1025.87	1378.27
1026.16	1386.4
1026.449	1380.98
1026.739	1358.83
1027.029	1331.72
1027.319	1352.51
1027.608	1320.19
1027.898	1347.54
1028.187	1296.01
1028.477	1313.19
1028.766	1302.56
1029.055	1304.82
1029.344	1274.99
1029.634	1282.23
1029.923	1267.09
1030.212	1267.76
1030.501	1266.63
1030.79	1266.63
1031.078	1250.36
1031.367	1221.66
1031.656	1209.69
1031.945	1233.87
1032.233	1204.04
1032.522	1210.59
1032.81	1213.08
1033.099	1187.09
1033.387	1159.07
1033.675	1144.15
1033.963	1152.51
1034.251	1153.64
1034.54	1162.23
1034.828	1146.18
1035.116	1125.39
1035.403	1122.68
1035.691	1129.46
1035.979	1130.14
1036.267	1076.58
1036.554	1110.71
1036.842	1078.39
1037.129	1065.96
1037.417	1063.02
1037.704	1066.64
1037.992	1072.74
1038.279	1065.28
1038.566	1004.95
1038.853	1004.95
1039.14	1004.95
