Data from hue_28_FLMS001491_00018.txt Node
Date: Tue Feb 07 17:16:56 GMT 2017
User: dcchb
Spectrometer: FLMS00149
Trigger mode: 0
Integration Time (sec): 2.000000E-2
Scans to average: 10
Electric dark correction enabled: true
Nonlinearity correction enabled: false
Boxcar width: 0
XAxis mode: Wavelengths
Number of Pixels in Spectrum: 2048
>>>>>Begin Spectral Data<<<<<
341.393	-31.67
341.776	-31.67
342.16	-31.67
342.543	-70.76
342.927	-60.82
343.31	-51.78
343.693	-52.91
344.077	-76.86
344.46	-54.94
344.843	-55.17
345.226	-47.71
345.61	-37.77
345.993	-14.27
346.376	3.59
346.759	17.6
347.142	12.85
347.525	28.67
347.908	60.76
348.291	76.58
348.674	85.62
349.057	105.73
349.44	129.91
349.823	143.02
350.206	164.49
350.588	182.34
350.971	209.23
351.354	247.42
351.737	235.9
352.119	231.38
352.502	248.55
352.884	298.04
353.267	262.34
353.65	291.49
354.032	302.56
354.414	319.06
354.797	312.73
355.179	325.39
355.562	316.12
355.944	338.95
356.326	300.98
356.709	356.35
357.091	320.19
357.473	340.3
357.855	313.41
358.238	338.27
358.62	356.35
359.002	340.08
359.384	335.78
359.766	346.18
360.148	350.7
360.53	336.01
360.912	357.48
361.294	331.71
361.676	341.66
362.057	333.75
362.439	327.42
362.821	311.83
363.203	302.11
363.584	305.05
363.966	325.39
364.348	330.58
364.729	328.32
365.111	336.01
365.493	305.95
365.874	329.68
366.256	310.7
366.637	302.11
367.019	319.06
367.4	302.56
367.781	316.35
368.163	333.97
368.544	291.04
368.925	317.25
369.306	331.94
369.688	312.05
370.069	281.09
370.45	320.42
370.831	313.64
371.212	313.86
371.593	312.05
371.974	315.9
372.355	327.42
372.736	306.63
373.117	306.4
373.498	327.19
373.879	291.94
374.26	308.89
374.641	300.75
375.021	299.62
375.402	313.64
375.783	325.61
376.163	314.99
376.544	317.48
376.925	312.73
377.305	337.36
377.686	333.52
378.066	338.04
378.447	326.06
378.827	325.84
379.208	305.5
379.588	341.21
379.968	344.82
380.349	321.55
380.729	327.87
381.109	347.76
381.489	347.31
381.87	338.04
382.25	336.23
382.63	340.3
383.01	341.21
383.39	341.88
383.77	356.12
384.15	357.25
384.53	336.91
384.91	349.34
385.29	345.27
385.67	351.15
386.049	357.48
386.429	345.5
386.809	360.41
387.189	340.08
387.568	333.75
387.948	333.52
388.328	358.61
388.707	351.6
389.087	364.71
389.466	358.83
389.846	378.04
390.225	353.41
390.605	381.43
390.984	374.2
391.363	370.36
391.743	361.09
392.122	352.28
392.501	361.54
392.881	383.01
393.26	373.97
393.639	376.91
394.018	376.01
394.397	350.47
394.776	373.75
395.155	381.88
395.534	369.23
395.913	363.13
396.292	371.94
396.671	382.56
397.05	396.8
397.429	384.37
397.808	376.46
398.186	390.92
398.565	350.02
398.944	405.16
399.323	396.35
399.701	403.58
400.08	406.06
400.458	363.8
400.837	406.29
401.215	402.22
401.594	398.83
401.972	402.45
402.351	390.02
402.729	406.06
403.107	414.65
403.486	403.8
403.864	385.5
404.242	434.76
404.62	422.79
404.999	432.95
405.377	393.63
405.755	421.66
406.133	422.11
406.511	418.72
406.889	425.05
407.267	444.25
407.645	418.72
408.023	435.67
408.401	446.74
408.779	435.89
409.156	443.12
409.534	437.02
409.912	443.8
410.29	432.05
410.667	460.3
411.045	436.34
411.422	449.9
411.8	451.94
412.178	459.17
412.555	447.42
412.933	478.83
413.31	455.78
413.687	454.42
414.065	458.26
414.442	473.41
414.819	446.06
415.197	497.59
415.574	477.93
415.951	481.54
416.328	484.48
416.705	465.04
417.082	501.43
417.46	492.16
417.837	497.13
418.214	491.26
418.591	504.82
418.967	527.42
419.344	517.92
419.721	491.71
420.098	498.04
420.475	514.31
420.852	513.86
421.228	523.35
421.605	536.45
421.982	539.17
422.358	526.06
422.735	547.08
423.111	531.48
423.488	542.1
423.864	545.27
424.241	532.39
424.617	543.91
424.994	537.36
425.37	555.21
425.746	539.84
426.123	531.71
426.499	543.23
426.875	541.2
427.251	551.6
427.627	566.06
428.003	585.04
428.379	564.7
428.756	566.06
429.132	598.15
429.507	619.84
429.883	604.48
430.259	596.79
430.635	597.24
431.011	608.32
431.387	628.43
431.763	651.71
432.138	615.77
432.514	617.13
432.89	632.95
433.265	629.56
433.641	639.05
434.016	658.71
434.392	631.37
434.767	653.97
435.143	640.63
435.518	665.49
435.894	674.3
436.269	676.79
436.644	669.11
437.02	680.41
437.395	687.19
437.77	708.43
438.145	713.85
438.52	677.69
438.895	703.91
439.271	686.06
439.646	715.66
440.021	718.14
440.395	715.89
440.77	719.27
441.145	715.43
441.52	747.07
441.895	746.62
442.27	754.08
442.645	752.27
443.019	766.28
443.394	754.98
443.769	751.59
444.143	763.57
444.518	761.76
444.892	747.3
445.267	769.67
445.641	770.35
446.016	776.67
446.39	797.01
446.764	794.75
447.139	792.95
447.513	780.52
447.887	798.82
448.262	795.88
448.636	802.89
449.01	810.57
449.384	833.17
449.758	816
450.132	829.33
450.506	832.94
450.88	837.01
451.254	842.89
451.628	872.94
452.002	851.47
452.376	861.19
452.75	880.17
453.123	877.69
453.497	894.86
453.871	887.86
454.244	904.58
454.618	931.47
454.992	922.21
455.365	923.11
455.739	916.56
456.112	930.79
456.486	959.95
456.859	953.17
457.232	962.43
457.606	968.99
457.979	993.17
458.352	1005.14
458.725	1015.09
459.099	1016.44
459.472	1029.32
459.845	1040.4
460.218	1049.66
460.591	1038.14
460.964	1052.83
461.337	1087.63
461.71	1097.34
462.083	1113.39
462.456	1108.64
462.829	1103.9
463.201	1124.69
463.574	1140.05
463.947	1122.88
464.32	1202.88
464.692	1177.34
465.065	1190.22
465.438	1201.07
465.81	1234.06
466.183	1234.74
466.555	1240.62
466.928	1237.23
467.3	1286.72
467.672	1269.99
468.045	1312.25
468.417	1311.12
468.789	1316.55
469.161	1342.31
469.534	1371.46
469.906	1378.24
470.278	1380.95
470.65	1387.05
471.022	1469.76
471.394	1479.03
471.766	1460.72
472.138	1491.23
472.51	1530.55
472.882	1543.43
473.253	1576.2
473.625	1588.4
473.997	1618.91
474.369	1636.54
474.74	1675.86
475.112	1718.57
475.484	1708.18
475.855	1792.24
476.227	1792.24
476.598	1823.43
476.97	1842.86
477.341	1904.55
477.713	1927.15
478.084	1949.3
478.455	1981.39
478.827	2035.17
479.198	2073.59
479.569	2098.67
479.94	2172.34
480.311	2178.9
480.682	2211.67
481.053	2288.05
481.424	2295.73
481.795	2358.1
482.166	2426.35
482.537	2417.54
482.908	2505.22
483.279	2507.93
483.65	2576.63
484.021	2605.1
484.391	2664.08
484.762	2713.8
485.133	2759
485.503	2818.43
485.874	2907.47
486.244	2946.33
486.615	2978.2
486.985	3012.1
487.356	3048.25
487.726	3146.56
488.097	3198.98
488.467	3252.99
488.837	3300
489.207	3377.74
489.578	3385.65
489.948	3452.31
490.318	3515.59
490.688	3555.58
491.058	3594
491.428	3678.07
491.798	3731.17
492.168	3800.32
492.538	3786.09
492.908	3913.99
493.278	3974.1
493.648	3989.92
494.017	4036.93
494.387	4067.66
494.757	4092.52
495.126	4164.83
495.496	4163.03
495.866	4251.61
496.235	4277.37
496.605	4349.01
496.974	4407.09
497.344	4400.76
497.713	4491.61
498.082	4501.77
498.452	4582.68
498.821	4592.62
499.19	4557.59
499.559	4643.01
499.928	4755.1
500.298	4742.9
500.667	4771.6
501.036	4792.61
501.405	4850.47
501.774	4866.06
502.143	4876
502.512	4961.42
502.88	4966.85
503.249	5007.52
503.618	5020.18
503.987	5060.86
504.356	5114.19
504.724	5141.53
505.093	5139.5
505.462	5197.8
505.83	5248.2
506.199	5282.09
506.567	5309.21
506.936	5359.83
507.304	5372.03
507.672	5408.64
508.041	5391.02
508.409	5487.06
508.777	5466.95
509.145	5474.4
509.514	5511.47
509.882	5592.82
510.25	5557.79
510.618	5641.41
510.986	5659.26
511.354	5662.42
511.722	5694.06
512.09	5719.37
512.458	5725.24
512.826	5792.81
513.193	5779.93
513.561	5845.47
513.929	5871.68
514.297	5899.48
514.664	5975.86
515.032	5985.13
515.4	5983.32
515.767	5976.99
516.135	6057.44
516.502	6046.37
516.869	6104.44
517.237	6104.67
517.604	6145.12
517.972	6222.63
518.339	6205.01
518.706	6173.82
519.073	6242.29
519.44	6266.02
519.808	6308.51
520.175	6316.42
520.542	6342.18
520.909	6360.03
521.276	6433.02
521.643	6440.71
522.009	6489.74
522.376	6524.09
522.743	6574.26
523.11	6565.45
523.477	6648.38
523.843	6660.59
524.21	6684.77
524.577	6771.77
524.943	6739.91
525.31	6828.72
525.676	6827.81
526.043	6876.18
526.409	6955.95
526.776	6975.16
527.142	6937.19
527.508	7041.82
527.874	7063.51
528.241	7106.45
528.607	7135.15
528.973	7183.29
529.339	7210.86
529.705	7247.92
530.071	7268.71
530.437	7335.82
530.803	7375.15
531.169	7453.79
531.535	7420.12
531.901	7393.9
532.267	7448.14
532.632	7520.45
532.998	7583.5
533.364	7611.97
533.73	7670.96
534.095	7670.28
534.461	7755.7
534.826	7675.48
535.192	7801.12
535.557	7857.62
535.923	7831.18
536.288	7864.17
536.653	7925.19
537.019	7877.05
537.384	7952.08
537.749	7991.63
538.114	8009.48
538.479	8004.28
538.845	8068.46
539.21	7986.65
539.575	8072.98
539.94	8156.14
540.305	8189.13
540.67	8225.07
541.034	8283.14
541.399	8273.2
541.764	8317.27
542.129	8304.61
542.494	8307.78
542.858	8371.96
543.223	8463.48
543.587	8452.18
543.952	8510.03
544.316	8535.79
544.681	8465.74
545.045	8577.37
545.41	8642.91
545.774	8682.91
546.138	8675.68
546.503	8685.85
546.867	8691.04
547.231	8771.27
547.595	8807.2
547.959	8850.13
548.324	8890.81
548.688	8914.54
549.052	8929.23
549.416	8966.74
549.779	8985.27
550.143	9024.37
550.507	9101.2
550.871	9110.92
551.235	9124.7
551.599	9165.83
551.962	9131.48
552.326	9189.11
552.689	9312.95
553.053	9232.5
553.417	9298.94
553.78	9364.7
554.143	9336.68
554.507	9435.43
554.87	9452.6
555.234	9527.86
555.597	9445.15
555.96	9481.53
556.323	9551.36
556.686	9536.44
557.05	9648.76
557.413	9638.36
557.776	9661.64
558.139	9699.15
558.502	9768.3
558.865	9785.25
559.228	9816.89
559.59	9791.58
559.953	9810.34
560.316	9942.76
560.679	9921.52
561.041	10032.25
561.404	10051.01
561.767	10076.99
562.129	10091.01
562.492	10125.13
562.854	10163.32
563.217	10121.51
563.579	10136.65
563.941	10260.72
564.304	10307.27
564.666	10389.53
565.028	10325.8
565.39	10360.38
565.753	10427.49
566.115	10481.5
566.477	10444.89
566.839	10458.91
567.201	10501.39
567.563	10529.41
567.925	10663.65
568.287	10629.3
568.648	10661.84
569.01	10674.72
569.372	10857.99
569.734	10754.72
570.095	10950.42
570.457	10955.39
570.819	10957.2
571.18	11093.01
571.542	11064.54
571.903	11066.35
572.265	11122.17
572.626	11207.36
572.987	11290.75
573.349	11312.22
573.71	11449.39
574.071	11382.72
574.432	11493.68
574.794	11609.16
575.155	11693.45
575.516	11553.79
575.877	11760.79
576.238	11765.31
576.599	11877.85
576.96	11983.39
577.32	12135.47
577.681	12171.86
578.042	12273.77
578.403	12381.12
578.763	12498.4
579.124	12640.54
579.485	12744.04
579.845	12849.35
580.206	12921.67
580.566	13088.67
580.927	13202.34
581.287	13313.97
581.648	13424.25
582.008	13545.83
582.368	13727.07
582.728	13887.97
583.089	14016.78
583.449	14188.75
583.809	14346.71
584.169	14637.55
584.529	14756.87
584.889	15014.72
585.249	15155.51
585.609	15322.51
585.969	15603.63
586.329	15745.09
586.688	16004.97
587.048	16193.9
587.408	16460.33
587.768	16691.06
588.127	16883.37
588.487	17098.73
588.846	17472.73
589.206	17637.7
589.565	17914.53
589.925	18251.02
590.284	18440.39
590.643	18751.8
591.003	19025.23
591.362	19353.14
591.721	19590.19
592.08	19850.3
592.44	20192.66
592.799	20523.5
593.158	20642.82
593.517	20995.13
593.876	21252.52
594.235	21536.13
594.593	21930.02
594.952	22275.77
595.311	22428.76
595.67	22852.93
596.029	23167.72
596.387	23469.19
596.746	23689.74
597.104	23943.97
597.463	24301.48
597.822	24642.26
598.18	24762.03
598.538	25148.69
598.897	25545.74
599.255	25712.74
599.613	26274.76
599.972	26388.88
600.33	26695.32
600.688	26863.67
601.046	27250.78
601.404	27686.02
601.762	27823.65
602.12	28200.36
602.478	28513.57
602.836	28807.12
603.194	28871.75
603.552	29194.01
603.91	29313.55
604.268	29723.26
604.625	29920.54
604.983	30232.4
605.341	30443.47
605.698	30681.65
606.056	30962.55
606.413	31163.45
606.771	31582.64
607.128	31744.67
607.485	31925.91
607.843	32287.94
608.2	32476.63
608.557	32799.34
608.914	32797.98
609.272	33207.01
609.629	33441.58
609.986	33698.75
610.343	33738.97
610.7	34171.05
611.057	34268.9
611.414	34391.38
611.771	34627.31
612.127	34933.97
612.484	35119.5
612.841	35298.25
613.198	35387.52
613.554	35612.37
613.911	35984.11
614.267	35903.89
614.624	36143.65
614.98	36387.72
615.337	36746.8
615.693	36666.13
616.05	36915.61
616.406	37284.42
616.762	37261.82
617.118	37349.27
617.475	37413.9
617.831	37722.6
618.187	37812.54
618.543	37923.27
618.899	38317.16
619.255	38345.18
619.611	38293.65
619.967	38474.89
620.323	38827.65
620.678	38670.14
621.034	38795.79
621.39	38731.61
621.746	38832.85
622.101	39254.98
622.457	39159.62
622.812	39281.88
623.168	39438.26
623.523	39501.98
623.879	39851.35
624.234	39658.59
624.589	39816.1
624.945	39922.99
625.3	39987.62
625.655	40068.07
626.01	40094.51
626.365	40307.39
626.72	40301.74
627.075	40251.57
627.43	40348.74
627.785	40475.97
628.14	40543.54
628.495	40682.07
628.85	40737.66
629.205	40489.75
629.559	40740.37
629.914	40658.56
630.269	40762.06
630.623	40641.16
630.978	40658.34
631.332	40897.43
631.687	41026.92
632.041	40855.39
632.396	40998.44
632.75	40848.62
633.104	40994.37
633.459	40746.02
633.813	40788.05
634.167	40967.93
634.521	40955.96
634.875	41012.68
635.229	40952.57
635.583	40833.25
635.937	40795.51
636.291	40853.13
636.645	41049.06
636.999	40860.59
637.352	41016.97
637.706	40810.88
638.06	41024.43
638.413	40867.15
638.767	40938.56
639.121	41008.61
639.474	40804.77
639.828	40771.1
640.181	40891.1
640.534	40850.42
640.888	40691.78
641.241	40613.14
641.594	40850.2
641.947	40750.54
642.301	40760.03
642.654	40730.88
643.007	40833.47
643.36	40615.85
643.713	40571.56
644.066	40879.57
644.419	40509.19
644.771	40363.43
645.124	39969.09
645.477	40037.56
645.83	39848.87
646.182	39614.75
646.535	39648.19
646.888	39673.73
647.24	39488.88
647.593	39645.93
647.945	39681.87
648.298	39396.68
648.65	39383.34
649.002	39417.01
649.355	39534.3
649.707	39464.47
650.059	39639.38
650.411	40105.36
650.763	40165.7
651.115	40598.45
651.467	40447.72
651.819	40341.28
652.171	40357.1
652.523	40192.36
652.875	40263.77
653.227	40058.58
653.578	40242.98
653.93	40156.43
654.282	40135.87
654.633	40008.41
654.985	40285.92
655.337	40138.35
655.688	40067.84
656.039	40319.59
656.391	39887.51
656.742	40064.68
657.094	40163.44
657.445	40239.82
657.796	40075.08
658.147	39969.09
658.498	40107.39
658.849	40158.24
659.2	40000.28
659.551	39942.42
659.902	40245.02
660.253	40221.06
660.604	40006.15
660.955	39815.42
661.306	40047.96
661.656	40035.53
662.007	39943.55
662.358	39924.12
662.708	39903.56
663.059	39944.23
663.409	39711.92
663.76	39974.97
664.11	39881.63
664.461	40009.09
664.811	39982.2
665.161	39841.18
665.511	39864.01
665.862	39869.43
666.212	39986.04
666.562	39982.42
666.912	39956.66
667.262	39850
667.612	39785.82
667.962	39904.01
668.312	39889.32
668.662	40072.14
669.011	40007.28
669.361	39900.62
669.711	39926.15
670.06	39863.56
670.41	39773.62
670.76	39767.06
671.109	39849.77
671.459	39804.35
671.808	39668.99
672.157	39705.14
672.507	39539.95
672.856	39502.21
673.205	39558.93
673.554	39836.66
673.904	39607.97
674.253	39754.63
674.602	39595.99
674.951	39156.68
675.3	38977.25
675.649	39607.97
675.998	39479.84
676.346	39544.24
676.695	39678.93
677.044	39324.36
677.393	39492.49
677.741	39586.95
678.09	39288.66
678.438	39403.91
678.787	39429.9
679.135	39566.16
679.484	39183.35
679.832	39249.79
680.181	39066.74
680.529	39108.32
680.877	38992.39
681.225	39057.02
681.573	39297.24
681.922	38977.25
682.27	38903.36
682.618	38960.76
682.966	38889.12
683.314	38899.74
683.661	38844.83
684.009	38613.19
684.357	38514.89
684.705	38561.44
685.053	38590.14
685.4	38413.88
685.748	38250.94
686.095	38486.87
686.443	38195.58
686.79	38257.72
687.138	38076.48
687.485	38197.84
687.832	38084.62
688.18	38112.64
688.527	37920.33
688.874	37848.47
689.221	37798.98
689.568	37681.69
689.915	37449.16
690.262	37488.25
690.609	37435.6
690.956	37342.49
691.303	37167.36
691.65	37304.3
691.997	37214.81
692.344	36997.19
692.69	36939.34
693.037	37018.66
693.383	36645.11
693.73	36760.59
694.077	36693.92
694.423	36622.51
694.769	36490.09
695.116	36475.17
695.462	36430.88
695.808	36222.97
696.155	36283.09
696.501	36039.7
696.847	35993.83
697.193	35604.69
697.539	35912.25
697.885	35655.98
698.231	35428.64
698.577	35640.39
698.923	35488.98
699.269	35353.62
699.614	35226.62
699.96	35166.05
700.306	35280.85
700.651	34989.56
700.997	35084.92
701.342	34918.38
701.688	34733.52
702.033	34476.58
702.379	34738.49
702.724	34462.12
703.069	34700.75
703.415	34215.8
703.76	34423.7
704.105	34333.98
704.45	34267.77
704.795	34052.64
705.14	33983.48
705.485	33883.83
705.83	33769.93
706.175	33800.66
706.52	33685.41
706.865	33534.23
707.209	33660.56
707.554	33487
707.899	33487.23
708.243	33320.68
708.588	33288.59
708.932	33087.24
709.277	33008.82
709.621	33080.91
709.966	32857.64
710.31	32972.66
710.654	32524.09
710.998	32808.6
711.342	32765.89
711.687	32623.29
712.031	32562.05
712.375	32449.51
712.719	32374.26
713.063	32326.35
713.407	32503.52
713.75	32211.1
714.094	32143.08
714.438	31976.98
714.782	32184.66
715.125	32035.06
715.469	31999.36
715.812	31780.61
716.156	31715.97
716.499	31758.91
716.843	31682.53
717.186	31522.31
717.53	31521.18
717.873	31688.86
718.216	31607.5
718.559	31430.11
718.902	31242.09
719.246	31435.08
719.589	31219.49
719.932	31281.64
720.275	31161.86
720.617	31130
720.96	30927.97
721.303	31057.91
721.646	30993.06
721.989	30812.95
722.331	30972.26
722.674	30816.11
723.016	30798.71
723.359	30775.43
723.701	30694.08
724.044	30597.36
724.386	30445.5
724.729	30648.66
725.071	30492.05
725.413	30379.96
725.755	30582.22
726.097	30397.36
726.439	30143.36
726.782	30146.98
727.124	30317.14
727.465	30103.59
727.807	30137.03
728.149	29959.64
728.491	29983.82
728.833	30127.77
729.175	29918.51
729.516	29869.92
729.858	29825.63
730.199	29924.16
730.541	29718.51
730.882	29728.91
731.224	29873.76
731.565	29584.28
731.906	29613.88
732.248	29633.54
732.589	29426.32
732.93	29478.74
733.271	29332.31
733.612	29569.36
733.953	29418.41
734.294	29274
734.635	29134.57
734.976	29309.26
735.317	29169.6
735.658	29216.15
735.999	29126.66
736.339	29054.12
736.68	29176.83
737.021	28882.15
737.361	28851.64
737.702	28992.2
738.042	28852.32
738.383	28860
738.723	28980.45
739.063	28762.83
739.404	28729.61
739.744	28649.61
740.084	28655.94
740.424	28620.01
740.764	28661.82
741.104	28554.25
741.444	28423.63
741.784	28260.25
742.124	28497.53
742.464	28431.31
742.804	28249.85
743.143	28353.12
743.483	28300.02
743.823	28125.33
744.162	28085.79
744.502	28210.53
744.841	28029.74
745.181	28285.78
745.52	28061.38
745.86	28015.51
746.199	27946.58
746.538	27906.81
746.877	27948.62
747.216	28071.78
747.556	27919.24
747.895	27814.83
748.234	27826.36
748.573	27745.46
748.911	27692.8
749.25	27721.73
749.589	27561.28
749.928	27542.52
750.267	27517.67
750.605	27552.24
750.944	27519.7
751.283	27437.44
751.621	27486.25
751.96	27263.66
752.298	27333.49
752.636	27234.96
752.975	27137.56
753.313	27111.12
753.651	27093.04
753.989	26949.55
754.327	26966.27
754.666	26970.34
755.004	26802.88
755.342	26877.68
755.679	26772.83
756.017	26703
756.355	26776.89
756.693	26526.73
757.031	26616.67
757.368	26412.84
757.706	26427.3
758.044	26255.33
758.381	26344.14
758.719	26270.02
759.056	26276.57
759.394	26219.4
759.731	26028.44
760.068	25918.16
760.405	25915.9
760.743	25754.1
761.08	25853.98
761.417	25862.12
761.754	25680.2
762.091	25573.54
762.428	25547.32
762.765	25298.97
763.102	25556.59
763.438	25273.21
763.775	25251.06
764.112	25174.45
764.449	25157.05
764.785	25187.56
765.122	24944.17
765.458	24841.8
765.795	24898.53
766.131	24837.51
766.467	24766.1
766.804	24687.91
767.14	24496.05
767.476	24485.43
767.812	24293.12
768.148	24389.61
768.485	24273.46
768.821	24065.1
769.157	24084.76
769.492	24049.06
769.828	24003.41
770.164	23815.39
770.5	23820.81
770.836	23774.71
771.171	23664.21
771.507	23451.11
771.842	23359.13
772.178	23301.05
772.513	23332.69
772.849	23258.57
773.184	23162.3
773.519	23086.14
773.855	23004.56
774.19	22892.7
774.525	22819.26
774.86	22753.95
775.195	22771.8
775.53	22571.58
775.865	22472.38
776.2	22434.18
776.535	22279.61
776.87	22299.5
777.205	22117.36
777.539	22048.88
777.874	22078.26
778.209	21859.06
778.543	21736.35
778.878	21636.69
779.212	21726.41
779.547	21537.48
779.881	21550.82
780.215	21419.07
780.55	21520.99
780.884	21416.36
781.218	21270.15
781.552	21215.23
781.886	21096.82
782.22	21033.54
782.554	20966.2
782.888	20756.71
783.222	20787.45
783.556	20681.24
783.889	20600.33
784.223	20390.4
784.557	20462.48
784.89	20388.59
785.224	20345.2
785.557	20229.5
785.891	20165.77
786.224	20135.26
786.558	20120.57
786.891	19873.57
787.224	19850.07
787.557	19811.2
787.891	19753.58
788.224	19653.24
788.557	19725.55
788.89	19629.74
789.223	19606.46
789.556	19462.06
789.888	19387.26
790.221	19302.97
790.554	19180.03
790.887	19225.68
791.219	19124.67
791.552	19095.97
791.884	19006.7
792.217	18914.73
792.549	18854.39
792.882	18724.45
793.214	18636.54
793.546	18728.97
793.879	18595.42
794.211	18504.34
794.543	18517.22
794.875	18508.86
795.207	18393.16
795.539	18375.53
795.871	18363.33
796.203	18144.35
796.535	18083.56
796.867	18056.22
797.198	17971.48
797.53	17956.56
797.862	17824.36
798.193	17843.12
798.525	17804.25
798.856	17785.04
799.188	17537.59
799.519	17532.62
799.85	17445.84
800.182	17562
800.513	17557.93
800.844	17316.58
801.175	17468.89
801.506	17374.43
801.837	17338.27
802.168	17257.37
802.499	17140.99
802.83	17053.53
803.161	16953.42
803.491	17009.69
803.822	16863.03
804.153	16884.5
804.483	16739.42
804.814	16772.19
805.145	16669.59
805.475	16632.53
805.805	16554.34
806.136	16520.44
806.466	16595.92
806.796	16496.49
807.126	16297.85
807.457	16412.87
807.787	16366.77
808.117	16249.26
808.447	16287.23
808.777	16262.37
809.107	16105.99
809.436	16122.26
809.766	16111.64
810.096	16003.84
810.426	16006.33
810.755	15988.25
811.085	15889.27
811.414	15841.36
811.744	15791.87
812.073	15700.58
812.403	15713.91
812.732	15635.72
813.061	15682.5
813.39	15537.42
813.719	15535.16
814.049	15621.03
814.378	15589.62
814.707	15506.23
815.036	15510.75
815.365	15449.51
815.693	15216.07
816.022	15233.7
816.351	15186.69
816.68	15100.37
817.008	15187.37
817.337	15048.39
817.665	15013.36
817.994	14925.46
818.322	14956.41
818.651	14990.99
818.979	14857.89
819.307	15007.94
819.636	14899.69
819.964	14763.43
820.292	14821.05
820.62	14788.74
820.948	14764.33
821.276	14760.49
821.604	14671.68
821.932	14774.05
822.259	14746.48
822.587	14780.37
822.915	14750.54
823.243	14666.03
823.57	14593.49
823.898	14663.77
824.225	14603.43
824.553	14556.65
824.88	14666.7
825.207	14746.25
825.535	14678
825.862	14731.79
826.189	14621.96
826.516	14773.14
826.843	14711.22
827.17	14742.86
827.497	14727.72
827.824	14706.93
828.151	14615.41
828.478	14695.86
828.805	14728.85
829.131	14619.25
829.458	14657.89
829.785	14525.24
830.111	14573.37
830.438	14615.41
830.764	14698.79
831.09	14706.25
831.417	14572.24
831.743	14589.42
832.069	14594.39
832.395	14504.68
832.722	14485.92
833.048	14488.86
833.374	14491.57
833.7	14454.28
834.026	14407.73
834.351	14495.86
834.677	14368.86
835.003	14437.56
835.329	14475.75
835.654	14463.77
835.98	14392.36
836.306	14384.68
836.631	14297.67
836.956	14376.99
837.282	14406.37
837.607	14278.69
837.932	14299.48
838.258	14247.05
838.583	14254.51
838.908	14147.17
839.233	14119.83
839.558	14042.09
839.883	14019.26
840.208	14070.56
840.533	14028.3
840.858	14061.75
841.182	13989.66
841.507	14016.78
841.832	13848.42
842.156	13872.83
842.481	13870.34
842.805	13931.58
843.13	13818.14
843.454	13732.94
843.778	13756.45
844.103	13651.36
844.427	13702.89
844.751	13757.12
845.075	13600.07
845.399	13520.97
845.723	13575.21
846.047	13529.33
846.371	13400.75
846.695	13429.45
847.019	13309.68
847.343	13248.21
847.666	13235.78
847.99	13130.7
848.313	13203.92
848.637	13022
848.96	13053.41
849.284	13022
849.607	12958.5
849.931	12821.1
850.254	12776.81
850.577	12753.76
850.9	12591.73
851.223	12645.29
851.546	12544.27
851.869	12401
852.192	12565.97
852.515	12456.14
852.838	12449.36
853.161	12393.77
853.483	12313.55
853.806	12275.36
854.129	12215.02
854.451	12172.31
854.774	12162.36
855.096	12181.57
855.419	12162.14
855.741	12075.81
856.063	11918.98
856.385	11910.62
856.708	11900.22
857.03	11846.21
857.352	11877.63
857.674	11854.35
857.996	11743.39
858.318	11713.79
858.64	11718.53
858.961	11631.08
859.283	11603.28
859.605	11472.44
859.926	11620.68
860.248	11565.54
860.57	11540.91
860.891	11578.2
861.212	11441.93
861.534	11429.73
861.855	11432.21
862.176	11421.82
862.498	11340.69
862.819	11350.63
863.14	11423.17
863.461	11292.33
863.782	11356.96
864.103	11281.71
864.424	11188.6
864.745	11228.15
865.065	11194.25
865.386	11128.27
865.707	11126.46
866.027	11149.06
866.348	11097.08
866.668	11041.94
866.989	11175.05
867.309	11023.41
867.63	11084.43
867.95	11025.9
868.27	10911.32
868.59	10948.16
868.91	10883.98
869.23	10965.56
869.55	10901.15
869.87	10888.72
870.19	10874.04
870.51	10935.5
870.83	10873.58
871.15	10818.44
871.469	10825
871.789	10836.97
872.109	10787.94
872.428	10775.28
872.748	10742.51
873.067	10719.46
873.386	10737.09
873.706	10734.83
874.025	10701.61
874.344	10663.87
874.663	10596.53
874.982	10576.19
875.301	10570.32
875.62	10492.8
875.939	10456.42
876.258	10458.68
876.577	10558.56
876.896	10485.12
877.214	10511.33
877.533	10494.84
877.852	10508.62
878.17	10462.3
878.489	10424.56
878.807	10422.52
879.125	10378.91
879.444	10467.72
879.762	10401.28
880.08	10401.51
880.398	10322.86
880.716	10388.63
881.034	10374.84
881.352	10319.47
881.67	10262.07
881.988	10259.59
882.306	10160.83
882.624	10154.28
882.941	10149.08
883.259	10060.5
883.577	10123.55
883.894	10032.7
884.212	10054.4
884.529	10120.16
884.846	10009.88
885.164	10066.15
885.481	9996.09
885.798	9952.25
886.115	9923.33
886.432	9878.13
886.75	9877.45
887.067	9906.38
887.383	9857.79
887.7	9770.34
888.017	9776.66
888.334	9757
888.651	9702.99
888.967	9659.6
889.284	9653.73
889.6	9625.48
889.917	9562.21
890.233	9610.34
890.55	9504.13
890.866	9573.96
891.182	9504.35
891.498	9439.72
891.815	9373.74
892.131	9400.18
892.447	9371.93
892.763	9360.63
893.079	9304.36
893.395	9323.79
893.71	9295.55
894.026	9200.63
894.342	9215.32
894.657	9160.63
894.973	9194.08
895.289	9123.12
895.604	9155.21
895.92	9092.39
896.235	8998.61
896.55	9004.48
896.865	9027.98
897.181	8940.08
897.496	8977.36
897.811	8922.9
898.126	8930.36
898.441	8877.03
898.756	8823.47
899.071	8745.96
899.386	8790.02
899.7	8724.49
900.015	8620.54
900.33	8647.88
900.644	8638.61
900.959	8582.34
901.273	8609.24
901.588	8526.3
901.902	8443.59
902.216	8480.88
902.531	8393.2
902.845	8368.79
903.159	8373.99
903.473	8393.88
903.787	8303.03
904.101	8245.63
904.415	8258.51
904.729	8230.26
905.042	8186.42
905.356	8137.38
905.67	8143.71
905.984	8110.27
906.297	8076.14
906.611	8077.27
906.924	8016.94
907.237	7995.24
907.551	7958.41
907.864	7988.91
908.177	7927.45
908.491	7914.79
908.804	7873.44
909.117	7855.81
909.43	7733.1
909.743	7690.17
910.056	7714.12
910.368	7684.74
910.681	7656.72
910.994	7553.9
911.307	7635.48
911.619	7565.65
911.932	7510.96
912.244	7464.41
912.557	7515.25
912.869	7409.95
913.181	7447.91
913.494	7395.71
913.806	7291.98
914.118	7302.6
914.43	7258.31
914.742	7303.51
915.054	7261.93
915.366	7189.39
915.678	7162.27
915.99	7152.78
916.302	7065.32
916.613	7048.37
916.925	7015.83
917.236	7032.33
917.548	6988.04
917.859	6983.29
918.171	6913.01
918.482	6931.31
918.794	6847.93
919.105	6826.46
919.416	6814.26
919.727	6834.59
920.038	6757.31
920.349	6696.74
920.66	6730.87
920.971	6680.93
921.282	6609.29
921.593	6619.01
921.903	6542.85
922.214	6565.67
922.525	6553.92
922.835	6461.27
923.146	6425.57
923.456	6422.63
923.767	6410.88
924.077	6469.18
924.387	6343.31
924.697	6316.42
925.008	6325.91
925.318	6285.46
925.628	6262.41
925.938	6203.65
926.248	6151.9
926.558	6176.53
926.867	6125.69
927.177	6106.25
927.487	6115.52
927.796	6025.8
928.106	6084.33
928.416	5989.42
928.725	6006.14
929.034	5962.75
929.344	6015.41
929.653	5922.98
929.962	5869.87
930.271	5831.68
930.581	5825.36
930.89	5856.54
931.199	5739.93
931.508	5822.42
931.817	5749.65
932.125	5744.68
932.434	5721.4
932.743	5673.49
933.051	5613.38
933.36	5578.36
933.669	5564.57
933.977	5557.57
934.286	5556.66
934.594	5520.05
934.902	5485.03
935.21	5482.99
935.519	5460.62
935.827	5439.6
936.135	5425.82
936.443	5353.28
936.751	5369.32
937.059	5328.19
937.367	5308.98
937.674	5303.79
937.982	5300.85
938.29	5227.4
938.597	5227.4
938.905	5146.5
939.213	5206.61
939.52	5212.04
939.827	5192.15
940.135	5169.1
940.442	5115.54
940.749	5062.89
941.056	5063.57
941.363	5034.87
941.67	5015.43
941.977	4980.41
942.284	4936.79
942.591	4898.37
942.898	4868.54
943.205	4889.79
943.511	4926.85
943.818	4915.77
944.125	4856.57
944.431	4824.93
944.738	4820.18
945.044	4762.78
945.35	4766.63
945.657	4717.59
945.963	4712.39
946.269	4687.53
946.575	4668.1
946.881	4700.19
947.187	4634.43
947.493	4612.51
947.799	4604.14
948.105	4573.41
948.41	4522.56
948.716	4563.24
949.022	4518.5
949.327	4532.06
949.633	4461.78
949.938	4416.8
950.244	4437.14
950.549	4416.58
950.854	4432.85
951.16	4370.48
951.465	4327.54
951.77	4351.95
952.075	4305.62
952.38	4298.84
952.685	4288.22
952.99	4265.85
953.294	4291.84
953.599	4272.18
953.904	4165.29
954.209	4228.79
954.513	4147.21
954.818	4123.93
955.122	4133.87
955.426	4129.13
955.731	4079.41
956.035	4081.45
956.339	4017.49
956.643	4033.09
956.948	4062.46
957.252	4022.24
957.556	4018.85
957.86	3973.2
958.163	3944.95
958.467	3923.71
958.771	3961
959.075	3948.34
959.378	3913.32
959.682	3868.57
959.985	3859.31
960.289	3841.23
960.592	3810.04
960.896	3794.22
961.199	3800.1
961.502	3746.31
961.805	3728.46
962.108	3725.75
962.411	3739.53
962.714	3692.76
963.017	3650.72
963.32	3695.24
963.623	3673.32
963.926	3633.77
964.228	3615.7
964.531	3636.49
964.833	3635.81
965.136	3562.82
965.438	3554.45
965.741	3528.01
966.043	3549.03
966.345	3563.72
966.648	3483.95
966.95	3509.94
967.252	3489.15
967.554	3483.04
967.856	3451.41
968.158	3451.41
968.46	3400.11
968.761	3396.94
969.063	3377.28
969.365	3386.32
969.666	3390.84
969.968	3324.4
970.269	3348.36
970.571	3279.89
970.872	3313.1
971.174	3308.36
971.475	3310.62
971.776	3266.1
972.077	3250.51
972.378	3256.84
972.679	3203.05
972.98	3190.4
973.281	3238.3
973.582	3180.45
973.883	3194.24
974.183	3165.31
974.484	3148.36
974.785	3100
975.085	3127.12
975.386	3107.69
975.686	3131.41
975.986	3053.45
976.287	3077.86
976.587	3036.5
976.887	3031.53
977.187	3018.2
977.487	3008.03
977.787	3010.51
978.087	2964.64
978.387	2971.42
978.687	2928.48
978.987	2946.56
979.286	2902.04
979.586	2892.33
979.885	2906.79
980.185	2932.1
980.484	2839.22
980.784	2876.28
981.083	2866.56
981.382	2830.18
981.682	2801.25
981.981	2807.36
982.28	2761.03
982.579	2804.64
982.878	2779.33
983.177	2766.23
983.475	2764.64
983.774	2724.65
984.073	2726.45
984.372	2700.01
984.67	2683.74
984.969	2706.57
985.267	2680.58
985.566	2674.48
985.864	2624.08
986.162	2672.22
986.461	2631.99
986.759	2617.3
987.057	2592.9
987.355	2571.2
987.653	2601.26
987.951	2580.47
988.249	2577.31
988.547	2549.74
988.844	2529.4
989.142	2551.77
989.44	2513.58
989.737	2491.66
990.035	2526.01
990.332	2500.47
990.63	2456.18
990.927	2444.88
991.224	2469.96
991.521	2429.96
991.819	2400.59
992.116	2433.81
992.413	2413.92
992.71	2403.98
993.006	2377.99
993.303	2389.74
993.6	2381.83
993.897	2332.11
994.193	2362.85
994.49	2317.65
994.787	2334.83
995.083	2302.06
995.379	2268.16
995.676	2267.48
995.972	2247.82
996.268	2239.46
996.565	2263.19
996.861	2261.38
997.157	2235.85
997.453	2224.55
997.749	2225.9
998.044	2192.23
998.34	2159.69
998.636	2169.63
998.932	2182.97
999.227	2126.02
999.523	2134.6
999.818	2151.33
1000.114	2138.45
1000.409	2072.69
1000.704	2060.93
1001	2077.88
1001.295	2057.54
1001.59	2092.57
1001.885	2024.78
1002.18	2028.62
1002.475	2043.08
1002.77	2021.61
1003.065	2024.78
1003.359	1993.37
1003.654	1980.26
1003.949	1975.51
1004.243	1980.48
1004.538	1952.46
1004.832	1942.97
1005.127	1938.9
1005.421	1928.51
1005.715	1893.71
1006.009	1902.29
1006.304	1906.59
1006.598	1899.58
1006.892	1870.43
1007.186	1870.88
1007.48	1850.54
1007.773	1838.57
1008.067	1831.11
1008.361	1800.6
1008.655	1811.22
1008.948	1791.56
1009.242	1785.01
1009.535	1763.99
1009.829	1787.72
1010.122	1737.78
1010.415	1782.3
1010.708	1730.1
1011.001	1711.11
1011.295	1738.46
1011.588	1722.19
1011.881	1705.46
1012.173	1699.59
1012.466	1678.35
1012.759	1660.49
1013.052	1653.94
1013.344	1661.4
1013.637	1648.52
1013.93	1613.04
1014.222	1631.12
1014.514	1595.64
1014.807	1617.56
1015.099	1580.5
1015.391	1597.67
1015.683	1558.8
1015.976	1559.7
1016.268	1532.59
1016.56	1551.12
1016.851	1524
1017.143	1541.17
1017.435	1516.54
1017.727	1526.03
1018.018	1492.36
1018.31	1496.88
1018.602	1477.67
1018.893	1493.04
1019.185	1450.78
1019.476	1440.16
1019.767	1447.62
1020.058	1436.77
1020.35	1432.7
1020.641	1430.22
1020.932	1425.7
1021.223	1413.95
1021.514	1410.78
1021.804	1361.29
1022.095	1358.35
1022.386	1378.69
1022.677	1361.07
1022.967	1322.65
1023.258	1313.16
1023.548	1315.42
1023.839	1340.05
1024.129	1334.17
1024.419	1305.47
1024.709	1307.51
1025	1280.16
1025.29	1265.48
1025.58	1283.33
1025.87	1259.83
1026.16	1252.37
1026.449	1257.11
1026.739	1203.1
1027.029	1202.2
1027.319	1216.21
1027.608	1229.32
1027.898	1215.08
1028.187	1191.35
1028.477	1193.84
1028.766	1186.61
1029.055	1182.31
1029.344	1155.42
1029.634	1178.47
1029.923	1145.03
1030.212	1150.22
1030.501	1104.58
1030.79	1120.62
1031.078	1115.2
1031.367	1130.34
1031.656	1131.69
1031.945	1129.43
1032.233	1127.4
1032.522	1107.51
1032.81	1087.63
1033.099	1089.21
1033.387	1062.32
1033.675	1074.75
1033.963	1051.02
1034.251	1043.11
1034.54	1032.94
1034.828	1026.39
1035.116	1010.34
1035.403	1041.07
1035.691	1017.57
1035.979	1010.79
1036.267	1022.77
1036.554	988.42
1036.842	1012.37
1037.129	985.48
1037.417	987.52
1037.704	953.84
1037.992	971.7
1038.279	937.35
1038.566	938.25
1038.853	938.25
1039.14	938.25
