Data from hue_40_FLMS001491_14.txt Node
Date: Mon Feb 06 15:07:30 GMT 2017
User: dcchb
Spectrometer: FLMS00149
Trigger mode: 0
Integration Time (sec): 2.000000E-2
Scans to average: 10
Electric dark correction enabled: true
Nonlinearity correction enabled: false
Boxcar width: 0
XAxis mode: Wavelengths
Number of Pixels in Spectrum: 2048
>>>>>Begin Spectral Data<<<<<
341.393	-8.26
341.776	-8.26
342.16	-8.26
342.543	-47.13
342.927	-72.89
343.31	-61.82
343.693	-102.27
344.077	-59.11
344.46	-43.29
344.843	-51.88
345.226	-34.48
345.61	-40.35
345.993	-22.05
346.376	-1.48
346.759	-2.61
347.142	22.7
347.525	34.9
347.908	58.4
348.291	84.39
348.674	90.27
349.057	128.68
349.44	118.97
349.823	127.1
350.206	159.87
350.588	214.56
350.971	202.13
351.354	230.83
351.737	248
352.119	253.2
352.502	271.5
352.884	277.61
353.267	287.77
353.65	293.2
354.032	294.55
354.414	315.57
354.797	297.49
355.179	336.59
355.562	334.55
355.944	316.25
356.326	325.06
356.709	353.31
357.091	340.2
357.473	322.12
357.855	345.63
358.238	352.41
358.62	356.25
359.002	356.02
359.384	319.19
359.766	337.27
360.148	343.59
360.53	337.72
360.912	351.73
361.294	345.17
361.676	311.28
362.057	341.78
362.439	346.53
362.821	336.59
363.203	322.12
363.584	336.81
363.966	330.94
364.348	350.6
364.729	321.22
365.111	339.3
365.493	330.03
365.874	311.28
366.256	325.51
366.637	316.47
367.019	336.14
367.4	324.16
367.781	317.15
368.163	311.96
368.544	317.6
368.925	321.9
369.306	343.14
369.688	311.28
370.069	322.58
370.45	344.95
370.831	303.37
371.212	305.63
371.593	337.49
371.974	331.62
372.355	318.96
372.736	328.68
373.117	336.59
373.498	321.22
373.879	328.45
374.26	313.31
374.641	299.53
375.021	306.53
375.402	309.7
375.783	297.49
376.163	319.86
376.544	336.14
376.925	346.08
377.305	327.1
377.686	317.38
378.066	317.38
378.447	328.9
378.827	332.75
379.208	341.11
379.588	342.01
379.968	345.63
380.349	348.79
380.729	343.82
381.109	331.62
381.489	348.56
381.87	334.55
382.25	366.42
382.63	361.9
383.01	345.85
383.39	343.82
383.77	372.07
384.15	340.65
384.53	339.3
384.91	361.9
385.29	343.82
385.67	347.21
386.049	361.9
386.429	337.94
386.809	358.06
387.189	339.98
387.568	362.8
387.948	371.16
388.328	360.99
388.707	358.51
389.087	358.51
389.466	364.38
389.846	365.51
390.225	363.25
390.605	359.86
390.984	378.17
391.363	389.24
391.743	360.32
392.122	355.12
392.501	372.29
392.881	397.38
393.26	371.84
393.639	402.8
394.018	384.5
394.397	378.85
394.776	412.29
395.155	380.65
395.534	388.11
395.913	389.69
396.292	380.2
396.671	381.33
397.05	387.21
397.429	410.03
397.808	386.3
398.186	393.53
398.565	393.99
398.944	401.9
399.323	388.79
399.701	395.79
400.08	396.02
400.458	408.22
400.837	400.31
401.215	409.58
401.594	391.5
401.972	413.87
402.351	411.16
402.729	382.69
403.107	406.42
403.486	413.87
403.864	403.93
404.242	388.79
404.62	420.43
404.999	447.54
405.377	431.5
405.755	422.69
406.133	418.17
406.511	421.33
406.889	431.95
407.267	433.76
407.645	425.62
408.023	431.27
408.401	438.96
408.779	427.21
409.156	439.41
409.534	452.06
409.912	452.06
410.29	467.88
410.667	441.9
411.045	476.24
411.422	470.82
411.8	459.75
412.178	468.79
412.555	452.06
412.933	463.14
413.31	475.34
413.687	472.63
414.065	461.1
414.442	458.39
414.819	488.45
415.197	468.11
415.574	475.79
415.951	489.35
416.328	490.26
416.705	475.34
417.082	472.18
417.46	504.94
417.837	504.04
418.214	511.72
418.591	499.97
418.967	513.31
419.344	507.88
419.721	519.18
420.098	538.62
420.475	521.89
420.852	535.45
421.228	533.19
421.605	515.57
421.982	539.07
422.358	541.78
422.735	521.89
423.111	526.64
423.488	556.24
423.864	535.45
424.241	575
424.617	551.04
424.994	561.89
425.37	559.63
425.746	551.27
426.123	569.8
426.499	573.42
426.875	573.64
427.251	589.24
427.627	581.1
428.003	608.22
428.379	586.3
428.756	608.44
429.132	603.92
429.507	620.2
429.883	617.48
430.259	618.39
430.635	627.88
431.011	608.44
431.387	608.67
431.763	637.82
432.138	640.53
432.514	622.46
432.89	623.13
433.265	644.38
433.641	673.08
434.016	684.15
434.392	646.18
434.767	660.19
435.143	674.66
435.518	690.7
435.894	681.66
436.269	693.19
436.644	692.28
437.02	705.84
437.395	701.32
437.77	730.93
438.145	699.29
438.52	726.86
438.895	726.41
439.271	726.41
439.646	719.4
440.021	738.61
440.395	746.29
440.77	745.16
441.145	735.67
441.52	767.76
441.895	752.62
442.27	761.66
442.645	760.3
443.019	764.6
443.394	775.67
443.769	792.17
444.143	790.81
444.518	784.26
444.892	777.71
445.267	794.43
445.641	791.49
446.016	807.08
446.39	810.25
446.764	817.03
447.139	796.01
447.513	842.11
447.887	829.23
448.262	823.13
448.636	798.27
449.01	853.41
449.384	844.6
449.758	845.5
450.132	827.87
450.506	834.65
450.88	840.98
451.254	839.62
451.628	878.27
452.002	920.07
452.376	900.87
452.75	897.25
453.123	931.6
453.497	918.94
453.871	928.44
454.244	907.19
454.618	941.09
454.992	970.69
455.365	937.25
455.739	968.43
456.112	953.29
456.486	981.32
456.859	984.48
457.232	978.38
457.606	1006.85
457.979	996.91
458.352	1016.34
458.725	1038.26
459.099	1059.51
459.472	1069
459.845	1091.82
460.218	1087.08
460.591	1098.6
460.964	1095.66
461.337	1092.73
461.71	1124.14
462.083	1139.05
462.456	1131.82
462.829	1163.91
463.201	1189.9
463.574	1169.56
463.947	1169.56
464.32	1220.18
464.692	1211.59
465.065	1255.89
465.438	1254.08
465.81	1254.98
466.183	1293.85
466.555	1317.13
466.928	1320.06
467.3	1334.53
467.672	1361.19
468.045	1393.28
468.417	1388.54
468.789	1388.31
469.161	1385.6
469.534	1454.3
469.906	1477.35
470.278	1486.16
470.65	1525.26
471.022	1557.12
471.394	1556.89
471.766	1589.89
472.138	1638.7
472.51	1645.25
472.882	1680.96
473.253	1738.36
473.625	1769.09
473.997	1805.7
474.369	1844.57
474.74	1823.1
475.112	1863.1
475.484	1943.1
475.855	1968.18
476.227	2003.21
476.598	2073.49
476.97	2089.54
477.341	2163.21
477.713	2209.98
478.084	2218.8
478.455	2318
478.827	2348.96
479.198	2436.87
479.569	2487.04
479.94	2557.32
480.311	2593.25
480.682	2658.33
481.053	2752.34
481.424	2834.15
481.795	2874.6
482.166	2964.54
482.537	3046.8
482.908	3085.44
483.279	3160.24
483.65	3237.08
484.021	3328.82
484.391	3448.14
484.762	3501.25
485.133	3553.68
485.503	3654.24
485.874	3803.84
486.244	3860.34
486.615	3936.04
486.985	4030.05
487.356	4181.01
487.726	4258.07
488.097	4393.2
488.467	4438.85
488.837	4598.4
489.207	4671.84
489.578	4815.34
489.948	4864.38
490.318	4983.7
490.688	5058.72
491.058	5214.65
491.428	5302.11
491.798	5413.74
492.168	5542.78
492.538	5626.17
492.908	5776.9
493.278	5832.94
493.648	5943.9
494.017	6027.29
494.387	6157.45
494.757	6230.67
495.126	6367.62
495.496	6458.46
495.866	6527.61
496.235	6681.28
496.605	6719.7
496.974	6898.9
497.344	6979.58
497.713	7053.92
498.082	7132.79
498.452	7310.19
498.821	7365.1
499.19	7359.91
499.559	7559.45
499.928	7668.82
500.298	7677.19
500.667	7810.51
501.036	7939.1
501.405	7997.63
501.774	8025.2
502.143	8114.69
502.512	8219.09
502.88	8302.93
503.249	8385.42
503.618	8476.26
503.987	8526.88
504.356	8678.29
504.724	8720.77
505.093	8838.06
505.462	8818.85
505.83	8888.68
506.199	9026.53
506.567	9160.76
506.936	9158.05
507.304	9369.12
507.672	9372.73
508.041	9417.7
508.409	9530.24
508.777	9638.49
509.145	9725.04
509.514	9739.05
509.882	9860.63
510.25	9941.76
510.618	9978.14
510.986	9964.36
511.354	10146.72
511.722	10218.14
512.09	10377
512.458	10332.03
512.826	10444.57
513.193	10522.99
513.561	10553.95
513.929	10678.01
514.297	10768.63
514.664	10775.18
515.032	10923.2
515.4	10934.05
515.767	11060.15
516.135	11037.77
516.502	10979.92
516.869	11259.46
517.237	11314.15
517.604	11243.65
517.972	11367.71
518.339	11530.42
518.706	11486.35
519.073	11674.14
519.44	11687.7
519.808	11783.74
520.175	11796.85
520.542	11902.61
520.909	12050.86
521.276	12044.98
521.643	12146.22
522.009	12199.78
522.376	12266.22
522.743	12482.71
523.11	12499.88
523.477	12631.18
523.843	12633.66
524.21	12757.96
524.577	12814.45
524.943	12970.61
525.31	13004.28
525.676	13120.88
526.043	13212.18
526.409	13312.52
526.776	13390.03
527.142	13437.94
527.508	13412.18
527.874	13593.41
528.241	13646.07
528.607	13732.39
528.973	13857.36
529.339	13838.38
529.705	14029.56
530.071	14041.54
530.437	14175.77
530.803	14220.52
531.169	14375.31
531.535	14283.34
531.901	14283.11
532.267	14455.31
532.632	14586.16
532.998	14729.43
533.364	14685.81
533.73	14723.78
534.095	14917.45
534.461	14886.49
534.826	14952.25
535.192	15040.83
535.557	15183.65
535.923	15058.69
536.288	15279.92
536.653	15270.43
537.019	15350.66
537.384	15354.05
537.749	15360.82
538.114	15469.3
538.479	15564.66
538.845	15634.26
539.21	15567.83
539.575	15659.8
539.94	15814.6
540.305	15851.89
540.67	15858.21
541.034	15908.61
541.399	16127.13
541.764	16094.82
542.129	16129.84
542.494	16220.69
542.858	16228.15
543.223	16320.57
543.587	16385.43
543.952	16459.55
544.316	16483.28
544.681	16491.42
545.045	16683.95
545.41	16625.65
545.774	16714.24
546.138	16784.52
546.503	16945.64
546.867	16814.57
547.231	17016.6
547.595	17025.41
547.959	17106.54
548.324	17128.46
548.688	17184.28
549.052	17163.49
549.416	17194.68
549.779	17218.4
550.143	17295.69
550.507	17503.82
550.871	17576.13
551.235	17549.47
551.599	17669.92
551.962	17696.36
552.326	17771.38
552.689	17913.07
553.053	17887.31
553.417	17907.88
553.78	18113.97
554.143	18017.48
554.507	18119.4
554.87	18177.25
555.234	18319.39
555.597	18257.47
555.96	18353.06
556.323	18489.33
556.686	18437.81
557.05	18625.6
557.413	18666.95
557.776	18694.07
558.139	18856.78
558.502	18808.64
558.865	18822.88
559.228	18950.34
559.59	18989.66
559.953	19011.58
560.316	19183.78
560.679	19263.32
561.041	19344.45
561.404	19445.01
561.767	19512.13
562.129	19548.96
562.492	19654.72
562.854	19553.48
563.217	19699.47
563.579	19825.34
563.941	19946.69
564.304	20023.98
564.666	20146.01
565.028	20217.87
565.39	20253.13
565.753	20342.61
566.115	20401.14
566.477	20541.25
566.839	20556.85
567.201	20648.6
567.563	20740.12
567.925	20884.75
568.287	20809.72
568.648	20910.96
569.01	21070.51
569.372	21145.76
569.734	21099.88
570.095	21279.31
570.457	21366.77
570.819	21414.9
571.18	21437.28
571.542	21512.08
571.903	21646.99
572.265	21694.9
572.626	21742.13
572.987	21931.73
573.349	22032.51
573.71	22019.41
574.071	22117.26
574.432	22246.97
574.794	22384.14
575.155	22502.78
575.516	22559.51
575.877	22708.88
576.238	22730.57
576.599	22900.74
576.96	23006.5
577.32	23011.25
577.681	23133.95
578.042	23394.29
578.403	23420.05
578.763	23440.39
579.124	23665.24
579.485	23875.4
579.845	23932.8
580.206	23965.12
580.566	24088.05
580.927	24260.25
581.287	24475.39
581.648	24490.98
582.008	24796.06
582.368	24888.71
582.728	25031.76
583.089	25168.7
583.449	25291.86
583.809	25430.62
584.169	25668.12
584.529	25782.92
584.889	26109.02
585.249	26103.82
585.609	26176.59
585.969	26390.82
586.329	26525.73
586.688	26767.3
587.048	27016.56
587.408	27026.51
587.768	27208.65
588.127	27393.05
588.487	27473.95
588.846	27942.19
589.206	27955.97
589.565	28124.33
589.925	28351.67
590.284	28560.03
590.643	28839.79
591.003	28955.04
591.362	29199.33
591.721	29378.08
592.08	29492.66
592.44	29708.47
592.799	29922.02
593.158	30138.52
593.517	30410.6
593.876	30548.22
594.235	30724.94
594.593	30799.29
594.952	31093.74
595.311	31045.16
595.67	31275.89
596.029	31621.87
596.387	31771.01
596.746	32170.1
597.104	32064.11
597.463	32204.45
597.822	32609.86
598.18	32703.65
598.538	32690.31
598.897	32994.94
599.255	32990.64
599.613	33645.32
599.972	33409.62
600.33	33743.17
600.688	33660.91
601.046	34035.81
601.404	34179.77
601.762	34280.55
602.12	34639.41
602.478	34698.4
602.836	34838.05
603.194	34667.89
603.552	34932.29
603.91	34887.09
604.268	35319.85
604.625	35232.84
604.983	35545.15
605.341	35440.52
605.698	35746.05
606.056	35924.13
606.413	35919.61
606.771	36205.7
607.128	36370.22
607.485	36220.62
607.843	36424.68
608.2	36754.39
608.557	37013.59
608.914	36949.41
609.272	37134.94
609.629	37296.29
609.986	37598.43
610.343	37403.18
610.7	37778.31
611.057	37854.02
611.414	37898.54
611.771	37906.67
612.127	38022.38
612.484	38248.13
612.841	38428.02
613.198	38235.93
613.554	38412.42
613.911	38643.83
614.267	38590.27
614.624	38720.44
614.98	38871.39
615.337	39138.5
615.693	39153.19
616.05	39138.5
616.406	39283.81
616.762	39187.32
617.118	39421.89
617.475	39459.17
617.831	39647.87
618.187	39550.92
618.543	39823.01
618.899	40016.45
619.255	39953.4
619.611	39886.51
619.967	40156.56
620.323	40306.61
620.678	40063
621.034	40189.1
621.39	40192.26
621.746	40320.62
622.101	40691.01
622.457	40462.09
622.812	40629.31
623.168	40668.86
623.523	40675.87
623.879	40801.29
624.234	40542.54
624.589	40824.56
624.945	40877.67
625.3	40900.72
625.655	40819.82
626.01	41028.4
626.365	40937.33
626.72	41055.52
627.075	41125.57
627.43	41154.5
627.785	41016.87
628.14	41052.35
628.495	41121.96
628.85	41142.07
629.205	41087.38
629.559	41251.9
629.914	41199.24
630.269	41175.97
630.623	41123.09
630.978	41130.32
631.332	41337.77
631.687	41370.08
632.041	41094.84
632.396	41120.83
632.75	41055.74
633.104	41239.92
633.459	40964.67
633.813	41120.6
634.167	41115.4
634.521	41130.09
634.875	41114.95
635.229	41085.8
635.583	40951.11
635.937	40978.91
636.291	40874.5
636.645	40964.9
636.999	40895.52
637.352	41082.63
637.706	40822.75
638.06	40978
638.413	40962.64
638.767	40883.77
639.121	40935.97
639.474	40705.7
639.828	40743.66
640.181	40805.81
640.534	40872.92
640.888	40678.35
641.241	40620.27
641.594	40667.73
641.947	40730.55
642.301	40547.73
642.654	40664.11
643.007	40693.04
643.36	40667.5
643.713	40582.53
644.066	40675.41
644.419	40421.86
644.771	40291.24
645.124	39934.64
645.477	39854.64
645.83	39527.87
646.182	39450.14
646.535	39401.1
646.888	39352.28
647.24	39181.67
647.593	39509.12
647.945	39489.23
648.298	39091.5
648.65	38913.65
649.002	38907.78
649.355	39179.63
649.707	39048.34
650.059	39235
650.411	39816
650.763	39726.51
651.115	40246.72
651.467	40044.92
651.819	40051.48
652.171	39968.54
652.523	39901.65
652.875	39900.07
653.227	39848.54
653.578	40107.52
653.93	39900.07
654.282	39793.63
654.633	39744.82
654.985	39617.14
655.337	39667.76
655.688	39809.22
656.039	39924.25
656.391	39476.8
656.742	39680.64
657.094	39529
657.445	39854.87
657.796	39571.94
658.147	39473.41
658.498	39564.03
658.849	39615.55
659.2	39636.8
659.551	39435.9
659.902	39710.92
660.253	39458.95
660.604	39534.43
660.955	39329.01
661.306	39521.55
661.656	39360.87
662.007	39447.42
662.358	39433.41
662.708	39347.76
663.059	39369.23
663.409	39067.77
663.76	39500.3
664.11	39476.35
664.461	39488.55
664.811	39462.34
665.161	39447.88
665.511	39408.1
665.862	39463.47
666.212	39455.11
666.562	39381.89
666.912	39386.86
667.262	39415.79
667.612	39383.02
667.962	39403.13
668.312	39371.27
668.662	39482.9
669.011	39267.99
669.361	39297.6
669.711	39237.49
670.06	39119.52
670.41	39105.96
670.76	39012.41
671.109	39128.11
671.459	39238.16
671.808	39104.61
672.157	39198.62
672.507	38920.66
672.856	38791.85
673.205	38914.33
673.554	39086.75
673.904	38920.66
674.253	39075.68
674.602	39103.93
674.951	38399.09
675.3	38280.45
675.649	38911.62
675.998	38878.4
676.346	38973.54
676.695	38875.46
677.044	38710.49
677.393	38825.29
677.741	38897.83
678.09	38727.67
678.438	38631.85
678.787	38755.69
679.135	38775.35
679.484	38656.71
679.832	38701
680.181	38543.94
680.529	38396.38
680.877	38348.92
681.225	38406.09
681.573	38609.25
681.922	38262.6
682.27	38207
682.618	38196.61
682.966	38153.9
683.314	38294.46
683.661	38173.78
684.009	37935.15
684.357	38060.57
684.705	37913.45
685.053	37807.01
685.4	37856.96
685.748	37821.93
686.095	37581.03
686.443	37509.85
686.79	37395.05
687.138	37509.62
687.485	37459.9
687.832	37317.54
688.18	37261.94
688.527	37214.94
688.874	37056.75
689.221	37028.28
689.568	36944.66
689.915	36874.38
690.262	36850.2
690.609	36688.63
690.956	36595.97
691.303	36505.58
691.65	36530.66
691.997	36546.71
692.344	36260.84
692.69	36248.41
693.037	36273.27
693.383	35972.71
693.73	36065.14
694.077	35892.49
694.423	35871.92
694.769	35746.96
695.116	35829.44
695.462	35736.79
695.808	35650.23
696.155	35583.8
696.501	35451.82
696.847	35382.67
697.193	35083.92
697.539	35310.13
697.885	34905.4
698.231	34837.37
698.577	34966.86
698.923	34730.71
699.269	34656.14
699.614	34545.18
699.96	34475.35
700.306	34333.43
700.651	34317.39
700.997	34168.47
701.342	34155.36
701.688	34060.45
702.033	33952.2
702.379	33939.09
702.724	33994.01
703.069	33850.96
703.415	33565.77
703.76	33613.9
704.105	33554.24
704.45	33461.37
704.795	33199.23
705.14	33201.71
705.485	33232.22
705.83	33000.14
706.175	33075.16
706.52	32944.09
706.865	32918.56
707.209	32888.27
707.554	32757.2
707.899	32840.82
708.243	32692.12
708.588	32569.19
708.932	32491.9
709.277	32329.87
709.621	32457.32
709.966	32176.65
710.31	32317.44
710.654	31986.6
710.998	32104.57
711.342	32132.14
711.687	31853.95
712.031	31830.22
712.375	31703.9
712.719	31739.83
713.063	31781.86
713.407	31779.38
713.75	31566.73
714.094	31642.88
714.438	31428.2
714.782	31585.03
715.125	31330.57
715.469	31280.18
715.812	31203.8
716.156	31078.15
716.499	30994.09
716.843	31208.09
717.186	30847.88
717.53	31010.58
717.873	30909.34
718.216	30779.18
718.559	30771.04
718.902	30537.15
719.246	30733.08
719.589	30598.16
719.932	30424.84
720.275	30446.53
720.617	30297.16
720.96	30320.21
721.303	30185.97
721.646	30288.79
721.989	30086.54
722.331	30155.92
722.674	30135.8
723.016	30016.26
723.359	29929.93
723.701	30031.17
724.044	29776.94
724.386	29721.58
724.729	29889.26
725.071	29755.93
725.413	29778.75
725.755	29802.25
726.097	29641.35
726.439	29387.12
726.782	29560.9
727.124	29603.61
727.465	29315.71
727.807	29360.23
728.149	29249.05
728.491	29261.93
728.833	29369.5
729.175	29175.15
729.516	29218.77
729.858	29076.17
730.199	29034.59
730.541	29069.39
730.882	29014.48
731.224	29051.76
731.565	28741.72
731.906	28886.12
732.248	28876.18
732.589	28783.3
732.93	28559.57
733.271	28677.54
733.612	28639.57
733.953	28747.59
734.294	28517.32
734.635	28396.41
734.976	28586.92
735.317	28356.87
735.658	28483.19
735.999	28465.34
736.339	28334.95
736.68	28475.51
737.021	28305.57
737.361	28277.32
737.702	28237.55
738.042	28146.03
738.383	28124.33
738.723	28054.95
739.063	28010.21
739.404	28037.33
739.744	28017.22
740.084	27891.34
740.424	27850.89
740.764	27748.75
741.104	27869.2
741.444	27646.83
741.784	27487.51
742.124	27683.89
742.464	27612.71
742.804	27511.69
743.143	27457
743.483	27438.93
743.823	27320.28
744.162	27353.96
744.502	27466.27
744.841	27206.84
745.181	27327.06
745.52	27270.79
745.86	27219.5
746.199	27197.12
746.538	27049.11
746.877	27173.85
747.216	27108.31
747.556	26944.93
747.895	26949.67
748.234	26977.92
748.573	26973.4
748.911	26893.18
749.25	26758.72
749.589	26652.96
749.928	26692.5
750.267	26656.8
750.605	26650.25
750.944	26538.38
751.283	26358.5
751.621	26544.94
751.96	26297.03
752.298	26389.46
752.636	26356.69
752.975	26253.65
753.313	26152.18
753.651	26237.83
753.989	26081.45
754.327	25979.53
754.666	25846.88
755.004	25959.42
755.342	25903.6
755.679	25896.59
756.017	25747.22
756.355	25785.64
756.693	25644.17
757.031	25699.31
757.368	25481.01
757.706	25538.18
758.044	25440.33
758.381	25455.7
758.719	25348.58
759.056	25450.73
759.394	25264.07
759.731	25164.41
760.068	25134.13
760.405	25046.67
760.743	24921.48
761.08	24982.49
761.417	24926.45
761.754	24673.8
762.091	24776.4
762.428	24612.33
762.765	24498.89
763.102	24606.01
763.438	24334.15
763.775	24265.68
764.112	24274.49
764.449	24295.96
764.785	24108.39
765.122	24071.56
765.458	23927.61
765.795	23801.05
766.131	23785.91
766.467	23738.68
766.804	23553.83
767.14	23456.88
767.476	23474.51
767.812	23511.35
768.148	23387.73
768.485	23228.19
768.821	23102.32
769.157	23023.22
769.492	23071.58
769.828	22982.55
770.164	22885.82
770.5	22661.65
770.836	22728.77
771.171	22653.06
771.507	22712.95
771.842	22407.87
772.178	22409.45
772.513	22353.41
772.849	22311.38
773.184	22253.98
773.519	22168.1
773.855	21963.82
774.19	21999.52
774.525	21929.01
774.86	21922.46
775.195	21733.76
775.53	21745.52
775.865	21532.64
776.2	21507.33
776.535	21424.85
776.87	21352.08
777.205	21252.42
777.539	21125.87
777.874	21191.41
778.209	21064.63
778.543	21056.27
778.878	20875.26
779.212	20814.01
779.547	20734.47
779.881	20741.47
780.215	20555.72
780.55	20624.64
780.884	20397.75
781.218	20375.16
781.552	20304.2
781.886	20268.49
782.22	20218.1
782.554	20135.61
782.888	19977.88
783.222	19800.48
783.556	19868.05
783.889	19729.98
784.223	19721.84
784.557	19675.06
784.89	19625.12
785.224	19446.14
785.557	19431.23
785.891	19336.54
786.224	19219.25
786.558	19278.91
786.891	19024.68
787.224	18992.59
787.557	18950.79
787.891	18960.05
788.224	18944.91
788.557	18883.44
788.89	18705.6
789.223	18792.83
789.556	18715.76
789.888	18594.86
790.221	18532.49
790.554	18378.37
790.887	18413.17
791.219	18319.39
791.552	18300.63
791.884	18244.14
792.217	18125.72
792.549	18128.89
792.882	17979.51
793.214	17923.92
793.546	18010.92
793.879	17748.78
794.211	17706.3
794.543	17701.1
794.875	17665.62
795.207	17720.76
795.539	17536.13
795.871	17581.11
796.203	17426.99
796.535	17412.3
796.867	17253.88
797.198	17240.78
797.53	17268.8
797.862	17132.98
798.193	17160.78
798.525	16973.89
798.856	17055.02
799.188	16770.73
799.519	16867.23
799.85	16701.13
800.182	16740.22
800.513	16694.12
800.844	16514.47
801.175	16650.73
801.506	16567.12
801.837	16549.95
802.168	16515.82
802.499	16402.83
802.83	16296.17
803.161	16219.79
803.491	16238.77
803.822	16240.58
804.153	16149.73
804.483	16170.52
804.814	15922.62
805.145	15954.26
805.475	15938.66
805.805	15875.61
806.136	15916.74
806.466	15828.84
806.796	15756.97
807.126	15709.06
807.457	15659.57
807.787	15664.32
808.117	15649.4
808.447	15569.41
808.777	15561.27
809.107	15474.27
809.436	15431.78
809.766	15363.99
810.096	15374.84
810.426	15370.09
810.755	15290.54
811.085	15259.36
811.414	15266.14
811.744	15125.12
812.073	15098.68
812.403	15079.7
812.732	14935.75
813.061	14927.62
813.39	14860.73
813.719	14806.04
814.049	14928.29
814.378	14880.39
814.707	14692.82
815.036	14718.36
815.365	14712.03
815.693	14548.19
816.022	14572.82
816.351	14595.2
816.68	14356.11
817.008	14429.78
817.337	14381.64
817.665	14423.9
817.994	14363.79
818.322	14315.88
818.651	14247.86
818.979	14206.73
819.307	14310.01
819.636	14214.19
819.964	14091.03
820.292	14179.39
820.62	14070.92
820.948	14088.32
821.276	14145.04
821.604	14064.59
821.932	14051.48
822.259	14086.28
822.587	14030.69
822.915	14041.31
823.243	14077.02
823.57	13998.6
823.898	14113.17
824.225	14087.64
824.553	14014.42
824.88	13973.06
825.207	14096.9
825.535	13955.21
825.862	14041.09
826.189	13947.53
826.516	14039.05
826.843	14078.6
827.17	14194.53
827.497	14087.41
827.824	13959.51
828.151	14093.74
828.478	14033.18
828.805	14078.82
829.131	14065.04
829.458	14032.27
829.785	13958.6
830.111	13932.16
830.438	14077.24
830.764	14025.49
831.09	13973.97
831.417	13888.32
831.743	14014.19
832.069	13971.26
832.395	13935.78
832.722	13944.14
833.048	13924.93
833.374	13938.04
833.7	13851.71
834.026	13831.15
834.351	13840.86
834.677	13913.86
835.003	13806.06
835.329	13872.73
835.654	13883.58
835.98	13773.3
836.306	13714.77
836.631	13687.42
836.956	13774.2
837.282	13786.4
837.607	13581.89
837.932	13624.6
838.258	13615.79
838.583	13664.37
838.908	13532.4
839.233	13547.77
839.558	13531.95
839.883	13489.01
840.208	13478.84
840.533	13466.41
840.858	13352.29
841.182	13406.07
841.507	13345.28
841.832	13360.88
842.156	13311.61
842.481	13319.3
842.805	13273.87
843.13	13203.14
843.454	13273.2
843.778	13228.68
844.103	13122.47
844.427	13030.49
844.751	13120.88
845.075	13075.01
845.399	13108.23
845.723	12917.5
846.047	12974.67
846.371	12850.61
846.695	12853.55
847.019	12746.88
847.343	12739.42
847.666	12646.55
847.99	12667.56
848.313	12528.58
848.637	12493.33
848.96	12434.12
849.284	12442.26
849.607	12377.4
849.931	12386.44
850.254	12287.69
850.577	12202.72
850.9	12016.05
851.223	12122.94
851.546	12008.37
851.869	11993.68
852.192	11932.44
852.515	11870.97
852.838	11875.49
853.161	11834.82
853.483	11768.38
853.806	11718.89
854.129	11699.68
854.451	11621.49
854.774	11607.48
855.096	11540.81
855.419	11516.86
855.741	11503.53
856.063	11424.21
856.385	11495.39
856.708	11413.36
857.03	11302.63
857.352	11322.29
857.674	11281.38
857.996	11284.1
858.318	11176.98
858.64	11161.84
858.961	11094.72
859.283	11145.79
859.605	11090.43
859.926	11077.1
860.248	11009.07
860.57	10912.35
860.891	11027.38
861.212	10962.97
861.534	10912.81
861.855	10858.34
862.176	10925.24
862.498	10863.77
862.819	10883.88
863.14	10757.78
863.461	10857.44
863.782	10784.22
864.103	10810.66
864.424	10728.4
864.745	10732.02
865.065	10674.62
865.386	10646.82
865.707	10619.25
866.027	10662.87
866.348	10553.04
866.668	10660.61
866.989	10593.27
867.309	10466.94
867.63	10495.19
867.95	10558.47
868.27	10509.65
868.59	10540.84
868.91	10459.48
869.23	10405.93
869.55	10376.1
869.87	10455.64
870.19	10370.22
870.51	10435.98
870.83	10403.67
871.15	10316.66
871.469	10438.92
871.789	10396.44
872.109	10285.03
872.428	10250
872.748	10283.9
873.067	10264.69
873.386	10252.26
873.706	10273.95
874.025	10182.88
874.344	10176.78
874.663	10169.32
874.982	10156.22
875.301	10152.37
875.62	10123.22
875.939	10111.47
876.258	10133.84
876.577	10054.75
876.896	10052.49
877.214	10075.77
877.533	10034.41
877.852	10001.64
878.17	9937.69
878.489	10015.88
878.807	9941.53
879.125	9961.87
879.444	9980.85
879.762	9844.36
880.08	9843.46
880.398	9843.91
880.716	9918.48
881.034	9819.05
881.352	9767.07
881.67	9770.92
881.988	9818.6
882.306	9735.44
882.624	9716.45
882.941	9687.53
883.259	9637.81
883.577	9664.7
883.894	9598.72
884.212	9654.31
884.529	9523.92
884.846	9545.38
885.164	9515.1
885.481	9531.15
885.798	9524.82
886.115	9436.46
886.432	9445.5
886.75	9397.82
887.067	9417.25
887.383	9327.31
887.7	9394.65
888.017	9278.05
888.334	9309.68
888.651	9255.67
888.967	9268.56
889.284	9180.42
889.6	9149.91
889.917	9121.67
890.233	9141.1
890.55	9114.21
890.866	9136.81
891.182	9077.15
891.498	9006.19
891.815	9037.6
892.131	9003.25
892.447	8949.92
892.763	8887.77
893.079	8898.85
893.395	8895.01
893.71	8862.69
894.026	8836.25
894.342	8824.05
894.657	8766.87
894.973	8736.14
895.289	8688.23
895.604	8700.21
895.92	8615.01
896.235	8629.48
896.55	8610.95
896.865	8573.88
897.181	8601.91
897.496	8623.15
897.811	8532.53
898.126	8490.95
898.441	8464.51
898.756	8413.21
899.071	8427.67
899.386	8415.92
899.7	8312.42
900.015	8328.47
900.33	8302.48
900.644	8256.83
900.959	8316.04
901.273	8229.94
901.588	8170.28
901.902	8093.22
902.216	8096.84
902.531	8131.64
902.845	8072.2
903.159	7950.17
903.473	8013.67
903.787	7984.52
904.101	7868.82
904.415	7879.67
904.729	7853.68
905.042	7844.19
905.356	7791.98
905.67	7765.77
905.984	7756.28
906.297	7785.43
906.611	7651.42
906.924	7641.71
907.237	7759.89
907.551	7677.19
907.864	7620.92
908.177	7539.56
908.491	7539.56
908.804	7509.05
909.117	7441.94
909.43	7440.13
909.743	7403.52
910.056	7331.66
910.368	7353.58
910.681	7267.25
910.994	7257.31
911.307	7228.16
911.619	7199.68
911.932	7176.18
912.244	7165.11
912.557	7113.36
912.869	7070.87
913.181	7063.64
913.494	7062.51
913.806	7007.15
914.118	6917.66
914.43	6893.93
914.742	6942.74
915.054	6914.04
915.366	6864.33
915.678	6864.78
915.99	6783.65
916.302	6780.49
916.613	6737.32
916.925	6740.71
917.236	6719.24
917.548	6722.86
917.859	6699.81
918.171	6612.58
918.482	6567.84
918.794	6562.41
919.105	6562.41
919.416	6465.92
919.727	6506.14
920.038	6447.16
920.349	6418.24
920.66	6364.68
920.971	6410.78
921.282	6314.06
921.593	6304.34
921.903	6280.61
922.214	6311.12
922.525	6227.51
922.835	6229.77
923.146	6194.51
923.456	6141.86
923.767	6124.68
924.077	6157.45
924.387	6062.31
924.697	6095.08
925.008	6060.96
925.318	5959.26
925.628	5978.25
925.938	5976.89
926.248	5931.02
926.558	5917.01
926.867	5862.54
927.177	5891.24
927.487	5830.45
927.796	5759.27
928.106	5741.19
928.416	5731.7
928.725	5731.93
929.034	5709.55
929.344	5701.64
929.653	5685.15
929.962	5637.46
930.271	5611.93
930.581	5594.75
930.89	5581.42
931.199	5562.89
931.508	5536.9
931.817	5531.48
932.125	5458.49
932.434	5492.16
932.743	5449.45
933.051	5319.06
933.36	5381.88
933.669	5358.15
933.977	5323.35
934.286	5280.19
934.594	5307.76
934.902	5255.55
935.21	5228.21
935.519	5238.61
935.827	5229.79
936.135	5183.01
936.443	5133.75
936.751	5164.93
937.059	5142.79
937.367	5087.42
937.674	5077.93
937.982	5097.14
938.29	5030.02
938.597	5053.75
938.905	4981.21
939.213	4942.79
939.52	4873.42
939.827	4959.29
940.135	4870.03
940.442	4877.26
940.749	4831.38
941.056	4869.12
941.363	4796.13
941.67	4794.1
941.977	4757.04
942.284	4690.15
942.591	4722.69
942.898	4695.57
943.205	4697.38
943.511	4664.16
943.818	4655.8
944.125	4625.29
944.431	4649.24
944.738	4602.92
945.044	4556.36
945.35	4560.66
945.657	4479.3
945.963	4504.39
946.269	4493.09
946.575	4433.65
946.881	4481.34
947.187	4443.15
947.493	4446.54
947.799	4395.92
948.105	4397.95
948.41	4330.61
948.716	4366.09
949.022	4358.63
949.327	4293.32
949.633	4248.57
949.938	4208.8
950.244	4291.29
950.549	4213.77
950.854	4218.07
951.16	4213.32
951.465	4192.98
951.77	4161.57
952.075	4136.04
952.38	4138.52
952.685	4108.92
952.99	4103.72
953.294	4087.68
953.599	4082.25
953.904	3998.41
954.209	4006.55
954.513	3985.53
954.818	3981.92
955.122	3976.27
955.426	3930.39
955.731	3925.42
956.035	3920.22
956.339	3908.7
956.643	3884.97
956.948	3828.02
957.252	3849.94
957.556	3840.22
957.86	3799.55
958.163	3788.47
958.467	3764.52
958.771	3757.29
959.075	3757.06
959.378	3733.56
959.682	3745.31
959.985	3704.63
960.289	3672.32
960.592	3639.78
960.896	3640
961.199	3679.55
961.502	3661.7
961.805	3596.39
962.108	3599.55
962.411	3598.65
962.714	3591.87
963.017	3542.6
963.32	3514.81
963.623	3529.05
963.926	3491.98
964.228	3425.09
964.531	3447.69
964.833	3442.27
965.136	3418.54
965.438	3431.65
965.741	3393.23
966.043	3380.12
966.345	3363.4
966.648	3377.19
966.95	3372.44
967.252	3335.38
967.554	3331.99
967.856	3326.57
968.158	3298.77
968.46	3242.73
968.761	3259.67
969.063	3230.07
969.365	3245.66
969.666	3220.35
969.968	3196.62
970.269	3182.39
970.571	3219.45
970.872	3164.08
971.174	3126.8
971.475	3129.06
971.776	3146
972.077	3110.3
972.378	3131.09
972.679	3123.63
972.98	3096.51
973.281	3057.42
973.582	3044.54
973.883	3021.94
974.183	3024.2
974.484	3023.07
974.785	2943.3
975.085	2971.09
975.386	2927.03
975.686	2913.02
975.986	2953.92
976.287	2927.03
976.587	2910.76
976.887	2904.43
977.187	2899.91
977.487	2903.53
977.787	2843.87
978.087	2855.62
978.387	2865.56
978.687	2818.33
978.987	2812
979.286	2792.12
979.586	2809.74
979.885	2758.44
980.185	2747.6
980.484	2754.38
980.784	2732.91
981.083	2727.03
981.382	2689.75
981.682	2722.06
981.981	2683.64
982.28	2710.54
982.579	2672.12
982.878	2682.06
983.177	2655.85
983.475	2644.32
983.774	2630.09
984.073	2632.8
984.372	2605.68
984.67	2605.68
984.969	2607.49
985.267	2541.73
985.566	2557.55
985.864	2548.96
986.162	2549.18
986.461	2489.75
986.759	2558.9
987.057	2487.49
987.355	2500.15
987.653	2488.85
987.951	2467.83
988.249	2450.2
988.547	2453.82
988.844	2417.21
989.142	2441.84
989.44	2435.97
989.737	2400.49
990.035	2365.01
990.332	2361.62
990.63	2367.04
990.927	2357.33
991.224	2326.82
991.521	2311.45
991.819	2314.39
992.116	2273.26
992.413	2338.34
992.71	2277.33
993.006	2284.78
993.303	2273.49
993.6	2245.24
993.897	2237.78
994.193	2255.41
994.49	2255.63
994.787	2230.32
995.083	2194.17
995.379	2176.31
995.676	2165.24
995.972	2164.79
996.268	2179.48
996.565	2154.17
996.861	2120.5
997.157	2123.43
997.453	2151
997.749	2096.77
998.044	2084.56
998.34	2105.35
998.636	2088.41
998.932	2078.01
999.227	2063.77
999.523	2055.86
999.818	2054.51
1000.114	2040.72
1000.409	2007.28
1000.704	1986.04
1001	2000.5
1001.295	1984
1001.59	1963.21
1001.885	1945.58
1002.18	1938.58
1002.475	1921.4
1002.77	1948.52
1003.065	1904
1003.359	1915.98
1003.654	1909.2
1003.949	1894.74
1004.243	1875.08
1004.538	1874.85
1004.832	1874.4
1005.127	1875.53
1005.421	1829.43
1005.715	1849.09
1006.009	1840.5
1006.304	1807.96
1006.598	1834.17
1006.892	1796.89
1007.186	1782.88
1007.48	1765.02
1007.773	1792.82
1008.067	1788.75
1008.361	1781.52
1008.655	1712.82
1008.948	1716.89
1009.242	1704.23
1009.535	1739.04
1009.829	1689.09
1010.122	1672.37
1010.415	1673.95
1010.708	1661.3
1011.001	1664.24
1011.295	1633.05
1011.588	1654.74
1011.881	1619.27
1012.173	1629.89
1012.466	1585.82
1012.759	1605.71
1013.052	1591.92
1013.344	1567.74
1013.637	1596.67
1013.93	1556.67
1014.222	1603.22
1014.514	1564.8
1014.807	1566.39
1015.099	1540.85
1015.391	1528.19
1015.683	1537.23
1015.976	1483.9
1016.268	1508.08
1016.56	1521.64
1016.851	1462.66
1017.143	1487.74
1017.435	1463.11
1017.727	1493.62
1018.018	1473.28
1018.31	1439.84
1018.602	1426.5
1018.893	1431.7
1019.185	1399.84
1019.476	1394.41
1019.767	1403.45
1020.058	1392.15
1020.35	1378.59
1020.641	1380.63
1020.932	1357.13
1021.223	1363.9
1021.514	1340.63
1021.804	1320.29
1022.095	1311.02
1022.386	1326.17
1022.677	1311.02
1022.967	1297.92
1023.258	1313.51
1023.548	1294.08
1023.839	1290.69
1024.129	1259.95
1024.419	1250.24
1024.709	1273.96
1025	1237.81
1025.29	1254.76
1025.58	1236.9
1025.87	1230.35
1026.16	1239.16
1026.449	1204.59
1026.739	1189.22
1027.029	1183.57
1027.319	1191.71
1027.608	1188.09
1027.898	1175.44
1028.187	1165.49
1028.477	1146.74
1028.766	1130.46
1029.055	1150.58
1029.344	1143.12
1029.634	1120.52
1029.923	1099.05
1030.212	1123.69
1030.501	1103.57
1030.79	1087.53
1031.078	1081.65
1031.367	1081.2
1031.656	1091.6
1031.945	1086.17
1032.233	1050.69
1032.522	1054.31
1032.81	1058.83
1033.099	1026.96
1033.387	1051.37
1033.675	1002.33
1033.963	1024.03
1034.251	1041.43
1034.54	1003.46
1034.828	998.72
1035.116	1014.99
1035.403	995.78
1035.691	1005.27
1035.979	983.58
1036.267	998.94
1036.554	956.91
1036.842	977.93
1037.129	978.83
1037.417	933.41
1037.704	953.52
1037.992	948.32
1038.279	927.08
1038.566	939.51
1038.853	939.51
1039.14	939.51
