Data from hue_30_FLMS001491_77.txt Node
Date: Mon Feb 06 15:05:56 GMT 2017
User: dcchb
Spectrometer: FLMS00149
Trigger mode: 0
Integration Time (sec): 2.000000E-2
Scans to average: 10
Electric dark correction enabled: true
Nonlinearity correction enabled: false
Boxcar width: 0
XAxis mode: Wavelengths
Number of Pixels in Spectrum: 2048
>>>>>Begin Spectral Data<<<<<
341.393	-29
341.776	-29
342.16	-29
342.543	-61.54
342.927	-56.11
343.31	-74.64
343.693	-75.32
344.077	-73.52
344.46	-53.4
344.843	-57.7
345.226	-50.69
345.61	-29
345.993	-7.3
346.376	6.48
346.759	24.34
347.142	18.69
347.525	45.13
347.908	61.85
348.291	78.8
348.674	75.18
349.057	111.11
349.44	122.86
349.823	163.54
350.206	153.37
350.588	179.59
350.971	236.53
351.354	221.62
351.737	231.56
352.119	244.89
352.502	284.22
352.884	291.22
353.267	271.33
353.65	295.97
354.032	288.96
354.414	305.46
354.797	325.8
355.179	309.75
355.562	310.88
355.944	310.43
356.326	337.32
356.709	333.25
357.091	332.58
357.473	338.23
357.855	314.5
358.238	334.38
358.62	339.36
359.002	325.34
359.384	327.15
359.766	340.49
360.148	338.68
360.53	330.32
360.912	333.93
361.294	324.67
361.676	328.06
362.057	340.49
362.439	326.93
362.821	324.89
363.203	309.3
363.584	315.18
363.966	326.02
364.348	333.71
364.729	312.92
365.111	303.65
365.493	315.63
365.874	316.53
366.256	314.5
366.637	293.93
367.019	304.55
367.4	309.3
367.781	307.49
368.163	311.33
368.544	331.67
368.925	317.89
369.306	316.31
369.688	318.34
370.069	330.99
370.45	316.76
370.831	296.64
371.212	309.3
371.593	315.63
371.974	312.01
372.355	312.69
372.736	324.21
373.117	320.15
373.498	316.76
373.879	306.59
374.26	318.34
374.641	299.36
375.021	298
375.402	305.91
375.783	333.48
376.163	319.24
376.544	338.68
376.925	314.05
377.305	323.31
377.686	327.83
378.066	328.96
378.447	335.06
378.827	325.57
379.208	323.76
379.588	329.64
379.968	332.12
380.349	334.16
380.729	342.52
381.109	312.46
381.489	332.8
381.87	336.87
382.25	355.85
382.63	336.87
383.01	332.12
383.39	344.55
383.77	322.18
384.15	354.72
384.53	336.42
384.91	364.67
385.29	358.11
385.67	346.81
386.049	357.66
386.429	364.89
386.809	338.68
387.189	363.08
387.568	333.48
387.948	357.66
388.328	366.47
388.707	368.51
389.087	343.88
389.466	356.08
389.846	360.82
390.225	346.59
390.605	364.44
390.984	378.9
391.363	377.77
391.743	350.43
392.122	373.25
392.501	368.06
392.881	384.33
393.26	389.75
393.639	394.95
394.018	379.35
394.397	394.04
394.776	358.11
395.155	378.9
395.534	396.08
395.913	381.84
396.292	383.42
396.671	389.07
397.05	370.99
397.429	377.32
397.808	382.07
398.186	389.3
398.565	389.75
398.944	388.17
399.323	393.37
399.701	403.31
400.08	407.38
400.458	399.92
400.837	411.22
401.215	405.12
401.594	404.44
401.972	393.14
402.351	385.23
402.729	411.67
403.107	412.57
403.486	416.42
403.864	411.22
404.242	410.31
404.62	409.64
404.999	429.75
405.377	402.86
405.755	418
406.133	423.42
406.511	427.94
406.889	426.13
407.267	452.8
407.645	435.4
408.023	432.69
408.401	425.68
408.779	460.48
409.156	450.09
409.534	444.89
409.912	443.53
410.29	440.37
410.667	452.57
411.045	459.35
411.422	471.1
411.8	475.62
412.178	498.67
412.555	483.76
412.933	476.98
413.31	474.72
413.687	446.47
414.065	502.06
414.442	478.33
414.819	495.74
415.197	487.37
415.574	485.57
415.951	489.86
416.328	489.86
416.705	511.33
417.082	497.09
417.46	486.24
417.837	512.01
418.214	495.28
418.591	510.2
418.967	537.09
419.344	537.09
419.721	495.06
420.098	529.86
420.475	527.15
420.852	538.45
421.228	543.87
421.605	542.06
421.982	559.46
422.358	535.06
422.735	554.27
423.111	542.51
423.488	542.74
423.864	544.77
424.241	602.63
424.617	559.01
424.994	559.24
425.37	552.46
425.746	576.86
426.123	585.68
426.499	582.29
426.875	558.33
427.251	595.62
427.627	587.48
428.003	585.68
428.379	605.34
428.756	589.97
429.132	615.28
429.507	603.08
429.883	634.26
430.259	639.01
430.635	629.52
431.011	604.89
431.387	647.6
431.763	660.93
432.138	650.08
432.514	643.3
432.89	656.86
433.265	700.7
433.641	682.62
434.016	691.89
434.392	668.84
434.767	691.21
435.143	675.84
435.518	708.84
435.894	718.55
436.269	710.87
436.644	723.07
437.02	708.61
437.395	733.47
437.77	744.54
438.145	717.42
438.52	752.45
438.895	750.64
439.271	772.11
439.646	741.83
440.021	760.14
440.395	777.08
440.77	745.67
441.145	783.86
441.52	771.21
441.895	770.3
442.27	766.91
442.645	770.08
443.019	798.33
443.394	808.95
443.769	828.83
444.143	775.05
444.518	841.94
444.892	814.82
445.267	806.91
445.641	811.43
446.016	811.66
446.39	821.6
446.764	838.1
447.139	837.87
447.513	862.51
447.887	856.4
448.262	849.4
448.636	838.55
449.01	875.39
449.384	876.29
449.758	876.97
450.132	901.15
450.506	897.08
450.88	850.08
451.254	905.44
451.628	914.48
452.002	924.88
452.376	916.06
452.75	919.91
453.123	936.63
453.497	925.1
453.871	935.95
454.244	956.51
454.618	969.4
454.992	984.99
455.365	983.18
455.739	1006.46
456.112	1022.73
456.486	1018.66
456.859	1016.17
457.232	1017.08
457.606	1046.23
457.979	1064.08
458.352	1085.32
458.725	1065.44
459.099	1085.1
459.472	1110.41
459.845	1087.36
460.218	1124.42
460.591	1119
460.964	1140.01
461.337	1123.29
461.71	1151.76
462.083	1192.21
462.456	1197.41
462.829	1205.1
463.201	1240.57
463.574	1227.24
463.947	1249.39
464.32	1257.75
464.692	1269.95
465.065	1274.02
465.438	1293
465.81	1304.98
466.183	1312.21
466.555	1314.92
466.928	1358.54
467.3	1344.98
467.672	1382.49
468.045	1399.67
468.417	1444.19
468.789	1418.88
469.161	1491.42
469.534	1467.46
469.906	1467.91
470.278	1507.69
470.65	1543.62
471.022	1541.36
471.394	1595.59
471.766	1609.6
472.138	1645.31
472.51	1667
472.882	1651.86
473.253	1733.67
473.625	1743.84
473.997	1775.25
474.369	1796.04
474.74	1795.59
475.112	1842.59
475.484	1878.3
475.855	1933.89
476.227	1963.04
476.598	2015.7
476.97	2038.29
477.341	2061.12
477.713	2151.74
478.084	2143.15
478.455	2195.8
478.827	2218.63
479.198	2253.43
479.569	2318.06
479.94	2354.44
480.311	2419.07
480.682	2462.46
481.053	2502.46
481.424	2553.53
481.795	2626.53
482.166	2667.66
482.537	2683.93
482.908	2767.77
483.279	2839.85
483.65	2948.33
484.021	2951.94
484.391	2962.56
484.762	3052.73
485.133	3092.96
485.503	3171.15
485.874	3257.02
486.244	3313.97
486.615	3384.93
486.985	3412.5
487.356	3479.39
487.726	3499.5
488.097	3645.03
488.467	3633.28
488.837	3726.39
489.207	3835.31
489.578	3844.35
489.948	3898.36
490.318	3992.59
490.688	4017
491.058	4159.37
491.428	4183.1
491.798	4207.5
492.168	4368.18
492.538	4326.14
492.908	4445.24
493.278	4527.49
493.648	4486.14
494.017	4629.64
494.387	4656.76
494.757	4739.47
495.126	4774.27
495.496	4809.97
495.866	4898.78
496.235	4944.88
496.605	4999.57
496.974	5089.74
497.344	5121.38
497.713	5187.82
498.082	5179
498.452	5279.56
498.821	5298.55
499.19	5335.83
499.559	5434.81
499.928	5443.85
500.298	5507.81
500.667	5534.25
501.036	5574.25
501.405	5643.62
501.774	5657.86
502.143	5730.17
502.512	5763.62
502.88	5811.3
503.249	5801.58
503.618	5911.41
503.987	5937.85
504.356	5960.9
504.724	5971.3
505.093	6056.27
505.462	6083.84
505.83	6104.18
506.199	6178.75
506.567	6212.42
506.936	6225.53
507.304	6292.42
507.672	6383.04
508.041	6383.49
508.409	6387.11
508.777	6413.55
509.145	6517.27
509.514	6513.66
509.882	6533.99
510.25	6601.11
510.618	6634.33
510.986	6599.98
511.354	6712.3
511.722	6792.29
512.09	6844.72
512.458	6819.19
512.826	6833.2
513.193	6902.12
513.561	6870.94
513.929	6969.92
514.297	7008.78
514.664	7077.71
515.032	7117.03
515.4	7131.04
515.767	7138.72
516.135	7217.37
516.502	7162.23
516.869	7312.73
517.237	7340.08
517.604	7248.33
517.972	7296.91
518.339	7386.85
518.706	7381.66
519.073	7417.36
519.44	7453.52
519.808	7479.05
520.175	7494.87
520.542	7580.75
520.909	7620.52
521.276	7637.02
521.643	7711.37
522.009	7742.1
522.376	7777.13
522.743	7822.1
523.11	7848.31
523.477	7944.58
523.843	7972.38
524.21	8048.76
524.577	8111.13
524.943	8130.56
525.31	8153.39
525.676	8210.79
526.043	8301.41
526.409	8271.8
526.776	8397.67
527.142	8379.82
527.508	8398.35
527.874	8483.77
528.241	8514.51
528.607	8544.34
528.973	8608.74
529.339	8615.3
529.705	8660.72
530.071	8740.72
530.437	8748.85
530.803	8834.73
531.169	8911.11
531.535	8846.25
531.901	8894.61
532.267	9007.6
532.632	9039.69
532.998	9112.68
533.364	9111.1
533.73	9187.03
534.095	9204.89
534.461	9284.43
534.826	9300.02
535.192	9286.46
535.557	9340.02
535.923	9427.03
536.288	9422.73
536.653	9545.67
537.019	9469.96
537.384	9467.48
537.749	9592.45
538.114	9647.81
538.479	9613.24
538.845	9598.55
539.21	9683.97
539.575	9745.21
539.94	9796.73
540.305	9833.34
540.67	9797.41
541.034	9938.65
541.399	9951.08
541.764	9981.81
542.129	9956.05
542.494	10061.59
542.858	10041.02
543.223	10099.1
543.587	10234.46
543.952	10163.96
544.316	10247.8
544.681	10232.2
545.045	10238.98
545.41	10363.72
545.774	10388.36
546.138	10478.3
546.503	10476.04
546.867	10480.56
547.231	10535.47
547.595	10543.15
547.959	10704.28
548.324	10627.45
548.688	10674
549.052	10729.82
549.416	10839.42
549.779	10741.57
550.143	10805.97
550.507	10849.81
550.871	10953.09
551.235	10905.86
551.599	10994.89
551.962	10989.7
552.326	11073.31
552.689	11113.99
553.053	11106.76
553.417	11136.81
553.78	11298.62
554.143	11281.89
554.507	11323.47
554.87	11306.52
555.234	11447.31
555.597	11359.63
555.96	11383.81
556.323	11448.67
556.686	11453.19
557.05	11558.5
557.413	11549.68
557.776	11540.42
558.139	11663.8
558.502	11642.34
558.865	11764.82
559.228	11814.99
559.59	11824.48
559.953	11830.8
560.316	11975.66
560.679	11870.35
561.041	12019.27
561.404	11984.25
561.767	12050.23
562.129	11987.41
562.492	12194.64
562.854	12195.31
563.217	12162.1
563.579	12279.15
563.941	12361.86
564.304	12318.93
564.666	12371.36
565.028	12455.65
565.39	12424.91
565.753	12558.47
566.115	12558.02
566.477	12694.06
566.839	12613.38
567.201	12707.39
567.563	12794.85
567.925	12848.18
568.287	12855.18
568.648	12896.77
569.01	12929.98
569.372	13078.68
569.734	12973.83
570.095	13084.78
570.457	13192.8
570.819	13111.68
571.18	13218.56
571.542	13397.77
571.903	13360.48
572.265	13377.43
572.626	13503.98
572.987	13493.36
573.349	13662.85
573.71	13710.53
574.071	13790.3
574.432	13806.57
574.794	13990.52
575.155	14011.31
575.516	13955.04
575.877	14170.4
576.238	14228.03
576.599	14377.86
576.96	14360.91
577.32	14494.46
577.681	14639.09
578.042	14751.63
578.403	14771.07
578.763	14934.9
579.124	15057.84
579.485	15156.59
579.845	15287.21
580.206	15388.45
580.566	15583.02
580.927	15607.43
581.287	15844.94
581.648	15857.37
582.008	16163.8
582.368	16274.53
582.728	16554.52
583.089	16636.55
583.449	16832.03
583.809	17012.14
584.169	17359.92
584.529	17390.21
584.889	17840.82
585.249	17863.41
585.609	18125.33
585.969	18354.25
586.329	18631.98
586.688	18813.45
587.048	18968.47
587.408	19226.32
587.768	19492.3
588.127	19791.5
588.487	19946.07
588.846	20375.89
589.206	20380.64
589.565	20704.7
589.925	21105.59
590.284	21206.15
590.643	21522.53
591.003	21841.84
591.362	22101.95
591.721	22479.34
592.08	22628.94
592.44	22968.59
592.799	23259.88
593.158	23518.18
593.517	23786.42
593.876	24124.72
594.235	24232.96
594.593	24678.6
594.952	25018.25
595.311	25215.31
595.67	25456.66
596.029	25802.41
596.387	26222.52
596.746	26583.86
597.104	26749.06
597.463	27067.69
597.822	27414.35
598.18	27604.18
598.538	27721.69
598.897	28167.1
599.255	28189.7
599.613	28964.37
599.972	29089.79
600.33	29387.18
600.688	29498.14
601.046	29877.56
601.404	30144.22
601.762	30281.62
602.12	30782.4
602.478	30986.01
602.836	31256.73
603.194	31163.86
603.552	31599.1
603.91	31922.48
604.268	32250.38
604.625	32205.41
604.983	32602.01
605.341	32769.92
605.698	33195.89
606.056	33258.94
606.413	33489.9
606.771	33767.18
607.128	33983.22
607.485	34147.73
607.843	34351.12
608.2	34592.92
608.557	35078.56
608.914	35091.21
609.272	35321.71
609.629	35456.17
609.986	35919.66
610.343	35841.7
610.7	36280.56
611.057	36268.58
611.414	36480.33
611.771	36633.32
612.127	36949.24
612.484	36924.16
612.841	37348.55
613.198	37381.09
613.554	37407.31
613.911	37804.13
614.267	37948.08
614.624	37865.83
614.98	38217.23
615.337	38454.06
615.693	38528.86
616.05	38611.12
616.406	38806.59
616.762	38868.96
617.118	39132.91
617.475	39140.14
617.831	39367.26
618.187	39429.85
618.543	39692.22
618.899	39915.94
619.255	39926.34
619.611	40054.92
619.967	40388.7
620.323	40445.19
620.678	40361.81
621.034	40260.11
621.39	40371.07
621.746	40469.15
622.101	41111.62
622.457	40722.02
622.812	40818.97
623.168	41007.21
623.523	41166.08
623.879	41169.02
624.234	41135.8
624.589	41305.96
624.945	41209.69
625.3	41407.43
625.655	41262.57
626.01	41403.36
626.365	41603.36
626.72	41701.21
627.075	41693.75
627.43	41623.24
627.785	41729.23
628.14	41781.2
628.495	41898.26
628.85	41768.77
629.205	41799.73
629.559	42000.63
629.914	41880.18
630.269	41888.55
630.623	41853.97
630.978	41873.4
631.332	42100.97
631.687	42134.41
632.041	41986.17
632.396	42162.89
632.75	41981.42
633.104	42130.57
633.459	42018.94
633.813	42057.13
634.167	42044.02
634.521	42107.75
634.875	42155.66
635.229	42234.53
635.583	41879.73
635.937	41909.79
636.291	41904.82
636.645	42025.94
636.999	41922.22
637.352	41907.08
637.706	41819.85
638.06	42063.46
638.413	41899.39
638.767	41792.95
639.121	41750.92
639.474	41705.05
639.828	41732.62
640.181	41859.85
640.534	41944.14
640.888	41837.47
641.241	41645.39
641.594	41732.17
641.947	41851.03
642.301	41537.82
642.654	41715.22
643.007	41698.72
643.36	41666.63
643.713	41650.13
644.066	41778.72
644.419	41527.43
644.771	41297.83
645.124	40823.94
645.477	40898.52
645.83	40667.33
646.182	40594.79
646.535	40467.57
646.888	40574.23
647.24	40252.2
647.593	40508.69
647.945	40439.77
648.298	40186.67
648.65	40295.14
649.002	40220.79
649.355	40328.59
649.707	40207.01
650.059	40491.75
650.411	40807.9
650.763	40790.5
651.115	41228.9
651.467	41229.81
651.819	41161.11
652.171	41109.13
652.523	40999.98
652.875	41072.3
653.227	40861.23
653.578	41213.99
653.93	41148.9
654.282	40852.19
654.633	40846.09
654.985	40912.98
655.337	40887.67
655.688	40854.45
656.039	40963.15
656.391	40631.18
656.742	40712.08
657.094	40779.65
657.445	40893.54
657.796	40773.55
658.147	40777.16
658.498	40687.9
658.849	40771.06
659.2	40758.18
659.551	40630.5
659.902	40710.5
660.253	40752.3
660.604	40802.92
660.955	40598.64
661.306	40770.83
661.656	40694.9
662.007	40672.08
662.358	40695.58
662.708	40668.01
663.059	40582.82
663.409	40443.61
663.76	40761.12
664.11	40568.81
664.461	40764.73
664.811	40559.54
665.161	40750.95
665.511	40517.96
665.862	40562.03
666.212	40639.09
666.562	40642.02
666.912	40537.85
667.262	40575.81
667.612	40636.38
667.962	40636.83
668.312	40440.45
668.662	40623.95
669.011	40540.11
669.361	40496.27
669.711	40491.07
670.06	40441.8
670.41	40331.07
670.76	40283.16
671.109	40398.87
671.459	40473.22
671.808	40211.98
672.157	40356.38
672.507	40147.8
672.856	40111.64
673.205	40212.43
673.554	40336.5
673.904	40225.31
674.253	40381.69
674.602	40166.56
674.951	39763.18
675.3	39531.55
675.649	40126.11
675.998	40180.12
676.346	40223.96
676.695	40248.14
677.044	39858.32
677.393	40066.9
677.741	40153.9
678.09	39881.37
678.438	39860.8
678.787	39930.4
679.135	40011.08
679.484	39680.69
679.832	39886.56
680.181	39664.2
680.529	39623.07
680.877	39581.71
681.225	39578.55
681.573	39822.61
681.922	39378.78
682.27	39275.51
682.618	39377.43
682.966	39361.38
683.314	39307.37
683.661	39171.33
684.009	39105.12
684.357	38986.7
684.705	39068.05
685.053	39117.54
685.4	38966.14
685.748	38741.74
686.095	38876.87
686.443	38630.33
686.79	38739.48
687.138	38631.68
687.485	38594.85
687.832	38428.3
688.18	38606.37
688.527	38351.92
688.874	38273.27
689.221	38204.12
689.568	38023.11
689.915	38180.62
690.262	38137.46
690.609	38001.64
690.956	37759.84
691.303	37775.43
691.65	37629.45
691.997	37520.3
692.344	37425.84
692.69	37317.82
693.037	37466.06
693.383	37050.03
693.73	37339.96
694.077	37099.74
694.423	37009.35
694.769	36949.92
695.116	36807.55
695.462	36798.51
695.808	36670.83
696.155	36586.99
696.501	36420.44
696.847	36321.01
697.193	36232.65
697.539	36293.89
697.885	35988.59
698.231	35845.77
698.577	35897.97
698.923	35970.73
699.269	35652.33
699.614	35575.72
699.96	35488.26
700.306	35537.07
700.651	35262.51
700.997	35253.24
701.342	35168.5
701.688	35160.59
702.033	35085.33
702.379	34980.48
702.724	34873.59
703.069	34937.32
703.415	34604.22
703.76	34590.88
704.105	34576.2
704.45	34578.68
704.795	34249.65
705.14	34288.07
705.485	34178.47
705.83	34050.33
706.175	34106.38
706.52	34005.36
706.865	33835.65
707.209	33884.01
707.554	33783.9
707.899	33871.81
708.243	33480.86
708.588	33591.59
708.932	33419.62
709.277	33199.06
709.621	33313.86
709.966	33216.01
710.31	33249
710.654	32976.69
710.998	32977.14
711.342	32978.95
711.687	32820.54
712.031	32653.53
712.375	32595.91
712.719	32778.28
713.063	32569.92
713.407	32696.7
713.75	32492.41
714.094	32656.92
714.438	32183.72
714.782	32246.09
715.125	32139.88
715.469	32342.81
715.812	32087
716.156	31835.93
716.499	31912.31
716.843	31957.51
717.186	31731.07
717.53	31939.88
717.873	31964.29
718.216	31758.42
718.559	31586.9
718.902	31452.21
719.246	31501.47
719.589	31445.2
719.932	31231.2
720.275	31404.3
720.617	31332.66
720.96	31154.59
721.303	31172.44
721.646	31136.29
721.989	30990.07
722.331	31055.16
722.674	31056.06
723.016	30975.61
723.359	30898.33
723.701	31005.67
724.044	30714.15
724.386	30643.19
724.729	30762.28
725.071	30551.67
725.413	30612.68
725.755	30660.37
726.097	30534.04
726.439	30403.88
726.782	30224.67
727.124	30417.66
727.465	30299.47
727.807	30297.66
728.149	30173.37
728.491	30036.65
728.833	30132.24
729.175	30037.11
729.516	30058.57
729.858	29958.46
730.199	29942.19
730.541	29876.88
730.882	29807.73
731.224	29959.37
731.565	29813.38
731.906	29677.79
732.248	29671.92
732.589	29552.15
732.93	29516.89
733.271	29329.78
733.612	29605.7
733.953	29513.05
734.294	29317.35
734.635	29410.68
734.976	29249.1
735.317	29241.65
735.658	29295.88
735.999	29213.17
736.339	29077.81
736.68	29143.57
737.021	29173.4
737.361	29081.2
737.702	29077.81
738.042	28954.42
738.383	28921.2
738.723	28967.53
739.063	28911.71
739.404	28853.86
739.744	28814.76
740.084	28747.87
740.424	28802.56
740.764	28643.02
741.104	28773.41
741.444	28591.72
741.784	28543.81
742.124	28564.15
742.464	28390.37
742.804	28479.63
743.143	28167.55
743.483	28443.48
743.823	28209.81
744.162	28110.15
744.502	28205.52
744.841	28067.89
745.181	28144.27
745.52	28064.73
745.86	28075.8
746.199	28036.03
746.538	27994.22
746.877	28085.29
747.216	28014.79
747.556	27793.55
747.895	27887.11
748.234	27805.98
748.573	27829.25
748.911	27598.75
749.25	27647.56
749.589	27568.7
749.928	27638.07
750.267	27542.03
750.605	27504.29
750.944	27390.85
751.283	27349.04
751.621	27370.28
751.96	27322.15
752.298	27262.26
752.636	27235.37
752.975	27072.21
753.313	27134.58
753.651	27155.37
753.989	27002.38
754.327	26974.81
754.666	26759.23
755.004	26794.48
755.342	26854.82
755.679	26780.92
756.017	26644.43
756.355	26711.77
756.693	26730.07
757.031	26674.48
757.368	26354.72
757.706	26493.7
758.044	26217.55
758.381	26416.64
758.719	26235.85
759.056	26263.19
759.394	26202.4
759.731	26038.34
760.068	25936.42
760.405	25932.13
760.743	25854.16
761.08	25843.54
761.417	25724
761.754	25662.53
762.091	25615.53
762.428	25568.3
762.765	25404.46
763.102	25372.6
763.438	25418.24
763.775	25174.86
764.112	25184.8
764.449	25084.47
764.785	25039.05
765.122	24888.99
765.458	24839.28
765.795	24807.19
766.131	24754.98
766.467	24628.21
766.804	24557.7
767.14	24446.52
767.476	24467.76
767.812	24181.21
768.148	24332.4
768.485	24276.35
768.821	24061.22
769.157	24067.77
769.492	23972.63
769.828	23901.67
770.164	23772.19
770.5	23642.7
770.836	23674.56
771.171	23541.68
771.507	23536.94
771.842	23312.31
772.178	23317.73
772.513	23277.51
772.849	23258.53
773.184	23143.95
773.519	23024.86
773.855	23001.58
774.19	22803.62
774.525	22852.66
774.86	22958.2
775.195	22777.86
775.53	22642.05
775.865	22541.26
776.2	22337.42
776.535	22238.44
776.87	22279.8
777.205	22072.34
777.539	22070.08
777.874	22071.89
778.209	21964.55
778.543	21832.35
778.878	21713.48
779.212	21649.08
779.547	21473.72
779.881	21537.22
780.215	21430.55
780.55	21461.06
780.884	21321.18
781.218	21160.5
781.552	21275.08
781.886	21160.73
782.22	20985.82
782.554	20896.33
782.888	20751.25
783.222	20716.67
783.556	20562.1
783.889	20552.84
784.223	20425.16
784.557	20402.56
784.89	20351.94
785.224	20211.15
785.557	20063.13
785.891	20162.34
786.224	20058.39
786.558	20007.76
786.891	19897.26
787.224	19852.74
787.557	19646.42
787.891	19721.67
788.224	19746.08
788.557	19629.7
788.89	19547.44
789.223	19478.51
789.556	19332.3
789.888	19302.7
790.221	19270.61
790.554	19056.15
790.887	19120.33
791.219	19059.09
791.552	18992.2
791.884	18867.46
792.217	18805.31
792.549	18749.72
792.882	18697.06
793.214	18549.05
793.546	18678.08
793.879	18441.93
794.211	18411.65
794.543	18528.48
794.875	18374.59
795.207	18361.03
795.539	18312.44
795.871	18342.27
796.203	18120.13
796.535	18036.29
796.867	17920.14
797.198	17918.55
797.53	17894.37
797.862	17752.46
798.193	17853.02
798.525	17722.18
798.856	17700.71
799.188	17490.99
799.519	17521.28
799.85	17478.34
800.182	17446.02
800.513	17440.15
800.844	17236.99
801.175	17229.76
801.506	17309.53
801.837	17244.45
802.168	17155.41
802.499	17188.86
802.83	16984.57
803.161	17014.62
803.491	16948.41
803.822	16851.24
804.153	16822.76
804.483	16729.66
804.814	16640.17
805.145	16620.74
805.475	16606.27
805.805	16533.96
806.136	16505.26
806.466	16536.22
806.796	16421.19
807.126	16303.91
807.457	16281.08
807.787	16281.54
808.117	16220.29
808.447	16216.45
808.777	16167.41
809.107	16044.25
809.436	16053.29
809.766	15995.67
810.096	15908.44
810.426	15933.07
810.755	15959.06
811.085	15872.28
811.414	15795.67
811.744	15762
812.073	15769.68
812.403	15675.68
812.732	15604.72
813.061	15663.02
813.39	15529.92
813.719	15385.97
814.049	15552.51
814.378	15337.83
814.707	15394.33
815.036	15390.03
815.365	15283.37
815.693	15041.57
816.022	15159.76
816.351	15041.34
816.68	15056.03
817.008	14994.11
817.337	14935.58
817.665	14914.57
817.994	14915.02
818.322	14847.67
818.651	14877.05
818.979	14717.06
819.307	14904.62
819.636	14910.27
819.964	14687.68
820.292	14792.53
820.62	14687
820.948	14691.29
821.276	14762.48
821.604	14646.1
821.932	14679.77
822.259	14635.93
822.587	14611.07
822.915	14589.83
823.243	14698.3
823.57	14577.17
823.898	14601.35
824.225	14545.08
824.553	14610.39
824.88	14515.03
825.207	14685.42
825.535	14564.07
825.862	14557.06
826.189	14505.54
826.516	14647.91
826.843	14643.61
827.17	14618.53
827.497	14661.46
827.824	14499.21
828.151	14634.8
828.478	14553.22
828.805	14664.85
829.131	14560.9
829.458	14541.69
829.785	14431.64
830.111	14472.09
830.438	14597.29
830.764	14484.75
831.09	14539.21
831.417	14464.41
831.743	14573.56
832.069	14484.75
832.395	14409.95
832.722	14437.06
833.048	14382.15
833.374	14517.74
833.7	14421.25
834.026	14483.16
834.351	14474.8
834.677	14331.53
835.003	14397.74
835.329	14383.96
835.654	14418.53
835.98	14278.42
836.306	14380.12
836.631	14296.05
836.956	14356.39
837.282	14375.6
837.607	14200.46
837.932	14215.6
838.258	14159.56
838.583	14244.75
838.908	14047.47
839.233	14173.12
839.558	14000.47
839.883	14056.73
840.208	14017.87
840.533	14012.22
840.858	13989.84
841.182	14022.61
841.507	13886.8
841.832	13872.11
842.156	13856.51
842.481	13800.47
842.805	13815.16
843.13	13787.82
843.454	13737.42
843.778	13699.23
844.103	13670.98
844.427	13648.16
844.751	13650.19
845.075	13587.37
845.399	13503.98
845.723	13433.93
846.047	13550.99
846.371	13391.44
846.695	13417.88
847.019	13232.58
847.343	13188.74
847.666	13216.53
847.99	13092.69
848.313	13176.08
848.637	12969.98
848.96	13007.95
849.284	13001.62
849.607	12828.29
849.931	12861.29
850.254	12821.51
850.577	12623.78
850.9	12601.63
851.223	12556.44
851.546	12497.68
851.869	12519.37
852.192	12509.2
852.515	12289.1
852.838	12309.21
853.161	12353.95
853.483	12230.79
853.806	12210.23
854.129	12174.98
854.451	12105.83
854.774	12066.05
855.096	12022.66
855.419	11985.38
855.741	12023.12
856.063	11895.21
856.385	11835.78
856.708	11871.26
857.03	11780.41
857.352	11817.47
857.674	11740.19
857.996	11684.59
858.318	11639.4
858.64	11654.99
858.961	11538.38
859.283	11594.2
859.605	11485.28
859.926	11580.87
860.248	11545.39
860.57	11480.98
860.891	11429.46
861.212	11403.25
861.534	11401.21
861.855	11425.84
862.176	11344.49
862.498	11311.27
862.819	11323.7
863.14	11245.51
863.461	11265.85
863.782	11224.27
864.103	11227.88
864.424	11173.87
864.745	11231.05
865.065	11103.14
865.386	11067.43
865.707	11082.12
866.027	11090.71
866.348	10989.24
866.668	11090.26
866.989	10999.64
867.309	10888.91
867.63	10962.35
867.95	10915.57
868.27	10834.45
868.59	10950.6
868.91	10856.37
869.23	10906.99
869.55	10780.44
869.87	10857.27
870.19	10808.91
870.51	10852.53
870.83	10847.33
871.15	10718.52
871.469	10759.42
871.789	10744.28
872.109	10749.7
872.428	10678.97
872.748	10718.29
873.067	10666.77
873.386	10732.53
873.706	10607.33
874.025	10549.26
874.344	10651.63
874.663	10698.18
874.982	10617.73
875.301	10547.45
875.62	10552.65
875.939	10448.69
876.258	10430.84
876.577	10431.29
876.896	10434.68
877.214	10398.53
877.533	10408.7
877.852	10345.65
878.17	10299.55
878.489	10431.97
878.807	10313.1
879.125	10383.61
879.444	10264.74
879.762	10229.26
880.08	10277.63
880.398	10253.67
880.716	10254.58
881.034	10190.17
881.352	10132.32
881.67	10169.83
881.988	10138.87
882.306	10186.78
882.624	10110.62
882.941	10048.7
883.259	10120.57
883.577	9996.05
883.894	9943.4
884.212	10027.24
884.529	9985.88
884.846	9899.56
885.164	9897.3
885.481	9871.31
885.798	9893.23
886.115	9749.05
886.432	9823.63
886.75	9769.62
887.067	9799.9
887.383	9736.62
887.7	9756.73
888.017	9721.26
888.334	9757.41
888.651	9652.56
888.967	9636.74
889.284	9556.29
889.6	9566.46
889.917	9508.38
890.233	9486.23
890.55	9462.28
890.866	9490.08
891.182	9449.17
891.498	9446.01
891.815	9446.23
892.131	9355.16
892.447	9335.73
892.763	9316.97
893.079	9284.43
893.395	9292.34
893.71	9235.84
894.026	9221.83
894.342	9157.65
894.657	9105.68
894.973	9048.05
895.289	9009.64
895.604	9073.14
895.92	9001.05
896.235	8982.07
896.55	8897.32
896.865	8938.23
897.181	8945
897.496	8890.09
897.811	8889.64
898.126	8808.51
898.441	8744.33
898.756	8782.3
899.071	8708.17
899.386	8763.77
899.7	8640.38
900.015	8630.21
900.33	8554.96
900.644	8580.04
900.959	8599.03
901.273	8568.97
901.588	8411.69
901.902	8425.02
902.216	8452.59
902.531	8395.41
902.845	8358.35
903.159	8279.71
903.473	8267.96
903.787	8298.69
904.101	8152.71
904.415	8228.19
904.729	8158.36
905.042	8159.49
905.356	8095.54
905.67	8159.71
905.984	8095.31
906.297	8038.81
906.611	8005.82
906.924	7941.87
907.237	7974.63
907.551	7943.22
907.864	7912.72
908.177	7879.72
908.491	7834.75
908.804	7779.84
909.117	7738.48
909.43	7724.25
909.743	7680.63
910.056	7695.55
910.368	7647.86
910.681	7579.62
910.994	7598.15
911.307	7533.06
911.619	7495.33
911.932	7484.25
912.244	7426.17
912.557	7481.09
912.869	7410.13
913.181	7333.97
913.494	7320.87
913.806	7243.13
914.118	7242
914.43	7216.91
914.742	7206.52
915.054	7150.7
915.366	7123.13
915.678	7131.72
915.99	7114.77
916.302	7048.33
916.613	6996.36
916.925	6919.75
917.236	6938.73
917.548	6932.18
917.859	6954.32
918.171	6843.82
918.482	6806.53
918.794	6879.52
919.105	6795.23
919.416	6737.83
919.727	6756.14
920.038	6689.7
920.349	6689.02
920.66	6637.04
920.971	6612.64
921.282	6567.21
921.593	6584.84
921.903	6536.48
922.214	6510.04
922.525	6470.72
922.835	6454.9
923.146	6417.39
923.456	6393.89
923.767	6326.99
924.077	6373.1
924.387	6310.5
924.697	6272.76
925.008	6258.97
925.318	6223.72
925.628	6210.84
925.938	6184.63
926.248	6164.97
926.558	6095.36
926.867	6102.37
927.177	6065.08
927.487	6084.29
927.796	5961.81
928.106	6003.39
928.416	5995.7
928.725	5973.56
929.034	5916.61
929.344	5945.99
929.653	5906.21
929.962	5896.05
930.271	5825.09
930.581	5781.7
930.89	5745.54
931.199	5738.99
931.508	5761.36
931.817	5709.16
932.125	5737.86
932.434	5642.04
932.743	5635.49
933.051	5586
933.36	5573.57
933.669	5565.21
933.977	5512.33
934.286	5473.23
934.594	5473.91
934.902	5500.8
935.21	5435.04
935.519	5428.26
935.827	5379.9
936.135	5377.19
936.443	5328.38
936.751	5301.94
937.059	5326.34
937.367	5263.07
937.674	5306.68
937.982	5240.02
938.29	5247.48
938.597	5196.63
938.905	5172.22
939.213	5143.97
939.52	5128.61
939.827	5101.94
940.135	5087.25
940.442	5052.45
940.749	5044.99
941.056	4974.49
941.363	4949.18
941.67	5046.58
941.977	4930.87
942.284	4911.66
942.591	4914.15
942.898	4917.99
943.205	4904.43
943.511	4830.54
943.818	4805.68
944.125	4760.48
944.431	4749.18
944.738	4771.1
945.044	4713.93
945.35	4723.42
945.657	4678.45
945.963	4674.38
946.269	4687.72
946.575	4607.27
946.881	4633.48
947.187	4579.24
947.493	4592.13
947.799	4549.87
948.105	4576.08
948.41	4497.89
948.716	4519.58
949.022	4468.74
949.327	4464.67
949.633	4411.56
949.938	4391.45
950.244	4391.45
950.549	4390.32
950.854	4385.8
951.16	4346.71
951.465	4324.79
951.77	4319.14
952.075	4299.7
952.38	4293.83
952.685	4266.03
952.99	4241.4
953.294	4242.53
953.599	4156.66
953.904	4136.09
954.209	4134.06
954.513	4121.18
954.818	4085.92
955.122	4131.8
955.426	4107.62
955.731	4032.37
956.035	4006.6
956.339	4047.51
956.643	3999.15
956.948	3984.68
957.252	3982.42
957.556	3938.81
957.86	3925.02
958.163	3959.83
958.467	3916.21
958.771	3886.61
959.075	3894.97
959.378	3843.44
959.682	3848.64
959.985	3817.68
960.289	3835.53
960.592	3804.8
960.896	3788.98
961.199	3725.93
961.502	3729.32
961.805	3739.72
962.108	3688.65
962.411	3725.48
962.714	3683.67
963.017	3678.25
963.32	3640.96
963.623	3670.34
963.926	3658.82
964.228	3604.35
964.531	3559.84
964.833	3604.13
965.136	3553.51
965.438	3588.76
965.741	3496.33
966.043	3512.83
966.345	3505.6
966.648	3466.28
966.95	3491.81
967.252	3431.48
967.554	3414.53
967.856	3417.69
968.158	3342.89
968.46	3422.89
968.761	3391.03
969.063	3392.83
969.365	3363.68
969.666	3316.23
969.968	3303.12
970.269	3298.83
970.571	3285.49
970.872	3291.82
971.174	3226.06
971.475	3216.34
971.776	3240.52
972.077	3230.35
972.378	3194.87
972.679	3182.44
972.98	3192.39
973.281	3179.05
973.582	3205.27
973.883	3137.7
974.183	3141.09
974.484	3126.4
974.785	3091.15
975.085	3103.12
975.386	3101.99
975.686	3044.37
975.986	3033.3
976.287	3049.34
976.587	3012.73
976.887	3012.28
977.187	2997.14
977.487	2985.39
977.787	2954.2
978.087	2923.92
978.387	2917.37
978.687	2915.56
978.987	2904.26
979.286	2876.69
979.586	2874.66
979.885	2870.14
980.185	2875.79
980.484	2803.25
980.784	2855.67
981.083	2790.82
981.382	2786.97
981.682	2760.31
981.981	2760.31
982.28	2773.64
982.579	2740.65
982.878	2774.55
983.177	2714.21
983.475	2711.27
983.774	2738.39
984.073	2701.33
984.372	2691.38
984.67	2692.06
984.969	2648.45
985.267	2637.6
985.566	2619.52
985.864	2609.35
986.162	2608.67
986.461	2595.12
986.759	2590.37
987.057	2563.7
987.355	2572.29
987.653	2569.58
987.951	2533.87
988.249	2526.19
988.547	2545.85
988.844	2516.93
989.142	2535.46
989.44	2506.53
989.737	2492.07
990.035	2491.84
990.332	2446.19
990.63	2453.65
990.927	2408.23
991.224	2389.02
991.521	2434.44
991.819	2392.41
992.116	2387.21
992.413	2376.36
992.71	2337.72
993.006	2360.32
993.303	2337.27
993.6	2347.89
993.897	2356.93
994.193	2300.21
994.49	2316.48
994.787	2304.73
995.083	2255.24
995.379	2269.7
995.676	2228.57
995.972	2248.68
996.268	2238.74
996.565	2219.98
996.861	2182.92
997.157	2211.62
997.453	2189.93
997.749	2204.17
998.044	2202.81
998.34	2183.15
998.636	2159.19
998.932	2129.59
999.227	2131.62
999.523	2109.25
999.818	2114.68
1000.114	2092.08
1000.409	2061.34
1000.704	2058.86
1001	2038.29
1001.295	2046.88
1001.59	2017.96
1001.885	2033.32
1002.18	2030.16
1002.475	2007.11
1002.77	2000.78
1003.065	1972.53
1003.359	1983.61
1003.654	1976.6
1003.949	1942.48
1004.243	1949.48
1004.538	1933.89
1004.832	1938.18
1005.127	1940.22
1005.421	1908.81
1005.715	1887.56
1006.009	1894.12
1006.304	1849.6
1006.598	1831.29
1006.892	1848.69
1007.186	1828.13
1007.48	1820.67
1007.773	1803.95
1008.067	1833.1
1008.361	1780.45
1008.655	1790.39
1008.948	1745.65
1009.242	1769.15
1009.535	1754.46
1009.829	1754.23
1010.122	1730.96
1010.415	1752.65
1010.708	1729.15
1011.001	1725.99
1011.295	1696.16
1011.588	1691.18
1011.881	1698.87
1012.173	1654.8
1012.466	1641.24
1012.759	1655.25
1013.052	1634.69
1013.344	1616.16
1013.637	1625.65
1013.93	1605.31
1014.222	1618.19
1014.514	1597.85
1014.807	1595.59
1015.099	1558.53
1015.391	1564.18
1015.683	1573.45
1015.976	1549.72
1016.268	1542.26
1016.56	1533.45
1016.851	1502.49
1017.143	1508.14
1017.435	1495.71
1017.727	1503.39
1018.018	1487.12
1018.31	1482.15
1018.602	1459.33
1018.893	1458.42
1019.185	1427.24
1019.476	1432.21
1019.767	1440.8
1020.058	1417.75
1020.35	1412.1
1020.641	1413.23
1020.932	1386.11
1021.223	1383.4
1021.514	1385.43
1021.804	1363.51
1022.095	1350.18
1022.386	1362.61
1022.677	1335.94
1022.967	1341.36
1023.258	1344.07
1023.548	1332.32
1023.839	1312.89
1024.129	1310.4
1024.419	1309.73
1024.709	1289.61
1025	1289.84
1025.29	1283.06
1025.58	1249.61
1025.87	1266.56
1026.16	1213.23
1026.449	1226.34
1026.739	1241.48
1027.029	1202.38
1027.319	1201.93
1027.608	1234.25
1027.898	1151.99
1028.187	1174.81
1028.477	1189.5
1028.766	1180.01
1029.055	1170.75
1029.344	1148.83
1029.634	1126
1029.923	1138.66
1030.212	1170.29
1030.501	1126.68
1030.79	1123.29
1031.078	1102.73
1031.367	1092.78
1031.656	1098.43
1031.945	1087.81
1032.233	1102.27
1032.522	1086
1032.81	1047.59
1033.099	1050.3
1033.387	1066.79
1033.675	1046
1033.963	1069.51
1034.251	1037.19
1034.54	1038.77
1034.828	1021.15
1035.116	1027.47
1035.403	1007.59
1035.691	1008.49
1035.979	988.83
1036.267	971.43
1036.554	982.5
1036.842	994.25
1037.129	987.25
1037.417	935.95
1037.704	961.49
1037.992	950.19
1038.279	965.1
1038.566	911.77
1038.853	911.77
1039.14	911.77
