Data from hue_260_FLMS001491_00039.txt Node
Date: Tue Feb 07 15:58:55 GMT 2017
User: dcchb
Spectrometer: FLMS00149
Trigger mode: 0
Integration Time (sec): 2.000000E-2
Scans to average: 10
Electric dark correction enabled: true
Nonlinearity correction enabled: false
Boxcar width: 0
XAxis mode: Wavelengths
Number of Pixels in Spectrum: 2048
>>>>>Begin Spectral Data<<<<<
341.393	-6.86
341.776	-6.86
342.16	-6.86
342.543	-70.59
342.927	-85.28
343.31	-74.43
343.693	-66.3
344.077	-68.78
344.46	-69.91
344.843	-58.61
345.226	-39.18
345.61	-46.86
345.993	-20.42
346.376	-5.51
346.759	16.86
347.142	26.58
347.525	47.6
347.908	62.29
348.291	83.3
348.674	100.03
349.057	113.36
349.44	106.35
349.823	153.58
350.206	171.89
350.588	188.38
350.971	224.54
351.354	208.5
351.737	225.22
352.119	237.42
352.502	264.54
352.884	253.92
353.267	273.35
353.65	294.37
354.032	286.46
354.414	290.3
354.797	304.31
355.179	343.86
355.562	319.45
355.944	318.32
356.326	323.3
356.709	343.18
357.091	299.12
357.473	338.89
357.855	344.76
358.238	324.65
358.62	314.71
359.002	327.36
359.384	319.91
359.766	333.92
360.148	350.87
360.53	324.65
360.912	320.36
361.294	324.2
361.676	330.08
362.057	328.95
362.439	337.08
362.821	336.4
363.203	318.55
363.584	329.85
363.966	312.45
364.348	316.74
364.729	311.09
365.111	317.42
365.493	306.57
365.874	316.52
366.256	306.12
366.637	302.05
367.019	320.58
367.4	318.32
367.781	311.09
368.163	325.1
368.544	303.64
368.925	317.42
369.306	308.61
369.688	307.25
370.069	322.62
370.45	317.65
370.831	283.07
371.212	296.86
371.593	284.2
371.974	310.87
372.355	303.18
372.736	321.71
373.117	316.07
373.498	314.94
373.879	319.23
374.26	318.55
374.641	313.13
375.021	310.87
375.402	337.99
375.783	312.68
376.163	332.11
376.544	323.07
376.925	330.08
377.305	323.52
377.686	317.87
378.066	312.22
378.447	317.42
378.827	320.36
379.208	323.3
379.588	328.95
379.968	323.97
380.349	321.94
380.729	321.71
381.109	328.95
381.489	336.4
381.87	330.3
382.25	347.7
382.63	329.17
383.01	334.82
383.39	326.46
383.77	328.04
384.15	323.52
384.53	342.96
384.91	347.93
385.29	378.44
385.67	336.63
386.049	382.5
386.429	350.87
386.809	359.91
387.189	340.47
387.568	349.96
387.948	359.91
388.328	338.89
388.707	374.14
389.087	357.42
389.466	341.15
389.846	356.06
390.225	329.85
390.605	353.13
390.984	334.37
391.363	372.79
391.743	370.08
392.122	357.65
392.501	360.58
392.881	387.02
393.26	364.65
393.639	364.88
394.018	375.5
394.397	349.96
394.776	376.85
395.155	394.26
395.534	387.25
395.913	404.42
396.292	388.61
396.671	386.57
397.05	396.51
397.429	376.18
397.808	372.33
398.186	387.25
398.565	392.67
398.944	402.84
399.323	401.71
399.701	407.59
400.08	413.69
400.458	410.07
400.837	412.11
401.215	399.68
401.594	423.18
401.972	423.18
402.351	415.05
402.729	418.66
403.107	437.19
403.486	429.06
403.864	429.06
404.242	436.06
404.62	424.08
404.999	417.76
405.377	436.29
405.755	448.49
406.133	441.26
406.511	481.03
406.889	473.35
407.267	450.75
407.645	473.12
408.023	471.32
408.401	463.18
408.779	463.86
409.156	474.48
409.534	474.03
409.912	496.63
410.29	498.66
410.667	507.02
411.045	491.2
411.422	495.27
411.8	520.13
412.178	532.33
412.555	532.56
412.933	538.66
413.31	538.21
413.687	550.18
414.065	557.19
414.442	578.43
414.819	567.58
415.197	577.98
415.574	559
415.951	598.54
416.328	609.84
416.705	593.57
417.082	603.52
417.46	625.89
417.837	605.1
418.214	631.99
418.591	641.93
418.967	628.6
419.344	656.17
419.721	648.71
420.098	700.91
420.475	668.82
420.852	700.69
421.228	694.13
421.605	684.64
421.982	701.37
422.358	714.47
422.735	741.59
423.111	748.6
423.488	735.26
423.864	769.61
424.241	754.92
424.617	779.33
424.994	796.05
425.37	794.92
425.746	815.04
426.123	810.97
426.499	809.39
426.875	819.1
427.251	858.65
427.627	858.42
428.003	878.99
428.379	888.03
428.756	897.52
429.132	897.97
429.507	905.65
429.883	929.61
430.259	913.11
430.635	944.52
431.011	954.01
431.387	985.88
431.763	991.98
432.138	996.05
432.514	986.56
432.89	1024.75
433.265	1031.53
433.641	1024.75
434.016	1040.34
434.392	1085.99
434.767	1110.85
435.143	1093.67
435.518	1130.51
435.894	1168.92
436.269	1160.79
436.644	1172.77
437.02	1199.21
437.395	1216.61
437.77	1241.46
438.145	1209.83
438.52	1234.91
438.895	1255.93
439.271	1259.09
439.646	1301.12
440.021	1335.47
440.395	1316.49
440.77	1346.09
441.145	1354.23
441.52	1374.12
441.895	1360.56
442.27	1363.72
442.645	1413.44
443.019	1400.33
443.394	1414.57
443.769	1458.18
444.143	1413.44
444.518	1438.75
444.892	1447.33
445.267	1467.9
445.641	1478.07
446.016	1508.58
446.39	1502.93
446.764	1515.58
447.139	1516.26
447.513	1531.17
447.887	1516.03
448.262	1559.2
448.636	1561
449.01	1596.48
449.384	1591.96
449.758	1616.37
450.132	1624.73
450.506	1630.61
450.88	1634.22
451.254	1625.64
451.628	1686.88
452.002	1695.24
452.376	1688.46
452.75	1704.5
453.123	1714.67
453.497	1766.42
453.871	1770.72
454.244	1783.15
454.618	1792.64
454.992	1821.79
455.365	1801.45
455.739	1850.04
456.112	1908.57
456.486	1885.52
456.859	1938.4
457.232	1938.85
457.606	1908.34
457.979	1946.76
458.352	1999.18
458.725	1969.35
459.099	2003.25
459.472	2037.38
459.845	2062.46
460.218	2096.58
460.591	2113.31
460.964	2105.17
461.337	2169.8
461.71	2158.73
462.083	2217.94
462.456	2205.28
462.829	2237.6
463.201	2250.7
463.574	2267.65
463.947	2300.42
464.32	2346.07
464.692	2334.77
465.065	2382.9
465.438	2417.93
465.81	2438.95
466.183	2440.76
466.555	2504.93
466.928	2483.01
467.3	2539.96
467.672	2521.66
468.045	2588.77
468.417	2593.07
468.789	2617.7
469.161	2665.83
469.534	2711.26
469.906	2736.34
470.278	2726.85
470.65	2756.68
471.022	2802.78
471.394	2855.21
471.766	2868.09
472.138	2906.51
472.51	2982.89
472.882	2970.46
473.253	3005.71
473.625	3023.56
473.997	3101.08
474.369	3137.46
474.74	3130.91
475.112	3230.34
475.484	3264.69
475.855	3319.6
476.227	3291.58
476.598	3388.98
476.97	3410.22
477.341	3481.18
477.713	3487.06
478.084	3555.75
478.455	3655.86
478.827	3603.21
479.198	3754.39
479.569	3748.07
479.94	3807.95
480.311	3830.55
480.682	3935.86
481.053	3999.13
481.424	4038.91
481.795	4012.01
482.166	4134.5
482.537	4149.18
482.908	4203.42
483.279	4241.61
483.65	4353.02
484.021	4414.94
484.391	4503.98
484.762	4460.36
485.133	4530.64
485.503	4557.76
485.874	4605.9
486.244	4662.84
486.615	4764.31
486.985	4814.25
487.356	4856.06
487.726	4856.74
488.097	4963.85
488.467	5041.82
488.837	5086.56
489.207	5115.71
489.578	5145.99
489.948	5231.19
490.318	5236.16
490.688	5282.94
491.058	5347.8
491.428	5432.99
491.798	5465.53
492.168	5535.59
492.538	5520.9
492.908	5601.35
493.278	5673.89
493.648	5676.6
494.017	5785.07
494.387	5781.68
494.757	5842.02
495.126	5856.03
495.496	5885.64
495.866	5906.88
496.235	5935.58
496.605	5944.17
496.974	6000.44
497.344	6035.46
497.713	6084.95
498.082	6096.03
498.452	6120.66
498.821	6149.36
499.19	6175.57
499.559	6234.55
499.928	6236.14
500.298	6324.49
500.667	6328.11
501.036	6344.38
501.405	6353.19
501.774	6368.79
502.143	6387.32
502.512	6409.46
502.88	6434.55
503.249	6455.34
503.618	6456.24
503.987	6521.1
504.356	6498.28
504.724	6570.82
505.093	6566.97
505.462	6571.04
505.83	6635
506.199	6649.91
506.567	6719.06
506.936	6730.36
507.304	6713.41
507.672	6701.21
508.041	6799.74
508.409	6787.76
508.777	6850.81
509.145	6866.4
509.514	6898.94
509.882	6856.68
510.25	6852.16
510.618	6968.09
510.986	6931.03
511.354	6961.31
511.722	7000.64
512.09	7054.87
512.458	7008.54
512.826	7078.37
513.193	7037.24
513.561	7069.56
513.929	7095.32
514.297	7116.79
514.664	7166.05
515.032	7172.61
515.4	7152.04
515.767	7166.96
516.135	7217.58
516.502	7143.91
516.869	7300.97
517.237	7235.21
517.604	7273.4
517.972	7283.34
518.339	7318.37
518.706	7274.75
519.073	7260.52
519.44	7327.41
519.808	7362.89
520.175	7309.55
520.542	7370.34
520.909	7377.8
521.276	7358.37
521.643	7386.39
522.009	7434.52
522.376	7446.5
522.743	7498.7
523.11	7522.43
523.477	7589.77
523.843	7520.17
524.21	7580.05
524.577	7599.26
524.943	7679.04
525.31	7636.32
525.676	7675.42
526.043	7694.18
526.409	7684.23
526.776	7791.8
527.142	7764.46
527.508	7697.79
527.874	7757.9
528.241	7781.63
528.607	7789.09
528.973	7719.03
529.339	7771.01
529.705	7831.8
530.071	7839.94
530.437	7858.69
530.803	7894.62
531.169	7886.04
531.535	7866.38
531.901	7876.09
532.267	7865.7
532.632	7912.48
532.998	7951.12
533.364	7939.37
533.73	7928.07
534.095	7975.98
534.461	7973.94
534.826	7895.98
535.192	7871.57
535.557	7960.84
535.923	7901.18
536.288	7913.38
536.653	7965.81
537.019	7910.22
537.384	7891.91
537.749	7842.65
538.114	7853.49
538.479	7893.04
538.845	7971.23
539.21	7916.09
539.575	7864.12
539.94	7851.91
540.305	7913.38
540.67	7912.93
541.034	7870.89
541.399	8003.77
541.764	7931.68
542.129	7893.04
542.494	7853.49
542.858	7881.29
543.223	7865.47
543.587	7850.1
543.952	7839.03
544.316	7815.08
544.681	7836.09
545.045	7868.18
545.41	7860.73
545.774	7837.22
546.138	7829.54
546.503	7842.19
546.867	7824.12
547.231	7820.95
547.595	7809.88
547.959	7788.64
548.324	7841.52
548.688	7828.86
549.052	7792.7
549.416	7795.42
549.779	7837.22
550.143	7765.59
550.507	7779.82
550.871	7757.68
551.235	7747.96
551.599	7770.78
551.962	7803.33
552.326	7796.09
552.689	7774.17
553.053	7762.2
553.417	7709.09
553.78	7773.04
554.143	7744.12
554.507	7816.21
554.87	7781.41
555.234	7854.62
555.597	7758.13
555.96	7811.91
556.323	7823.66
556.686	7856.43
557.05	7879.03
557.413	7833.38
557.776	7754.06
558.139	7858.69
558.502	7786.6
558.865	7771.91
559.228	7862.76
559.59	7884.45
559.953	7814.4
560.316	7899.14
560.679	7938.01
561.041	7922.42
561.404	7958.8
561.767	7930.33
562.129	7907.5
562.492	7975.75
562.854	7980.04
563.217	8018.01
563.579	7971.46
563.941	8116.99
564.304	8079.48
564.666	8061.85
565.028	8085.35
565.39	8078.57
565.753	8116.54
566.115	8163.32
566.477	8186.59
566.839	8197.89
567.201	8241.96
567.563	8215.97
567.925	8240.6
568.287	8254.84
568.648	8305.91
569.01	8301.62
569.372	8383.88
569.734	8240.6
570.095	8342.29
570.457	8409.41
570.819	8407.38
571.18	8352.01
571.542	8467.72
571.903	8475.17
572.265	8441.28
572.626	8477.43
572.987	8476.53
573.349	8558.33
573.71	8500.93
574.071	8560.37
574.432	8583.19
574.794	8570.54
575.155	8639.24
575.516	8620.25
575.877	8706.35
576.238	8680.14
576.599	8671.78
576.96	8751.32
577.32	8756.52
577.681	8745.22
578.042	8824.54
578.403	8776.41
578.763	8846.24
579.124	8799.46
579.485	8906.8
579.845	8858.89
580.206	8893.47
580.566	8900.25
580.927	8941.15
581.287	8961.04
581.648	8865.67
582.008	8973.46
582.368	8953.35
582.728	8945.67
583.089	8999.68
583.449	8976.4
583.809	8987.48
584.169	9100.01
584.529	8967.36
584.889	9114.93
585.249	9112.9
585.609	9037.19
585.969	9212.78
586.329	9118.77
586.688	9115.83
587.048	9121.26
587.408	9133.01
587.768	9172.56
588.127	9120.13
588.487	9141.6
588.846	9230.86
589.206	9201.71
589.565	9251.42
589.925	9255.94
590.284	9230.86
590.643	9253.46
591.003	9297.75
591.362	9290.52
591.721	9283.96
592.08	9317.64
592.44	9317.64
592.799	9351.53
593.158	9293
593.517	9316.96
593.876	9364.87
594.235	9347.92
594.593	9417.52
594.952	9365.32
595.311	9309.73
595.67	9343.17
596.029	9473.34
596.387	9498.42
596.746	9476.73
597.104	9451.19
597.463	9388.14
597.822	9489.61
598.18	9390.18
598.538	9402.83
598.897	9484.19
599.255	9379.56
599.613	9518.08
599.972	9472.66
600.33	9530.06
600.688	9396.96
601.046	9508.14
601.404	9529.83
601.762	9518.08
602.12	9530.74
602.478	9485.99
602.836	9562.6
603.194	9467.46
603.552	9550.62
603.91	9484.86
604.268	9558.76
604.625	9575.03
604.983	9589.27
605.341	9519.21
605.698	9510.4
606.056	9619.55
606.413	9564.18
606.771	9574.8
607.128	9576.39
607.485	9599.21
607.843	9526.67
608.2	9694.12
608.557	9657.97
608.914	9586.78
609.272	9687.12
609.629	9721.69
609.986	9619.55
610.343	9671.53
610.7	9688.47
611.057	9719.43
611.414	9709.04
611.771	9752.88
612.127	9723.5
612.484	9736.16
612.841	9748.36
613.198	9747.23
613.554	9756.95
613.911	9797.17
614.267	9730.51
614.624	9760.79
614.98	9751.75
615.337	9838.98
615.693	9814.57
616.05	9817.28
616.406	9869.94
616.762	9860.9
617.118	9826.78
617.475	9833.33
617.831	9846.66
618.187	9852.54
618.543	9893.21
618.899	9916.49
619.255	9859.09
619.611	9867.9
619.967	9904.29
620.323	9939.99
620.678	9839.66
621.034	9904.51
621.39	9838.75
621.746	9897.51
622.101	9993.32
622.457	9887.79
622.812	9914.46
623.168	9975.7
623.523	9958.07
623.879	9936.38
624.234	9954.23
624.589	9978.18
624.945	9966.66
625.3	9891.63
625.655	9981.35
626.01	9925.08
626.365	9938.41
626.72	9869.26
627.075	9867
627.43	9863.16
627.785	9841.46
628.14	9879.88
628.495	9938.41
628.85	9883.72
629.205	9870.39
629.559	9893.89
629.914	9797.4
630.269	9792.43
630.623	9876.04
630.978	9791.75
631.332	9848.92
631.687	9823.16
632.041	9752.2
632.396	9842.14
632.75	9790.39
633.104	9713.33
633.459	9752.43
633.813	9746.55
634.167	9743.61
634.521	9683.28
634.875	9696.16
635.229	9694.35
635.583	9645.99
635.937	9692.54
636.291	9627.46
636.645	9697.51
636.999	9616.39
637.352	9646.44
637.706	9520.57
638.06	9600.34
638.413	9611.19
638.767	9625.2
639.121	9577.52
639.474	9577.97
639.828	9532.55
640.181	9527.8
640.534	9591.3
640.888	9475.37
641.241	9448.03
641.594	9526.9
641.947	9504.3
642.301	9510.63
642.654	9476.95
643.007	9486.22
643.36	9424.07
643.713	9453.68
644.066	9450.51
644.419	9411.19
644.771	9383.85
645.124	9277.41
645.477	9200.35
645.83	9249.62
646.182	9130.07
646.535	9136.62
646.888	9165.55
647.24	9073.35
647.593	9183.4
647.945	9165.32
648.298	9089.62
648.65	9059.79
649.002	9076.51
649.355	9087.81
649.707	9109.73
650.059	9073.8
650.411	9266.34
650.763	9272.89
651.115	9293.91
651.467	9278.09
651.819	9294.13
652.171	9287.58
652.523	9296.17
652.875	9217.3
653.227	9314.7
653.578	9295.04
653.93	9351.08
654.282	9276.96
654.633	9223.63
654.985	9294.36
655.337	9285.77
655.688	9254.14
656.039	9314.47
656.391	9238.32
656.742	9246.9
657.094	9239.45
657.445	9281.25
657.796	9314.92
658.147	9271.99
658.498	9178.43
658.849	9253.91
659.2	9313.12
659.551	9205.1
659.902	9266.11
660.253	9204.64
660.604	9286.9
660.955	9228.15
661.306	9280.35
661.656	9325.32
662.007	9285.32
662.358	9260.69
662.708	9311.08
663.059	9324.19
663.409	9180.46
663.76	9304.76
664.11	9260.24
664.461	9298.65
664.811	9320.35
665.161	9212.33
665.511	9204.42
665.862	9213.68
666.212	9327.35
666.562	9264.76
666.912	9320.8
667.262	9256.17
667.612	9240.8
667.962	9307.24
668.312	9238.99
668.662	9355.15
669.011	9301.59
669.361	9268.82
669.711	9194.48
670.06	9167.36
670.41	9189.96
670.76	9220.46
671.109	9226.57
671.459	9220.92
671.808	9193.57
672.157	9233.34
672.507	9222.5
672.856	9182.05
673.205	9105.89
673.554	9253.46
673.904	9166.91
674.253	9206.68
674.602	9150.86
674.951	9024.99
675.3	9032.9
675.649	9145.44
675.998	9157.64
676.346	9144.99
676.695	9145.66
677.044	9113.35
677.393	9130.75
677.741	9134.14
678.09	9062.5
678.438	9046.68
678.787	9040.13
679.135	9051.2
679.484	9021.37
679.832	9060.02
680.181	8944.99
680.529	8956.74
680.877	8953.8
681.225	8939.57
681.573	8958.1
681.922	8943.86
682.27	8925.33
682.618	8846.24
682.966	8858.21
683.314	8867.03
683.661	8842.85
684.009	8811.43
684.357	8800.36
684.705	8750.42
685.053	8791.77
685.4	8757.43
685.748	8643.98
686.095	8688.5
686.443	8705.68
686.79	8608.5
687.138	8736.41
687.485	8686.24
687.832	8634.26
688.18	8632
688.527	8591.78
688.874	8561.5
689.221	8513.14
689.568	8528.05
689.915	8479.01
690.262	8530.54
690.609	8461.84
690.956	8427.26
691.303	8387.72
691.65	8359.24
691.997	8375.06
692.344	8295.97
692.69	8295.06
693.037	8275.4
693.383	8234.05
693.73	8204.67
694.077	8172.58
694.423	8140.04
694.769	8180.04
695.116	8138.01
695.462	8112.24
695.808	8041.29
696.155	7986.6
696.501	8058.46
696.847	7970.33
697.193	7931.91
697.539	7935.75
697.885	7894.62
698.231	7834.96
698.577	7865.7
698.923	7876.32
699.269	7813.95
699.614	7741.41
699.96	7728.53
700.306	7719.94
700.651	7657.79
700.997	7630.45
701.342	7662.99
701.688	7641.97
702.033	7666.61
702.379	7658.7
702.724	7615.76
703.069	7584.57
703.415	7516.1
703.76	7517.91
704.105	7480.4
704.45	7468.65
704.795	7413.51
705.14	7394.75
705.485	7404.24
705.83	7354.52
706.175	7318.14
706.52	7350.91
706.865	7315.66
707.209	7294.64
707.554	7246.73
707.899	7198.82
708.243	7272.04
708.588	7215.09
708.932	7159.05
709.277	7156.34
709.621	7113.85
709.966	6995.66
710.31	7082.67
710.654	7025.04
710.998	7034.53
711.342	7037.7
711.687	7028.21
712.031	6976.45
712.375	6936.68
712.719	6966.74
713.063	6961.77
713.407	6966.29
713.75	6918.83
714.094	6919.06
714.438	6820.07
714.782	6923.58
715.125	6857.36
715.469	6768.78
715.812	6820.98
716.156	6792.96
716.499	6814.65
716.843	6831.83
717.186	6762.22
717.53	6794.09
717.873	6759.96
718.216	6734.88
718.559	6735.11
718.902	6619.18
719.246	6732.39
719.589	6685.62
719.932	6652.62
720.275	6726.07
720.617	6667.99
720.96	6674.77
721.303	6639.74
721.646	6697.37
721.989	6666.18
722.331	6696.91
722.674	6675.67
723.016	6588.89
723.359	6630.25
723.701	6589.35
724.044	6566.75
724.386	6556.58
724.729	6622.11
725.071	6565.39
725.413	6582.79
725.755	6556.8
726.097	6553.19
726.439	6493.08
726.782	6531.04
727.124	6577.14
727.465	6507.77
727.807	6491.95
728.149	6523.59
728.491	6570.59
728.833	6531.72
729.175	6477.03
729.516	6495.11
729.858	6531.04
730.199	6533.53
730.541	6495.11
730.882	6458.73
731.224	6510.03
731.565	6500.08
731.906	6509.12
732.248	6474.55
732.589	6458.95
732.93	6441.33
733.271	6440.65
733.612	6460.31
733.953	6498.05
734.294	6511.38
734.635	6449.92
734.976	6469.58
735.317	6440.2
735.658	6495.79
735.999	6457.6
736.339	6465.73
736.68	6488.33
737.021	6468.9
737.361	6475.45
737.702	6458.95
738.042	6454.89
738.383	6455.34
738.723	6502.34
739.063	6431.38
739.404	6467.32
739.744	6489.91
740.084	6458.05
740.424	6530.37
740.764	6487.88
741.104	6543.92
741.444	6480.42
741.784	6487.65
742.124	6513.19
742.464	6544.83
742.804	6508.9
743.143	6520.65
743.483	6536.92
743.823	6532.4
744.162	6606.07
744.502	6635.22
744.841	6653.07
745.181	6645.62
745.52	6692.17
745.86	6733.07
746.199	6740.98
746.538	6748.66
746.877	6783.24
747.216	6818.94
747.556	6785.27
747.895	6786.86
748.234	6890.36
748.573	6920.41
748.911	6904.82
749.25	7017.36
749.589	7004.48
749.928	7080.63
750.267	7166.73
750.605	7190.46
750.944	7186.39
751.283	7316.79
751.621	7319.95
751.96	7372.15
752.298	7442.88
752.636	7481.07
752.975	7492.15
753.313	7681.97
753.651	7766.94
753.989	7767.39
754.327	7862.31
754.666	7951.57
755.004	8012.36
755.342	8085.13
755.679	8230.21
756.017	8250.09
756.355	8406.93
756.693	8449.86
757.031	8490.99
757.368	8591.33
757.706	8822.51
758.044	8841.04
758.381	8979.11
758.719	9069.06
759.056	9168.26
759.394	9265.66
759.731	9417.52
760.068	9537.52
760.405	9655.93
760.743	9670.17
761.08	9854.8
761.417	9937.73
761.754	10130.27
762.091	10182.02
762.428	10347.21
762.765	10384.73
763.102	10507.44
763.438	10676.7
763.775	10784.72
764.112	10927.99
764.449	11082.11
764.785	11033.75
765.122	11228.32
765.458	11292.5
765.795	11391.25
766.131	11574.07
766.467	11590.57
766.804	11769.1
767.14	11793.96
767.476	11982.88
767.812	11999.37
768.148	12224.68
768.485	12202.08
768.821	12290.44
769.157	12391.45
769.492	12510.77
769.828	12645.91
770.164	12562.75
770.5	12626.93
770.836	12745.79
771.171	12828.5
771.507	12908.73
771.842	12906.24
772.178	13077.54
772.513	13135.62
772.849	13100.36
773.184	13192.34
773.519	13294.93
773.855	13268.94
774.19	13354.14
774.525	13339.9
774.86	13495.15
775.195	13519.79
775.53	13521.37
775.865	13458.09
776.2	13457.19
776.535	13484.31
776.87	13614.02
777.205	13560.91
777.539	13590.07
777.874	13698.09
778.209	13607.69
778.543	13609.05
778.878	13596.17
779.212	13704.41
779.547	13690.4
779.881	13816.95
780.215	13710.52
780.55	13783.96
780.884	13724.53
781.218	13764.98
781.552	13832.32
781.886	13839.78
782.22	13756.16
782.554	13758.42
782.888	13757.52
783.222	13720.23
783.556	13725.43
783.889	13720.68
784.223	13625.77
784.557	13666.67
784.89	13720.68
785.224	13699.44
785.557	13621.03
785.891	13623.51
786.224	13646.79
786.558	13595.94
786.891	13584.64
787.224	13572.67
787.557	13525.66
787.891	13562.04
788.224	13541.93
788.557	13498.54
788.89	13534.47
789.223	13523.18
789.556	13454.25
789.888	13442.5
790.221	13419.22
790.554	13368.38
790.887	13337.87
791.219	13309.62
791.552	13354.14
791.884	13302.62
792.217	13275.5
792.549	13185.56
792.882	13163.86
793.214	13035.05
793.546	13209.29
793.879	13134.71
794.211	13063.53
794.543	12982.17
794.875	13079.57
795.207	13084.77
795.539	13063.98
795.871	13045.9
796.203	12904.43
796.535	12862.63
796.867	12819.47
797.198	12863.08
797.53	12873.25
797.862	12726.36
798.193	12798.9
798.525	12732.46
798.856	12726.13
799.188	12647.27
799.519	12574.27
799.85	12559.59
800.182	12544.67
800.513	12565.01
800.844	12462.64
801.175	12494.73
801.506	12481.39
801.837	12478.91
802.168	12429.87
802.499	12375.18
802.83	12361.17
803.161	12302.64
803.491	12313.26
803.822	12319.82
804.153	12296.99
804.483	12202.76
804.814	12153.49
805.145	12178.13
805.475	12122.53
805.805	12123.66
806.136	12107.39
806.466	12052.71
806.796	12054.29
807.126	11966.38
807.457	11908.3
807.787	12035.08
808.117	11890.9
808.447	11857.91
808.777	11921.86
809.107	11780.4
809.436	11796.89
809.766	11753.28
810.096	11768.87
810.426	11766.16
810.755	11737.91
811.085	11691.13
811.414	11658.59
811.744	11651.36
812.073	11575.2
812.403	11651.59
812.732	11631.93
813.061	11450.91
813.39	11415.43
813.719	11454.3
814.049	11570.91
814.378	11459.5
814.707	11408.2
815.036	11422.21
815.365	11334.76
815.693	11193.07
816.022	11353.52
816.351	11280.75
816.68	11247.08
817.008	11293.18
817.337	11148.32
817.665	11145.84
817.994	11200.98
818.322	11213.18
818.651	11047.76
818.979	11050.25
819.307	11157.36
819.636	11057.93
819.964	11026.07
820.292	11102
820.62	11076.46
820.948	11027.42
821.276	11043.92
821.604	11021.32
821.932	11113.75
822.259	11036.46
822.587	11007.54
822.915	11010.25
823.243	11018.83
823.57	10981.55
823.898	11001.89
824.225	10961.66
824.553	10925.28
824.88	10956.92
825.207	11034.2
825.535	10995.11
825.862	11035.11
826.189	10966.63
826.516	11037.14
826.843	11080.08
827.17	11041.66
827.497	11096.8
827.824	11012.51
828.151	11024.26
828.478	11033.98
828.805	11085.27
829.131	11007.54
829.458	11005.5
829.785	11015.44
830.111	11055.44
830.438	11049.12
830.764	11097.7
831.09	11077.82
831.417	11051.6
831.743	11022.22
832.069	11024.48
832.395	10956.24
832.722	11007.31
833.048	10958.72
833.374	10893.87
833.7	10972.73
834.026	10929.57
834.351	10971.38
834.677	10943.36
835.003	10995.11
835.329	10871.72
835.654	10869.69
835.98	10910.81
836.306	10839.86
836.631	10785.62
836.956	10854.09
837.282	10937.48
837.607	10805.73
837.932	10816.81
838.258	10825.17
838.583	10793.98
838.908	10775.23
839.233	10703.81
839.558	10744.94
839.883	10681.22
840.208	10606.42
840.533	10669.92
840.858	10603.7
841.182	10662.46
841.507	10645.74
841.832	10521.22
842.156	10548.79
842.481	10571.61
842.805	10546.53
843.13	10634.44
843.454	10445.52
843.778	10484.16
844.103	10380.89
844.427	10419.08
844.751	10443.26
845.075	10387.21
845.399	10334.33
845.723	10321.9
846.047	10355.35
846.371	10173.43
846.695	10213.21
847.019	10165.07
847.343	10123.72
847.666	10012.76
847.99	9960.56
848.313	10009.6
848.637	9941.57
848.96	9905.87
849.284	9846.66
849.607	9871.29
849.931	9857.28
850.254	9784.29
850.577	9688.25
850.9	9640.34
851.223	9613.67
851.546	9626.55
851.869	9546.1
852.192	9579.78
852.515	9559.66
852.838	9426.79
853.161	9517.18
853.483	9445.99
853.806	9391.53
854.129	9352.44
854.451	9301.37
854.774	9332.78
855.096	9266.34
855.419	9217.07
855.741	9195.38
856.063	9174.36
856.385	9235.15
856.708	9127.58
857.03	9098.66
857.352	9117.87
857.674	9011.2
857.996	8972.79
858.318	8941.83
858.64	8969.85
858.961	8902.96
859.283	8920.36
859.605	8900.02
859.926	8929.4
860.248	8858.67
860.57	8852.34
860.891	8881.94
861.212	8786.35
861.534	8791.55
861.855	8725.56
862.176	8744.77
862.498	8749.29
862.819	8734.15
863.14	8702.29
863.461	8629.74
863.782	8625.23
864.103	8685.56
864.424	8632.68
864.745	8590.2
865.065	8552.23
865.386	8559.01
865.707	8568.96
866.027	8571.67
866.348	8570.76
866.668	8527.83
866.989	8446.02
867.309	8462.74
867.63	8459.58
867.95	8467.49
868.27	8380.26
868.59	8441.95
868.91	8440.37
869.23	8381.16
869.55	8392.69
869.87	8376.64
870.19	8403.76
870.51	8408.96
870.83	8387.04
871.15	8352.24
871.469	8309.98
871.789	8319.47
872.109	8268.17
872.428	8270.43
872.748	8273.6
873.067	8280.38
873.386	8269.53
873.706	8240.15
874.025	8175.07
874.344	8142.07
874.663	8242.41
874.982	8159.47
875.301	8160.38
875.62	8095.97
875.939	8146.14
876.258	8118.12
876.577	8056.2
876.896	8138.46
877.214	8110.44
877.533	8109.53
877.852	8049.87
878.17	8074.73
878.489	8063.88
878.807	8098.46
879.125	8029.99
879.444	8001.29
879.762	7934.85
880.08	8000.16
880.398	7926.03
880.716	7910.22
881.034	7980.27
881.352	7909.31
881.67	7837
881.988	7899.59
882.306	7812.82
882.624	7836.55
882.941	7755.87
883.259	7785.7
883.577	7752.03
883.894	7808.07
884.212	7760.16
884.529	7746.6
884.846	7699.15
885.164	7678.81
885.481	7644.91
885.798	7705.7
886.115	7611.01
886.432	7625.7
886.75	7601.07
887.067	7627.29
887.383	7559.72
887.7	7562.88
888.017	7475.88
888.334	7524.24
888.651	7472.71
888.967	7579.15
889.284	7471.13
889.6	7392.26
889.917	7391.81
890.233	7402.66
890.55	7351.59
890.866	7382.09
891.182	7335.99
891.498	7263.91
891.815	7289.67
892.131	7295.54
892.447	7226.84
892.763	7191.82
893.079	7210.57
893.395	7168.31
893.71	7161.08
894.026	7168.99
894.342	7077.7
894.657	7124.02
894.973	7040.18
895.289	7111.82
895.604	7030.01
895.92	6996.12
896.235	6975.33
896.55	6928.55
896.865	6876.34
897.181	6937.81
897.496	6901.88
897.811	6874.08
898.126	6845.16
898.441	6753.18
898.756	6789.57
899.071	6801.32
899.386	6745.05
899.7	6719.96
900.015	6689.46
900.33	6592.96
900.644	6650.59
900.959	6640.64
901.273	6577.6
901.588	6496.02
901.902	6520.87
902.216	6492.63
902.531	6504.15
902.845	6457.37
903.159	6422.8
903.473	6410.82
903.787	6373.53
904.101	6312.07
904.415	6367.21
904.729	6288.56
905.042	6248.34
905.356	6337.38
905.67	6235.23
905.984	6248.34
906.297	6226.19
906.611	6194.1
906.924	6170.37
907.237	6152.3
907.551	6148.68
907.864	6102.35
908.177	6113.65
908.491	6059.42
908.804	5999.76
909.117	5978.52
909.43	5941.45
909.743	5966.09
910.056	5952.08
910.368	5872.53
910.681	5836.82
910.994	5863.72
911.307	5849.93
911.619	5754.79
911.932	5799.08
912.244	5813.55
912.557	5751.63
912.869	5712.76
913.181	5735.81
913.494	5690.16
913.806	5622.59
914.118	5591.86
914.43	5624.85
914.742	5585.98
915.054	5564.74
915.366	5512.76
915.678	5519.77
915.99	5456.49
916.302	5483.16
916.613	5463.5
916.925	5438.19
917.236	5384.86
917.548	5382.82
917.859	5401.13
918.171	5344.41
918.482	5319.78
918.794	5305.54
919.105	5267.35
919.416	5256.73
919.727	5284.3
920.038	5252.21
920.349	5188.03
920.66	5162.04
920.971	5151.19
921.282	5141.7
921.593	5146.9
921.903	5061.93
922.214	5104.87
922.525	5056.28
922.835	5064.41
923.146	5018.77
923.456	4983.96
923.767	4984.42
924.077	4962.72
924.387	4913.91
924.697	4857.19
925.008	4929.73
925.318	4903.52
925.628	4891.31
925.938	4789.62
926.248	4821.71
926.558	4817.42
926.867	4723.18
927.177	4736.97
927.487	4723.63
927.796	4732.67
928.106	4730.86
928.416	4715.5
928.725	4700.58
929.034	4640.47
929.344	4689.28
929.653	4602.05
929.962	4575.84
930.271	4602.73
930.581	4545.78
930.89	4552.56
931.199	4508.27
931.508	4565.44
931.817	4501.04
932.125	4505.56
932.434	4475.05
932.743	4452.23
933.051	4401.61
933.36	4364.32
933.669	4362.74
933.977	4327.26
934.286	4346.24
934.594	4365.45
934.902	4292.91
935.21	4309.41
935.519	4290.88
935.827	4283.64
936.135	4216.75
936.443	4208.17
936.751	4208.17
937.059	4183.53
937.367	4132.91
937.674	4146.47
937.982	4188.73
938.29	4126.59
938.597	4088.4
938.905	4066.25
939.213	4061.73
939.52	4028.28
939.827	4046.81
940.135	3991.67
940.442	3963.2
940.749	3999.58
941.056	4018.79
941.363	3959.59
941.67	3907.16
941.977	3935.86
942.284	3878.68
942.591	3887.5
942.898	3863.32
943.205	3843.88
943.511	3836.2
943.818	3822.87
944.125	3767.73
944.431	3755.97
944.738	3797.1
945.044	3776.54
945.35	3767.27
945.657	3705.58
945.963	3708.97
946.269	3653.15
946.575	3665.81
946.881	3669.42
947.187	3625.58
947.493	3648.86
947.799	3592.59
948.105	3560.95
948.41	3566.15
948.716	3568.86
949.022	3536.09
949.327	3538.58
949.633	3488.41
949.938	3489.99
950.244	3507.85
950.549	3469.88
950.854	3447.73
951.16	3457.68
951.465	3465.59
951.77	3413.84
952.075	3387.4
952.38	3428.75
952.685	3363.22
952.99	3339.71
953.294	3347.62
953.599	3337
953.904	3303.33
954.209	3322.54
954.513	3265.82
954.818	3260.85
955.122	3254.07
955.426	3250.23
955.731	3254.07
956.035	3238.7
956.339	3212.94
956.643	3180.4
956.948	3217.01
957.252	3178.14
957.556	3198.7
957.86	3155.09
958.163	3107.86
958.467	3130.23
958.771	3103.34
959.075	3112.38
959.378	3080.06
959.682	3083
959.985	3072.6
960.289	3026.28
960.592	2989.44
960.896	3028.31
961.199	2987.63
961.502	3032.6
961.805	2990.35
962.108	2947.86
962.411	2979.72
962.714	2970.68
963.017	2918.93
963.32	2964.36
963.623	2914.19
963.926	2911.03
964.228	2878.26
964.531	2891.14
964.833	2880.52
965.136	2855.66
965.438	2803.68
965.741	2831.93
966.043	2776.34
966.345	2798.49
966.648	2813.85
966.95	2784.02
967.252	2780.86
967.554	2765.49
967.856	2710.58
968.158	2731.37
968.46	2711.26
968.761	2708.09
969.063	2703.57
969.365	2667.64
969.666	2657.02
969.968	2660.18
970.269	2633.52
970.571	2644.59
970.872	2668.09
971.174	2614.08
971.475	2596.68
971.776	2596.01
972.077	2609.34
972.378	2582.67
972.679	2585.38
972.98	2543.35
973.281	2576.57
973.582	2522.79
973.883	2528.66
974.183	2540.41
974.484	2516.69
974.785	2473.75
975.085	2488.44
975.386	2487.76
975.686	2461.55
975.986	2458.83
976.287	2473.97
976.587	2429.68
976.887	2425.39
977.187	2395.11
977.487	2419.51
977.787	2394.88
978.087	2353.75
978.387	2353.98
978.687	2344.94
978.987	2359.18
979.286	2345.84
979.586	2327.54
979.885	2301.55
980.185	2302.91
980.484	2277.14
980.784	2327.54
981.083	2264.94
981.382	2282.12
981.682	2285.5
981.981	2235.34
982.28	2254.32
982.579	2207.09
982.878	2216.58
983.177	2169.12
983.475	2203.7
983.774	2148.79
984.073	2194.43
984.372	2166.86
984.67	2149.24
984.969	2187.88
985.267	2148.33
985.566	2128.67
985.864	2132.29
986.162	2132.06
986.461	2100.42
986.759	2110.14
987.057	2091.84
987.355	2058.84
987.653	2069.47
987.951	2054.1
988.249	2066.3
988.547	2049.35
988.844	2030.82
989.142	2011.84
989.44	1983.37
989.737	1982.46
990.035	1999.18
990.332	1992.18
990.63	1996.7
990.927	1972.52
991.224	1975.46
991.521	1934.55
991.819	1987.66
992.116	1925.06
992.413	1943.82
992.71	1944.72
993.006	1924.61
993.303	1913.09
993.6	1894.55
993.897	1862.01
994.193	1870.15
994.49	1867.21
994.787	1850.04
995.083	1828.79
995.379	1844.16
995.676	1850.49
995.972	1837.61
996.268	1817.27
996.565	1812.3
996.861	1794.9
997.157	1772.3
997.453	1770.26
997.749	1775.69
998.044	1784.95
998.34	1781.34
998.636	1719.87
998.932	1725.29
999.227	1730.04
999.523	1740.89
999.818	1697.95
1000.114	1721.45
1000.409	1700.44
1000.704	1708.34
1001	1676.48
1001.295	1684.62
1001.59	1673.77
1001.885	1650.95
1002.18	1662.24
1002.475	1640.32
1002.77	1629.48
1003.065	1589.7
1003.359	1595.58
1003.654	1597.84
1003.949	1596.71
1004.243	1593.32
1004.538	1561
1004.832	1570.27
1005.127	1556.26
1005.421	1556.94
1005.715	1538.63
1006.009	1542.7
1006.304	1539.08
1006.598	1535.24
1006.892	1506.99
1007.186	1482.81
1007.48	1492.53
1007.773	1486.43
1008.067	1512.87
1008.361	1444.17
1008.655	1451.85
1008.948	1460.22
1009.242	1463.61
1009.535	1444.17
1009.829	1422.7
1010.122	1444.85
1010.415	1436.49
1010.708	1418.64
1011.001	1398.52
1011.295	1413.44
1011.588	1392.42
1011.881	1396.94
1012.173	1358.07
1012.466	1411.86
1012.759	1360.56
1013.052	1363.27
1013.344	1336.83
1013.637	1359.65
1013.93	1319.43
1014.222	1305.42
1014.514	1332.99
1014.807	1297.96
1015.099	1324.4
1015.391	1318.98
1015.683	1313.33
1015.976	1277.62
1016.268	1283.95
1016.56	1253.44
1016.851	1255.48
1017.143	1258.19
1017.435	1239.88
1017.727	1212.54
1018.018	1243.27
1018.31	1228.13
1018.602	1201.47
1018.893	1199.43
1019.185	1209.15
1019.476	1229.49
1019.767	1175.93
1020.058	1195.36
1020.35	1160.11
1020.641	1177.06
1020.932	1137.96
1021.223	1138.64
1021.514	1161.01
1021.804	1139.32
1022.095	1119.43
1022.386	1127.34
1022.677	1116.95
1022.967	1121.92
1023.258	1092.32
1023.548	1087.34
1023.839	1109.04
1024.129	1090.51
1024.419	1092.77
1024.709	1036.27
1025	1053.22
1025.29	1035.82
1025.58	1056.61
1025.87	1055.25
1026.16	1066.1
1026.449	1035.59
1026.739	1000.79
1027.029	990.85
1027.319	1011.41
1027.608	1016.16
1027.898	991.75
1028.187	986.1
1028.477	996.73
1028.766	990.85
1029.055	958.31
1029.344	996.27
1029.634	974.13
1029.923	973.67
1030.212	945.2
1030.501	940
1030.79	961.7
1031.078	926.9
1031.367	920.34
1031.656	925.54
1031.945	911.53
1032.233	947.01
1032.522	936.84
1032.81	904.52
1033.099	899.55
1033.387	881.47
1033.675	887.8
1033.963	876.73
1034.251	883.96
1034.54	850.06
1034.828	875.37
1035.116	861.81
1035.403	864.3
1035.691	836.96
1035.979	845.54
1036.267	850.06
1036.554	846.45
1036.842	843.06
1037.129	824.07
1037.417	814.58
1037.704	838.09
1037.992	798.09
1038.279	815.26
1038.566	817.07
1038.853	817.07
1039.14	817.07
