Data from hue_160_FLMS001491_00013.txt Node
Date: Tue Feb 07 16:50:49 GMT 2017
User: dcchb
Spectrometer: FLMS00149
Trigger mode: 0
Integration Time (sec): 2.000000E-2
Scans to average: 10
Electric dark correction enabled: true
Nonlinearity correction enabled: false
Boxcar width: 0
XAxis mode: Wavelengths
Number of Pixels in Spectrum: 2048
>>>>>Begin Spectral Data<<<<<
341.393	-3.21
341.776	-3.21
342.16	-3.21
342.543	-60.61
342.927	-80.72
343.31	-69.19
343.693	-71.45
344.077	-57.44
344.46	-59.25
344.843	-53.15
345.226	-45.01
345.61	-20.15
345.993	-21.96
346.376	-21.96
346.759	-0.72
347.142	28.66
347.525	32.05
347.908	56
348.291	76.11
348.674	107.53
349.057	119.95
349.44	138.26
349.823	147.98
350.206	159.73
350.588	179.84
350.971	192.72
351.354	221.42
351.737	224.81
352.119	218.93
352.502	253.06
352.884	265.04
353.267	281.08
353.65	309.55
354.032	286.5
354.414	306.16
354.797	312.94
355.179	290.8
355.562	304.36
355.944	319.5
356.326	338.48
356.709	336.45
357.091	321.08
357.473	350.68
357.855	318.59
358.238	357.01
358.62	336.45
359.002	332.38
359.384	335.09
359.766	320.4
360.148	337.58
360.53	338.71
360.912	323.79
361.294	318.82
361.676	335.77
362.057	331.47
362.439	324.92
362.821	298.71
363.203	311.36
363.584	322.21
363.966	312.04
364.348	324.47
364.729	325.37
365.111	302.55
365.493	311.36
365.874	311.59
366.256	304.13
366.637	302.32
367.019	300.97
367.4	300.97
367.781	293.74
368.163	310.91
368.544	317.24
368.925	302.55
369.306	321.76
369.688	305.94
370.069	290.12
370.45	322.89
370.831	310.01
371.212	307.97
371.593	285.6
371.974	309.33
372.355	301.87
372.736	309.33
373.117	328.76
373.498	318.37
373.879	321.08
374.26	302.32
374.641	298.71
375.021	324.24
375.402	310.91
375.783	320.63
376.163	322.89
376.544	304.36
376.925	309.33
377.305	329.89
377.686	323.34
378.066	321.08
378.447	317.24
378.827	319.05
379.208	331.93
379.588	330.8
379.968	323.11
380.349	322.66
380.729	341.19
381.109	312.72
381.489	330.57
381.87	341.64
382.25	338.71
382.63	341.64
383.01	329.89
383.39	348.65
383.77	322.44
384.15	342.1
384.53	347.29
384.91	342.1
385.29	352.26
385.67	324.92
386.049	357.24
386.429	362.66
386.809	366.73
387.189	361.98
387.568	341.42
387.948	330.57
388.328	347.75
388.707	372.83
389.087	337.35
389.466	369.89
389.846	359.72
390.225	354.98
390.605	373.73
390.984	378.25
391.363	371.25
391.743	368.54
392.122	378.25
392.501	374.41
392.881	380.29
393.26	359.27
393.639	347.97
394.018	370.57
394.397	348.42
394.776	355.88
395.155	356.11
395.534	347.07
395.913	369.89
396.292	365.37
396.671	368.31
397.05	377.8
397.429	379.38
397.808	375.31
398.186	373.96
398.565	384.35
398.944	380.96
399.323	378.48
399.701	361.76
400.08	381.42
400.458	385.71
400.837	383.9
401.215	402.43
401.594	400.63
401.972	398.59
402.351	418.93
402.729	429.55
403.107	409.89
403.486	428.19
403.864	401.98
404.242	401.98
404.62	413.05
404.999	402.43
405.377	399.5
405.755	395.2
406.133	441.53
406.511	417.57
406.889	428.19
407.267	416.22
407.645	431.81
408.023	450.79
408.401	453.51
408.779	420.06
409.156	442.21
409.534	449.21
409.912	434.52
410.29	451.92
410.667	465.03
411.045	445.82
411.422	451.25
411.8	479.04
412.178	451.7
412.555	456.89
412.933	489.44
413.31	456.67
413.687	488.08
414.065	482.66
414.442	469.55
414.819	483.79
415.197	475.2
415.574	494.18
415.951	477.69
416.328	488.31
416.705	474.07
417.082	503.22
417.46	496.89
417.837	517.91
418.214	507.74
418.591	506.16
418.967	503.22
419.344	531.24
419.721	514.75
420.098	515.42
420.475	524.92
420.852	512.03
421.228	570.11
421.605	520.4
421.982	547.51
422.358	540.28
422.735	544.12
423.111	540.06
423.488	568.08
423.864	584.35
424.241	559.04
424.617	565.59
424.994	608.3
425.37	569.43
425.746	577.8
426.123	584.12
426.499	597.23
426.875	611.02
427.251	587.96
427.627	622.54
428.003	595.42
428.379	630.68
428.756	595.42
429.132	619.83
429.507	637.45
429.883	628.42
430.259	647.17
430.635	645.59
431.011	657.12
431.387	646.72
431.763	640.84
432.138	646.04
432.514	660.51
432.89	670.67
433.265	687.17
433.641	674.06
434.016	700.73
434.392	740.73
434.767	714.97
435.143	715.87
435.518	723.1
435.894	708.41
436.269	725.36
436.644	729.43
437.02	752.25
437.395	753.61
437.77	758.58
438.145	764.91
438.52	780.95
438.895	791.12
439.271	796.77
439.646	780.73
440.021	831.57
440.395	807.17
440.77	810.78
441.145	810.56
441.52	820.5
441.895	799.71
442.27	818.02
442.645	819.82
443.019	851.91
443.394	839.71
443.769	826.38
444.143	827.96
444.518	858.01
444.892	829.54
445.267	868.41
445.641	869.99
446.016	864.57
446.39	886.94
446.764	883.55
447.139	894.62
447.513	886.71
447.887	890.78
448.262	901.63
448.636	913.15
449.01	918.8
449.384	940.95
449.758	947.28
450.132	953.15
450.506	948.63
450.88	956.32
451.254	964
451.628	973.27
452.002	979.82
452.376	993.6
452.75	994.73
453.123	1012.13
453.497	1034.05
453.871	1042.64
454.244	1032.7
454.618	1041.96
454.992	1061.85
455.365	1089.65
455.739	1091
456.112	1095.75
456.486	1084.22
456.859	1121.28
457.232	1156.31
457.606	1141.85
457.979	1153.37
458.352	1182.98
458.725	1193.37
459.099	1198.34
459.472	1212.81
459.845	1206.71
460.218	1251.68
460.591	1237.44
460.964	1241.51
461.337	1302.07
461.71	1335.52
462.083	1315.86
462.456	1314.73
462.829	1321.5
463.201	1358.57
463.574	1394.95
463.947	1392.92
464.32	1400.82
464.692	1439.69
465.065	1446.47
465.438	1474.5
465.81	1477.43
466.183	1522.86
466.555	1551.78
466.928	1555.85
467.3	1564.21
467.672	1586.58
468.045	1640.59
468.417	1644.43
468.789	1665.9
469.161	1676.52
469.534	1735.51
469.906	1760.14
470.278	1775.73
470.65	1804.88
471.022	1865.9
471.394	1886.01
471.766	1884.65
472.138	1956.29
472.51	2002.16
472.882	2034.03
473.253	2067.7
473.625	2130.3
473.997	2140.01
474.369	2207.13
474.74	2229.28
475.112	2298.65
475.484	2351.53
475.855	2407.8
476.227	2469.05
476.598	2516.05
476.97	2565.31
477.341	2655.71
477.713	2671.07
478.084	2732.54
478.455	2833.33
478.827	2930.05
479.198	2975.02
479.569	3043.72
479.94	3148.35
480.311	3194.22
480.682	3325.29
481.053	3375.69
481.424	3460.66
481.795	3546.08
482.166	3624.72
482.537	3730.93
482.908	3825.17
483.279	3933.19
483.65	3992.17
484.021	4156.91
484.391	4236
484.762	4306.96
485.133	4397.13
485.503	4508.99
485.874	4675.31
486.244	4715.54
486.615	4870.56
486.985	4956.44
487.356	5136.55
487.726	5207.5
488.097	5388.52
488.467	5472.58
488.837	5614.95
489.207	5699.92
489.578	5854.72
489.948	5985.79
490.318	6138.33
490.688	6238.66
491.058	6334.25
491.428	6515.04
491.798	6622.83
492.168	6789.16
492.538	6822.15
492.908	6956.16
493.278	7115.25
493.648	7152.99
494.017	7344.62
494.387	7487.22
494.757	7633.88
495.126	7711.17
495.496	7785.97
495.866	7913.42
496.235	8054.21
496.605	8118.61
496.974	8284.94
497.344	8321.32
497.713	8428.66
498.082	8522.67
498.452	8681.09
498.821	8796.11
499.19	8854.19
499.559	8963.79
499.928	9043.56
500.298	9121.98
500.667	9247.17
501.036	9271.58
501.405	9410.78
501.774	9422.76
502.143	9602.42
502.512	9609.87
502.88	9769.87
503.249	9785.24
503.618	9895.06
503.987	9969.86
504.356	9949.75
504.724	10121.05
505.093	10103.42
505.462	10176.19
505.83	10303.64
506.199	10265.68
506.567	10441.94
506.936	10479.91
507.304	10563.75
507.672	10558.32
508.041	10693.91
508.409	10742.73
508.777	10801.71
509.145	10881.48
509.514	10922.38
509.882	10968.71
510.25	10945.88
510.618	11019.78
510.986	11062.94
511.354	11134.13
511.722	11173.68
512.09	11277.4
512.458	11308.36
512.826	11427.23
513.193	11352.88
513.561	11368.02
513.929	11463.39
514.297	11503.16
514.664	11580.9
515.032	11608.47
515.4	11643.95
515.767	11771.85
516.135	11692.76
516.502	11608.01
516.869	11752.42
517.237	11866.54
517.604	11726.2
517.972	11855.47
518.339	11950.83
518.706	11839.19
519.073	11953.09
519.44	11919.19
519.808	12049.81
520.175	12015.91
520.542	12191.28
520.909	12168
521.276	12055.46
521.643	12190.6
522.009	12224.49
522.376	12273.53
522.743	12246.64
523.11	12270.6
523.477	12407.77
523.843	12404.6
524.21	12532.96
524.577	12497.26
524.943	12528.67
525.31	12560.98
525.676	12553.75
526.043	12600.98
526.409	12534.32
526.776	12689.57
527.142	12661.55
527.508	12669.23
527.874	12657.93
528.241	12677.36
528.607	12697.7
528.973	12746.29
529.339	12680.3
529.705	12719.17
530.071	12819.73
530.437	12706.06
530.803	12780.41
531.169	12754.2
531.535	12680.08
531.901	12713.3
532.267	12694.31
532.632	12754.2
532.998	12686.63
533.364	12642.11
533.73	12623.13
534.095	12671.49
534.461	12674.65
534.826	12697.48
535.192	12640.3
535.557	12686.63
535.923	12621.32
536.288	12552.17
536.653	12581.55
537.019	12544.71
537.384	12548.33
537.749	12577.25
538.114	12452.51
538.479	12479.86
538.845	12429.91
539.21	12375.45
539.575	12344.49
539.94	12297.04
540.305	12328.67
540.67	12195.57
541.034	12225.4
541.399	12189.02
541.764	12137.27
542.129	12151.95
542.494	12187.89
542.858	12112.63
543.223	12048.68
543.587	12081.9
543.952	12082.8
544.316	11998.51
544.681	12038.51
545.045	11912.86
545.41	11998.29
545.774	11928.23
546.138	11860.21
546.503	11878.06
546.867	11775.69
547.231	11875.35
547.595	11730.27
547.959	11697.5
548.324	11658.86
548.688	11637.17
549.052	11653.44
549.416	11513.1
549.779	11554.23
550.143	11523.27
550.507	11593.33
550.871	11483.05
551.235	11493.44
551.599	11460.45
551.962	11405.99
552.326	11485.08
552.689	11473.78
553.053	11330.96
553.417	11370.05
553.78	11410.51
554.143	11309.49
554.507	11380.22
554.87	11334.35
555.234	11364.63
555.597	11240.11
555.96	11257.29
556.323	11237.4
556.686	11225.2
557.05	11238.98
557.413	11220.91
557.776	11218.65
558.139	11221.58
558.502	11187.91
558.865	11116.95
559.228	11169.61
559.59	11125.77
559.953	11153.11
560.316	11214.13
560.679	11154.92
561.041	11171.42
561.404	11194.24
561.767	11212.09
562.129	11099.33
562.492	11218.19
562.854	11160.79
563.217	11130.74
563.579	11184.52
563.941	11229.04
564.304	11236.72
564.666	11253.22
565.028	11284.18
565.39	11278.76
565.753	11261.13
566.115	11322.15
566.477	11387.45
566.839	11249.61
567.201	11405.99
567.563	11289.15
567.925	11348.59
568.287	11341.13
568.648	11380.45
569.01	11358.3
569.372	11398.75
569.734	11401.24
570.095	11407.57
570.457	11396.49
570.819	11401.24
571.18	11392.65
571.542	11418.41
571.903	11426.78
572.265	11516.04
572.626	11547
572.987	11539.32
573.349	11554.23
573.71	11543.16
574.071	11575.47
574.432	11509.71
574.794	11502.03
575.155	11515.14
575.516	11403.95
575.877	11478.3
576.238	11586.09
576.599	11560.11
576.96	11499.77
577.32	11528.24
577.681	11578.64
578.042	11506.77
578.403	11532.99
578.763	11565.98
579.124	11534.8
579.485	11580.67
579.845	11572.99
580.206	11572.31
580.566	11620.44
580.927	11602.59
581.287	11604.62
581.648	11540.45
582.008	11567.79
582.368	11568.47
582.728	11590.84
583.089	11580.22
583.449	11555.59
583.809	11557.62
584.169	11542.93
584.529	11547.22
584.889	11610.5
585.249	11522.59
585.609	11490.5
585.969	11530.05
586.329	11512.88
586.688	11586.32
587.048	11479.66
587.408	11458.19
587.768	11442.82
588.127	11445.76
588.487	11353.56
588.846	11486.66
589.206	11345.2
589.565	11392.43
589.925	11496.38
590.284	11382.94
590.643	11421.58
591.003	11436.95
591.362	11469.94
591.721	11429.71
592.08	11425.19
592.44	11407.12
592.799	11390.62
593.158	11433.1
593.517	11326.67
593.876	11367.12
594.235	11309.04
594.593	11326.44
594.952	11344.74
595.311	11258.19
595.67	11434.23
596.029	11394.69
596.387	11450.96
596.746	11349.49
597.104	11354.69
597.463	11387.91
597.822	11372.77
598.18	11341.58
598.538	11395.36
598.897	11453.67
599.255	11247.57
599.613	11406.89
599.972	11306.1
600.33	11340.45
600.688	11306.33
601.046	11255.71
601.404	11369.38
601.762	11322.82
602.12	11416.15
602.478	11359.66
602.836	11352.43
603.194	11284.18
603.552	11244.86
603.91	11310.39
604.268	11334.35
604.625	11417.06
604.983	11308.13
605.341	11355.59
605.698	11379.55
606.056	11450.73
606.413	11285.99
606.771	11415.93
607.128	11380.68
607.485	11290.96
607.843	11341.58
608.2	11379.09
608.557	11336.16
608.914	11376.38
609.272	11421.8
609.629	11415.7
609.986	11468.81
610.343	11395.82
610.7	11488.47
611.057	11434.01
611.414	11439.43
611.771	11411.86
612.127	11453.44
612.484	11488.7
612.841	11494.12
613.198	11483.72
613.554	11415.48
613.911	11506.1
614.267	11531.63
614.624	11537.28
614.98	11468.36
615.337	11551.97
615.693	11480.79
616.05	11498.41
616.406	11591.74
616.762	11575.47
617.118	11574.34
617.475	11591.29
617.831	11599.65
618.187	11593.78
618.543	11660.44
618.899	11622.93
619.255	11635.81
619.611	11634
619.967	11704.28
620.323	11708.35
620.678	11673.1
621.034	11678.07
621.39	11573.66
621.746	11661.12
622.101	11667.22
622.457	11552.2
622.812	11681.01
623.168	11603.04
623.523	11658.18
623.879	11637.62
624.234	11627.9
624.589	11645.3
624.945	11683.04
625.3	11651.85
625.655	11658.41
626.01	11680.78
626.365	11707.9
626.72	11698.18
627.075	11623.38
627.43	11563.5
627.785	11629.26
628.14	11702.7
628.495	11675.58
628.85	11666.77
629.205	11622.48
629.559	11710.84
629.914	11656.83
630.269	11636.26
630.623	11553.33
630.978	11569.6
631.332	11646.21
631.687	11574.12
632.041	11512.65
632.396	11507.45
632.75	11508.36
633.104	11531.63
633.459	11475.59
633.813	11525.76
634.167	11499.09
634.521	11355.82
634.875	11500.9
635.229	11429.71
635.583	11349.26
635.937	11470.84
636.291	11333.22
636.645	11315.59
636.999	11359.21
637.352	11402.82
637.706	11310.17
638.06	11350.62
638.413	11357.85
638.767	11307.46
639.121	11282.6
639.474	11260
639.828	11217.52
640.181	11207.12
640.534	11289.6
640.888	11158.76
641.241	11158.08
641.594	11183.39
641.947	11217.52
642.301	11206.67
642.654	11192.21
643.007	11114.24
643.36	11230.4
643.713	11083.96
644.066	11181.13
644.419	11071.76
644.771	11032.66
645.124	10927.81
645.477	10893.91
645.83	10900.24
646.182	10833.57
646.535	10787.24
646.888	10840.8
647.24	10809.62
647.593	10863.63
647.945	10850.97
648.298	10731.88
648.65	10818.88
649.002	10738.66
649.355	10697.3
649.707	10757.87
650.059	10776.17
650.411	10936.17
650.763	10979.56
651.115	11047.8
651.467	10968.26
651.819	10953.12
652.171	10999.22
652.523	11015.26
652.875	11001.25
653.227	10956.05
653.578	11011.87
653.93	10955.15
654.282	10929.16
654.633	10937.98
654.985	10925.55
655.337	10963.96
655.688	11034.7
656.039	11072.89
656.391	10983.85
656.742	10946.56
657.094	11016.62
657.445	11020.01
657.796	11063.4
658.147	10901.37
658.498	11048.25
658.849	11005.54
659.2	10941.36
659.551	10971.42
659.902	11031.98
660.253	10966.67
660.604	11079.44
660.955	11015.71
661.306	11006.22
661.656	11059.78
662.007	11076.28
662.358	10939.78
662.708	11060.91
663.059	11086.9
663.409	10971.19
663.76	11086.9
664.11	11079.67
664.461	11049.84
664.811	11064.98
665.161	10997.41
665.511	11071.76
665.862	11065.2
666.212	11067.24
666.562	11133.9
666.912	10979.1
667.262	11036.73
667.612	11001.25
667.962	11072.43
668.312	11021.81
668.662	11122.6
669.011	11060.46
669.361	11000.8
669.711	11008.26
670.06	10982.04
670.41	11038.31
670.76	10989.05
671.109	11003.06
671.459	10970.06
671.808	10989.73
672.157	11025.88
672.507	10994.02
672.856	10915.15
673.205	10887.35
673.554	11036.5
673.904	10939.78
674.253	11052.32
674.602	10934.36
674.951	10825.44
675.3	10730.97
675.649	10902.72
675.998	10945.88
676.346	10932.55
676.695	10977.3
677.044	10876.51
677.393	10870.86
677.741	10873.8
678.09	10912.44
678.438	10801.93
678.787	10828.6
679.135	10852.33
679.484	10790.63
679.832	10864.76
680.181	10792.22
680.529	10799
680.877	10703.41
681.225	10671.99
681.573	10724.65
681.922	10643.07
682.27	10610.07
682.618	10641.71
682.966	10575.72
683.314	10562.62
683.661	10582.28
684.009	10477.2
684.357	10502.05
684.705	10515.39
685.053	10489.63
685.4	10512.9
685.748	10343.64
686.095	10462.51
686.443	10414.83
686.79	10372.79
687.138	10389.97
687.485	10408.95
687.832	10342.96
688.18	10309.74
688.527	10225
688.874	10295.05
689.221	10203.98
689.568	10211.67
689.915	10183.87
690.262	10143.87
690.609	10102.06
690.956	10072.24
691.303	10100.93
691.65	10025.68
691.997	10063.2
692.344	9928.06
692.69	9918.34
693.037	9963.31
693.383	9834.95
693.73	9838.57
694.077	9802.41
694.423	9873.6
694.769	9781.4
695.116	9744.11
695.462	9643.32
695.808	9665.24
696.155	9649.65
696.501	9542.53
696.847	9579.59
697.193	9525.13
697.539	9536.66
697.885	9480.61
698.231	9427.96
698.577	9441.29
698.923	9382.99
699.269	9392.93
699.614	9320.62
699.96	9275.65
700.306	9214.63
700.651	9218.02
700.997	9148.42
701.342	9170.34
701.688	9119.04
702.033	9091.7
702.379	9051.92
702.724	8950.46
703.069	9037.46
703.415	8905.71
703.76	8945.03
704.105	8915.2
704.45	8938.03
704.795	8839.95
705.14	8823.91
705.485	8832.49
705.83	8764.25
706.175	8796.34
706.52	8730.8
706.865	8693.06
707.209	8696
707.554	8655.55
707.899	8635.21
708.243	8653.06
708.588	8660.07
708.932	8494.88
709.277	8515.67
709.621	8519.51
709.966	8481.77
710.31	8541.43
710.654	8416.23
710.998	8464.37
711.342	8421.66
711.687	8417.82
712.031	8379.85
712.375	8350.02
712.719	8349.79
713.063	8282.23
713.407	8333.75
713.75	8289.23
714.094	8280.64
714.438	8188.22
714.782	8200.65
715.125	8209.01
715.469	8273.41
715.812	8174.88
716.156	8211.95
716.499	8153.42
716.843	8161.32
717.186	8145.96
717.53	8124.72
717.873	8172.62
718.216	8092.85
718.559	8106.41
718.902	7995
719.246	8030.48
719.589	8030.25
719.932	8033.64
720.275	7975.34
720.617	7944.38
720.96	7945.74
721.303	7998.62
721.646	7953.19
721.989	7935.79
722.331	7922.69
722.674	7953.19
723.016	7917.04
723.359	7915
723.701	7918.85
724.044	7892.63
724.386	7850.82
724.729	7875.68
725.071	7884.04
725.413	7884.27
725.755	7858.73
726.097	7818.96
726.439	7762.24
726.782	7842.24
727.124	7807.21
727.465	7867.32
727.807	7821.9
728.149	7858.96
728.491	7820.77
728.833	7835.68
729.175	7802.69
729.516	7797.49
729.858	7771.28
730.199	7819.64
730.541	7713.2
730.882	7830.49
731.224	7829.58
731.565	7801.56
731.906	7763.14
732.248	7798.17
732.589	7758.62
732.93	7714.33
733.271	7741.22
733.612	7743.71
733.953	7836.81
734.294	7784.61
734.635	7801.56
734.976	7835.68
735.317	7796.14
735.658	7734.9
735.999	7778.06
736.339	7752.07
736.68	7797.72
737.021	7750.71
737.361	7815.8
737.702	7797.27
738.042	7778.28
738.383	7761.79
738.723	7813.76
739.063	7764.27
739.404	7831.39
739.744	7844.27
740.084	7879.75
740.424	7850.37
740.764	7818.74
741.104	7851.28
741.444	7820.09
741.784	7943.93
742.124	7906.87
742.464	7989.35
742.804	7880.43
743.143	7895.34
743.483	7987.09
743.823	8004.72
744.162	7994.1
744.502	8044.49
744.841	8005.85
745.181	8083.59
745.52	8050.14
745.86	8185.96
746.199	8101.89
746.538	8185.73
746.877	8316.8
747.216	8276.35
747.556	8305.73
747.895	8362.9
748.234	8416.01
748.573	8448.32
748.911	8479.51
749.25	8569.45
749.589	8682.89
749.928	8650.58
750.267	8753.63
750.605	8775.32
750.944	8823
751.283	8893.96
751.621	8969.21
751.96	8988.87
752.298	9162.65
752.636	9239.71
752.975	9299.6
753.313	9394.06
753.651	9545.92
753.989	9583.66
754.327	9647.61
754.666	9731.91
755.004	9902.52
755.342	9998.56
755.679	10129.18
756.017	10203.08
756.355	10377.31
756.693	10469.29
757.031	10643.97
757.368	10665.44
757.706	10882.84
758.044	10961.03
758.381	11128.7
758.719	11309.94
759.056	11411.86
759.394	11613.89
759.731	11675.58
760.068	11883.49
760.405	12034.9
760.743	12079.87
761.08	12392.4
761.417	12477.82
761.754	12591.49
762.091	12772.5
762.428	12875.1
762.765	13068.99
763.102	13206.62
763.438	13346.27
763.775	13460.17
764.112	13757.34
764.449	13831.01
764.785	13960.72
765.122	14055.41
765.458	14218.34
765.795	14374.04
766.131	14576.07
766.467	14680.7
766.804	14749.85
767.14	14939.45
767.476	15021.94
767.812	15078.88
768.148	15327.46
768.485	15357.07
768.821	15492.66
769.157	15587.57
769.492	15762.03
769.828	15843.38
770.164	15946.66
770.5	15972.42
770.836	16244.5
771.171	16246.31
771.507	16299.64
771.842	16406.76
772.178	16481.33
772.513	16547.32
772.849	16619.41
773.184	16600.2
773.519	16912.73
773.855	16795.67
774.19	16811.27
774.525	16999.06
774.86	17072.28
775.195	17115.21
775.53	17072.96
775.865	17212.16
776.2	17149.34
776.535	17240.63
776.87	17239.5
777.205	17295.55
777.539	17280.86
777.874	17424.58
778.209	17345.94
778.543	17456.45
778.878	17373.74
779.212	17497.58
779.547	17440.18
779.881	17548.65
780.215	17471.59
780.55	17598.82
780.884	17540.29
781.218	17586.61
781.552	17629.1
781.886	17522.89
782.22	17574.41
782.554	17506.39
782.888	17427.3
783.222	17495.54
783.556	17481.53
783.889	17498.48
784.223	17390.23
784.557	17398.37
784.89	17504.36
785.224	17422.78
785.557	17420.97
785.891	17457.58
786.224	17416
786.558	17435.88
786.891	17392.72
787.224	17252.61
787.557	17362.21
787.891	17261.65
788.224	17323.34
788.557	17331.03
788.89	17255.78
789.223	17338.71
789.556	17151.82
789.888	17255.1
790.221	17161.09
790.554	16983.92
790.887	17094.88
791.219	16997.93
791.552	16990.47
791.884	16934.88
792.217	16952.96
792.549	16982.34
792.882	16832.28
793.214	16796.8
793.546	16774.88
793.879	16781.66
794.211	16682.46
794.543	16771.95
794.875	16629.8
795.207	16698.05
795.539	16664.83
795.871	16652.4
796.203	16524.49
796.535	16505.51
796.867	16406.76
797.198	16437.49
797.53	16445.85
797.862	16245.41
798.193	16364.73
798.525	16169.7
798.856	16238.17
799.188	16052.64
799.519	16159.08
799.85	16022.36
800.182	16044.06
800.513	16065.98
800.844	16000.67
801.175	15961.8
801.506	15916.15
801.837	15929.93
802.168	15928.8
802.499	15834.12
802.83	15757.06
803.161	15781.92
803.491	15752.09
803.822	15684.97
804.153	15661.92
804.483	15612.65
804.814	15553.67
805.145	15590.28
805.475	15517.06
805.805	15442.04
806.136	15560
806.466	15428.25
806.796	15473
807.126	15380.8
807.457	15235.49
807.787	15287.01
808.117	15226.9
808.447	15157.3
808.777	15183.74
809.107	15163.85
809.436	15083.18
809.766	15173.8
810.096	14978.09
810.426	15017.19
810.755	15007.47
811.085	14964.99
811.414	14964.99
811.744	14814.48
812.073	14782.39
812.403	14837.99
812.732	14718.21
813.061	14807.48
813.39	14683.64
813.719	14677.99
814.049	14773.81
814.378	14704.2
814.707	14681.15
815.036	14628.27
815.365	14611.55
815.693	14382.18
816.022	14500.37
816.351	14483.64
816.68	14382.18
817.008	14452.23
817.337	14337.43
817.665	14238.45
817.994	14305.8
818.322	14299.92
818.651	14236.87
818.979	14131.79
819.307	14238.45
819.636	14241.17
819.964	14189.64
820.292	14275.29
820.62	14093.6
820.948	14120.94
821.276	14170.88
821.604	14151.9
821.932	14119.13
822.259	14077.1
822.587	14115.52
822.915	14046.14
823.243	14142.64
823.57	14138.57
823.898	14140.38
824.225	14059.7
824.553	14121.17
824.88	14057.67
825.207	14147.16
825.535	14054.5
825.862	14121.62
826.189	14073.94
826.516	14115.07
826.843	14179.47
827.17	14155.29
827.497	14163.65
827.824	14115.74
828.151	14173.37
828.478	14208.17
828.805	14215.4
829.131	14102.86
829.458	14123.43
829.785	13987.39
830.111	14165.01
830.438	14287.27
830.764	14063.99
831.09	14236.87
831.417	14027.16
831.743	14061.96
832.069	14152.13
832.395	14093.15
832.722	14120.72
833.048	14060.6
833.374	14069.42
833.7	13984.9
834.026	13997.56
834.351	14087.5
834.677	14005.01
835.003	13965.92
835.329	13997.1
835.654	13979.25
835.98	13924.56
836.306	14040.49
836.631	13946.71
836.956	13922.76
837.282	13932.25
837.607	13877.11
837.932	13873.94
838.258	13794.17
838.583	13787.62
838.908	13760.95
839.233	13752.82
839.558	13689.32
839.883	13669.43
840.208	13645.25
840.533	13642.54
840.858	13596.89
841.182	13677.79
841.507	13609.32
841.832	13483.44
842.156	13522.54
842.481	13555.99
842.805	13531.58
843.13	13474.86
843.454	13438.93
843.778	13377.91
844.103	13391.02
844.427	13323.9
844.751	13326.84
845.075	13324.13
845.399	13237.58
845.723	13141.08
846.047	13245.94
846.371	13144.02
846.695	13101.53
847.019	12999.84
847.343	12939.05
847.666	12900.41
847.99	12881.88
848.313	12801.2
848.637	12752.16
848.96	12666.07
849.284	12673.07
849.607	12626.74
849.931	12575.45
850.254	12528.89
850.577	12446.41
850.9	12304.94
851.223	12348.56
851.546	12294.78
851.869	12263.36
852.192	12305.4
852.515	12194.21
852.838	12142.69
853.161	12086.65
853.483	12091.62
853.806	11966.65
854.129	11949.93
854.451	11943.15
854.774	11871.51
855.096	11767.11
855.419	11753.55
855.741	11741.8
856.063	11671.97
856.385	11656.15
856.708	11669.71
857.03	11591.07
857.352	11606.66
857.674	11514.46
857.996	11532.31
858.318	11470.62
858.64	11437.85
858.961	11405.99
859.283	11381.81
859.605	11312.65
859.926	11339.55
860.248	11310.17
860.57	11231.07
860.891	11203.73
861.212	11162.15
861.534	11182.04
861.855	11131.42
862.176	11129.61
862.498	11091.19
862.819	11161.47
863.14	11042.83
863.461	11075.37
863.782	11007.13
864.103	11042.61
864.424	10988.6
864.745	11011.65
865.065	10935.49
865.386	10858.2
865.707	10838.54
866.027	10927.58
866.348	10870.63
866.668	10860.46
866.989	10828.37
867.309	10761.71
867.63	10766.68
867.95	10808.71
868.27	10742.27
868.59	10713.8
868.91	10741.6
869.23	10658.89
869.55	10598.32
869.87	10755.83
870.19	10669.28
870.51	10663.41
870.83	10667.25
871.15	10591.32
871.469	10615.05
871.789	10527.82
872.109	10532.79
872.428	10489.63
872.748	10560.81
873.067	10423.64
873.386	10486.01
873.706	10415.5
874.025	10361.72
874.344	10372.79
874.663	10450.3
874.982	10354.49
875.301	10427.03
875.62	10399.01
875.939	10332.34
876.258	10331.44
876.577	10275.85
876.896	10236.07
877.214	10318.56
877.533	10288.73
877.852	10258.44
878.17	10300.7
878.489	10215.51
878.807	10286.24
879.125	10098.68
879.444	10168.28
879.762	10126.02
880.08	10162.85
880.398	10109.75
880.716	10070.65
881.034	10009.41
881.352	10007.38
881.67	9962.86
881.988	9968.74
882.306	10007.15
882.624	9951.79
882.941	9896.87
883.259	9864.56
883.577	9832.02
883.894	9825.01
884.212	9817.55
884.529	9898.45
884.846	9719.93
885.164	9779.14
885.481	9658.69
885.798	9770.55
886.115	9661.4
886.432	9713.15
886.75	9650.33
887.067	9665.92
887.383	9598.8
887.7	9612.36
888.017	9512.02
888.334	9595.64
888.651	9543.21
888.967	9471.12
889.284	9493.04
889.6	9413.5
889.917	9326.49
890.233	9439.71
890.55	9288.98
890.866	9331.92
891.182	9302.99
891.498	9305.25
891.815	9248.98
892.131	9227.06
892.447	9150
892.763	9162.43
893.079	9172.6
893.395	9143.67
893.71	9082.88
894.026	9086.5
894.342	9066.61
894.657	8973.96
894.973	8999.95
895.289	8946.84
895.604	8917.01
895.92	8848.09
896.235	8777.81
896.55	8820.29
896.865	8759.28
897.181	8696
897.496	8722.44
897.811	8660.75
898.126	8618.04
898.441	8636.34
898.756	8616.68
899.071	8501.2
899.386	8534.87
899.7	8504.14
900.015	8423.24
900.33	8379.62
900.644	8425.27
900.959	8394.31
901.273	8367.2
901.588	8320.87
901.902	8265.5
902.216	8308.21
902.531	8239.06
902.845	8208.33
903.159	8124.72
903.473	8200.19
903.787	8107.77
904.101	8061.89
904.415	8099.18
904.729	8020.31
905.042	7971.73
905.356	7966.75
905.67	7973.08
905.984	7974.89
906.297	7908.45
906.611	7866.64
906.924	7807.21
907.237	7795.91
907.551	7776.02
907.864	7732.41
908.177	7751.62
908.491	7679.98
908.804	7618.97
909.117	7623.71
909.43	7552.08
909.743	7514.79
910.056	7489.7
910.368	7483.38
910.681	7423.94
910.994	7423.27
911.307	7408.12
911.619	7384.62
911.932	7324.06
912.244	7287.22
912.557	7288.35
912.869	7243.83
913.181	7179.2
913.494	7182.14
913.806	7091.97
914.118	7066.66
914.43	7068.7
914.742	7097.17
915.054	7032.77
915.366	7004.07
915.678	7038.19
915.99	6952.77
916.302	6904.86
916.613	6884.75
916.925	6803.85
917.236	6819.44
917.548	6735.37
917.859	6813.56
918.171	6770.85
918.482	6707.8
918.794	6680.46
919.105	6671.42
919.416	6659.9
919.727	6606.34
920.038	6616.05
920.349	6531.99
920.66	6527.02
920.971	6578.09
921.282	6569.95
921.593	6464.87
921.903	6400.47
922.214	6393.24
922.525	6364.08
922.835	6371.54
923.146	6303.97
923.456	6282.73
923.767	6239.34
924.077	6237.31
924.387	6228.04
924.697	6173.35
925.008	6140.36
925.318	6110.76
925.628	6183.3
925.938	6073.24
926.248	6024.43
926.558	6033.92
926.867	5961.38
927.177	6016.3
927.487	5949.18
927.796	5904.21
928.106	5912.34
928.416	5810.43
928.725	5925.9
929.034	5827.83
929.344	5828.28
929.653	5752.8
929.962	5795.96
930.271	5706.25
930.581	5721.84
930.89	5718.23
931.199	5640.26
931.508	5648.85
931.817	5663.99
932.125	5567.72
932.434	5626.7
932.743	5568.17
933.051	5524.11
933.36	5532.47
933.669	5480.94
933.977	5493.82
934.286	5440.72
934.594	5469.64
934.902	5402.53
935.21	5381.29
935.519	5340.16
935.827	5326.15
936.135	5351.68
936.443	5258.35
936.751	5245.02
937.059	5239.82
937.367	5259.48
937.674	5179.71
937.982	5221.74
938.29	5213.83
938.597	5140.84
938.905	5130.22
939.213	5074.4
939.52	5052.71
939.827	5107.62
940.135	5005.48
940.442	4994.4
940.749	5007.96
941.056	5043.67
941.363	4934.29
941.67	4959.15
941.977	4904.24
942.284	4833.73
942.591	4889.55
942.898	4817.01
943.205	4845.25
943.511	4869.43
943.818	4832.82
944.125	4795.76
944.431	4777.23
944.738	4674.86
945.044	4744.01
945.35	4673.96
945.657	4626.28
945.963	4647.97
946.269	4630.12
946.575	4586.73
946.881	4563.45
947.187	4548.31
947.493	4582.44
947.799	4512.38
948.105	4490.01
948.41	4496.34
948.716	4434.19
949.022	4419.28
949.327	4443.46
949.633	4400.97
949.938	4428.32
950.244	4406.62
950.549	4365.27
950.854	4329.34
951.16	4325.49
951.465	4288.21
951.77	4295.89
952.075	4271.48
952.38	4217.25
952.685	4256.57
952.99	4146.97
953.294	4209.56
953.599	4157.81
953.904	4142.45
954.209	4129.11
954.513	4107.65
954.818	4073.3
955.122	4076.69
955.426	4059.74
955.731	4043.69
956.035	4028.55
956.339	4066.74
956.643	4048.89
956.948	3969.57
957.252	4004.6
957.556	3932.28
957.86	3917.59
958.163	3923.92
958.467	3953.53
958.771	3895.9
959.075	3918.27
959.378	3837.37
959.682	3866.97
959.985	3798.95
960.289	3786.52
960.592	3817.94
960.896	3781.78
961.199	3708.11
961.502	3697.71
961.805	3738.39
962.108	3714.44
962.411	3684.83
962.714	3661.33
963.017	3658.17
963.32	3670.82
963.623	3617.49
963.926	3627.43
964.228	3551.73
964.531	3543.59
964.833	3580.88
965.136	3571.16
965.438	3518.74
965.741	3499.07
966.043	3548.11
966.345	3478.96
966.648	3457.72
966.95	3462.47
967.252	3426.76
967.554	3424.27
967.856	3420.88
968.158	3412.52
968.46	3390.83
968.761	3382.69
969.063	3365.74
969.365	3332.3
969.666	3274.9
969.968	3283.26
970.269	3299.53
970.571	3288.23
970.872	3291.17
971.174	3255.47
971.475	3233.09
971.776	3214.11
972.077	3198.74
972.378	3228.12
972.679	3199.65
972.98	3140.89
973.281	3180.89
973.582	3161.91
973.883	3144.28
974.183	3133.66
974.484	3122.36
974.785	3090.95
975.085	3083.04
975.386	3095.02
975.686	3052.08
975.986	3071.06
976.287	3035.81
976.587	3004.62
976.887	2960.33
977.187	3008.24
977.487	2988.35
977.787	2919.2
978.087	2943.38
978.387	2932.76
978.687	2915.14
978.987	2933.44
979.286	2886.89
979.586	2898.19
979.885	2866.77
980.185	2808.92
980.484	2845.98
980.784	2820.22
981.083	2816.61
981.382	2782.94
981.682	2755.82
981.981	2773.22
982.28	2782.03
982.579	2744.74
982.878	2741.81
983.177	2702.03
983.475	2717.85
983.774	2698.42
984.073	2702.49
984.372	2694.8
984.67	2646.22
984.969	2625.2
985.267	2607.57
985.566	2657.29
985.864	2634.46
986.162	2614.13
986.461	2604.18
986.759	2597.4
987.057	2580.68
987.355	2539.33
987.653	2543.39
987.951	2536.84
988.249	2546.33
988.547	2535.26
988.844	2480.12
989.142	2481.25
989.44	2492.55
989.737	2468.82
990.035	2459.1
990.332	2440.35
990.63	2454.36
990.927	2457.07
991.224	2428.82
991.521	2432.21
991.819	2427.24
992.116	2392.21
992.413	2337.07
992.71	2342.95
993.006	2350.63
993.303	2322.83
993.6	2307.47
993.897	2314.93
994.193	2316.28
994.49	2293.91
994.787	2297.75
995.083	2260.46
995.379	2289.16
995.676	2260.92
995.972	2256.17
996.268	2227.92
996.565	2190.41
996.861	2168.04
997.157	2206.68
997.453	2203.74
997.749	2185.21
998.044	2144.31
998.34	2177.3
998.636	2142.95
998.932	2110.18
999.227	2129.62
999.523	2099.11
999.818	2103.41
1000.114	2098.89
1000.409	2057.08
1000.704	2039.23
1001	2080.13
1001.295	2024.99
1001.59	2028.83
1001.885	2032.45
1002.18	2008.94
1002.475	2002.16
1002.77	2002.62
1003.065	1956.29
1003.359	1947.25
1003.654	1963.97
1003.949	1936.18
1004.243	1929.17
1004.538	1939.12
1004.832	1903.18
1005.127	1914.94
1005.421	1895.95
1005.715	1880.59
1006.009	1882.62
1006.304	1848.72
1006.598	1840.14
1006.892	1840.59
1007.186	1847.82
1007.48	1792.45
1007.773	1796.75
1008.067	1790.87
1008.361	1779.8
1008.655	1791.55
1008.948	1786.8
1009.242	1757.43
1009.535	1756.75
1009.829	1739.57
1010.122	1712.91
1010.415	1731.44
1010.708	1717.65
1011.001	1686.47
1011.295	1679.24
1011.588	1679.91
1011.881	1660.48
1012.173	1665.22
1012.466	1617.09
1012.759	1652.34
1013.052	1646.92
1013.344	1639.91
1013.637	1601.95
1013.93	1627.03
1014.222	1624.1
1014.514	1597.43
1014.807	1572.12
1015.099	1536.64
1015.391	1601.95
1015.683	1540.71
1015.976	1515.17
1016.268	1562.4
1016.56	1512.23
1016.851	1517.43
1017.143	1513.14
1017.435	1502.29
1017.727	1482.86
1018.018	1456.19
1018.31	1458.45
1018.602	1467.72
1018.893	1472.24
1019.185	1450.54
1019.476	1406.02
1019.767	1418.23
1020.058	1411.9
1020.35	1399.92
1020.641	1376.87
1020.932	1386.81
1021.223	1364.89
1021.514	1348.62
1021.804	1359.7
1022.095	1342.75
1022.386	1311.11
1022.677	1331.45
1022.967	1329.87
1023.258	1317.21
1023.548	1316.76
1023.839	1289.19
1024.129	1298.45
1024.419	1269.75
1024.709	1267.95
1025	1267.27
1025.29	1246.03
1025.58	1232.47
1025.87	1235.63
1026.16	1229.76
1026.449	1222.98
1026.739	1249.64
1027.029	1205.8
1027.319	1213.03
1027.608	1171.45
1027.898	1186.37
1028.187	1188.85
1028.477	1165.35
1028.766	1159.48
1029.055	1145.24
1029.344	1173.71
1029.634	1155.63
1029.923	1139.36
1030.212	1128.29
1030.501	1109.98
1030.79	1165.8
1031.078	1095.75
1031.367	1084.9
1031.656	1084.22
1031.945	1100.04
1032.233	1081.74
1032.522	1094.84
1032.81	1069.53
1033.099	1079.48
1033.387	1059.14
1033.675	1048.74
1033.963	1044.68
1034.251	1029.76
1034.54	1042.64
1034.828	1005.13
1035.116	1011.46
1035.403	992.47
1035.691	1001.97
1035.979	996.09
1036.267	983.66
1036.554	974.85
1036.842	960.61
1037.129	947.28
1037.417	952.47
1037.704	959.03
1037.992	932.36
1038.279	961.29
1038.566	919.03
1038.853	919.03
1039.14	919.03
