Data from hue_140_FLMS001491_00078.txt Node
Date: Tue Feb 07 16:56:24 GMT 2017
User: dcchb
Spectrometer: FLMS00149
Trigger mode: 0
Integration Time (sec): 2.000000E-2
Scans to average: 10
Electric dark correction enabled: true
Nonlinearity correction enabled: false
Boxcar width: 0
XAxis mode: Wavelengths
Number of Pixels in Spectrum: 2048
>>>>>Begin Spectral Data<<<<<
341.393	-18.35
341.776	-18.35
342.16	-18.35
342.543	-71.45
342.927	-65.35
343.31	-78.46
343.693	-64
344.077	-74.16
344.46	-69.42
344.843	-64.22
345.226	-34.84
345.61	-25.13
345.993	-26.26
346.376	-7.5
346.759	14.42
347.142	31.37
347.525	31.82
347.908	51.26
348.291	83.57
348.674	117.47
349.057	114.08
349.44	112.27
349.823	148.65
350.206	143.91
350.588	189.56
350.971	209.9
351.354	211.03
351.737	238.82
352.119	264.13
352.502	261.87
352.884	259.39
353.267	279.95
353.65	295.09
354.032	300.51
354.414	310.01
354.797	298.48
355.179	325.15
355.562	319.72
355.944	326.28
356.326	329.67
356.709	350.46
357.091	336.9
357.473	324.92
357.855	336.9
358.238	339.84
358.62	327.18
359.002	345.71
359.384	331.02
359.766	322.44
360.148	335.77
360.53	321.76
360.912	322.89
361.294	354.07
361.676	328.08
362.057	334.19
362.439	316.79
362.821	307.07
363.203	326.95
363.584	329.67
363.966	329.67
364.348	332.83
364.729	327.18
365.111	317.24
365.493	303
365.874	335.54
366.256	315.88
366.637	316.56
367.019	320.4
367.4	324.24
367.781	293.51
368.163	326.05
368.544	331.7
368.925	336.9
369.306	297.8
369.688	298.93
370.069	305.03
370.45	322.21
370.831	325.15
371.212	326.5
371.593	313.62
371.974	329.67
372.355	336.22
372.736	297.8
373.117	321.98
373.498	334.64
373.879	327.63
374.26	318.37
374.641	316.79
375.021	313.62
375.402	321.53
375.783	342.32
376.163	338.93
376.544	334.64
376.925	322.89
377.305	333.06
377.686	331.93
378.066	321.98
378.447	342.32
378.827	345.71
379.208	328.54
379.588	327.41
379.968	340.74
380.349	330.8
380.729	331.02
381.109	347.97
381.489	334.86
381.87	326.05
382.25	331.7
382.63	319.95
383.01	345.94
383.39	328.08
383.77	364.24
384.15	347.75
384.53	355.2
384.91	338.93
385.29	339.38
385.67	350.68
386.049	350.68
386.429	366.95
386.809	359.95
387.189	349.1
387.568	365.37
387.948	348.42
388.328	351.13
388.707	368.31
389.087	364.24
389.466	360.17
389.846	359.27
390.225	356.56
390.605	357.01
390.984	374.64
391.363	374.19
391.743	362.89
392.122	370.12
392.501	399.04
392.881	371.93
393.26	383.68
393.639	397.01
394.018	381.42
394.397	399.5
394.776	394.07
395.155	392.49
395.534	392.04
395.913	383.45
396.292	373.51
396.671	384.81
397.05	405.6
397.429	383.22
397.808	388.2
398.186	402.66
398.565	400.4
398.944	396.78
399.323	395.43
399.701	406.73
400.08	390.46
400.458	409.89
400.837	407.18
401.215	419.38
401.594	411.25
401.972	418.25
402.351	404.01
402.729	440.62
403.107	431.36
403.486	417.35
403.864	427.29
404.242	443.11
404.62	430.68
404.999	434.75
405.377	426.16
405.755	451.7
406.133	443.11
406.511	439.49
406.889	423.9
407.267	434.75
407.645	441.98
408.023	467.74
408.401	461.87
408.779	472.71
409.156	477.69
409.534	460.51
409.912	473.17
410.29	472.04
410.667	467.74
411.045	474.07
411.422	457.8
411.8	479.72
412.178	479.27
412.555	475.43
412.933	496.89
413.31	458.48
413.687	473.84
414.065	494.63
414.442	495.99
414.819	506.84
415.197	522.66
415.574	513.62
415.951	497.8
416.328	510.68
416.705	515.2
417.082	503.45
417.46	502.09
417.837	515.65
418.214	507.97
418.591	518.14
418.967	518.36
419.344	541.86
419.721	561.07
420.098	552.94
420.475	538.93
420.852	555.88
421.228	570.34
421.605	550
421.982	565.14
422.358	557.68
422.735	589.32
423.111	593.84
423.488	563.56
423.864	567.63
424.241	599.26
424.617	598.13
424.994	594.52
425.37	602.65
425.746	574.86
426.123	630.45
426.499	592.03
426.875	588.64
427.251	615.99
427.627	606.5
428.003	615.53
428.379	629.77
428.756	635.2
429.132	646.49
429.507	648.3
429.883	657.34
430.259	646.95
430.635	662.54
431.011	672.48
431.387	675.87
431.763	663.89
432.138	671.13
432.514	688.3
432.89	675.42
433.265	687.17
433.641	713.39
434.016	706.61
434.392	711.13
434.767	738.7
435.143	734.18
435.518	726.27
435.894	738.02
436.269	761.75
436.644	754.97
437.02	758.13
437.395	775.3
437.77	761.07
438.145	788.64
438.52	777.79
438.895	791.58
439.271	796.55
439.646	810.78
440.021	814.85
440.395	817.56
440.77	821.86
441.145	821.4
441.52	842.2
441.895	834.96
442.27	838.81
442.645	859.6
443.019	881.29
443.394	843.33
443.769	858.01
444.143	862.99
444.518	861.86
444.892	902.76
445.267	868.86
445.641	911.12
446.016	872.03
446.39	883.32
446.764	874.74
447.139	915.41
447.513	902.31
447.887	892.59
448.262	926.71
448.636	927.62
449.01	946.6
449.384	956.54
449.758	935.3
450.132	961.74
450.506	981.4
450.88	973.27
451.254	967.39
451.628	971.68
452.002	979.59
452.376	978.69
452.75	1018.69
453.123	1012.36
453.497	1031.34
453.871	1039.03
454.244	1059.82
454.618	1078.8
454.992	1062.3
455.365	1078.35
455.739	1096.88
456.112	1122.41
456.486	1108.63
456.859	1139.81
457.232	1162.64
457.606	1141.17
457.979	1136.2
458.352	1187.5
458.725	1178.68
459.099	1191.79
459.472	1208.29
459.845	1225.46
460.218	1252.81
460.591	1262.3
460.964	1266.37
461.337	1299.13
461.71	1324.44
462.083	1354.5
462.456	1351.33
462.829	1372.12
463.201	1366.48
463.574	1339.13
463.947	1388.4
464.32	1448.06
464.692	1433.59
465.065	1470.65
465.438	1489.64
465.81	1492.8
466.183	1504.55
466.555	1528.96
466.928	1548.39
467.3	1561.5
467.672	1587.26
468.045	1651.67
468.417	1648.73
468.789	1660.25
469.161	1722.17
469.534	1744.32
469.906	1764.66
470.278	1774.83
470.65	1786.8
471.022	1837.88
471.394	1905.67
471.766	1909.06
472.138	1962.84
472.51	2014.14
472.882	2047.36
473.253	2079
473.625	2135.95
473.997	2173.46
474.369	2188.37
474.74	2206.45
475.112	2279.67
475.484	2359.22
475.855	2409.84
476.227	2428.14
476.598	2544.52
476.97	2580.91
477.341	2648.93
477.713	2688.02
478.084	2727.12
478.455	2837.17
478.827	2865.42
479.198	3017.28
479.569	3033.32
479.94	3116.03
480.311	3245.3
480.682	3313.32
481.053	3421.79
481.424	3506.31
481.795	3552.63
482.166	3673.99
482.537	3723.7
482.908	3858.39
483.279	3942.9
483.65	4039.63
484.021	4206.85
484.391	4324.59
484.762	4360.97
485.133	4463.8
485.503	4558.26
485.874	4705.6
486.244	4827.63
486.615	4934.29
486.985	5079.82
487.356	5195.3
487.726	5327.28
488.097	5381.29
488.467	5529.53
488.837	5754.61
489.207	5883.87
489.578	5971.55
489.948	6090.87
490.318	6287.25
490.688	6358.21
491.058	6533.35
491.428	6687.24
491.798	6825.54
492.168	6965.2
492.538	7012.43
492.908	7216.94
493.278	7362.7
493.648	7459.65
494.017	7615.8
494.387	7753.88
494.757	7881.78
495.126	8008.33
495.496	8084.49
495.866	8244.94
496.235	8369.46
496.605	8491.71
496.974	8598.38
497.344	8734.19
497.713	8842.66
498.082	9017.57
498.452	9112.71
498.821	9207.63
499.19	9310
499.559	9456.43
499.928	9518.8
500.298	9624.34
500.667	9758.57
501.036	9798.57
501.405	9926.7
501.774	9978.68
502.143	10172.57
502.512	10167.15
502.88	10299.35
503.249	10340.25
503.618	10417.99
503.987	10498.44
504.356	10608.04
504.724	10783.85
505.093	10813.68
505.462	10913.57
505.83	10996.05
506.199	11091.87
506.567	11185.43
506.936	11271.75
507.304	11404.4
507.672	11389.71
508.041	11471.07
508.409	11532.54
508.777	11674
509.145	11710.84
509.514	11729.37
509.882	11750.16
510.25	11850.72
510.618	11893.43
510.986	12011.17
511.354	12104.95
511.722	12182.69
512.09	12257.94
512.458	12231.27
512.826	12241.67
513.193	12409.8
513.561	12398.73
513.929	12487.09
514.297	12649.79
514.664	12675.1
515.032	12689.34
515.4	12703.13
515.767	12802.78
516.135	12830.81
516.502	12807.08
516.869	12899.96
517.237	12956.68
517.604	12935.89
517.972	12949
518.339	13015.43
518.706	13002.1
519.073	13112.16
519.44	13070.12
519.808	13209.1
520.175	13142.21
520.542	13284.81
520.909	13348.99
521.276	13262.43
521.643	13387.85
522.009	13458.59
522.376	13457.68
522.743	13481.86
523.11	13575.87
523.477	13696.32
523.843	13646.83
524.21	13768.64
524.577	13744.68
524.943	13812.93
525.31	13836.66
525.676	13920.04
526.043	13873.27
526.409	13939.93
526.776	14005.69
527.142	14029.87
527.508	14052.02
527.874	14067.84
528.241	14095.18
528.607	14055.18
528.973	14053.15
529.339	14058.35
529.705	14153.71
530.071	14231.22
530.437	14187.16
530.803	14137.89
531.169	14223.54
531.535	14178.57
531.901	14118
532.267	14238
532.632	14178.57
532.998	14261.05
533.364	14169.3
533.73	14168.17
534.095	14211.34
534.461	14144.44
534.826	14140.38
535.192	14265.12
535.557	14206.59
535.923	14158.91
536.288	14162.98
536.653	14180.83
537.019	14080.27
537.384	14060.38
537.749	14091.79
538.114	13995.07
538.479	14050.66
538.845	13913.26
539.21	13976.99
539.575	13981.51
539.94	13947.16
540.305	13924.56
540.67	13847.73
541.034	13842.53
541.399	13788.07
541.764	13839.59
542.129	13777.22
542.494	13775.87
542.858	13741.29
543.223	13779.93
543.587	13681.18
543.952	13614.06
544.316	13611.8
544.681	13583.33
545.045	13541.3
545.41	13641.18
545.774	13498.36
546.138	13480.51
546.503	13393.28
546.867	13376.78
547.231	13501.52
547.595	13462.65
547.959	13343.34
548.324	13317.57
548.688	13352.37
549.052	13310.12
549.416	13287.29
549.779	13274.18
550.143	13277.12
550.507	13232.15
550.871	13238.71
551.235	13126.84
551.599	13192.61
551.962	13184.92
552.326	13098.82
552.689	13163.23
553.053	13012.5
553.417	13020.63
553.78	13120.52
554.143	13016.34
554.507	12986.06
554.87	12982.22
555.234	13031.25
555.597	12943.12
555.96	12964.14
556.323	12900.86
556.686	12917.13
557.05	12939.5
557.413	12859.28
557.776	12930.69
558.139	12905.38
558.502	12910.8
558.865	12836.91
559.228	12890.69
559.59	12911.03
559.953	12866.06
560.316	12954.65
560.679	12945.15
561.041	12972.5
561.404	13018.37
561.767	13060.63
562.129	12887.08
562.492	12981.99
562.854	12986.73
563.217	12998.49
563.579	12966.85
563.941	13026.51
564.304	13070.57
564.666	13047.98
565.028	13021.31
565.39	12989.9
565.753	13115.54
566.115	13063.79
566.477	13053.17
566.839	13117.13
567.201	13155.09
567.563	13115.32
567.925	13170.91
568.287	13186.28
568.648	13103.57
569.01	13226.5
569.372	13306.73
569.734	13238.71
570.095	13317.12
570.457	13303.34
570.819	13309.66
571.18	13273.96
571.542	13255.43
571.903	13338.36
572.265	13348.08
572.626	13333.62
572.987	13360.28
573.349	13424.01
573.71	13386.05
574.071	13383.11
574.432	13497.91
574.794	13586.27
575.155	13476.67
575.516	13413.16
575.877	13481.19
576.238	13514.63
576.599	13495.65
576.96	13559.83
577.32	13444.8
577.681	13535.42
578.042	13539.26
578.403	13525.7
578.763	13525.48
579.124	13499.49
579.485	13591.01
579.845	13525.25
580.206	13610.45
580.566	13571.13
580.927	13506.72
581.287	13588.75
581.648	13496.55
582.008	13625.59
582.368	13496.33
582.728	13569.77
583.089	13507.85
583.449	13487.29
583.809	13488.64
584.169	13476.21
584.529	13485.03
584.889	13552.14
585.249	13450.23
585.609	13474.41
585.969	13467.4
586.329	13539.04
586.688	13540.39
587.048	13398.93
587.408	13400.51
587.768	13452.94
588.127	13407.74
588.487	13340.62
588.846	13416.1
589.206	13316.67
589.565	13318.93
589.925	13442.32
590.284	13379.27
590.643	13338.36
591.003	13417.23
591.362	13419.27
591.721	13386.5
592.08	13295.43
592.44	13367.29
592.799	13317.35
593.158	13311.92
593.517	13304.69
593.876	13342.21
594.235	13264.47
594.593	13293.62
594.952	13301.08
595.311	13312.83
595.67	13294.3
596.029	13346.73
596.387	13257.24
596.746	13366.61
597.104	13264.02
597.463	13287.74
597.822	13335.65
598.18	13322.77
598.538	13215.43
598.897	13287.97
599.255	13221.08
599.613	13422.66
599.972	13308.76
600.33	13334.75
600.688	13247.97
601.046	13355.76
601.404	13367.06
601.762	13359.61
602.12	13373.62
602.478	13363.45
602.836	13401.19
603.194	13320.29
603.552	13297.46
603.91	13255.2
604.268	13272.38
604.625	13230.8
604.983	13301.75
605.341	13268.54
605.698	13250.46
606.056	13302.21
606.413	13301.3
606.771	13358.48
607.128	13364.13
607.485	13314.64
607.843	13282.77
608.2	13462.43
608.557	13391.92
608.914	13337.91
609.272	13407.74
609.629	13445.48
609.986	13405.93
610.343	13325.71
610.7	13476.21
611.057	13465.82
611.414	13449.1
611.771	13481.64
612.127	13534.97
612.484	13565.48
612.841	13542.65
613.198	13468.3
613.554	13492.26
613.911	13565.25
614.267	13589.43
614.624	13466.27
614.98	13574.29
615.337	13637.79
615.693	13564.57
616.05	13576.78
616.406	13673.72
616.762	13604.57
617.118	13603.22
617.475	13618.81
617.831	13715.53
618.187	13631.01
618.543	13674.17
618.899	13677.56
619.255	13631.69
619.611	13638.47
619.967	13709.88
620.323	13726.38
620.678	13684.57
621.034	13725.92
621.39	13689.09
621.746	13697.68
622.101	13819.71
622.457	13646.83
622.812	13726.15
623.168	13704
623.523	13699.71
623.879	13772.48
624.234	13623.33
624.589	13753.49
624.945	13699.71
625.3	13730.9
625.655	13701.52
626.01	13774.74
626.365	13806.37
626.72	13707.17
627.075	13638.24
627.43	13700.84
627.785	13661.29
628.14	13641.41
628.495	13665.14
628.85	13661.75
629.205	13703.78
629.559	13732.93
629.914	13602.99
630.269	13701.07
630.623	13659.26
630.978	13656.1
631.332	13689.99
631.687	13694.74
632.041	13568.64
632.396	13603.22
632.75	13557.12
633.104	13521.86
633.459	13471.24
633.813	13431.92
634.167	13443.22
634.521	13464.69
634.875	13476.67
635.229	13378.81
635.583	13340.4
635.937	13419.72
636.291	13419.72
636.645	13357.8
636.999	13339.27
637.352	13455.42
637.706	13193.28
638.06	13368.19
638.413	13291.81
638.767	13182.21
639.121	13251.36
639.474	13243.68
639.828	13099.05
640.181	13219.5
640.534	13212.94
640.888	13214.3
641.241	13154.87
641.594	13109.67
641.947	13258.37
642.301	13128.88
642.654	13230.34
643.007	13234.64
643.36	13178.82
643.713	13106.96
644.066	13150.12
644.419	13164.58
644.771	12947.87
645.124	12885.49
645.477	12904.48
645.83	12705.61
646.182	12706.06
646.535	12733.86
646.888	12704.03
647.24	12678.72
647.593	12764.37
647.945	12662.9
648.298	12602.11
648.65	12625.61
649.002	12591.72
649.355	12660.64
649.707	12709
650.059	12664.71
650.411	12894.53
650.763	12889.79
651.115	12986.06
651.467	12998.49
651.819	12935.21
652.171	12971.14
652.523	12895.89
652.875	12900.18
653.227	12824.71
653.578	12959.62
653.93	12918.49
654.282	12835.1
654.633	12852.73
654.985	12915.55
655.337	12942.22
655.688	12907.19
656.039	12981.09
656.391	12902.67
656.742	12884.82
657.094	12897.92
657.445	12934.53
657.796	12925.04
658.147	12873.07
658.498	12977.24
658.849	12967.75
659.2	12969.11
659.551	12851.82
659.902	12985.83
660.253	12885.49
660.604	12953.06
660.955	12925.72
661.306	12992.61
661.656	12897.02
662.007	12932.05
662.358	12859.96
662.708	12953.97
663.059	12977.24
663.409	12901.54
663.76	12913.97
664.11	12961.2
664.461	13013.17
664.811	12928.88
665.161	12979.73
665.511	12990.35
665.862	12976.34
666.212	13080.52
666.562	13019.05
666.912	13012.72
667.262	12954.42
667.612	12897.7
667.962	13036.45
668.312	12984.47
668.662	12979.96
669.011	12946.51
669.361	12976.34
669.711	12937.92
670.06	12892.05
670.41	12886.85
670.76	12833.97
671.109	12974.53
671.459	12907.87
671.808	12929.56
672.157	12861.99
672.507	12814.99
672.856	12843.91
673.205	12810.24
673.554	12859.28
673.904	12856.57
674.253	12891.14
674.602	12804.37
674.951	12688.89
675.3	12598.72
675.649	12840.07
675.998	12770.47
676.346	12818.6
676.695	12764.37
677.044	12755.33
677.393	12778.38
677.741	12787.64
678.09	12718.72
678.438	12697.02
678.787	12673.3
679.135	12735.67
679.484	12620.42
679.832	12652.73
680.181	12582
680.529	12626.74
680.877	12545.39
681.225	12490.48
681.573	12623.81
681.922	12515.33
682.27	12532.74
682.618	12474.66
682.966	12412.74
683.314	12378.84
683.661	12377.71
684.009	12403.47
684.357	12288.67
684.705	12351.05
685.053	12289.35
685.4	12356.02
685.748	12212.52
686.095	12156.93
686.443	12196.25
686.79	12113.76
687.138	12194.67
687.485	12132.75
687.832	12158.73
688.18	12043.48
688.527	11941.11
688.874	12000.32
689.221	11921.23
689.568	11899.98
689.915	11869.7
690.262	11968.91
690.609	11864.5
690.956	11840.78
691.303	11808.69
691.65	11814.11
691.997	11767.11
692.344	11752.42
692.69	11688.01
693.037	11711.29
693.383	11532.99
693.73	11524.17
694.077	11407.34
694.423	11486.44
694.769	11383.39
695.116	11373.9
695.462	11369.38
695.808	11360.34
696.155	11327.57
696.501	11233.33
696.847	11226.1
697.193	11141.36
697.539	11234.01
697.885	11078.76
698.231	11029.5
698.577	11011.65
698.923	11090.06
699.269	10935.04
699.614	10884.64
699.96	10866.34
700.306	10874.7
700.651	10810.29
700.997	10764.65
701.342	10681.03
701.688	10658.89
702.033	10698.89
702.379	10649.4
702.724	10627.02
703.069	10650.98
703.415	10518.55
703.76	10483.07
704.105	10499.57
704.45	10473.35
704.795	10432.68
705.14	10318.1
705.485	10377.54
705.83	10267.48
706.175	10259.57
706.52	10216.64
706.865	10165.11
707.209	10222.97
707.554	10148.39
707.899	10231.78
708.243	10108.84
708.588	10037.66
708.932	10003.99
709.277	9991.56
709.621	10008.06
709.966	9992.46
710.31	10026.13
710.654	9869.53
710.998	9781.62
711.342	9882.41
711.687	9851.45
712.031	9805.35
712.375	9761.73
712.719	9880.6
713.063	9753.37
713.407	9806.48
713.75	9710.21
714.094	9674.28
714.438	9674.96
714.782	9649.87
715.125	9628.18
715.469	9671.34
715.812	9589.08
716.156	9538.69
716.499	9611
716.843	9564.68
717.186	9553.83
717.53	9562.42
717.873	9556.99
718.216	9434.06
718.559	9442.2
718.902	9352.48
719.246	9427.05
719.589	9420.05
719.932	9386.38
720.275	9425.47
720.617	9471.8
720.96	9283.33
721.303	9300.96
721.646	9334.85
721.989	9291.01
722.331	9307.06
722.674	9278.81
723.016	9307.74
723.359	9246.04
723.701	9241.3
724.044	9215.76
724.386	9204.69
724.729	9293.5
725.071	9275.42
725.413	9207.85
725.755	9249.43
726.097	9155.42
726.439	9124.46
726.782	9151.58
727.124	9216.44
727.465	9137.8
727.807	9130.79
728.149	9136.21
728.491	9117.46
728.833	9174.18
729.175	9134.18
729.516	9119.27
729.858	9067.52
730.199	9100.28
730.541	9122.43
730.882	9041.53
731.224	9086.27
731.565	9044.92
731.906	9071.13
732.248	9086.95
732.589	9035.65
732.93	8967.41
733.271	9020.51
733.612	9043.56
733.953	9029.1
734.294	8992.94
734.635	9023.9
734.976	9028.65
735.317	8957.46
735.658	9034.97
735.999	9029.32
736.339	9018.03
736.68	8984.35
737.021	9023.45
737.361	9026.61
737.702	9121.98
738.042	9026.61
738.383	9075.2
738.723	9059.15
739.063	9030.91
739.404	9155.65
739.744	9126.27
740.084	9042.21
740.424	9157
740.764	9108.42
741.104	9194.97
741.444	9113.62
741.784	9071.81
742.124	9231.13
742.464	9174.86
742.804	9240.62
743.143	9179.15
743.483	9233.84
743.823	9228.64
744.162	9215.08
744.502	9318.58
744.841	9260.73
745.181	9358.13
745.52	9376.43
745.86	9329.2
746.199	9445.58
746.538	9485.13
746.877	9472.7
747.216	9569.2
747.556	9582.98
747.895	9672.02
748.234	9701.62
748.573	9707.27
748.911	9739.36
749.25	9794.5
749.589	9817.55
749.928	9904.1
750.267	9981.84
750.605	10111.33
750.944	10083.99
751.283	10152.23
751.621	10300.93
751.96	10272
752.298	10359.01
752.636	10535.5
752.975	10591.77
753.313	10642.62
753.651	10883.06
753.989	10813.46
754.327	10980.23
754.666	11032.21
755.004	11220.23
755.342	11343.39
755.679	11466.77
756.017	11544.06
756.355	11699.99
756.693	11846.2
757.031	11983.82
757.368	12047.32
757.706	12221.33
758.044	12373.42
758.381	12565.95
758.719	12627.42
759.056	12837.36
759.394	12979.96
759.731	12993.29
760.068	13260.63
760.405	13334.07
760.743	13541.07
761.08	13784.91
761.417	13883.66
761.754	14038.01
762.091	14210.66
762.428	14224.67
762.765	14398.45
763.102	14616.75
763.438	14760.93
763.775	14929.73
764.112	15114.81
764.449	15316.62
764.785	15431.19
765.122	15444.98
765.458	15579.66
765.795	15816.26
766.131	15955.02
766.467	16023.72
766.804	16140.1
767.14	16348.68
767.476	16506.87
767.812	16503.25
768.148	16710.03
768.485	16730.37
768.821	16829.35
769.157	17013.07
769.492	17239.73
769.828	17272.95
770.164	17306.4
770.5	17426.62
770.836	17564.02
771.171	17590.68
771.507	17768.53
771.842	17688.76
772.178	17918.36
772.513	17932.37
772.849	18020.27
773.184	18106.15
773.519	18174.62
773.855	18182.76
774.19	18351.79
774.525	18332.13
774.86	18422.52
775.195	18573.71
775.53	18539.36
775.865	18610.32
776.2	18517.66
776.535	18538
776.87	18542.75
777.205	18572.8
777.539	18633.59
777.874	18801.05
778.209	18705
778.543	18694.16
778.878	18703.42
779.212	18834.26
779.547	18717.21
779.881	18909.97
780.215	18770.76
780.55	18838.11
780.884	18813.47
781.218	18848.5
781.552	18937.54
781.886	18849.41
782.22	18748.17
782.554	18845.56
782.888	18724.66
783.222	18639.24
783.556	18715.4
783.889	18788.62
784.223	18566.48
784.557	18587.94
784.89	18749.07
785.224	18706.58
785.557	18595.4
785.891	18613.71
786.224	18537.78
786.558	18575.74
786.891	18522.41
787.224	18497.1
787.557	18506.82
787.891	18517.21
788.224	18486.93
788.557	18583.88
788.89	18431.11
789.223	18463.88
789.556	18377.78
789.888	18379.81
790.221	18336.2
790.554	18163.55
790.887	18200.61
791.219	18244.22
791.552	18229.99
791.884	18132.36
792.217	18142.08
792.549	18052.36
792.882	17983.44
793.214	17997.45
793.546	18021.86
793.879	17966.26
794.211	17860.73
794.543	17891.46
794.875	17818.47
795.207	17869.09
795.539	17770.56
795.871	17834.29
796.203	17752.03
796.535	17546.61
796.867	17575.99
797.198	17516.11
797.53	17525.15
797.862	17351.37
798.193	17427.97
798.525	17387.75
798.856	17357.69
799.188	17135.33
799.519	17131.26
799.85	17054.42
800.182	17058.72
800.513	17214.42
800.844	16963.35
801.175	17142.11
801.506	17054.2
801.837	17041.54
802.168	16880.42
802.499	16865.73
802.83	16802.45
803.161	16859.18
803.491	16813.53
803.822	16707.99
804.153	16782.12
804.483	16620.54
804.814	16561.56
805.145	16517.04
805.475	16663.02
805.805	16408.57
806.136	16487.66
806.466	16486.08
806.796	16473.87
807.126	16284.28
807.457	16212.19
807.787	16287.44
808.117	16252.86
808.447	16206.76
808.777	16175.58
809.107	16032.08
809.436	16108.91
809.766	16107.1
810.096	15976.49
810.426	15999.99
810.755	16000.67
811.085	15915.02
811.414	15969.03
811.744	15783.5
812.073	15767.23
812.403	15748.02
812.732	15696.72
813.061	15763.84
813.39	15680
813.719	15616.04
814.049	15674.35
814.378	15634.8
814.707	15529.94
815.036	15579.43
815.365	15457.86
815.693	15427.35
816.022	15381.02
816.351	15459.66
816.68	15235.49
817.008	15354.81
817.337	15187.35
817.665	15195.94
817.994	15187.58
818.322	15144.87
818.651	15123.85
818.979	15039.34
819.307	15123.63
819.636	15106
819.964	14964.54
820.292	15051.99
820.62	14981.03
820.948	14952.11
821.276	15066.68
821.604	14962.28
821.932	15001.37
822.259	15015.16
822.587	15019.9
822.915	14958.66
823.243	14993.91
823.57	14903.07
823.898	14983.29
824.225	14872.33
824.553	14907.36
824.88	14924.08
825.207	14963.18
825.535	14927.02
825.862	15048.83
826.189	14938.32
826.516	15024.65
826.843	15014.93
827.17	15050.18
827.497	15011.31
827.824	15034.36
828.151	15007.7
828.478	15014.93
828.805	15094.93
829.131	14998.89
829.458	15044.08
829.785	14990.07
830.111	14943.07
830.438	15087.02
830.764	14982.39
831.09	15046.57
831.417	14912.56
831.743	15056.51
832.069	15005.21
832.395	14974.03
832.722	14964.76
833.048	14866.91
833.374	14897.19
833.7	14887.7
834.026	14902.62
834.351	14978.77
834.677	14864.88
835.003	14901.71
835.329	14932.45
835.654	14847.02
835.98	14815.39
836.306	14724.32
836.631	14756.41
836.956	14810.42
837.282	14760.93
837.607	14723.19
837.932	14673.92
838.258	14661.27
838.583	14607.03
838.908	14617.43
839.233	14594.6
839.558	14547.37
839.883	14557.77
840.208	14420.82
840.533	14511.21
840.858	14499.24
841.182	14480.03
841.507	14456.3
841.832	14316.19
842.156	14381.95
842.481	14361.39
842.805	14293.59
843.13	14324.55
843.454	14311.67
843.778	14218.57
844.103	14130.66
844.427	14123.43
844.751	14165.69
845.075	14039.81
845.399	14031
845.723	13967.95
846.047	14014.96
846.371	13930.66
846.695	13903.32
847.019	13677.34
847.343	13699.71
847.666	13661.97
847.99	13643.21
848.313	13542.2
848.637	13453.39
848.96	13469.89
849.284	13479.83
849.607	13391.24
849.931	13303.56
850.254	13210.01
850.577	13167.07
850.9	13117.8
851.223	13022.44
851.546	13068.77
851.869	12945.61
852.192	13073.06
852.515	12849.56
852.838	12826.96
853.161	12812.73
853.483	12697.93
853.806	12767.98
854.129	12739.96
854.451	12683.01
854.774	12609.8
855.096	12590.59
855.419	12459.97
855.741	12497.48
856.063	12336.58
856.385	12381.1
856.708	12372.29
857.03	12291.16
857.352	12302.91
857.674	12347.2
857.996	12237.83
858.318	12194.44
858.64	12158.06
858.961	12095.01
859.283	12015.46
859.605	12009.13
859.926	12038.29
860.248	12038.06
860.57	11926.2
860.891	11871.96
861.212	11850.49
861.534	11859.98
861.855	11817.5
862.176	11787.9
862.498	11770.27
862.819	11770.72
863.14	11713.55
863.461	11685.75
863.782	11690.5
864.103	11608.47
864.424	11716.71
864.745	11690.72
865.065	11578.41
865.386	11578.86
865.707	11530.73
866.027	11584.74
866.348	11517.85
866.668	11556.49
866.989	11376.61
867.309	11411.63
867.63	11461.13
867.95	11339.32
868.27	11358.3
868.59	11362.14
868.91	11272.2
869.23	11307
869.55	11256.38
869.87	11360.79
870.19	11264.97
870.51	11260.68
870.83	11256.38
871.15	11169.61
871.469	11168.25
871.789	11222.04
872.109	11231.98
872.428	11090.74
872.748	11156.27
873.067	11125.09
873.386	11123.73
873.706	11064.07
874.025	11009.16
874.344	10957.41
874.663	11002.15
874.982	10991.08
875.301	11020.68
875.62	10947.92
875.939	10944.98
876.258	10950.86
876.577	10913.57
876.896	11008.48
877.214	10876.96
877.533	10822.05
877.852	10847.58
878.17	10767.13
878.489	10884.42
878.807	10757.64
879.125	10764.42
879.444	10839.67
879.762	10759.67
880.08	10754.25
880.398	10728.72
880.716	10681.71
881.034	10636.74
881.352	10587.7
881.67	10614.82
881.988	10560.13
882.306	10556.52
882.624	10509.51
882.941	10497.31
883.259	10423.86
883.577	10537.08
883.894	10441.94
884.212	10461.38
884.529	10438.33
884.846	10400.14
885.164	10357.2
885.481	10368.5
885.798	10328.73
886.115	10197.66
886.432	10275.39
886.75	10177.09
887.067	10281.04
887.383	10209.18
887.7	10155.85
888.017	10133.93
888.334	10077.88
888.651	10093.25
888.967	10086.7
889.284	10061.16
889.6	9965.8
889.917	9885.8
890.233	9974.16
890.55	9879.02
890.866	9870.21
891.182	9828.4
891.498	9844.44
891.815	9746.82
892.131	9783.43
892.447	9734.16
892.763	9732.58
893.079	9689.65
893.395	9629.53
893.71	9644.22
894.026	9554.73
894.342	9589.08
894.657	9469.09
894.973	9499.59
895.289	9515.87
895.604	9490.56
895.92	9373.95
896.235	9381.86
896.55	9364.68
896.865	9277.23
897.181	9280.84
897.496	9303.22
897.811	9223.44
898.126	9226.16
898.441	9134.86
898.756	9180.73
899.071	9061.19
899.386	9042.43
899.7	8943.23
900.015	8973.51
900.33	8898.48
900.644	8871.36
900.959	8841.53
901.273	8930.57
901.588	8801.76
901.902	8753.17
902.216	8792.04
902.531	8718.15
902.845	8676.79
903.159	8663.46
903.473	8614.65
903.787	8567.42
904.101	8551.82
904.415	8481.09
904.729	8467.53
905.042	8469.79
905.356	8452.39
905.67	8392.73
905.984	8373.52
906.297	8328.1
906.611	8308.21
906.924	8276.35
907.237	8272.96
907.551	8223.02
907.864	8150.7
908.177	8147.54
908.491	8155.68
908.804	8057.82
909.117	8073.19
909.43	8010.59
909.743	7938.28
910.056	7909.58
910.368	7918.39
910.681	7871.84
910.994	7849.69
911.307	7893.31
911.619	7746.65
911.932	7755.01
912.244	7738.74
912.557	7718.85
912.869	7639.98
913.181	7610.15
913.494	7653.99
913.806	7547.78
914.118	7568.57
914.43	7463.94
914.742	7428.46
915.054	7426.43
915.366	7405.41
915.678	7367.67
915.99	7348.69
916.302	7347.11
916.613	7240.67
916.925	7222.37
917.236	7231.41
917.548	7187.57
917.859	7158.87
918.171	7123.16
918.482	7122.48
918.794	7061.69
919.105	7048.81
919.416	7004.75
919.727	6966.78
920.038	6941.92
920.349	6965.42
920.66	6905.54
920.971	6915.48
921.282	6860.57
921.593	6802.94
921.903	6799.1
922.214	6777.41
922.525	6767.01
922.835	6720.68
923.146	6674.13
923.456	6689.5
923.767	6567.69
924.077	6557.53
924.387	6576.73
924.697	6522.05
925.008	6557.3
925.318	6467.13
925.628	6518.66
925.938	6501.71
926.248	6404.08
926.558	6361.37
926.867	6389.17
927.177	6377.19
927.487	6309.62
927.796	6260.36
928.106	6255.61
928.416	6303.52
928.725	6239.12
929.034	6166.12
929.344	6163.19
929.653	6130.19
929.962	6064.2
930.271	6089.06
930.581	6059.23
930.89	6054.94
931.199	5991.89
931.508	5989.86
931.817	5972
932.125	5961.16
932.434	5978.33
932.743	5854.72
933.051	5897.43
933.36	5803.65
933.669	5775.17
933.977	5751.9
934.286	5732.01
934.594	5755.29
934.902	5696.53
935.21	5722.07
935.519	5711.45
935.827	5687.49
936.135	5659.7
936.443	5522.98
936.751	5573.37
937.059	5536.08
937.367	5504.45
937.674	5561.17
937.982	5503.99
938.29	5490.21
938.597	5465.35
938.905	5428.52
939.213	5396.2
939.52	5383.54
939.827	5317.33
940.135	5317.56
940.442	5310.1
940.749	5259.93
941.056	5307.16
941.363	5203.44
941.67	5225.81
941.977	5188.07
942.284	5141.52
942.591	5152.82
942.898	5059.26
943.205	5095.42
943.511	5094.29
943.818	5059.49
944.125	4994.63
944.431	5006.38
944.738	4973.39
945.044	5012.48
945.35	4942.2
945.657	4930
945.963	4910.11
946.269	4840.51
946.575	4856.33
946.881	4827.85
947.187	4823.11
947.493	4807.51
947.799	4806.16
948.105	4760.06
948.41	4733.17
948.716	4757.57
949.022	4745.6
949.327	4695.65
949.633	4628.54
949.938	4628.54
950.244	4634.19
950.549	4657.24
950.854	4585.15
951.16	4573.17
951.465	4506.73
951.77	4505.38
952.075	4518.26
952.38	4437.36
952.685	4539.27
952.99	4416.56
953.294	4430.12
953.599	4406.62
953.904	4375.21
954.209	4332.5
954.513	4386.73
954.818	4352.16
955.122	4298.83
955.426	4302.9
955.731	4332.95
956.035	4266.96
956.339	4227.42
956.643	4216.8
956.948	4165.72
957.252	4158.72
957.556	4204.14
957.86	4172.96
958.163	4095.22
958.467	4125.72
958.771	4078.72
959.075	4099.96
959.378	4071.26
959.682	4048.21
959.985	4021.09
960.289	4008.21
960.592	4000.98
960.896	3990.36
961.199	3944.26
961.502	3965.5
961.805	3942.23
962.108	3875.79
962.411	3916.01
962.714	3888.89
963.017	3858.84
963.32	3869.69
963.623	3819.97
963.926	3830.82
964.228	3784.26
964.531	3793.76
964.833	3749.24
965.136	3704.94
965.438	3685.06
965.741	3654.32
966.043	3723.48
966.345	3688.67
966.648	3695.91
966.95	3653.42
967.252	3600.09
967.554	3569.13
967.856	3596.47
968.158	3547.66
968.46	3576.13
968.761	3551.73
969.063	3530.03
969.365	3544.27
969.666	3502.92
969.968	3488.45
970.269	3466.31
970.571	3468.34
970.872	3420.43
971.174	3405.07
971.475	3424.73
971.776	3408
972.077	3373.2
972.378	3369.81
972.679	3319.64
972.98	3339.53
973.281	3305.18
973.582	3368.91
973.883	3330.04
974.183	3313.99
974.484	3269.48
974.785	3255.47
975.085	3262.47
975.386	3277.16
975.686	3241.91
975.986	3205.98
976.287	3164.17
976.587	3177.73
976.887	3203.72
977.187	3162.59
977.487	3137.73
977.787	3101.57
978.087	3101.12
978.387	3101.57
978.687	3050.5
978.987	3076.71
979.286	3058.63
979.586	3029.26
979.885	3035.36
980.185	2980.67
980.484	2979.77
980.784	2969.15
981.083	2990.16
981.382	2950.39
981.682	2952.65
981.981	2941.8
982.28	2900.67
982.579	2890.73
982.878	2928.24
983.177	2894.8
983.475	2819.32
983.774	2876.04
984.073	2821.35
984.372	2794.91
984.67	2819.32
984.969	2792.2
985.267	2768.25
985.566	2765.08
985.864	2747
986.162	2729.83
986.461	2730.51
986.759	2700.68
987.057	2694.35
987.355	2702.03
987.653	2653.9
987.951	2657.51
988.249	2681.7
988.547	2616.84
988.844	2648.93
989.142	2607.35
989.44	2575.26
989.737	2602.38
990.035	2580.23
990.332	2558.31
990.63	2548.82
990.927	2549.04
991.224	2534.35
991.521	2545.2
991.819	2525.54
992.116	2502.94
992.413	2483.96
992.71	2444.64
993.006	2462.49
993.303	2443.06
993.6	2412.32
993.897	2422.49
994.193	2434.02
994.49	2426.33
994.787	2405.77
995.083	2401.25
995.379	2364.64
995.676	2362.61
995.972	2348.82
996.268	2343.85
996.565	2310.86
996.861	2303.4
997.157	2307.92
997.453	2354.25
997.749	2280.58
998.044	2262.05
998.34	2248.03
998.636	2248.71
998.932	2251.88
999.227	2204.19
999.523	2245.55
999.818	2193.12
1000.114	2186.34
1000.409	2183.18
1000.704	2139.56
1001	2183.4
1001.295	2119.68
1001.59	2139.79
1001.885	2130.75
1002.18	2123.97
1002.475	2114.25
1002.77	2100.69
1003.065	2069.28
1003.359	2080.58
1003.654	2072.9
1003.949	2027.02
1004.243	2065.21
1004.538	2006.91
1004.832	2013.01
1005.127	1993.8
1005.421	1982.96
1005.715	1979.57
1006.009	1964.65
1006.304	1951.09
1006.598	1907.93
1006.892	1950.19
1007.186	1899.79
1007.48	1923.75
1007.773	1901.15
1008.067	1887.59
1008.361	1891.21
1008.655	1864.54
1008.948	1859.12
1009.242	1847.82
1009.535	1818.21
1009.829	1838.78
1010.122	1834.71
1010.415	1797.65
1010.708	1762.17
1011.001	1795.62
1011.295	1751.78
1011.588	1753.58
1011.881	1742.28
1012.173	1722.4
1012.466	1735.28
1012.759	1725.79
1013.052	1685.56
1013.344	1714.26
1013.637	1701.83
1013.93	1685.34
1014.222	1667.48
1014.514	1667.71
1014.807	1666.81
1015.099	1658.67
1015.391	1628.39
1015.683	1641.95
1015.976	1632.68
1016.268	1611.21
1016.56	1613.02
1016.851	1571.22
1017.143	1566.24
1017.435	1556.75
1017.727	1566.24
1018.018	1548.39
1018.31	1583.19
1018.602	1530.76
1018.893	1520.14
1019.185	1498.9
1019.476	1491.22
1019.767	1475.4
1020.058	1505.91
1020.35	1465
1020.641	1454.16
1020.932	1457.77
1021.223	1441.28
1021.514	1430.2
1021.804	1424.1
1022.095	1409.19
1022.386	1389.98
1022.677	1378
1022.967	1354.5
1023.258	1383.42
1023.548	1374.16
1023.839	1381.84
1024.129	1353.14
1024.419	1333.93
1024.709	1314.95
1025	1318.12
1025.29	1314.05
1025.58	1307.27
1025.87	1298.68
1026.16	1279.92
1026.449	1253.94
1026.739	1294.84
1027.029	1273.14
1027.319	1259.36
1027.608	1260.26
1027.898	1224.78
1028.187	1223.65
1028.477	1226.14
1028.766	1211.23
1029.055	1193.6
1029.344	1228.85
1029.634	1221.39
1029.923	1201.06
1030.212	1201.96
1030.501	1169.19
1030.79	1161.06
1031.078	1148.85
1031.367	1153.6
1031.656	1137.55
1031.945	1142.53
1032.233	1119.02
1032.522	1114.28
1032.81	1095.07
1033.099	1083.54
1033.387	1096.43
1033.675	1112.7
1033.963	1059.59
1034.251	1083.77
1034.54	1075.64
1034.828	1068.18
1035.116	1036.31
1035.403	1037.9
1035.691	1063.43
1035.979	1025.24
1036.267	1018.46
1036.554	988.63
1036.842	1003.55
1037.129	987.73
1037.417	985.02
1037.704	989.99
1037.992	981.63
1038.279	983.43
1038.566	981.85
1038.853	981.85
1039.14	981.85
