Data from hue_20_FLMS001491_94.txt Node
Date: Mon Feb 06 15:35:00 GMT 2017
User: dcchb
Spectrometer: FLMS00149
Trigger mode: 0
Integration Time (sec): 2.000000E-2
Scans to average: 10
Electric dark correction enabled: true
Nonlinearity correction enabled: false
Boxcar width: 0
XAxis mode: Wavelengths
Number of Pixels in Spectrum: 2048
>>>>>Begin Spectral Data<<<<<
341.393	-2.08
341.776	-2.08
342.16	-2.08
342.543	-57.89
342.927	-62.64
343.31	-74.16
343.693	-67.61
344.077	-62.64
344.46	-63.54
344.843	-39.36
345.226	-51.34
345.61	-32.81
345.993	-14.05
346.376	-6.14
346.759	10.8
347.142	30.92
347.525	37.7
347.908	70.24
348.291	73.85
348.674	64.81
349.057	123.34
349.44	131.25
349.823	138.26
350.206	147.3
350.588	198.6
350.971	224.58
351.354	245.37
351.737	227.75
352.119	241.76
352.502	277.69
352.884	277.46
353.267	272.04
353.65	312.94
354.032	305.71
354.414	309.33
354.797	313.4
355.179	316.79
355.562	329.44
355.944	332.38
356.326	341.19
356.709	326.5
357.091	348.65
357.473	355.65
357.855	347.75
358.238	352.49
358.62	331.93
359.002	355.43
359.384	372.6
359.766	347.75
360.148	357.91
360.53	354.98
360.912	350.23
361.294	328.31
361.676	340.06
362.057	333.73
362.439	367.86
362.821	323.56
363.203	320.63
363.584	348.42
363.966	315.43
364.348	325.15
364.729	327.41
365.111	310.91
365.493	336.45
365.874	330.57
366.256	320.63
366.637	321.76
367.019	333.96
367.4	331.93
367.781	337.12
368.163	321.08
368.544	306.39
368.925	316.56
369.306	320.4
369.688	323.56
370.069	332.83
370.45	323.11
370.831	322.21
371.212	309.55
371.593	317.46
371.974	323.79
372.355	316.11
372.736	335.54
373.117	333.51
373.498	330.12
373.879	328.76
374.26	316.56
374.641	331.25
375.021	330.34
375.402	340.29
375.783	325.15
376.163	357.69
376.544	340.29
376.925	342.55
377.305	359.72
377.686	318.14
378.066	346.39
378.447	330.12
378.827	348.65
379.208	355.43
379.588	335.77
379.968	347.07
380.349	344.81
380.729	331.7
381.109	354.07
381.489	351.59
381.87	348.65
382.25	355.43
382.63	369.21
383.01	356.56
383.39	372.38
383.77	361.08
384.15	354.75
384.53	360.17
384.91	360.4
385.29	377.8
385.67	353.85
386.049	363.11
386.429	354.75
386.809	366.5
387.189	377.8
387.568	379.38
387.948	378.7
388.328	386.39
388.707	389.1
389.087	384.81
389.466	388.2
389.846	383.9
390.225	366.5
390.605	379.38
390.984	399.72
391.363	394.07
391.743	390.91
392.122	393.85
392.501	387.07
392.881	376.67
393.26	389.55
393.639	387.07
394.018	388.87
394.397	406.05
394.776	394.75
395.155	398.82
395.534	407.18
395.913	407.18
396.292	436.78
396.671	412.38
397.05	433.39
397.429	402.21
397.808	401.53
398.186	413.96
398.565	411.7
398.944	432.49
399.323	420.51
399.701	416.44
400.08	405.82
400.458	430.45
400.837	427.07
401.215	449.66
401.594	437.01
401.972	441.75
402.351	433.17
402.729	437.01
403.107	450.79
403.486	433.62
403.864	442.88
404.242	467.74
404.62	454.41
404.999	453.73
405.377	462.54
405.755	483.11
406.133	468.42
406.511	452.6
406.889	458.48
407.267	458.7
407.645	469.55
408.023	463.22
408.401	481.53
408.779	473.84
409.156	491.7
409.534	486.95
409.912	489.89
410.29	488.98
410.667	482.2
411.045	504.58
411.422	500.51
411.8	514.97
412.178	510.45
412.555	503.9
412.933	519.94
413.31	537.57
413.687	538.25
414.065	522.43
414.442	549.55
414.819	531.7
415.197	535.99
415.574	531.47
415.951	543.67
416.328	564.91
416.705	551.81
417.082	564.01
417.46	561.52
417.837	580.06
418.214	541.41
418.591	581.41
418.967	560.39
419.344	587.06
419.721	594.74
420.098	580.73
420.475	575.08
420.852	572.15
421.228	606.72
421.605	604.01
421.982	594.07
422.358	593.84
422.735	586.16
423.111	604.24
423.488	610.79
423.864	603.56
424.241	621.41
424.617	656.44
424.994	630.22
425.37	641.97
425.746	606.5
426.123	636.33
426.499	644.69
426.875	636.55
427.251	654.86
427.627	647.4
428.003	674.74
428.379	678.13
428.756	685.14
429.132	693.05
429.507	680.17
429.883	703.44
430.259	712.71
430.635	729.43
431.011	708.64
431.387	709.09
431.763	715.87
432.138	737.11
432.514	724.23
432.89	720.16
433.265	745.93
433.641	752.48
434.016	764.23
434.392	771.46
434.767	773.5
435.143	776.89
435.518	799.71
435.894	774.4
436.269	797.68
436.644	802.2
437.02	832.93
437.395	834.74
437.77	821.18
438.145	839.26
438.52	832.48
438.895	837.68
439.271	855.53
439.646	873.38
440.021	867.51
440.395	871.12
440.77	874.96
441.145	890.78
441.52	907.05
441.895	888.97
442.27	896.66
442.645	915.64
443.019	905.24
443.394	910.89
443.769	924.68
444.143	924.91
444.518	935.75
444.892	955.86
445.267	956.32
445.641	952.02
446.016	959.25
446.39	956.99
446.764	991.8
447.139	967.62
447.513	976.88
447.887	982.98
448.262	971.01
448.636	998.8
449.01	980.72
449.384	1023.21
449.758	1007.39
450.132	1031.57
450.506	1025.69
450.88	1021.63
451.254	1006.26
451.628	1039.03
452.002	1074.05
452.376	1077.44
452.75	1079.93
453.123	1072.25
453.497	1104.11
453.871	1092.58
454.244	1105.47
454.618	1112.24
454.992	1153.6
455.365	1171
455.739	1154.5
456.112	1183.66
456.486	1163.77
456.859	1223.43
457.232	1206.93
457.606	1197.21
457.979	1225.01
458.352	1250.09
458.725	1269.08
459.099	1249.19
459.472	1306.36
459.845	1291.68
460.218	1311.79
460.591	1320.15
460.964	1346.36
461.337	1356.98
461.71	1357.44
462.083	1382.29
462.456	1380.26
462.829	1375.97
463.201	1428.85
463.574	1401.73
463.947	1450.31
464.32	1453.93
464.692	1482.18
465.065	1478.34
465.438	1513.14
465.81	1535.96
466.183	1540.71
466.555	1592.68
466.928	1578.45
467.3	1577.32
467.672	1610.76
468.045	1634.94
468.417	1638.78
468.789	1671.78
469.161	1699.12
469.534	1722.17
469.906	1754.49
470.278	1772.57
470.65	1793.81
471.022	1792.23
471.394	1845.11
471.766	1873.35
472.138	1866.12
472.51	1905.44
472.882	1940.02
473.253	1937.31
473.625	1997.42
473.997	1979.79
474.369	2031.32
474.74	2057.98
475.112	2112.67
475.484	2175.04
475.855	2179.11
476.227	2207.13
476.598	2256.4
476.97	2275.38
477.341	2314.25
477.713	2358.31
478.084	2392.89
478.455	2427.92
478.827	2476.28
479.198	2565.77
479.569	2565.77
479.94	2605.76
480.311	2608.7
480.682	2701.36
481.053	2775.93
481.424	2798.98
481.795	2859.54
482.166	2894.57
482.537	2951.52
482.908	2979.54
483.279	3020.22
483.65	3107.9
484.021	3187.44
484.391	3196.48
484.762	3242.13
485.133	3240.32
485.503	3329.81
485.874	3368.91
486.244	3422.92
486.615	3480.09
486.985	3531.39
487.356	3610.26
487.726	3645.29
488.097	3728.67
488.467	3723.93
488.837	3809.35
489.207	3834.43
489.578	3887.09
489.948	3946.75
490.318	4030.59
490.688	4070.36
491.058	4116.01
491.428	4192.62
491.798	4179.96
492.168	4297.47
492.538	4292.05
492.908	4415.89
493.278	4438.48
493.648	4441.65
494.017	4530.01
494.387	4503.57
494.757	4600.97
495.126	4645.26
495.496	4701.3
495.866	4757.35
496.235	4787.18
496.605	4835.99
496.974	4804.13
497.344	4886.38
497.713	4913.05
498.082	4999.83
498.452	5028.75
498.821	5053.84
499.19	5100.84
499.559	5130.67
499.928	5197.56
500.298	5163.66
500.667	5237.56
501.036	5235.75
501.405	5336.54
501.774	5284.11
502.143	5400.04
502.512	5379.48
502.88	5452.47
503.249	5461.73
503.618	5484.11
503.987	5525.46
504.356	5580.15
504.724	5591.9
505.093	5621.96
505.462	5620.6
505.83	5687.04
506.199	5685.01
506.567	5805.68
506.936	5814.95
507.304	5883.64
507.672	5859.24
508.041	5902.4
508.409	5962.96
508.777	6011.55
509.145	6047.26
509.514	6075.73
509.882	6082.28
510.25	6070.31
510.618	6105.79
510.986	6148.04
511.354	6169.74
511.722	6220.81
512.09	6267.36
512.458	6306.01
512.826	6305.78
513.193	6349.62
513.561	6373.12
513.929	6409.28
514.297	6442.73
514.664	6488.83
515.032	6491.31
515.4	6538.99
515.767	6602.72
516.135	6581.93
516.502	6582.38
516.869	6679.78
517.237	6711.65
517.604	6704.41
517.972	6787.58
518.339	6851.98
518.706	6866.22
519.073	6897.4
519.44	6878.65
519.808	7009.04
520.175	6950.96
520.542	6964.29
520.909	7098.75
521.276	7062.14
521.643	7076.83
522.009	7213.55
522.376	7243.38
522.743	7284.06
523.11	7335.81
523.477	7352.31
523.843	7418.29
524.21	7484.96
524.577	7552.53
524.943	7575.35
525.31	7591.4
525.676	7716.59
526.043	7670.26
526.409	7671.17
526.776	7769.02
527.142	7829.58
527.508	7845.85
527.874	7943.03
528.241	7981.22
528.607	7976.7
528.973	8023.7
529.339	8052.85
529.705	8079.52
530.071	8228.67
530.437	8258.05
530.803	8282.23
531.169	8350.47
531.535	8308.67
531.901	8379.17
532.267	8377.82
532.632	8436.57
532.998	8508.66
533.364	8518.15
533.73	8575.78
534.095	8714.53
534.461	8679.05
534.826	8690.12
535.192	8719.28
535.557	8782.1
535.923	8816.67
536.288	8819.61
536.653	8888.31
537.019	8918.14
537.384	8986.84
537.749	8948.87
538.114	9005.37
538.479	9061.64
538.845	9108.87
539.21	9111.58
539.575	9118.59
539.94	9218.7
540.305	9201.98
540.67	9251.01
541.034	9302.31
541.399	9319.03
541.764	9261.86
542.129	9389.54
542.494	9455.3
542.858	9461.18
543.223	9476.32
543.587	9541.63
543.952	9637.44
544.316	9654.17
544.681	9609.87
545.045	9686.48
545.41	9773.49
545.774	9751.79
546.138	9798.34
546.503	9815.29
546.867	9811.9
547.231	9978.23
547.595	9939.81
547.959	9900.94
548.324	10005.34
548.688	10026.59
549.052	10074.49
549.416	10081.27
549.779	10103.87
550.143	10152.23
550.507	10254.6
550.871	10200.59
551.235	10290.08
551.599	10333.92
551.962	10362.85
552.326	10401.94
552.689	10415.73
553.053	10452.56
553.417	10468.16
553.78	10626.34
554.143	10611.66
554.507	10565.1
554.87	10617.76
555.234	10700.92
555.597	10669.06
555.96	10733.91
556.323	10772.33
556.686	10816.62
557.05	10872.21
557.413	10783.63
557.776	10915.15
558.139	10954.92
558.502	10994.47
558.865	11064.75
559.228	11177.74
559.59	11184.75
559.953	11180.91
560.316	11239.44
560.679	11242.83
561.041	11324.86
561.404	11375.48
561.767	11499.09
562.129	11407.79
562.492	11508.36
562.854	11543.38
563.217	11567.11
563.579	11617.51
563.941	11684.85
564.304	11692.98
564.666	11782.7
565.028	11773.43
565.39	11793.77
565.753	11876.93
566.115	11926.2
566.477	11949.47
566.839	12093.42
567.201	12094.33
567.563	12103.37
567.925	12177.49
568.287	12204.83
568.648	12224.27
569.01	12271.73
569.372	12391.27
569.734	12332.51
570.095	12482.79
570.457	12527.76
570.819	12537.26
571.18	12550.14
571.542	12634.2
571.903	12652.51
572.265	12713.75
572.626	12815.44
572.987	12855.89
573.349	12918.71
573.71	12946.06
574.071	13022.21
574.432	13066.28
574.794	13266.28
575.155	13246.39
575.516	13261.08
575.877	13279.38
576.238	13354.63
576.599	13485.7
576.96	13488.87
577.32	13581.52
577.681	13629.88
578.042	13818.13
578.403	13852.02
578.763	13903.09
579.124	13963.66
579.485	14136.54
579.845	14313.03
580.206	14228.06
580.566	14398
580.927	14498.79
581.287	14651.78
581.648	14694.49
582.008	14824.65
582.368	14950.07
582.728	15104.65
583.089	15190.74
583.449	15341.7
583.809	15452.88
584.169	15622.15
584.529	15729.04
584.889	16010.38
585.249	16159.31
585.609	16196.82
585.969	16474.1
586.329	16701.89
586.688	16900.3
587.048	16972.39
587.408	17096.91
587.768	17431.14
588.127	17602.88
588.487	17859.83
588.846	18075.64
589.206	18316.76
589.565	18466.14
589.925	18767.15
590.284	18935.73
590.643	19346.79
591.003	19469.05
591.362	19804.63
591.721	19941.58
592.08	20289.59
592.44	20564.16
592.799	20688.23
593.158	20952.63
593.517	21356.91
593.876	21628.09
594.235	21747.18
594.593	22077.12
594.952	22463.1
595.311	22618.8
595.67	22957.09
596.029	23454.93
596.387	23681.82
596.746	24026.67
597.104	24112.77
597.463	24444.06
597.822	24757.95
598.18	24999.98
598.538	25364.26
598.897	25750.92
599.255	25778.26
599.613	26456.44
599.972	26555.19
600.33	27008.06
600.688	26973.94
601.046	27531.66
601.404	27839.9
601.762	28010.97
602.12	28448.25
602.478	28702.93
602.836	28934.34
603.194	28958.29
603.552	29273.99
603.91	29535.9
604.268	29841.66
604.625	30113.52
604.983	30419.04
605.341	30554.63
605.698	31024
606.056	31455.18
606.413	31573.59
606.771	31828.05
607.128	32223.07
607.485	32231.43
607.843	32485.43
608.2	32912.31
608.557	33296.48
608.914	33257.39
609.272	33576.02
609.629	33980.53
609.986	34238.38
610.343	34267.08
610.7	34746.39
611.057	34903.9
611.414	34992.48
611.771	35405.81
612.127	35482.87
612.484	35714.72
612.841	36045.79
613.198	35980.48
613.554	36200.59
613.911	36601.03
614.267	36750.18
614.624	36869.27
614.98	37026.55
615.337	37451.63
615.693	37490.05
616.05	37519.2
616.406	38017.94
616.762	38104.49
617.118	38187.88
617.475	38242.57
617.831	38492.96
618.187	38820.86
618.543	38842.33
618.899	39161.41
619.255	39313.05
619.611	39254.29
619.967	39576.09
620.323	39649.76
620.678	39767.73
621.034	39662.42
621.39	39828.29
621.746	39875.97
622.101	40390.08
622.457	40134.04
622.812	40307.6
623.168	40594.37
623.523	40524.54
623.879	40883.18
624.234	40601.15
624.589	40935.83
624.945	41022.61
625.3	41163.4
625.655	41111.19
626.01	41184.41
626.365	41277.74
626.72	41283.17
627.075	41440.45
627.43	41478.64
627.785	41357.06
628.14	41545.76
628.495	41769.48
628.85	41828.69
629.205	41638.41
629.559	42100.55
629.914	41769.03
630.269	41853.32
630.623	41793.43
630.978	41793.43
631.332	42065.52
631.687	41949.59
632.041	42062.35
632.396	42129.25
632.75	42025.52
633.104	42155.01
633.459	41981
633.813	42090.38
634.167	42145.06
634.521	42023.71
634.875	42148
635.229	41964.5
635.583	41962.24
635.937	42101.22
636.291	42031.85
636.645	41969.02
636.999	41983.26
637.352	42204.05
637.706	42005.41
638.06	42169.24
638.413	42030.04
638.767	42049.7
639.121	42053.54
639.474	41757.96
639.828	41964.28
640.181	42165.85
640.534	41973.32
640.888	41975.13
641.241	41805.64
641.594	41919.31
641.947	42108
642.301	41869.59
642.654	41997.05
643.007	41965.41
643.36	42069.59
643.713	41889.03
644.066	42067.78
644.419	41817.84
644.771	41492.43
645.124	41156.62
645.477	41042.04
645.83	40942.61
646.182	40771.99
646.535	40691.09
646.888	40847.02
647.24	40649.51
647.593	40756.63
647.945	40720.24
648.298	40503.75
648.65	40480.48
649.002	40258.56
649.355	40664.65
649.707	40380.59
650.059	40632.56
650.411	41147.12
650.763	41268.03
651.115	41638.18
651.467	41483.84
651.819	41463.73
652.171	41405.65
652.523	41488.13
652.875	41308.02
653.227	41204.3
653.578	41461.01
653.93	41328.36
654.282	41189.38
654.633	41153.23
654.985	41160.23
655.337	41190.96
655.688	41221.47
656.039	41334.01
656.391	41015.15
656.742	41211.08
657.094	41189.61
657.445	41246.1
657.796	41149.61
658.147	40927.7
658.498	41130.63
658.849	41095.15
659.2	41011.53
659.551	40943.29
659.902	41191.19
660.253	41099.89
660.604	41140.57
660.955	40976.51
661.306	41053.12
661.656	40946.45
662.007	41069.39
662.358	41070.74
662.708	41036.39
663.059	40896.06
663.409	40753.01
663.76	41030.74
664.11	40966.79
664.461	41050.4
664.811	41025.32
665.161	40833.91
665.511	40795.95
665.862	40934.47
666.212	41075.04
666.562	41006.79
666.912	40902.38
667.262	40848.15
667.612	41032.1
667.962	40958.88
668.312	40985.09
668.662	41135.37
669.011	41047.47
669.361	40957.07
669.711	41007.24
670.06	40844.31
670.41	40832.1
670.76	40811.99
671.109	40867.36
671.459	40906.45
671.808	40808.38
672.157	40818.55
672.507	40592.56
672.856	40444.32
673.205	40675.27
673.554	40859.67
673.904	40747.36
674.253	40832.78
674.602	40661.71
674.951	40103.08
675.3	40035.29
675.649	40660.36
675.998	40605.22
676.346	40634.82
676.695	40739.9
677.044	40287.03
677.393	40399.35
677.741	40501.04
678.09	40595.5
678.438	40413.58
678.787	40353.47
679.135	40308.05
679.484	40079.13
679.832	40267.15
680.181	40054.05
680.529	40138.56
680.877	40132.91
681.225	39928.63
681.573	40194.61
681.922	39969.08
682.27	39876.65
682.618	39939.25
682.966	39744.9
683.314	39724.79
683.661	39708.07
684.009	39580.39
684.357	39502.42
684.705	39438.69
685.053	39556.21
685.4	39512.14
685.748	39251.81
686.095	39171.36
686.443	39220.62
686.79	39067.63
687.138	39093.84
687.485	39109.21
687.832	39004.81
688.18	39061.53
688.527	38861.99
688.874	38710.35
689.221	38678.94
689.568	38629
689.915	38526.63
690.262	38479.17
690.609	38431.72
690.956	38269.91
691.303	38293.19
691.65	37976.13
691.997	38087.32
692.344	37866.31
692.69	37863.82
693.037	37876.93
693.383	37448.01
693.73	37601.68
694.077	37647.56
694.423	37437.62
694.769	37402.36
695.116	37325.98
695.462	37298.64
695.808	37049.38
696.155	37071.3
696.501	36905.65
696.847	36876.28
697.193	36670.18
697.539	36831.98
697.885	36471.54
698.231	36461.37
698.577	36381.6
698.923	36343.41
699.269	36297.99
699.614	36087.82
699.96	35915.4
700.306	35959.69
700.651	35867.04
700.997	35795.17
701.342	35597.89
701.688	35648.74
702.033	35512.47
702.379	35522.41
702.724	35331.91
703.069	35256.88
703.415	35032.03
703.76	34969.43
704.105	35055.31
704.45	34971.47
704.795	34821.64
705.14	34636.11
705.485	34670.68
705.83	34548.43
706.175	34701.42
706.52	34466.4
706.865	34244.48
707.209	34359.05
707.554	34078.84
707.899	34302.78
708.243	34118.83
708.588	34015.11
708.932	33769.47
709.277	33760.65
709.621	33808.33
709.966	33614.22
710.31	33612.41
710.654	33335.58
710.998	33487.66
711.342	33445.18
711.687	33292.42
712.031	33311.85
712.375	33067.79
712.719	33033.67
713.063	33148.01
713.407	33265.52
713.75	32872.77
714.094	32955.7
714.438	32751.19
714.782	32800.45
715.125	32718.19
715.469	32688.59
715.812	32479.56
716.156	32436.39
716.499	32386.22
716.843	32522.49
717.186	32243.18
717.53	32418.09
717.873	32367.69
718.216	32154.37
718.559	32191.88
718.902	31911.21
719.246	31948.5
719.589	31852.45
719.932	31735.85
720.275	31783.53
720.617	31795.28
720.96	31695.85
721.303	31547.83
721.646	31628.5
721.989	31392.35
722.331	31484.55
722.674	31437.78
723.016	31462.18
723.359	31220.61
723.701	31374.05
724.044	31184.9
724.386	30956.66
724.729	31162.98
725.071	31092.93
725.413	31036.88
725.755	31095.64
726.097	30959.6
726.439	30757.79
726.782	30838.47
727.124	30998.24
727.465	30725.25
727.807	30740.17
728.149	30712.82
728.491	30572.26
728.833	30617.91
729.175	30388.99
729.516	30313.28
729.858	30366.39
730.199	30363.23
730.541	30392.83
730.882	30294.98
731.224	30249.78
731.565	30110.35
731.906	30313.06
732.248	30252.95
732.589	30030.35
732.93	29885.27
733.271	29957.36
733.612	30061.31
733.953	29886.18
734.294	29850.7
734.635	29924.59
734.976	29713.3
735.317	29649.35
735.658	29617.26
735.999	29656.13
736.339	29559.86
736.68	29728.89
737.021	29567.32
737.361	29463.59
737.702	29581.33
738.042	29350.82
738.383	29427.66
738.723	29421.33
739.063	29297.04
739.404	29396.47
739.744	29344.04
740.084	29126.65
740.424	29163.03
740.764	29022.7
741.104	29139.98
741.444	28963.94
741.784	28900.67
742.124	29064.96
742.464	28877.84
742.804	28933.89
743.143	28850.05
743.483	28891.85
743.823	28679.66
744.162	28745.64
744.502	28721.46
744.841	28607.79
745.181	28646.44
745.52	28501.13
745.86	28597.17
746.199	28520.56
746.538	28392.21
746.877	28431.53
747.216	28458.19
747.556	28472.66
747.895	28433.56
748.234	28331.64
748.573	28259.1
748.911	28104.53
749.25	28188.37
749.589	28180.69
749.928	28134.81
750.267	28164.64
750.605	28139.33
750.944	28126
751.283	27922.84
751.621	27974.14
751.96	27818.21
752.298	27961.03
752.636	27932.78
752.975	27554.04
753.313	27632.23
753.651	27761.94
753.989	27646.46
754.327	27574.83
754.666	27528.5
755.004	27405.11
755.342	27484.43
755.679	27428.16
756.017	27301.84
756.355	27328.28
756.693	27287.6
757.031	27162.18
757.368	27043.54
757.706	27064.56
758.044	27005.35
758.381	26976.88
758.719	26863.21
759.056	26810.1
759.394	26639.94
759.731	26585.47
760.068	26542.99
760.405	26481.97
760.743	26449.43
761.08	26521.52
761.417	26245.6
761.754	26211.92
762.091	26271.36
762.428	26074.53
762.765	26026.62
763.102	26113.4
763.438	26038.14
763.775	25853.29
764.112	25789.34
764.449	25865.27
764.785	25601.77
765.122	25565.84
765.458	25493.3
765.795	25395
766.131	25354.32
766.467	25255.11
766.804	25200.65
767.14	25012.63
767.476	25069.35
767.812	24966.98
768.148	25016.47
768.485	24709.82
768.821	24838.85
769.157	24665.07
769.492	24557.05
769.828	24519.54
770.164	24373.78
770.5	24255.14
770.836	24282.71
771.171	24141.7
771.507	24113.45
771.842	24035.94
772.178	23951.87
772.513	23923.4
772.849	23817.86
773.184	23746.23
773.519	23665.55
773.855	23519.57
774.19	23471.66
774.525	23460.81
774.86	23360.02
775.195	23336.52
775.53	23244.54
775.865	23132
776.2	22930.43
776.535	22733.82
776.87	22867.38
777.205	22812.01
777.539	22586.93
777.874	22664.45
778.209	22456.09
778.543	22337.9
778.878	22327.96
779.212	22336.77
779.547	22191.24
779.881	22172.48
780.215	22033.73
780.55	21902.43
780.884	21942.88
781.218	21755.54
781.552	21728.2
781.886	21632.61
782.22	21654.3
782.554	21456.34
782.888	21298.83
783.222	21236.46
783.556	21163.24
783.889	21213.19
784.223	20976.58
784.557	20884.15
784.89	20949.24
785.224	20772.07
785.557	20726.19
785.891	20608
786.224	20681.45
786.558	20671.73
786.891	20480.78
787.224	20350.38
787.557	20333.89
787.891	20328.69
788.224	20254.11
788.557	20254.34
788.89	20130.05
789.223	20140.9
789.556	19972.99
789.888	19908.59
790.221	19833.11
790.554	19655.03
790.887	19692.1
791.219	19622.04
791.552	19598.31
791.884	19500.91
792.217	19394.48
792.549	19413.68
792.882	19244.65
793.214	19175.72
793.546	19173.69
793.879	19065.67
794.211	18990.19
794.543	18958.56
794.875	18869.97
795.207	18950.42
795.539	18789.75
795.871	18782.97
796.203	18591.56
796.535	18404.9
796.867	18481.73
797.198	18439.92
797.53	18435.41
797.862	18377.33
798.193	18353.15
798.525	18158.8
798.856	18278.8
799.188	18028.18
799.519	18022.99
799.85	17868.41
800.182	18038.13
800.513	17794.07
800.844	17721.75
801.175	17862.31
801.506	17801.52
801.837	17626.84
802.168	17649.44
802.499	17557.69
802.83	17457.13
803.161	17339.16
803.491	17421.19
803.822	17410.57
804.153	17357.69
804.483	17169.68
804.814	17174.65
805.145	17126.06
805.475	17017.14
805.805	17045.16
806.136	17079.51
806.466	16999.96
806.796	17077.02
807.126	16839.51
807.457	16752.74
807.787	16733.53
808.117	16604.72
808.447	16566.08
808.777	16618.28
809.107	16556.58
809.436	16477.49
809.766	16525.62
810.096	16493.08
810.426	16398.17
810.755	16421.45
811.085	16336.93
811.414	16286.31
811.744	16157.27
812.073	16147.56
812.403	16181.23
812.732	15995.47
813.061	16088.12
813.39	16013.32
813.719	15880.9
814.049	16001.34
814.378	15870.05
814.707	15805.87
815.036	15848.35
815.365	15771.75
815.693	15644.97
816.022	15595.25
816.351	15615.37
816.68	15483.17
817.008	15578.08
817.337	15487.91
817.665	15403.85
817.994	15401.13
818.322	15428.25
818.651	15288.6
818.979	15201.37
819.307	15221.93
819.636	15200.01
819.964	15178.09
820.292	15210.86
820.62	15147.58
820.948	15167.47
821.276	15135.6
821.604	15117.07
821.932	15126.57
822.259	15116.85
822.587	15026
822.915	15120.24
823.243	15063.74
823.57	14982.84
823.898	15051.09
824.225	14924.99
824.553	14966.12
824.88	14968.15
825.207	15051.31
825.535	14971.09
825.862	15031.2
826.189	15037.98
826.516	15020.58
826.843	15145.55
827.17	15059.45
827.497	15063.06
827.824	15006.34
828.151	15050.86
828.478	14994.37
828.805	15111.42
829.131	15020.13
829.458	15044.08
829.785	14923.86
830.111	14957.53
830.438	14958.66
830.764	15006.12
831.09	15027.13
831.417	14888.38
831.743	15014.48
832.069	15027.36
832.395	14854.71
832.722	14945.78
833.048	14880.47
833.374	14878.21
833.7	14823.97
834.026	14915.95
834.351	14891.32
834.677	14831.88
835.003	14873.46
835.329	14814.71
835.654	14840.92
835.98	14738.55
836.306	14812.9
836.631	14618.1
836.956	14762.28
837.282	14698.78
837.607	14565.22
837.932	14598.22
838.258	14594.6
838.583	14617.43
838.908	14546.02
839.233	14511.67
839.558	14485.45
839.883	14435.06
840.208	14297.21
840.533	14408.39
840.858	14367.94
841.182	14402.29
841.507	14407.04
841.832	14320.03
842.156	14248.85
842.481	14297.89
842.805	14254.72
843.13	14185.8
843.454	14186.03
843.778	14078.91
844.103	14068.74
844.427	14008.63
844.751	14081.62
845.075	14070.77
845.399	13903.77
845.723	13959.82
846.047	13863.1
846.371	13777.67
846.695	13739.48
847.019	13657.45
847.343	13633.5
847.666	13538.58
847.99	13506.04
848.313	13523.67
848.637	13371.13
848.96	13372.49
849.284	13351.92
849.607	13296.78
849.931	13249.78
850.254	13171.59
850.577	13073.96
850.9	12975.66
851.223	12977.02
851.546	12911.71
851.869	12840.52
852.192	12850.69
852.515	12764.14
852.838	12648.66
853.161	12707.42
853.483	12602.79
853.806	12522.57
854.129	12547.2
854.451	12473.98
854.774	12346.3
855.096	12426.52
855.419	12359.18
855.741	12350.82
856.063	12291.16
856.385	12215
856.708	12136.14
857.03	12198.96
857.352	12182.91
857.674	12078.96
857.996	12097.72
858.318	12056.14
858.64	11986.76
858.961	11960.1
859.283	11959.87
859.605	11851.4
859.926	11888.01
860.248	11864.73
860.57	11781.57
860.891	11812.3
861.212	11761
861.534	11703.83
861.855	11663.61
862.176	11664.51
862.498	11659.09
862.819	11660.44
863.14	11620.44
863.461	11544.74
863.782	11529.82
864.103	11538.41
864.424	11497.73
864.745	11533.21
865.065	11547.9
865.386	11429.26
865.707	11471.52
866.027	11428.36
866.348	11368.92
866.668	11394.46
866.989	11387.23
867.309	11357.85
867.63	11296.84
867.95	11247.57
868.27	11233.11
868.59	11295.71
868.91	11214.8
869.23	11192.43
869.55	11082.83
869.87	11196.73
870.19	11172.55
870.51	11148.37
870.83	11137.52
871.15	11057.75
871.469	11100.46
871.789	11103.39
872.109	11066.56
872.428	10954.7
872.748	11029.72
873.067	10959.22
873.386	10981.36
873.706	11005.32
874.025	10952.21
874.344	10835.38
874.663	10924.19
874.982	10857.75
875.301	10882.16
875.62	10823.63
875.939	10812.78
876.258	10801.26
876.577	10764.65
876.896	10730.75
877.214	10738.43
877.533	10756.51
877.852	10723.52
878.17	10730.3
878.489	10731.65
878.807	10677.64
879.125	10710.64
879.444	10635.61
879.762	10573.46
880.08	10593.58
880.398	10587.48
880.716	10592.9
881.034	10554.26
881.352	10522.39
881.67	10455.28
881.988	10502.05
882.306	10419.57
882.624	10434.49
882.941	10392
883.259	10366.01
883.577	10372.11
883.894	10318.33
884.212	10284.21
884.529	10289.18
884.846	10254.83
885.164	10239.01
885.481	10207.82
885.798	10179.13
886.115	10065.23
886.432	10110.88
886.75	10128.05
887.067	10151.78
887.383	10039.47
887.7	10020.26
888.017	10042.86
888.334	10015.29
888.651	9954.5
888.967	9963.54
889.284	9873.6
889.6	9873.82
889.917	9840.15
890.233	9920.15
890.55	9826.82
890.866	9802.41
891.182	9760.83
891.498	9713.15
891.815	9681.96
892.131	9702.53
892.447	9612.59
892.763	9602.87
893.079	9628.18
893.395	9527.39
893.71	9589.08
894.026	9535.07
894.342	9487.84
894.657	9380.05
894.973	9396.55
895.289	9397.68
895.604	9352.93
895.92	9300.05
896.235	9266.61
896.55	9203.78
896.865	9204.01
897.181	9113.16
897.496	9192.26
897.811	9156.78
898.126	9076.33
898.441	9102.54
898.756	8976.9
899.071	8970.8
899.386	8974.64
899.7	8964.47
900.015	8889.67
900.33	8905.03
900.644	8809.22
900.959	8816.22
901.273	8804.25
901.588	8771.7
901.902	8740.52
902.216	8682.67
902.531	8657.58
902.845	8624.82
903.159	8575.78
903.473	8626.4
903.787	8506.4
904.101	8486.97
904.415	8521.77
904.729	8439.06
905.042	8452.62
905.356	8383.47
905.67	8409
905.984	8336.01
906.297	8295.56
906.611	8254.66
906.924	8214.88
907.237	8167.2
907.551	8197.71
907.864	8121.78
908.177	8081.78
908.491	8038.39
908.804	8076.58
909.117	8101.21
909.43	7968.11
909.743	7924.5
910.056	7882.69
910.368	7929.01
910.681	7872.07
910.994	7822.58
911.307	7784.61
911.619	7753.2
911.932	7712.98
912.244	7672.3
912.557	7625.52
912.869	7633.43
913.181	7612.41
913.494	7495.81
913.806	7548.46
914.118	7511.85
914.43	7494.22
914.742	7478.41
915.054	7409.25
915.366	7422.14
915.678	7258.3
915.99	7286.77
916.302	7276.6
916.613	7190.28
916.925	7237.73
917.236	7164.06
917.548	7108.25
917.859	7126.32
918.171	7074.57
918.482	7039.55
918.794	7037.51
919.105	7002.71
919.416	6901.92
919.727	6941.02
920.038	6982.37
920.349	6893.11
920.66	6881.36
920.971	6863.96
921.282	6860.34
921.593	6723.17
921.903	6723.17
922.214	6722.49
922.525	6675.71
922.835	6667.13
923.146	6636.85
923.456	6623.51
923.767	6564.3
924.077	6544.19
924.387	6560.24
924.697	6503.74
925.008	6510.29
925.318	6429.39
925.628	6432.33
925.938	6395.5
926.248	6361.82
926.558	6385.78
926.867	6310.98
927.177	6310.75
927.487	6256.29
927.796	6191.21
928.106	6225.33
928.416	6186.69
928.725	6189.17
929.034	6116.63
929.344	6138.33
929.653	6184.88
929.962	6057.65
930.271	6077.54
930.581	5966.81
930.89	5957.99
931.199	5889.29
931.508	5947.6
931.817	5918.22
932.125	5887.26
932.434	5873.48
932.743	5840.48
933.051	5763.42
933.36	5799.35
933.669	5725.23
933.977	5713.03
934.286	5688.4
934.594	5663.76
934.902	5605.91
935.21	5628.51
935.519	5590.77
935.827	5587.16
936.135	5534.5
936.443	5481.85
936.751	5463.77
937.059	5448.85
937.367	5431.68
937.674	5414.96
937.982	5448.4
938.29	5334.51
938.597	5369.08
938.905	5317.78
939.213	5285.47
939.52	5259.25
939.827	5326.15
940.135	5274.62
940.442	5252.47
940.749	5208.41
941.056	5236.43
941.363	5151.69
941.67	5138.58
941.977	5102.65
942.284	5091.8
942.591	5054.74
942.898	5021.52
943.205	5016.1
943.511	5032.37
943.818	5005.02
944.125	4993.5
944.431	4977.23
944.738	4918.92
945.044	4913.5
945.35	4914.18
945.657	4886.38
945.963	4798.48
946.269	4776.56
946.575	4800.28
946.881	4746.73
947.187	4790.57
947.493	4782.66
947.799	4723
948.105	4732.71
948.41	4676.44
948.716	4640.06
949.022	4651.13
949.327	4633.96
949.633	4570.23
949.938	4599.61
950.244	4548.54
950.549	4555.77
950.854	4493.17
951.16	4509.9
951.465	4455.89
951.77	4457.92
952.075	4453.17
952.38	4389.22
952.685	4407.98
952.99	4374.98
953.294	4368.66
953.599	4330.24
953.904	4343.12
954.209	4299.28
954.513	4281.43
954.818	4249.56
955.122	4239.62
955.426	4250.24
955.731	4200.07
956.035	4210.24
956.339	4162.11
956.643	4163.69
956.948	4150.58
957.252	4135.67
957.556	4141.77
957.86	4083.47
958.163	4145.61
958.467	4106.29
958.771	4029.68
959.075	4017.48
959.378	4010.25
959.682	3996.46
959.985	3974.09
960.289	3964.37
960.592	3887.77
960.896	3935.22
961.199	3869.01
961.502	3912.4
961.805	3883.92
962.108	3878.5
962.411	3817.26
962.714	3818.84
963.017	3829.69
963.32	3829.91
963.623	3756.02
963.926	3774.32
964.228	3736.36
964.531	3721.89
964.833	3685.96
965.136	3673.08
965.438	3691.84
965.741	3664.49
966.043	3653.19
966.345	3625.63
966.648	3624.95
966.95	3576.81
967.252	3599.86
967.554	3547.66
967.856	3544.5
968.158	3482.8
968.46	3511.28
968.761	3506.08
969.063	3477.83
969.365	3498.85
969.666	3489.36
969.968	3413.43
970.269	3451.84
970.571	3370.26
970.872	3377.72
971.174	3387.44
971.475	3370.26
971.776	3375.01
972.077	3299.31
972.378	3326.88
972.679	3287.33
972.98	3308.35
973.281	3289.36
973.582	3270.61
973.883	3260.66
974.183	3231.74
974.484	3222.92
974.785	3197.84
975.085	3205.3
975.386	3171.63
975.686	3178.41
975.986	3162.81
976.287	3149.03
976.587	3136.6
976.887	3111.97
977.187	3085.07
977.487	3088.01
977.787	3052.08
978.087	3111.97
978.387	3014.79
978.687	3082.59
978.987	3042.36
979.286	2975.02
979.586	3019.31
979.885	2969.15
980.185	2976.83
980.484	2975.25
980.784	2947.68
981.083	2928.69
981.382	2964.17
981.682	2889.83
981.981	2908.81
982.28	2909.49
982.579	2859.32
982.878	2834.01
983.177	2802.6
983.475	2812.99
983.774	2808.92
984.073	2784.97
984.372	2779.09
984.67	2769.15
984.969	2778.87
985.267	2781.81
985.566	2735.93
985.864	2744.97
986.162	2734.12
986.461	2665.88
986.759	2665.88
987.057	2673.33
987.355	2660.68
987.653	2653
987.951	2668.81
988.249	2623.84
988.547	2619.78
988.844	2584.97
989.142	2580.23
989.44	2599.66
989.737	2582.94
990.035	2532.32
990.332	2513.79
990.63	2552.43
990.927	2501.81
991.224	2495.03
991.521	2470.85
991.819	2487.8
992.116	2493.9
992.413	2495.94
992.71	2447.35
993.006	2450.29
993.303	2460.68
993.6	2452.32
993.897	2403.06
994.193	2407.13
994.49	2380.23
994.787	2368.26
995.083	2342.04
995.379	2355.6
995.676	2335.72
995.972	2352.44
996.268	2353.34
996.565	2300.24
996.861	2283.97
997.157	2268.37
997.453	2245.77
997.749	2276.06
998.044	2240.35
998.34	2229.28
998.636	2214.14
998.932	2226.79
999.227	2208.71
999.523	2174.82
999.818	2177.75
1000.114	2118.55
1000.409	2165.32
1000.704	2164.42
1001	2131.88
1001.295	2125.78
1001.59	2097.76
1001.885	2106.57
1002.18	2060.24
1002.475	2082.84
1002.77	2090.07
1003.065	2035.16
1003.359	2042.39
1003.654	2026.8
1003.949	2006.68
1004.243	2030.64
1004.538	2018.21
1004.832	1966.91
1005.127	1987.48
1005.421	1962.17
1005.715	1975.5
1006.009	1947.25
1006.304	1924.43
1006.598	1930.3
1006.892	1944.09
1007.186	1883.3
1007.48	1930.3
1007.773	1871.09
1008.067	1867.48
1008.361	1873.58
1008.655	1858.67
1008.948	1871.77
1009.242	1827.71
1009.535	1832.23
1009.829	1835.39
1010.122	1800.36
1010.415	1790.42
1010.708	1794.94
1011.001	1753.36
1011.295	1780.48
1011.588	1760.36
1011.881	1758.78
1012.173	1733.47
1012.466	1722.17
1012.759	1681.72
1013.052	1727.6
1013.344	1715.39
1013.637	1684.66
1013.93	1667.03
1014.222	1663.64
1014.514	1641.27
1014.807	1641.5
1015.099	1619.35
1015.391	1615.28
1015.683	1600.37
1015.976	1601.27
1016.268	1583.19
1016.56	1629.75
1016.851	1578.22
1017.143	1545.23
1017.435	1559.92
1017.727	1519.69
1018.018	1545.23
1018.31	1525.12
1018.602	1522.86
1018.893	1512.69
1019.185	1487.38
1019.476	1489.86
1019.767	1499.35
1020.058	1463.42
1020.35	1419.81
1020.641	1446.25
1020.932	1460.48
1021.223	1445.8
1021.514	1438.79
1021.804	1415.51
1022.095	1415.74
1022.386	1368.74
1022.677	1410.32
1022.967	1385.01
1023.258	1371.9
1023.548	1382.75
1023.839	1348.17
1024.129	1352.69
1024.419	1348.85
1024.709	1341.62
1025	1305.46
1025.29	1319.92
1025.58	1325.57
1025.87	1303.2
1026.16	1288.51
1026.449	1281.05
1026.739	1266.14
1027.029	1279.47
1027.319	1247.83
1027.608	1290.77
1027.898	1248.29
1028.187	1209.42
1028.477	1246.48
1028.766	1223.2
1029.055	1215.29
1029.344	1209.19
1029.634	1198.8
1029.923	1183.88
1030.212	1191.79
1030.501	1190.89
1030.79	1192.02
1031.078	1156.54
1031.367	1168.29
1031.656	1130.1
1031.945	1143.43
1032.233	1128.29
1032.522	1105.92
1032.81	1085.58
1033.099	1110.21
1033.387	1097.56
1033.675	1085.13
1033.963	1105.01
1034.251	1076.31
1034.54	1082.64
1034.828	1054.17
1035.116	1044.45
1035.403	1034.73
1035.691	1036.31
1035.979	1027.05
1036.267	979.82
1036.554	1032.7
1036.842	1020.5
1037.129	993.6
1037.417	1025.69
1037.704	993.15
1037.992	971.01
1038.279	974.17
1038.566	967.62
1038.853	967.62
1039.14	967.62
