Data from hue_80_FLMS001491_79.txt Node
Date: Mon Feb 06 15:23:32 GMT 2017
User: dcchb
Spectrometer: FLMS00149
Trigger mode: 0
Integration Time (sec): 2.000000E-2
Scans to average: 10
Electric dark correction enabled: true
Nonlinearity correction enabled: false
Boxcar width: 0
XAxis mode: Wavelengths
Number of Pixels in Spectrum: 2048
>>>>>Begin Spectral Data<<<<<
341.393	-24.22
341.776	-24.22
342.16	-24.22
342.543	-88.18
342.927	-69.19
343.31	-73.71
343.693	-66.71
344.077	-71.23
344.46	-67.39
344.843	-46.82
345.226	-27.39
345.61	-26.26
345.993	-3.66
346.376	-17.67
346.759	11.93
347.142	11.48
347.525	53.52
347.908	57.58
348.291	75.44
348.674	70.92
349.057	119.95
349.44	132.16
349.823	161.08
350.206	173.29
350.588	202.89
350.971	205.15
351.354	233.62
351.737	247.86
352.119	244.47
352.502	248.54
352.884	251.48
353.267	275.43
353.65	290.35
354.032	302.1
354.414	301.42
354.797	306.84
355.179	305.94
355.562	319.05
355.944	311.81
356.326	345.94
356.709	330.34
357.091	352.04
357.473	336.45
357.855	328.99
358.238	342.55
358.62	331.47
359.002	332.6
359.384	337.58
359.766	345.71
360.148	329.89
360.53	337.35
360.912	326.05
361.294	331.02
361.676	319.95
362.057	319.05
362.439	339.61
362.821	337.58
363.203	336.22
363.584	319.95
363.966	328.76
364.348	308.88
364.729	325.82
365.111	353.62
365.493	312.04
365.874	320.63
366.256	309.78
366.637	326.05
367.019	306.62
367.4	324.24
367.781	312.49
368.163	313.17
368.544	305.71
368.925	302.32
369.306	321.76
369.688	327.63
370.069	307.29
370.45	302.32
370.831	299.38
371.212	313.4
371.593	326.05
371.974	303.68
372.355	300.06
372.736	329.89
373.117	326.95
373.498	312.94
373.879	333.28
374.26	310.01
374.641	319.72
375.021	308.42
375.402	323.79
375.783	337.8
376.163	316.11
376.544	321.76
376.925	305.71
377.305	312.27
377.686	307.07
378.066	312.72
378.447	348.2
378.827	326.95
379.208	316.33
379.588	328.08
379.968	330.8
380.349	314.98
380.729	343.9
381.109	347.07
381.489	334.86
381.87	309.1
382.25	341.64
382.63	329.44
383.01	343.23
383.39	351.81
383.77	341.19
384.15	315.66
384.53	317.01
384.91	327.18
385.29	341.87
385.67	365.6
386.049	338.03
386.429	345.71
386.809	363.79
387.189	351.81
387.568	347.75
387.948	347.52
388.328	364.69
388.707	359.5
389.087	341.87
389.466	364.47
389.846	375.77
390.225	340.51
390.605	381.64
390.984	381.64
391.363	351.59
391.743	357.46
392.122	353.62
392.501	379.38
392.881	353.17
393.26	377.12
393.639	368.54
394.018	376.44
394.397	367.18
394.776	348.42
395.155	381.19
395.534	377.35
395.913	357.91
396.292	373.06
396.671	380.96
397.05	390.68
397.429	376.9
397.808	393.17
398.186	378.93
398.565	401.98
398.944	366.73
399.323	399.27
399.701	400.4
400.08	385.94
400.458	395.65
400.837	380.96
401.215	386.84
401.594	389.78
401.972	408.76
402.351	390.91
402.729	400.17
403.107	387.29
403.486	400.85
403.864	421.64
404.242	403.79
404.62	409.66
404.999	400.17
405.377	412.6
405.755	419.38
406.133	409.66
406.511	423.22
406.889	399.95
407.267	424.81
407.645	417.8
408.023	415.31
408.401	431.58
408.779	413.73
409.156	445.82
409.534	416.44
409.912	425.48
410.29	455.54
410.667	454.86
411.045	442.66
411.422	450.12
411.8	451.7
412.178	436.56
412.555	467.74
412.933	457.35
413.31	466.39
413.687	443.34
414.065	460.06
414.442	465.26
414.819	479.04
415.197	487.85
415.574	470.45
415.951	489.66
416.328	481.07
416.705	471.58
417.082	491.02
417.46	477.69
417.837	493.5
418.214	484.69
418.591	503
418.967	509.1
419.344	498.25
419.721	510.9
420.098	486.05
420.475	508.87
420.852	510.45
421.228	519.72
421.605	508.19
421.982	542.09
422.358	499.61
422.735	516.55
423.111	530.34
423.488	537.8
423.864	533.28
424.241	556.33
424.617	561.07
424.994	539.6
425.37	554.75
425.746	552.26
426.123	562.2
426.499	559.72
426.875	543.9
427.251	581.64
427.627	572.37
428.003	575.76
428.379	590.45
428.756	589.77
429.132	622.09
429.507	584.8
429.883	606.5
430.259	594.97
430.635	609.21
431.011	602.43
431.387	613.05
431.763	637.23
432.138	614.86
432.514	639.94
432.89	644.91
433.265	651.47
433.641	655.31
434.016	654.4
434.392	632.94
434.767	683.1
435.143	671.13
435.518	664.12
435.894	659.15
436.269	697.79
436.644	684.23
437.02	683.33
437.395	703.22
437.77	701.86
438.145	721.52
438.52	705.7
438.895	727.85
439.271	694.85
439.646	720.16
440.021	736.44
440.395	714.06
440.77	744.34
441.145	726.94
441.52	744.57
441.895	761.29
442.27	752.25
442.645	750.45
443.019	754.74
443.394	767.17
443.769	771.69
444.143	776.21
444.518	782.08
444.892	781.41
445.267	786.83
445.641	808.3
446.016	804.23
446.39	792.71
446.764	832.03
447.139	799.94
447.513	809.65
447.887	843.55
448.262	806.04
448.636	832.93
449.01	830.67
449.384	815.53
449.758	850.1
450.132	865.47
450.506	825.92
450.88	881.52
451.254	863.66
451.628	853.49
452.002	905.02
452.376	866.38
452.75	908.18
453.123	918.35
453.497	939.59
453.871	920.39
454.244	904.34
454.618	924
454.992	959.93
455.365	980.27
455.739	970.78
456.112	976.2
456.486	1002.42
456.859	986.6
457.232	1015.07
457.606	1027.5
457.979	1017.56
458.352	1037.9
458.725	1055.98
459.099	1041.74
459.472	1089.42
459.845	1084
460.218	1090.78
460.591	1122.87
460.964	1100.72
461.337	1124.45
461.71	1144.11
462.083	1164.9
462.456	1158.12
462.829	1169.19
463.201	1192.69
463.574	1185.69
463.947	1225.69
464.32	1239.02
464.692	1271.11
465.065	1260.26
465.438	1303.2
465.81	1296.19
466.183	1314.27
466.555	1348.17
466.928	1356.98
467.3	1373.03
467.672	1392.24
468.045	1427.49
468.417	1391.56
468.789	1457.32
469.161	1491.67
469.534	1477.88
469.906	1545
470.278	1576.64
470.65	1566.02
471.022	1620.71
471.394	1648.73
471.766	1653.93
472.138	1705
472.51	1748.61
472.882	1785.9
473.253	1810.53
473.625	1848.27
473.997	1908.61
474.369	1922.62
474.74	1934.82
475.112	1972.34
475.484	2054.37
475.855	2073.12
476.227	2129.85
476.598	2180.47
476.97	2252.78
477.341	2337.75
477.713	2374.36
478.084	2428.14
478.455	2500.46
478.827	2503.17
479.198	2633.56
479.569	2681.92
479.94	2752.88
480.311	2829.71
480.682	2940.67
481.053	3014.34
481.424	3052.53
481.795	3197.61
482.166	3217.05
482.537	3325.75
482.908	3433.99
483.279	3538.62
483.65	3584.04
484.021	3723.48
484.391	3836.69
484.762	3895.67
485.133	3995.78
485.503	4075.56
485.874	4219.28
486.244	4343.57
486.615	4461.08
486.985	4560.52
487.356	4734.3
487.726	4794.41
488.097	4984.23
488.467	5048.64
488.837	5178.13
489.207	5329.54
489.578	5493.82
489.948	5626.93
490.318	5737.21
490.688	5835.74
491.058	5996.41
491.428	6196.86
491.798	6270.98
492.168	6390.3
492.538	6552.1
492.908	6730.63
493.278	6887.91
493.648	6986.89
494.017	7045.42
494.387	7292.87
494.757	7360.89
495.126	7572.87
495.496	7705.07
495.866	7751.62
496.235	7912.52
496.605	8120.87
496.974	8170.36
497.344	8310.02
497.713	8486.74
498.082	8566.29
498.452	8747.98
498.821	8808.77
499.19	8900.97
499.559	9075.65
499.928	9231.58
500.298	9275.19
500.667	9509.99
501.036	9515.87
501.405	9695.75
501.774	9757.22
502.143	9907.04
502.512	10046.47
502.88	10138
503.249	10199.69
503.618	10369.18
503.987	10444.88
504.356	10566.46
504.724	10638.55
505.093	10711.54
505.462	10786.57
505.83	10925.32
506.199	11071.08
506.567	11215.26
506.936	11241.7
507.304	11525.53
507.672	11480.11
508.041	11581.12
508.409	11756.26
508.777	11807.78
509.145	11961.9
509.514	11915.58
509.882	12033.77
510.25	12199.86
510.618	12220.43
510.986	12358.5
511.354	12475.11
511.722	12521.89
512.09	12642.56
512.458	12681.66
512.826	12739.28
513.193	12853.18
513.561	12840.07
513.929	13003.01
514.297	13109.67
514.664	13233.96
515.032	13267.63
515.4	13384.01
515.767	13401.87
516.135	13476.89
516.502	13440.06
516.869	13572.71
517.237	13777.22
517.604	13622.2
517.972	13918.91
518.339	13851.8
518.706	13822.42
519.073	14100.38
519.44	14133.15
519.808	14243.88
520.175	14161.39
520.542	14401.61
520.909	14369.98
521.276	14409.75
521.643	14554.15
522.009	14576.3
522.376	14693.81
522.743	14721.38
523.11	14855.16
523.477	14912.79
523.843	14872.79
524.21	15023.07
524.577	15136.06
524.943	15229.61
525.31	15271.42
525.676	15378.76
526.043	15414.92
526.409	15449.72
526.776	15607
527.142	15599.55
527.508	15674.57
527.874	15760
528.241	15842.03
528.607	15767
528.973	15929.26
529.339	15944.4
529.705	15950.72
530.071	16075.02
530.437	16109.36
530.803	16146.2
531.169	16157.05
531.535	16172.19
531.901	16142.13
532.267	16226.42
532.632	16266.42
532.998	16230.04
533.364	16271.62
533.73	16258.74
534.095	16424.61
534.461	16390.04
534.826	16436.36
535.192	16354.78
535.557	16540.54
535.923	16467.77
536.288	16439.3
536.653	16544.16
537.019	16475.46
537.384	16460.09
537.749	16512.97
538.114	16540.99
538.479	16498.28
538.845	16571.27
539.21	16459.19
539.575	16504.61
539.94	16524.04
540.305	16638.16
540.67	16531.95
541.034	16533.31
541.399	16529.01
541.764	16503.25
542.129	16543.25
542.494	16499.64
542.858	16509.13
543.223	16506.64
543.587	16626.64
543.952	16471.39
544.316	16503.25
544.681	16495.12
545.045	16492.86
545.41	16521.33
545.774	16501.9
546.138	16453.08
546.503	16453.76
546.867	16449.92
547.231	16468.45
547.595	16532.63
547.959	16450.6
548.324	16390.71
548.688	16482.24
549.052	16417.15
549.416	16443.82
549.779	16349.81
550.143	16423.71
550.507	16528.56
550.871	16415.12
551.235	16472.97
551.599	16513.65
551.962	16447.89
552.326	16421.67
552.689	16557.04
553.053	16372.41
553.417	16427.77
553.78	16590.93
554.143	16442.24
554.507	16485.85
554.87	16466.64
555.234	16644.72
555.597	16443.82
555.96	16525.62
556.323	16500.54
556.686	16515.68
557.05	16627.99
557.413	16504.38
557.776	16505.96
558.139	16651.27
558.502	16599.3
558.865	16592.06
559.228	16669.12
559.59	16681.33
559.953	16659.86
560.316	16659.86
560.679	16715.68
561.041	16729.24
561.404	16835.67
561.767	16843.58
562.129	16846.07
562.492	16970.36
562.854	16904.6
563.217	16874.77
563.579	16949.34
563.941	16977.14
564.304	17120.19
564.666	17141.43
565.028	17130.35
565.39	17153.86
565.753	17152.95
566.115	17190.92
566.477	17264.36
566.839	17247.87
567.201	17358.6
567.563	17259.62
567.925	17461.87
568.287	17430.91
568.648	17413.51
569.01	17420.97
569.372	17565.82
569.734	17418.03
570.095	17572.83
570.457	17563.56
570.819	17552.72
571.18	17549.33
571.542	17669.1
571.903	17714.75
572.265	17705.48
572.626	17684.69
572.987	17776.89
573.349	17806.04
573.71	17871.58
574.071	17903.89
574.432	17899.6
574.794	17982.54
575.155	17936.44
575.516	17822.77
575.877	17945.7
576.238	17901.18
576.599	18020.27
576.96	17925.36
577.32	18013.5
577.681	18092.82
578.042	18143.44
578.403	17991.57
578.763	18045.81
579.124	18045.81
579.485	18151.34
579.845	18136.88
580.206	18073.15
580.566	18014.85
580.927	18085.36
581.287	18121.97
581.648	18084.45
582.008	18260.95
582.368	18126.26
582.728	18197.9
583.089	18048.52
583.449	18058.01
583.809	18187.95
584.169	18142.08
584.529	18169.2
584.889	18216.2
585.249	18188.86
585.609	18059.14
585.969	18107.5
586.329	18015.76
586.688	18025.47
587.048	18091.91
587.408	18041.97
587.768	18069.99
588.127	18035.19
588.487	17937.34
588.846	18195.41
589.206	17876.78
589.565	18007.39
589.925	17975.08
590.284	18060.05
590.643	17930.11
591.003	18051.69
591.362	18031.8
591.721	18062.08
592.08	17956.32
592.44	18002.42
592.799	18006.26
593.158	18004.46
593.517	17934.85
593.876	17999.03
594.235	17952.71
594.593	17957.9
594.952	17987.73
595.311	17921.52
595.67	17952.48
596.029	18077.22
596.387	18041.07
596.746	18004.46
597.104	17921.75
597.463	18011.91
597.822	17947.51
598.18	17903.67
598.538	17966.26
598.897	17963.33
599.255	17891.01
599.613	18131.68
599.972	18029.54
600.33	17973.5
600.688	17890.56
601.046	18027.05
601.404	18013.04
601.762	17977.11
602.12	17994.96
602.478	17982.99
602.836	18048.07
603.194	18004.23
603.552	17992.93
603.91	17926.49
604.268	18067.73
604.625	18022.76
604.983	18016.43
605.341	17953.84
605.698	18023.21
606.056	18018.24
606.413	17978.47
606.771	18157.45
607.128	18091.91
607.485	18059.82
607.843	18084
608.2	18138.24
608.557	18239.03
608.914	18196.09
609.272	18194.73
609.629	18295.52
609.986	18202.64
610.343	18117
610.7	18244.22
611.057	18347.95
611.414	18272.25
611.771	18332.36
612.127	18317.22
612.484	18285.35
612.841	18395.63
613.198	18373.03
613.554	18314.28
613.911	18345.01
614.267	18384.56
614.624	18431.79
614.98	18423.65
615.337	18463.43
615.693	18525.12
616.05	18537.78
616.406	18603.31
616.762	18524.89
617.118	18432.69
617.475	18454.39
617.831	18532.35
618.187	18627.04
618.543	18593.37
618.899	18751.55
619.255	18604.21
619.611	18661.84
619.967	18738.67
620.323	18766.7
620.678	18548.85
621.034	18630.88
621.39	18635.17
621.746	18576.42
622.101	18787.26
622.457	18706.13
622.812	18629.3
623.168	18588.4
623.523	18699.13
623.879	18830.2
624.234	18598.34
624.589	18657.09
624.945	18709.52
625.3	18708.17
625.655	18755.17
626.01	18798.33
626.365	18812.57
626.72	18688.05
627.075	18696.42
627.43	18756.53
627.785	18666.59
628.14	18780.03
628.495	18751.33
628.85	18709.97
629.205	18624.78
629.559	18787.94
629.914	18612.58
630.269	18693.48
630.623	18671.33
630.978	18559.7
631.332	18638.11
631.687	18680.14
632.041	18560.15
632.396	18688.51
632.75	18511.79
633.104	18540.71
633.459	18415.52
633.813	18531.45
634.167	18455.74
634.521	18435.18
634.875	18554.5
635.229	18373.94
635.583	18369.19
635.937	18433.15
636.291	18344.79
636.645	18500.49
636.999	18307.72
637.352	18306.59
637.706	18335.29
638.06	18394.28
638.413	18337.78
638.767	18216.2
639.121	18330.32
639.474	18203.32
639.828	18181.4
640.181	18192.47
640.534	18322.64
640.888	18142.98
641.241	18161.51
641.594	18184.34
641.947	18144.79
642.301	18125.13
642.654	18167.39
643.007	18057.11
643.36	18053.49
643.713	18133.72
644.066	18098.01
644.419	18033.83
644.771	17839.04
645.124	17790.68
645.477	17660.96
645.83	17637.01
646.182	17597.01
646.535	17557.46
646.888	17547.52
647.24	17454.41
647.593	17511.14
647.945	17507.97
648.298	17380.97
648.65	17364.25
649.002	17350.91
649.355	17399.95
649.707	17361.08
650.059	17469.33
650.411	17547.07
650.763	17773.73
651.115	17956.1
651.467	17715.2
651.819	17828.64
652.171	17808.75
652.523	17756.1
652.875	17795.42
653.227	17708.19
653.578	17903.44
653.93	17800.62
654.282	17695.09
654.633	17714.07
654.985	17750
655.337	17756.33
655.688	17739.15
656.039	17839.04
656.391	17729.43
656.742	17754.52
657.094	17749.77
657.445	17806.72
657.796	17751.13
658.147	17773.95
658.498	17718.59
658.849	17857.34
659.2	17733.05
659.551	17639.72
659.902	17812.6
660.253	17834.52
660.604	17803.78
660.955	17698.93
661.306	17879.49
661.656	17806.04
662.007	17881.75
662.358	17827.51
662.708	17933.27
663.059	17808.3
663.409	17825.03
663.76	17837
664.11	17838.13
664.461	17881.75
664.811	17944.8
665.161	17893.5
665.511	17811.01
665.862	17851.69
666.212	17862.31
666.562	17808.08
666.912	17846.27
667.262	17933.5
667.612	17809.88
667.962	17919.03
668.312	17800.85
668.662	17962.42
669.011	17777.57
669.361	17883.56
669.711	17766.72
670.06	17712.26
670.41	17735.99
670.76	17797
671.109	17810.11
671.459	17785.03
671.808	17668.42
672.157	17818.25
672.507	17658.25
672.856	17761.75
673.205	17768.53
673.554	17735.76
673.904	17690.57
674.253	17817.79
674.602	17818.47
674.951	17495.99
675.3	17347.98
675.649	17661.64
675.998	17660.96
676.346	17646.05
676.695	17692.37
677.044	17521.53
677.393	17629.1
677.741	17644.69
678.09	17559.27
678.438	17479.05
678.787	17569.67
679.135	17464.81
679.484	17367.64
679.832	17519.27
680.181	17332.84
680.529	17371.7
680.877	17248.54
681.225	17278.6
681.573	17397.47
681.922	17324.02
682.27	17281.54
682.618	17205.38
682.966	17172.84
683.314	17217.81
683.661	17165.83
684.009	17061.2
684.357	16992.28
684.705	17020.98
685.053	16931.49
685.4	16952.28
685.748	16853.3
686.095	16936.24
686.443	16761.78
686.79	16762.68
687.138	16766.97
687.485	16759.74
687.832	16643.36
688.18	16740.08
688.527	16581.89
688.874	16576.92
689.221	16531.27
689.568	16444.5
689.915	16490.82
690.262	16498.28
690.609	16391.84
690.956	16346.42
691.303	16329.92
691.65	16196.37
691.997	16174.67
692.344	16090.83
692.69	16078.86
693.037	16064.62
693.383	15960.44
693.73	16026.65
694.077	15854
694.423	15897.84
694.769	15698.53
695.116	15823.72
695.462	15695.59
695.808	15705.31
696.155	15644.74
696.501	15557.74
696.847	15614.69
697.193	15427.57
697.539	15523.17
697.885	15353
698.231	15298.54
698.577	15220.8
698.923	15215.38
699.269	15137.19
699.614	15004.08
699.96	14992.78
700.306	14980.13
700.651	14960.02
700.997	14881.83
701.342	14823.97
701.688	14807.93
702.033	14699.68
702.379	14703.07
702.724	14696.29
703.069	14724.09
703.415	14483.87
703.76	14458.56
704.105	14475.74
704.45	14431.67
704.795	14314.16
705.14	14271.67
705.485	14165.23
705.83	14292.01
706.175	14272.8
706.52	14136.99
706.865	14114.16
707.209	14062.86
707.554	14003.21
707.899	14047.5
708.243	14008.18
708.588	13957.56
708.932	13910.55
709.277	13827.84
709.621	13826.71
709.966	13699.48
710.31	13741.74
710.654	13711.91
710.998	13701.07
711.342	13660.39
711.687	13598.24
712.031	13562.09
712.375	13534.07
712.719	13507.85
713.063	13446.38
713.407	13535.19
713.75	13369.55
714.094	13384.01
714.438	13308.53
714.782	13414.29
715.125	13271.7
715.469	13321.64
715.812	13196.67
716.156	13230.12
716.499	13233.28
716.843	13100.86
717.186	13088.43
717.53	13139.27
717.873	13104.25
718.216	13059.73
718.559	12995.32
718.902	12878.94
719.246	13020.18
719.589	12962.78
719.932	12842.56
720.275	12911.48
720.617	12900.18
720.96	12896.34
721.303	12858.15
721.646	12780.41
721.989	12756.68
722.331	12832.84
722.674	12727.31
723.016	12742.45
723.359	12765.72
723.701	12749.68
724.044	12646.86
724.386	12606.41
724.729	12749
725.071	12659.74
725.413	12699.28
725.755	12731.83
726.097	12663.58
726.439	12635.56
726.782	12607.54
727.124	12559.4
727.465	12619.29
727.807	12653.18
728.149	12554.66
728.491	12517.82
728.833	12631.72
729.175	12533.19
729.516	12462.68
729.858	12561.66
730.199	12563.24
730.541	12532.51
730.882	12573.19
731.224	12526.18
731.565	12466.52
731.906	12501.32
732.248	12476.47
732.589	12528.89
732.93	12393.76
733.271	12450.93
733.612	12401.44
733.953	12489.8
734.294	12539.97
734.635	12448.9
734.976	12411.61
735.317	12356.02
735.658	12442.12
735.999	12477.82
736.339	12413.64
736.68	12539.29
737.021	12488.89
737.361	12430.14
737.702	12481.44
738.042	12477.82
738.383	12450.7
738.723	12506.52
739.063	12432.85
739.404	12507.43
739.744	12498.39
740.084	12368.67
740.424	12523.24
740.764	12487.76
741.104	12588.33
741.444	12485.96
741.784	12514.2
742.124	12549.01
742.464	12584.26
742.804	12497.48
743.143	12563.02
743.483	12643.24
743.823	12510.82
744.162	12579.29
744.502	12569.12
744.841	12622.45
745.181	12770.02
745.52	12735.44
745.86	12794.2
746.199	12758.94
746.538	12863.35
746.877	12900.86
747.216	12978.37
747.556	12956.23
747.895	13058.82
748.234	12984.02
748.573	13094.08
748.911	13132.72
749.25	13177.92
749.589	13286.61
749.928	13353.73
750.267	13423.11
750.605	13400.06
750.944	13463.11
751.283	13460.39
751.621	13655.87
751.96	13617.45
752.298	13761.63
752.636	13822.19
752.975	13944.68
753.313	13988.97
753.651	14179.92
753.989	14098.8
754.327	14270.99
754.666	14255.4
755.004	14511.67
755.342	14611.55
755.679	14632.79
756.017	14677.31
756.355	14879.11
756.693	14990.07
757.031	15087.7
757.368	15128.37
757.706	15210.86
758.044	15259.9
758.381	15492.66
758.719	15659.66
759.056	15723.61
759.394	15755.93
759.731	15863.04
760.068	16072.08
760.405	16010.16
760.743	16190.49
761.08	16424.84
761.417	16353.2
761.754	16590.48
762.091	16655.11
762.428	16732.17
762.765	16778.73
763.102	16996.8
763.438	17001.54
763.775	17104.82
764.112	17238.37
764.449	17376.45
764.785	17372.61
765.122	17312.95
765.458	17466.84
765.795	17648.08
766.131	17729.89
766.467	17768.3
766.804	17739.15
767.14	17855.08
767.476	17964.91
767.812	17908.64
768.148	18132.36
768.485	18053.72
768.821	18147.96
769.157	18160.16
769.492	18297.33
769.828	18250.78
770.164	18275.64
770.5	18223.43
770.836	18316.09
771.171	18309.53
771.507	18438.79
771.842	18328.97
772.178	18403.54
772.513	18351.34
772.849	18421.39
773.184	18474.05
773.519	18571.67
773.855	18453.94
774.19	18439.25
774.525	18406.48
774.86	18540.71
775.195	18556.53
775.53	18531.9
775.865	18434.73
776.2	18383.66
776.535	18390.43
776.87	18349.08
777.205	18448.74
777.539	18386.37
777.874	18482.64
778.209	18301.85
778.543	18371.23
778.878	18233.15
779.212	18402.64
779.547	18306.14
779.881	18347.95
780.215	18190.67
780.55	18343.66
780.884	18164.9
781.218	18223.89
781.552	18235.18
781.886	18107.05
782.22	18013.27
782.554	17970.11
782.888	18005.36
783.222	17965.13
783.556	17814.63
783.889	17833.84
784.223	17740.96
784.557	17725.37
784.89	17818.92
785.224	17659.61
785.557	17587.52
785.891	17566.95
786.224	17559.5
786.558	17549.1
786.891	17378.71
787.224	17387.3
787.557	17330.8
787.891	17340.74
788.224	17345.72
788.557	17282.22
788.89	17351.59
789.223	17280.63
789.556	17133.74
789.888	17087.42
790.221	16971.04
790.554	16962.22
790.887	17034.76
791.219	16874.54
791.552	16996.35
791.884	16732.17
792.217	16772.62
792.549	16654.21
792.882	16679.07
793.214	16595.68
793.546	16517.49
793.879	16460.77
794.211	16475.91
794.543	16481.11
794.875	16326.99
795.207	16452.63
795.539	16299.87
795.871	16261.68
796.203	16208.12
796.535	16088.35
796.867	16217.84
797.198	16042.47
797.53	16084.28
797.862	16035.69
798.193	16008.12
798.525	15934
798.856	15942.14
799.188	15766.32
799.519	15745.08
799.85	15671.18
800.182	15701.69
800.513	15657.4
800.844	15542.6
801.175	15644.52
801.506	15630.06
801.837	15492.43
802.168	15443.85
802.499	15447.69
802.83	15293.79
803.161	15334.7
803.491	15244.53
803.822	15198.43
804.153	15188.94
804.483	15160.69
804.814	15085.89
805.145	15116.17
805.475	15041.14
805.805	15009.73
806.136	14938.55
806.466	14891.54
806.796	14864.43
807.126	14809.51
807.457	14778.1
807.787	14755.5
808.117	14721.83
808.447	14676.63
808.777	14673.02
809.107	14652
809.436	14551.67
809.766	14529.75
810.096	14580.82
810.426	14505.79
810.755	14490.88
811.085	14351.44
811.414	14444.32
811.744	14294.72
812.073	14273.71
812.403	14304.44
812.732	14146.93
813.061	14192.58
813.39	14139.92
813.719	14048.63
814.049	14161.39
814.378	14147.83
814.707	14015.63
815.036	13972.7
815.365	13908.97
815.693	13767.73
816.022	13808.86
816.351	13856.77
816.68	13830.1
817.008	13817.67
817.337	13620.84
817.665	13647.96
817.994	13812.7
818.322	13725.7
818.651	13570.45
818.979	13484.12
819.307	13600.28
819.636	13562.54
819.964	13462.88
820.292	13544.91
820.62	13412.26
820.948	13453.62
821.276	13519.83
821.604	13446.84
821.932	13527.96
822.259	13464.91
822.587	13356.89
822.915	13392.15
823.243	13412.03
823.57	13435.08
823.898	13429.44
824.225	13342.43
824.553	13380.62
824.88	13436.67
825.207	13452.49
825.535	13395.09
825.862	13444.12
826.189	13394.63
826.516	13451.81
826.843	13398.48
827.17	13517.12
827.497	13396.67
827.824	13428.31
828.151	13417.01
828.478	13473.5
828.805	13496.1
829.131	13376.33
829.458	13408.87
829.785	13366.61
830.111	13395.31
830.438	13402.77
830.764	13385.59
831.09	13438.7
831.417	13322.32
831.743	13446.84
832.069	13420.4
832.395	13310.34
832.722	13406.84
833.048	13231.7
833.374	13284.35
833.7	13274.64
834.026	13307.4
834.351	13305.14
834.677	13279.38
835.003	13317.35
835.329	13251.13
835.654	13286.16
835.98	13182.66
836.306	13182.21
836.631	13145.6
836.956	13156.22
837.282	13136.56
837.607	13083.46
837.932	13059.28
838.258	13057.47
838.583	13063.34
838.908	12939.28
839.233	12930.69
839.558	12934.76
839.883	12880.07
840.208	12932.5
840.533	12984.02
840.858	12896.34
841.182	12877.81
841.507	12900.18
841.832	12794.65
842.156	12748.77
842.481	12843.46
842.805	12695.89
843.13	12667.87
843.454	12682.11
843.778	12681.43
844.103	12526.18
844.427	12657.03
844.751	12561.89
845.075	12539.74
845.399	12514.2
845.723	12494.09
846.047	12456.13
846.371	12348.56
846.695	12399.63
847.019	12269.24
847.343	12202.35
847.666	12180.2
847.99	12075.8
848.313	12057.72
848.637	11963.48
848.96	11957.84
849.284	11985.63
849.607	11847.33
849.931	11791.74
850.254	11755.35
850.577	11702.02
850.9	11730.5
851.223	11666.54
851.546	11520.56
851.869	11439.2
852.192	11589.48
852.515	11407.34
852.838	11412.31
853.161	11402.82
853.483	11368.25
853.806	11305.2
854.129	11307.23
854.451	11184.3
854.774	11116.05
855.096	11148.82
855.419	11137.07
855.741	11101.13
856.063	10985.21
856.385	11049.16
856.708	10950.4
857.03	10901.37
857.352	10892.78
857.674	10876.96
857.996	10842.61
858.318	10801.03
858.64	10867.02
858.961	10754.93
859.283	10777.08
859.605	10590.87
859.926	10718.77
860.248	10630.41
860.57	10562.39
860.891	10661.6
861.212	10499.12
861.534	10561.71
861.855	10541.15
862.176	10556.06
862.498	10524.43
862.819	10592
863.14	10380.93
863.461	10447.59
863.782	10372.11
864.103	10388.39
864.424	10315.39
864.745	10368.5
865.065	10326.24
865.386	10243.53
865.707	10276.07
866.027	10283.76
866.348	10210.54
866.668	10221.38
866.989	10150.43
867.309	10155.62
867.63	10158.11
867.95	10204.89
868.27	10032.24
868.59	10092.8
868.91	10067.49
869.23	10051.44
869.55	9962.63
869.87	10099.13
870.19	9981.62
870.51	10014.84
870.83	9992.01
871.15	9946.81
871.469	9945.01
871.789	9964.22
872.109	9921.96
872.428	9858.46
872.748	9963.09
873.067	9901.39
873.386	9935.29
873.706	9930.32
874.025	9851.22
874.344	9850.55
874.663	9853.03
874.982	9777.78
875.301	9784.33
875.62	9761.06
875.939	9659.14
876.258	9753.37
876.577	9673.6
876.896	9668.63
877.214	9643.55
877.533	9667.05
877.852	9665.47
878.17	9682.19
878.489	9666.6
878.807	9655.75
879.125	9576.43
879.444	9553.6
879.762	9535.53
880.08	9521.97
880.398	9477.45
880.716	9482.65
881.034	9479.71
881.352	9447.39
881.67	9436.32
881.988	9448.75
882.306	9398.58
882.624	9377.34
882.941	9424.34
883.259	9306.83
883.577	9291.46
883.894	9320.62
884.212	9290.33
884.529	9266.61
884.846	9268.64
885.164	9135.08
885.481	9227.51
885.798	9191.58
886.115	9068.42
886.432	9063.45
886.75	9085.59
887.067	9089.44
887.383	9062.77
887.7	9072.49
888.017	8971.93
888.334	8966.95
888.651	8898.71
888.967	8938.03
889.284	8937.8
889.6	8898.71
889.917	8841.99
890.233	8836.56
890.55	8838.82
890.866	8776.68
891.182	8731.48
891.498	8704.14
891.815	8669.79
892.131	8697.13
892.447	8669.11
892.763	8617.13
893.079	8545.72
893.395	8653.06
893.71	8574.2
894.026	8499.62
894.342	8490.58
894.657	8505.72
894.973	8462.79
895.289	8377.36
895.604	8455.78
895.92	8373.3
896.235	8299.85
896.55	8323.58
896.865	8295.78
897.181	8257.14
897.496	8261.44
897.811	8167.88
898.126	8187.31
898.441	8153.64
898.756	8143.92
899.071	8054.21
899.386	8095.56
899.7	8032.29
900.015	7978.73
900.33	7863.25
900.644	7972.86
900.959	7963.36
901.273	7889.02
901.588	7825.74
901.902	7781.45
902.216	7715.91
902.531	7776.93
902.845	7724.73
903.159	7687.89
903.473	7700.09
903.787	7640.89
904.101	7584.39
904.415	7630.94
904.729	7593.66
905.042	7539.65
905.356	7424.4
905.67	7524.96
905.984	7454.22
906.297	7423.94
906.611	7365.87
906.924	7397.05
907.237	7339.2
907.551	7333.1
907.864	7287.22
908.177	7204.97
908.491	7265.76
908.804	7228.69
909.117	7181.92
909.43	7107.34
909.743	7169.94
910.056	7066.66
910.368	7077.96
910.681	7062.82
910.994	6988.93
911.307	6965.88
911.619	6906.44
911.932	6945.09
912.244	6886.78
912.557	6879.1
912.869	6852.88
913.181	6781.93
913.494	6801.36
913.806	6719.33
914.118	6707.13
914.43	6665.09
914.742	6686.11
915.054	6685.21
915.366	6631.42
915.678	6562.95
915.99	6593.91
916.302	6525.89
916.613	6454.7
916.925	6482.73
917.236	6449.73
917.548	6450.64
917.859	6434.36
918.171	6378.32
918.482	6407.25
918.794	6343.52
919.105	6312.33
919.416	6305.78
919.727	6242.73
920.038	6221.94
920.349	6179.91
920.66	6157.54
920.971	6120.47
921.282	6092.9
921.593	6118.21
921.903	6106.92
922.214	6014.71
922.525	5969.97
922.835	5964.32
923.146	5953.25
923.456	5990.31
923.767	5914.15
924.077	5889.97
924.387	5878
924.697	5801.61
925.008	5853.59
925.318	5807.94
925.628	5802.97
925.938	5765.91
926.248	5744.89
926.558	5703.08
926.867	5680.03
927.177	5650.43
927.487	5608.85
927.796	5593.93
928.106	5561.85
928.416	5601.39
928.725	5552.58
929.034	5501.51
929.344	5493.82
929.653	5502.19
929.962	5416.09
930.271	5451.34
930.581	5398.91
930.89	5376.31
931.199	5341.74
931.508	5355.97
931.817	5345.81
932.125	5311.23
932.434	5269.65
932.743	5216.32
933.051	5231.91
933.36	5196.43
933.669	5209.99
933.977	5161.63
934.286	5150.56
934.594	5122.53
934.902	5107.39
935.21	5064.68
935.519	5029.43
935.827	5002.76
936.135	5034.18
936.443	4965.25
936.751	4950.11
937.059	4904.01
937.367	4909.21
937.674	4888.19
937.982	4889.77
938.29	4862.88
938.597	4839.15
938.905	4795.76
939.213	4804.58
939.52	4806.61
939.827	4778.14
940.135	4778.82
940.442	4725.48
940.749	4731.13
941.056	4738.82
941.363	4627.63
941.67	4656.33
941.977	4614.75
942.284	4559.61
942.591	4563.45
942.898	4574.75
943.205	4566.84
943.511	4511.93
943.818	4496.79
944.125	4472.38
944.431	4433.51
944.738	4468.99
945.044	4478.48
945.35	4368.66
945.657	4365.27
945.963	4362.1
946.269	4338.6
946.575	4297.92
946.881	4320.07
947.187	4316.23
947.493	4270.81
947.799	4243.46
948.105	4243.46
948.41	4204.59
948.716	4200.98
949.022	4157.14
949.327	4184.71
949.633	4129.57
949.938	4112.17
950.244	4127.08
950.549	4086.18
950.854	4068.33
951.16	4043.24
951.465	4048.21
951.77	4036.46
952.075	3980.87
952.38	3974.09
952.685	3985.39
952.99	3937.03
953.294	3941.77
953.599	3945.84
953.904	3882.34
954.209	3861.78
954.513	3893.64
954.818	3858.61
955.122	3866.97
955.426	3811.16
955.731	3777.71
956.035	3779.52
956.339	3770.93
956.643	3805.51
956.948	3778.84
957.252	3701.78
957.556	3728.9
957.86	3703.82
958.163	3678.73
958.467	3666.3
958.771	3664.72
959.075	3669.69
959.378	3633.99
959.682	3592.86
959.985	3579.98
960.289	3559.19
960.592	3555.8
960.896	3564.84
961.199	3501.33
961.502	3510.83
961.805	3452.97
962.108	3455.23
962.411	3492.52
962.714	3432.18
963.017	3459.53
963.32	3417.72
963.623	3440.77
963.926	3427.89
964.228	3368.46
964.531	3405.29
964.833	3360.1
965.136	3336.82
965.438	3279.42
965.741	3266.99
966.043	3258.18
966.345	3274.67
966.648	3281.68
966.95	3233.77
967.252	3232.64
967.554	3227.9
967.856	3212.3
968.158	3198.52
968.46	3170.95
968.761	3201.46
969.063	3145.64
969.365	3173.89
969.666	3127.56
969.968	3115.81
970.269	3071.29
970.571	3107.9
970.872	3087.11
971.174	3065.19
971.475	3089.82
971.776	3058.63
972.077	3073.32
972.378	3036.04
972.679	3004.85
972.98	2982.03
973.281	2951.74
973.582	2997.17
973.883	2924.4
974.183	2900.45
974.484	2934.57
974.785	2922.37
975.085	2911.29
975.386	2873.78
975.686	2858.41
975.986	2824.29
976.287	2892.54
976.587	2842.14
976.887	2804.18
977.187	2805.76
977.487	2817.96
977.787	2770.51
978.087	2778.87
978.387	2760.79
978.687	2755.37
978.987	2772.99
979.286	2729.6
979.586	2730.96
979.885	2703.62
980.185	2653.67
980.484	2653.9
980.784	2637.18
981.083	2623.17
981.382	2635.82
981.682	2623.84
981.981	2609.15
982.28	2607.35
982.579	2588.36
982.878	2606.44
983.177	2561.92
983.475	2613.22
983.774	2570.06
984.073	2557.18
984.372	2509.72
984.67	2511.08
984.969	2484.41
985.267	2496.62
985.566	2484.64
985.864	2479.21
986.162	2469.27
986.461	2471.31
986.759	2472.89
987.057	2424.75
987.355	2405.54
987.653	2443.28
987.951	2427.69
988.249	2389.05
988.547	2387.92
988.844	2366.22
989.142	2364.19
989.44	2354.92
989.737	2322.61
990.035	2291.2
990.332	2299.11
990.63	2322.61
990.927	2302.04
991.224	2258.88
991.521	2250.52
991.819	2253.68
992.116	2264.3
992.413	2222.27
992.71	2248.94
993.006	2222.72
993.303	2206.68
993.6	2215.94
993.897	2210.07
994.193	2162.16
994.49	2182.05
994.787	2158.09
995.083	2134.14
995.379	2129.39
995.676	2138.88
995.972	2068.38
996.268	2085.78
996.565	2083.52
996.861	2115.61
997.157	2098.66
997.453	2085.1
997.749	2053.91
998.044	2032.45
998.34	2029.96
998.636	1997.87
998.932	2024.76
999.227	2025.67
999.523	1978.44
999.818	1984.09
1000.114	1977.53
1000.409	1958.1
1000.704	1967.36
1001	1907.03
1001.295	1923.3
1001.59	1902.96
1001.885	1912.22
1002.18	1882.85
1002.475	1856.18
1002.77	1884.65
1003.065	1853.02
1003.359	1880.59
1003.654	1825.45
1003.949	1849.4
1004.243	1851.66
1004.538	1812.34
1004.832	1815.73
1005.127	1790.87
1005.421	1799.01
1005.715	1774.83
1006.009	1766.46
1006.304	1764.66
1006.598	1763.08
1006.892	1778.67
1007.186	1736.18
1007.48	1756.97
1007.773	1709.07
1008.067	1723.3
1008.361	1693.47
1008.655	1674.04
1008.948	1665
1009.242	1694.6
1009.535	1682.4
1009.829	1634.49
1010.122	1634.49
1010.415	1581.16
1010.708	1632.23
1011.001	1605.57
1011.295	1615.73
1011.588	1598.56
1011.881	1573.25
1012.173	1577.32
1012.466	1573.02
1012.759	1599.69
1013.052	1533.7
1013.344	1537.77
1013.637	1511.56
1013.93	1522.63
1014.222	1515.17
1014.514	1506.36
1014.807	1503.19
1015.099	1492.35
1015.391	1493.48
1015.683	1470.65
1015.976	1453.93
1016.268	1445.34
1016.56	1469.98
1016.851	1442.41
1017.143	1417.55
1017.435	1422.07
1017.727	1419.58
1018.018	1414.16
1018.31	1392.01
1018.602	1418
1018.893	1390.2
1019.185	1374.84
1019.476	1349.53
1019.767	1364.67
1020.058	1333.03
1020.35	1344.1
1020.641	1343.43
1020.932	1320.6
1021.223	1318.57
1021.514	1301.62
1021.804	1295.29
1022.095	1291.45
1022.386	1299.13
1022.677	1264.11
1022.967	1274.05
1023.258	1228.85
1023.548	1267.72
1023.839	1232.69
1024.129	1241.51
1024.419	1226.59
1024.709	1235.63
1025	1199.02
1025.29	1212.36
1025.58	1200.15
1025.87	1193.6
1026.16	1181.85
1026.449	1177.33
1026.739	1146.82
1027.029	1159.02
1027.319	1156.54
1027.608	1151.57
1027.898	1150.21
1028.187	1110.66
1028.477	1137.78
1028.766	1100.95
1029.055	1096.65
1029.344	1112.24
1029.634	1096.43
1029.923	1082.19
1030.212	1076.99
1030.501	1065.01
1030.79	1060.04
1031.078	1066.6
1031.367	1056.43
1031.656	1062.08
1031.945	1031.34
1032.233	1041.06
1032.522	1029.08
1032.81	1011.91
1033.099	1027.28
1033.387	1009.65
1033.675	1004.9
1033.963	1011
1034.251	985.24
1034.54	989.31
1034.828	987.05
1035.116	975.53
1035.403	962.42
1035.691	967.16
1035.979	961.51
1036.267	927.16
1036.554	939.37
1036.842	931.01
1037.129	933.94
1037.417	891.46
1037.704	920.84
1037.992	927.39
1038.279	877.9
1038.566	903.21
1038.853	903.21
1039.14	903.21
