Data from hue_60_FLMS001491_19.txt Node
Date: Mon Feb 06 15:12:01 GMT 2017
User: dcchb
Spectrometer: FLMS00149
Trigger mode: 0
Integration Time (sec): 2.000000E-2
Scans to average: 10
Electric dark correction enabled: true
Nonlinearity correction enabled: false
Boxcar width: 0
XAxis mode: Wavelengths
Number of Pixels in Spectrum: 2048
>>>>>Begin Spectral Data<<<<<
341.393	-1.12
341.776	-1.12
342.16	-1.12
342.543	-61.23
342.927	-72.53
343.31	-68.01
343.693	-68.68
344.077	-77.5
344.46	-47.22
344.843	-37.27
345.226	-43.15
345.61	-45.63
345.993	-20.55
346.376	8.38
346.759	8.83
347.142	5.21
347.525	35.95
347.908	42.72
348.291	97.86
348.674	105.1
349.057	103.97
349.44	130.63
349.823	161.59
350.206	160.24
350.588	190.52
350.971	224.87
351.354	213.57
351.737	259.22
352.119	255.37
352.502	256.96
352.884	285.88
353.267	276.62
353.65	263.74
354.032	312.32
354.414	317.07
354.797	322.49
355.179	322.72
355.562	326.56
355.944	329.27
356.326	349.61
356.709	325.2
357.091	327.92
357.473	376.05
357.855	352.1
358.238	364.52
358.62	348.03
359.002	332.66
359.384	364.98
359.766	365.88
360.148	341.47
360.53	324.07
360.912	330.17
361.294	341.02
361.676	352.77
362.057	352.77
362.439	325.43
362.821	336.73
363.203	337.41
363.584	328.37
363.966	344.64
364.348	331.08
364.729	322.72
365.111	327.92
365.493	334.24
365.874	311.42
366.256	321.81
366.637	311.19
367.019	314.36
367.4	328.37
367.781	314.81
368.163	321.36
368.544	331.76
368.925	310.97
369.306	315.71
369.688	314.36
370.069	321.36
370.45	304.41
370.831	324.98
371.212	311.87
371.593	336.5
371.974	325.43
372.355	304.19
372.736	352.77
373.117	330.85
373.498	313.9
373.879	317.07
374.26	311.64
374.641	319.1
375.021	333.34
375.402	322.72
375.783	326.79
376.163	322.94
376.544	335.37
376.925	329.95
377.305	356.61
377.686	316.84
378.066	335.37
378.447	331.53
378.827	345.54
379.208	340.34
379.588	344.64
379.968	336.05
380.349	348.25
380.729	334.69
381.109	342.38
381.489	330.17
381.87	333.56
382.25	341.47
382.63	342.15
383.01	340.8
383.39	345.99
383.77	341.7
384.15	345.99
384.53	339.67
384.91	350.97
385.29	362.26
385.67	346.22
386.049	359.1
386.429	369.04
386.809	378.31
387.189	357.07
387.568	353.23
387.948	374.47
388.328	340.57
388.707	340.34
389.087	363.17
389.466	356.39
389.846	366.33
390.225	361.13
390.605	372.66
390.984	359.33
391.363	372.66
391.743	376.73
392.122	371.3
392.501	369.72
392.881	363.17
393.26	374.69
393.639	380.34
394.018	372.89
394.397	368.59
394.776	380.34
395.155	370.4
395.534	392.32
395.913	360.91
396.292	362.94
396.671	390.96
397.05	378.76
397.429	372.66
397.808	369.5
398.186	356.61
398.565	377.41
398.944	414.24
399.323	386.9
399.701	379.67
400.08	401.13
400.458	415.82
400.837	387.8
401.215	389.83
401.594	388.25
401.972	410.4
402.351	403.17
402.729	405.88
403.107	391.64
403.486	425.77
403.864	414.47
404.242	420.57
404.62	418.08
404.999	398.42
405.377	405.88
405.755	409.49
406.133	424.41
406.511	407.01
406.889	431.19
407.267	436.84
407.645	428.25
408.023	445.88
408.401	404.75
408.779	449.49
409.156	451.75
409.534	427.8
409.912	438.19
410.29	446.78
410.667	450.62
411.045	437.74
411.422	442.94
411.8	444.07
412.178	446.33
412.555	438.65
412.933	453.11
413.31	468.25
413.687	465.54
414.065	459.44
414.442	480
414.819	475.93
415.197	462.15
415.574	477.29
415.951	482.04
416.328	495.82
416.705	474.35
417.082	468.48
417.46	508.7
417.837	499.21
418.214	500.57
418.591	487.01
418.967	506.22
419.344	500.57
419.721	508.48
420.098	513.9
420.475	498.76
420.852	505.31
421.228	501.47
421.605	504.41
421.982	517.51
422.358	526.33
422.735	508.7
423.111	517.29
423.488	540.34
423.864	528.14
424.241	542.82
424.617	522.49
424.994	522.49
425.37	520
425.746	542.82
426.123	550.28
426.499	536.27
426.875	565.2
427.251	553.22
427.627	550.73
428.003	555.03
428.379	562.94
428.756	572.43
429.132	587.8
429.507	595.7
429.883	582.6
430.259	597.29
430.635	601.81
431.011	593.44
431.387	607.46
431.763	634.35
432.138	609.94
432.514	614.69
432.89	622.37
433.265	607
433.641	642.26
434.016	636.16
434.392	633.67
434.767	636.16
435.143	617.85
435.518	649.04
435.894	660.56
436.269	672.09
436.644	688.81
437.02	655.59
437.395	696.49
437.77	691.52
438.145	687.91
438.52	688.13
438.895	701.01
439.271	698.98
439.646	713.67
440.021	740.56
440.395	703.27
440.77	714.35
441.145	712.31
441.52	734.91
441.895	722.48
442.27	722.71
442.645	730.62
443.019	747.11
443.394	729.03
443.769	742.82
444.143	729.71
444.518	746.89
444.892	744.18
445.267	748.24
445.641	755.47
446.016	766.32
446.39	760.22
446.764	774.68
447.139	788.47
447.513	804.06
447.887	798.19
448.262	791.41
448.636	785.08
449.01	801.35
449.384	805.87
449.758	824.63
450.132	819.65
450.506	806.09
450.88	832.53
451.254	831.18
451.628	831.86
452.002	839.09
452.376	868.69
452.75	883.61
453.123	866.66
453.497	865.3
453.871	865.75
454.244	881.57
454.618	882.25
454.992	923.83
455.365	915.02
455.739	948.92
456.112	921.8
456.486	919.76
456.859	923.61
457.232	927.67
457.606	943.04
457.979	962.25
458.352	962.25
458.725	990.72
459.099	1009.25
459.472	1021.46
459.845	1027.56
460.218	1013.77
460.591	1047.9
460.964	1073.43
461.337	1064.62
461.71	1079.31
462.083	1097.39
462.456	1090.83
462.829	1139.42
463.201	1124.05
463.574	1134.67
463.947	1149.81
464.32	1166.54
464.692	1165.63
465.065	1202.47
465.438	1184.84
465.81	1240.66
466.183	1250.6
466.555	1269.59
466.928	1286.76
467.3	1293.77
467.672	1281.56
468.045	1319.3
468.417	1305.06
468.789	1332.86
469.161	1388.9
469.534	1407.43
469.906	1453.99
470.278	1462.35
470.65	1447.43
471.022	1503.48
471.394	1544.15
471.766	1558.17
472.138	1604.72
472.51	1626.41
472.882	1660.54
473.253	1669.57
473.625	1740.08
473.997	1769.23
474.369	1777.14
474.74	1823.24
475.112	1884.94
475.484	1924.03
475.855	1983.24
476.227	2014.2
476.598	2077.47
476.97	2119.28
477.341	2184.59
477.713	2270.24
478.084	2280.86
478.455	2335.32
478.827	2421.19
479.198	2512.04
479.569	2540.74
479.94	2629.32
480.311	2722.88
480.682	2811.47
481.053	2843.33
481.424	2931.91
481.795	3008.75
482.166	3114.51
482.537	3239.93
482.908	3308.63
483.279	3369.19
483.65	3489.41
484.021	3622.74
484.391	3683.31
484.762	3772.57
485.133	3873.13
485.503	4031.77
485.874	4159.45
486.244	4211.88
486.615	4367.36
486.985	4526.22
487.356	4593.34
487.726	4751.53
488.097	4894.8
488.467	4971.63
488.837	5176.15
489.207	5276.26
489.578	5440.32
489.948	5519.87
490.318	5707.21
490.688	5779.3
491.058	5946.98
491.428	6120.98
491.798	6245.05
492.168	6458.83
492.538	6583.57
492.908	6711.7
493.278	6916.67
493.648	7034.63
494.017	7141.75
494.387	7329.54
494.757	7474.17
495.126	7677.1
495.496	7818.34
495.866	7941.73
496.235	8107.82
496.605	8267.14
496.974	8383.97
497.344	8556.85
497.713	8700.58
498.082	8864.87
498.452	8976.05
498.821	9207.23
499.19	9268.7
499.559	9504.85
499.928	9520.22
500.298	9749.36
500.667	9816.71
501.036	9859.64
501.405	10097.6
501.774	10214.66
502.143	10403.36
502.512	10531.26
502.88	10705.27
503.249	10808.77
503.618	10905.49
503.987	11077.69
504.356	11202.66
504.724	11398.81
505.093	11474.06
505.462	11624.57
505.83	11744.56
506.199	11917.21
506.567	12157.43
506.936	12165.8
507.304	12334.15
507.672	12427.03
508.041	12665.44
508.409	12824.54
508.777	12935.49
509.145	13140.23
509.514	13125.54
509.882	13239.89
510.25	13403.73
510.618	13514.69
510.986	13634.46
511.354	13827.67
511.722	14009.36
512.09	14209.13
512.458	14217.95
512.826	14393.76
513.193	14526.86
513.561	14584.94
513.929	14751.04
514.297	14942.45
514.664	15090.01
515.032	15137.02
515.4	15280.06
515.767	15428.76
516.135	15533.62
516.502	15529.32
516.869	15781.97
517.237	15965.24
517.604	15952.82
517.972	16134.28
518.339	16297.21
518.706	16403.88
519.073	16502.41
519.44	16614.94
519.808	16933.81
520.175	16866.01
520.542	17105.1
520.909	17173.35
521.276	17283.4
521.643	17475.94
522.009	17678.65
522.376	17783.5
522.743	17888.81
523.11	18065.3
523.477	18243.38
523.843	18370.6
524.21	18499.87
524.577	18712.29
524.943	18810.37
525.31	18877.48
525.676	19126.97
526.043	19277.25
526.409	19439.5
526.776	19586.62
527.142	19583.23
527.508	19719.5
527.874	19867.97
528.241	20106.6
528.607	20146.83
528.973	20330.1
529.339	20428.86
529.705	20569.87
530.071	20849.86
530.437	20818
530.803	20924.66
531.169	21051.66
531.535	21066.13
531.901	21272.9
532.267	21357.64
532.632	21578.66
532.998	21597.41
533.364	21675.83
533.73	21761.7
534.095	21920.12
534.461	21965.09
534.826	22113.11
535.192	22233.78
535.557	22384.06
535.923	22307.22
536.288	22531.17
536.653	22706.31
537.019	22589.25
537.384	22746.31
537.749	22759.42
538.114	22863.82
538.479	22911.73
538.845	23118.28
539.21	23089.58
539.575	23194.66
539.94	23303.81
540.305	23428.78
540.67	23447.31
541.034	23511.49
541.399	23522.33
541.764	23703.12
542.129	23838.26
542.494	23756.9
542.858	23974.52
543.223	23890.23
543.587	24118.48
543.952	24181.07
544.316	24240.05
544.681	24274.86
545.045	24427.62
545.41	24415.87
545.774	24488.86
546.138	24578.35
546.503	24568.18
546.867	24712.36
547.231	24873.48
547.595	24955.06
547.959	24931.79
548.324	25063.76
548.688	25012.46
549.052	25251.78
549.416	25275.06
549.779	25349.18
550.143	25427.37
550.507	25588.72
550.871	25723.63
551.235	25623.52
551.599	25845.44
551.962	25879.33
552.326	26046.11
552.689	26079.1
553.053	26039.56
553.417	26161.36
553.78	26467.57
554.143	26334.69
554.507	26471.86
554.87	26570.16
555.234	26856.94
555.597	26737.16
555.96	26803.83
556.323	27020.55
556.686	27060.32
557.05	27222.58
557.413	27309.58
557.776	27329.24
558.139	27555.45
558.502	27607.2
558.865	27571.27
559.228	28073.17
559.59	27989.56
559.953	27991.59
560.316	28368.76
560.679	28260.74
561.041	28496.44
561.404	28691.46
561.767	28828.18
562.129	28768.75
562.492	29154.28
562.854	28910.67
563.217	29095.29
563.579	29182.3
563.941	29457.54
564.304	29497.32
564.666	29697.09
565.028	29688.73
565.39	29838.78
565.753	30020.24
566.115	30057.53
566.477	30245.55
566.839	30328.71
567.201	30603.05
567.563	30584.29
567.925	30685.08
568.287	30777.28
568.648	30794.46
569.01	31073.32
569.372	31262.69
569.734	31156.71
570.095	31279.64
570.457	31427.21
570.819	31691.38
571.18	31581.56
571.542	31781.1
571.903	31796.92
572.265	31938.61
572.626	32104.71
572.987	32081.88
573.349	32246.85
573.71	32393.51
574.071	32488.43
574.432	32523.23
574.794	32816.33
575.155	32665.6
575.516	32523.45
575.877	32830.79
576.238	32833.5
576.599	32906.04
576.96	33009.54
577.32	33096.32
577.681	33264.22
578.042	33326.14
578.403	33245.92
578.763	33329.08
579.124	33440.72
579.485	33435.29
579.845	33542.18
580.206	33486.37
580.566	33557.78
580.927	33518.68
581.287	33900.37
581.648	33563.2
582.008	33924.09
582.368	33816.53
582.728	33806.13
583.089	33847.03
583.449	33772.23
583.809	33946.47
584.169	34027.14
584.529	33892
584.889	34125.67
585.249	33902.4
585.609	33839.12
585.969	34110.3
586.329	34058.55
586.688	34178.1
587.048	34107.14
587.408	34116.41
587.768	34047.03
588.127	34207.25
588.487	34134.03
588.846	34269.17
589.206	34152.11
589.565	34186.46
589.925	34273.69
590.284	34180.36
590.643	34177.65
591.003	34306
591.362	34415.61
591.721	34320.02
592.08	34370.18
592.44	34428.26
592.799	34442.5
593.158	34218.1
593.517	34420.13
593.876	34470.29
594.235	34364.76
594.593	34472.1
594.952	34496.96
595.311	34371.31
595.67	34629.39
596.029	34688.37
596.387	34700.8
596.746	34964.97
597.104	34659.22
597.463	34744.64
597.822	34968.36
598.18	34664.87
598.538	34799.1
598.897	35020.11
599.255	34759.78
599.613	35135.14
599.972	34905.99
600.33	35174.91
600.688	34924.97
601.046	34979.89
601.404	35155.47
601.762	35148.47
602.12	35350.05
602.478	35452.87
602.836	35401.8
603.194	35155.25
603.552	35418.97
603.91	35209.94
604.268	35378.29
604.625	35377.61
604.983	35624.39
605.341	35451.51
605.698	35501.45
606.056	35746.87
606.413	35673.2
606.771	35766.31
607.128	35850.14
607.485	35774.44
607.843	35806.53
608.2	35896.02
608.557	36149.8
608.914	36025.73
609.272	36304.82
609.629	36247.65
609.986	36396.12
610.343	36187.31
610.7	36577.58
611.057	36463.46
611.414	36585.04
611.771	36496.68
612.127	36718.14
612.484	36731.7
612.841	36803.34
613.198	36738.26
613.554	36755.88
613.911	37033.39
614.267	36879.95
614.624	37032.03
614.98	37103.22
615.337	37202.88
615.693	37159.49
616.05	37161.52
616.406	37506.82
616.762	37276.1
617.118	37353.61
617.475	37337.79
617.831	37448.07
618.187	37533.72
618.543	37620.49
618.899	37776.87
619.255	37624.11
619.611	37760.15
619.967	37847.61
620.323	37896.42
620.678	37782.52
621.034	37810.09
621.39	37740.94
621.746	37712.69
622.101	38082.18
622.457	37770.55
622.812	38117.43
623.168	38099.8
623.523	38096.87
623.879	38289.4
624.234	38056.87
624.589	38249.63
624.945	38232.91
625.3	38247.37
625.655	38272.45
626.01	38196.98
626.365	38349.29
626.72	38308.61
627.075	38293.92
627.43	38283.98
627.785	38185.68
628.14	38292.34
628.495	38335.73
628.85	38485.1
629.205	38290.31
629.559	38442.85
629.914	38258.22
630.269	38267.03
630.623	38258.9
630.978	38263.64
631.332	38282.62
631.687	38411.66
632.041	38305.22
632.396	38472.9
632.75	38111.33
633.104	38298.67
633.459	38086.24
633.813	38210.99
634.167	38159.46
634.521	38127.6
634.875	38147.71
635.229	38235.39
635.583	37899.81
635.937	38055.06
636.291	37877.44
636.645	38053.7
636.999	37982.74
637.352	38180.93
637.706	37832.47
638.06	37876.98
638.413	37948.17
638.767	37854.61
639.121	37906.36
639.474	37810.77
639.828	37755.18
640.181	37795.86
640.534	37771.68
640.888	37705.24
641.241	37584.56
641.594	37651.45
641.947	37730.32
642.301	37531.68
642.654	37663.43
643.007	37638.57
643.36	37691.9
643.713	37521.51
644.066	37535.07
644.419	37452.14
644.771	37172.14
645.124	36867.29
645.477	36903.45
645.83	36546.17
646.182	36451.26
646.535	36457.13
646.888	36424.59
647.24	36236.12
647.593	36432.28
647.945	36436.57
648.298	36176.24
648.65	36173.98
649.002	36107.09
649.355	36227.99
649.707	36202.45
650.059	36224.37
650.411	36638.6
650.763	36768.99
651.115	37246.04
651.467	36942.09
651.819	36938.93
652.171	37046.27
652.523	36844.02
652.875	36846.05
653.227	36774.87
653.578	36885.6
653.93	36924.24
654.282	36828.88
654.633	36557.92
654.985	36630.69
655.337	36625.27
655.688	36683.8
656.039	36873.62
656.391	36554.08
656.742	36515.89
657.094	36578.49
657.445	36649.22
657.796	36482.67
658.147	36540.97
658.498	36562.67
658.849	36725.38
659.2	36568.09
659.551	36380.75
659.902	36503.69
660.253	36469.34
660.604	36602.89
660.955	36399.96
661.306	36516.79
661.656	36416.01
662.007	36418.04
662.358	36436.8
662.708	36325.39
663.059	36314.99
663.409	36312.73
663.76	36451.03
664.11	36490.35
664.461	36376.46
664.811	36305.27
665.161	36401.77
665.511	36395.89
665.862	36336.91
666.212	36276.57
666.562	36265.5
666.912	36303.92
667.262	36274.31
667.612	36294.2
667.962	36227.76
668.312	36237.71
668.662	36373.3
669.011	36253.75
669.361	36229.12
669.711	36145.28
670.06	36172.85
670.41	36094.43
670.76	36098.27
671.109	36212.4
671.459	36300.3
671.808	36209.91
672.157	36145.73
672.507	35868.9
672.856	35992.97
673.205	35974.44
673.554	36151.15
673.904	35909.35
674.253	36201.1
674.602	35947.32
674.951	35483.15
675.3	35263.27
675.649	35933.08
675.998	35935.11
676.346	35840.2
676.695	36064.15
677.044	35747.1
677.393	35857.6
677.741	35856.92
678.09	35638.17
678.438	35682.47
678.787	35739.64
679.135	35679.08
679.484	35513.43
679.832	35525.41
680.181	35371.74
680.529	35653.54
680.877	35404.51
681.225	35341.46
681.573	35578.06
681.922	35337.84
682.27	35235.02
682.618	35187.11
682.966	35144.63
683.314	35209.48
683.661	35134.23
684.009	34844.75
684.357	34810.17
684.705	34901.02
685.053	34925.65
685.4	34820.79
685.748	34620.35
686.095	34697.41
686.443	34601.14
686.79	34504.87
687.138	34586.45
687.485	34515.94
687.832	34560.69
688.18	34469.84
688.527	34295.16
688.874	34286.8
689.221	34289.96
689.568	34203.41
689.915	34116.18
690.262	34027.82
690.609	33944.43
690.956	33886.13
691.303	33678.9
691.65	33675.06
691.997	33637.55
692.344	33470.55
692.69	33333.6
693.037	33397.1
693.383	33165.02
693.73	33358.91
694.077	33077.34
694.423	33177.9
694.769	32983.1
695.116	32853.84
695.462	32744.46
695.808	32685.03
696.155	32733.62
696.501	32628.53
696.847	32567.52
697.193	32356.45
697.539	32467.86
697.885	32257.02
698.231	32135.89
698.577	32211.37
698.923	32068.1
699.269	31967.76
699.614	31867.42
699.96	31799.63
700.306	31894.77
700.651	31728.67
700.997	31614.32
701.342	31471.95
701.688	31556.7
702.033	31505.63
702.379	31302.24
702.724	31319.87
703.069	31236.48
703.415	30908.13
703.76	30970.73
704.105	30900.9
704.45	30874.46
704.795	30821.35
705.14	30551.53
705.485	30699.09
705.83	30554.46
706.175	30617.06
706.52	30392.21
706.865	30392.66
707.209	30346.56
707.554	30177.07
707.899	30330.06
708.243	30090.3
708.588	30035.61
708.932	29861.83
709.277	29803.52
709.621	29780.47
709.966	29521.5
710.31	29697.99
710.654	29488.96
710.998	29592.23
711.342	29585.22
711.687	29408.05
712.031	29227.27
712.375	29215.52
712.719	29243.31
713.063	29076.09
713.407	29323.08
713.75	29086.93
714.094	29084.22
714.438	28871.8
714.782	29021.17
715.125	28749.77
715.469	28858.46
715.812	28708.64
716.156	28670.67
716.499	28627.74
716.843	28608.08
717.186	28404.69
717.53	28519.26
717.873	28578.25
718.216	28633.16
718.559	28388.87
718.902	28197.69
719.246	28326.27
719.589	28128.09
719.932	28002.67
720.275	28030.92
720.617	28046.73
720.96	27886.96
721.303	28082.21
721.646	27950.69
721.989	27849.23
722.331	27852.84
722.674	27760.41
723.016	27749.79
723.359	27681.09
723.701	27730.58
724.044	27481.33
724.386	27301.44
724.729	27496.24
725.071	27385.73
725.413	27416.47
725.755	27366.98
726.097	27300.99
726.439	27129.47
726.782	27137.15
727.124	27209.47
727.465	27046.99
727.807	27021.68
728.149	26934.22
728.491	26994.78
728.833	26850.38
729.175	26818.29
729.516	26823.26
729.858	26743.27
730.199	26805.86
730.541	26704.62
730.882	26804.51
731.224	26678.41
731.565	26471.86
731.906	26598.41
732.248	26611.74
732.589	26513.22
732.93	26361.81
733.271	26473.22
733.612	26432.31
733.953	26377.85
734.294	26353.67
734.635	26287.68
734.976	26343.28
735.317	26124.98
735.658	26247.23
735.999	26216.27
736.339	25955.26
736.68	26242.49
737.021	25997.97
737.361	25855.38
737.702	26042.27
738.042	26039.56
738.383	25904.87
738.723	25920.46
739.063	25794.82
739.404	25891.54
739.744	25728.15
740.084	25780.58
740.424	25680.69
740.764	25547.82
741.104	25628.04
741.444	25528.38
741.784	25513.02
742.124	25536.74
742.464	25378.33
742.804	25414.26
743.143	25273.47
743.483	25397.54
743.823	25198
744.162	25150.54
744.502	25224.44
744.841	25103.76
745.181	25228.5
745.52	25079.81
745.86	24981.96
746.199	24930.88
746.538	25032.58
746.877	25013.59
747.216	24990.54
747.556	24969.75
747.895	24825.58
748.234	24779.25
748.573	24662.87
748.911	24706.48
749.25	24654.06
749.589	24536.54
749.928	24573.61
750.267	24642.08
750.605	24640.72
750.944	24468.98
751.283	24369.99
751.621	24460.61
751.96	24245.03
752.298	24334.74
752.636	24233.05
752.975	24090.91
753.313	24000.74
753.651	24103.34
753.989	23986.73
754.327	23979.72
754.666	23826.96
755.004	23933.62
755.342	23893.4
755.679	23705.15
756.017	23647.08
756.355	23802.33
756.693	23675.55
757.031	23576.34
757.368	23542.67
757.706	23504.03
758.044	23405.05
758.381	23445.27
758.719	23297.25
759.056	23289.35
759.394	23189.01
759.731	23031.05
760.068	23099.52
760.405	23021.56
760.743	22976.81
761.08	22964.16
761.417	22741.11
761.754	22768.68
762.091	22657.5
762.428	22653.43
762.765	22510.83
763.102	22612.3
763.438	22474.23
763.775	22311.74
764.112	22303.61
764.449	22229.94
764.785	22114.23
765.122	22064.52
765.458	21945.88
765.795	22038.76
766.131	21884.18
766.467	21854.58
766.804	21770.06
767.14	21685.09
767.476	21532.33
767.812	21518.09
768.148	21583.85
768.485	21407.36
768.821	21250.98
769.157	21174.6
769.492	21239.23
769.828	21170.76
770.164	21000.59
770.5	20974.15
770.836	20999.69
771.171	20757.89
771.507	20741.39
771.842	20689.19
772.178	20532.58
772.513	20561.51
772.849	20581.62
773.184	20448.52
773.519	20344.11
773.855	20285.36
774.19	20137.34
774.525	20119.71
774.86	20065.7
775.195	20084.91
775.53	19939.15
775.865	19906.38
776.2	19729.44
776.535	19618.48
776.87	19516.56
777.205	19566.96
777.539	19386.4
777.874	19554.75
778.209	19230.69
778.543	19220.07
778.878	19106.18
779.212	19227.31
779.547	18942.79
779.881	19081.32
780.215	18887.43
780.55	18941.21
780.884	18860.31
781.218	18698.73
781.552	18753.42
781.886	18633.65
782.22	18505.97
782.554	18489.7
782.888	18361.57
783.222	18286.09
783.556	18212.87
783.889	18181.68
784.223	18047.9
784.557	17966.1
784.89	18078.18
785.224	17951.63
785.557	17778.76
785.891	17818.53
786.224	17718.87
786.558	17710.28
786.891	17532.66
787.224	17508.48
787.557	17475.49
787.891	17422.38
788.224	17317.3
788.557	17284.53
788.89	17340.12
789.223	17266.9
789.556	17247.02
789.888	17172.9
790.221	17164.99
790.554	16895.39
790.887	16941.94
791.219	16765
791.552	16759.57
791.884	16734.26
792.217	16657.88
792.549	16600.03
792.882	16458.79
793.214	16520.26
793.546	16418.34
793.879	16324.1
794.211	16238.23
794.543	16296.53
794.875	16184.9
795.207	16251.11
795.539	16097.44
795.871	16158.23
796.203	15949.65
796.535	15883.89
796.867	15874.17
797.198	15823.1
797.53	15769.54
797.862	15738.58
798.193	15776.55
798.525	15681.64
798.856	15590.11
799.188	15468.53
799.519	15465.14
799.85	15339.05
800.182	15384.02
800.513	15385.37
800.844	15236.9
801.175	15358.48
801.506	15252.72
801.837	15178.37
802.168	15163.68
802.499	15008.43
802.83	14966.85
803.161	14973.86
803.491	14965.72
803.822	14991.26
804.153	14881.88
804.483	14758.72
804.814	14722.11
805.145	14677.82
805.475	14572.06
805.805	14577.71
806.136	14615.22
806.466	14605.28
806.796	14623.58
807.126	14444.38
807.457	14384.95
807.787	14391.95
808.117	14280.99
808.447	14371.61
808.777	14284.38
809.107	14249.13
809.436	14118.74
809.766	14222.01
810.096	14159.42
810.426	14053.2
810.755	14038.97
811.085	14030.61
811.414	14009.59
811.744	13928.46
812.073	13763.27
812.403	13932.3
812.732	13759.43
813.061	13737.51
813.39	13708.13
813.719	13618.19
814.049	13695.93
814.378	13632.42
814.707	13537.74
815.036	13596.04
815.365	13495.25
815.693	13367.35
816.022	13407.8
816.351	13326.67
816.68	13271.08
817.008	13336.84
817.337	13214.58
817.665	13170.06
817.994	13168.71
818.322	13232.43
818.651	13080.35
818.979	13083.06
819.307	13181.59
819.636	13077.86
819.964	13020.46
820.292	13060.69
820.62	13079.67
820.948	12974.14
821.276	12995.15
821.604	12935.27
821.932	12973.91
822.259	12917.41
822.587	12886
822.915	12910.64
823.243	13038.77
823.57	12999.22
823.898	12948.6
824.225	12812.11
824.553	12944.08
824.88	12834.03
825.207	12960.8
825.535	12834.03
825.862	12859.79
826.189	12813.24
826.516	12908.6
826.843	13018.43
827.17	12892.33
827.497	12963.74
827.824	12936.85
828.151	12935.72
828.478	12833.8
828.805	12926.68
829.131	12898.66
829.458	12811.2
829.785	12842.39
830.111	12850.07
830.438	12871.99
830.764	12871.09
831.09	12921.03
831.417	12784.31
831.743	12831.09
832.069	12815.5
832.395	12777.31
832.722	12800.13
833.048	12724.88
833.374	12758.1
833.7	12701.38
834.026	12756.06
834.351	12748.38
834.677	12720.36
835.003	12729.62
835.329	12580.7
835.654	12650.53
835.98	12545.67
836.306	12618.67
836.631	12596.07
836.956	12614.82
837.282	12600.36
837.607	12545.67
837.932	12489.18
838.258	12554.49
838.583	12452.79
838.908	12448.95
839.233	12502.28
839.558	12462.06
839.883	12378.9
840.208	12315.62
840.533	12364.89
840.858	12398.78
841.182	12384.1
841.507	12367.15
841.832	12231.78
842.156	12300.71
842.481	12283.31
842.805	12198.56
843.13	12229.07
843.454	12096.19
843.778	12050.32
844.103	12083.09
844.427	12044.9
844.751	12062.97
845.075	11991.34
845.399	11945.91
845.723	11850.1
846.047	11929.87
846.371	11702.76
846.695	11884.45
847.019	11698.46
847.343	11693.94
847.666	11547.06
847.99	11542.54
848.313	11600.16
848.637	11465.7
848.96	11456.44
849.284	11456.89
849.607	11376.44
849.931	11296.44
850.254	11179.38
850.577	11198.14
850.9	11138.48
851.223	11093.73
851.546	11071.81
851.869	11025.94
852.192	10991.14
852.515	10927.41
852.838	10890.35
853.161	10930.57
853.483	10842.89
853.806	10802.22
854.129	10669.79
854.451	10715.66
854.774	10671.37
855.096	10596.12
855.419	10590.02
855.741	10592.5
856.063	10491.49
856.385	10572.17
856.708	10470.7
857.03	10397.25
857.352	10445.16
857.674	10352.28
857.996	10302.57
858.318	10307.99
858.64	10281.78
858.961	10244.49
859.283	10148.22
859.605	10140.76
859.926	10214.21
860.248	10153.65
860.57	10137.37
860.891	10136.02
861.212	10095.79
861.534	10059.86
861.855	10078.85
862.176	9959.3
862.498	9966.08
862.819	9977.6
863.14	9948.68
863.461	9941.9
863.782	9886.31
864.103	9918.4
864.424	9835.01
864.745	9900.09
865.065	9749.36
865.386	9743.49
865.707	9783.49
866.027	9798.63
866.348	9747.1
866.668	9748.68
866.989	9641.12
867.309	9656.03
867.63	9718.18
867.95	9646.09
868.27	9594.11
868.59	9652.19
868.91	9637.73
869.23	9659.2
869.55	9547.33
869.87	9588.69
870.19	9592.98
870.51	9558.18
870.83	9528.58
871.15	9500.56
871.469	9483.15
871.789	9518.41
872.109	9479.76
872.428	9494.91
872.748	9495.58
873.067	9473.44
873.386	9423.27
873.706	9394.34
874.025	9413.1
874.344	9391.86
874.663	9374.68
874.982	9357.73
875.301	9375.81
875.62	9285.87
875.939	9180.34
876.258	9254.23
876.577	9292.2
876.896	9270.28
877.214	9182.15
877.533	9217.62
877.852	9212.65
878.17	9190.73
878.489	9157.51
878.807	9148.7
879.125	9150.73
879.444	9100.11
879.762	9057.4
880.08	9176.04
880.398	9103.05
880.716	9052.66
881.034	8984.18
881.352	9013.11
881.67	9000.91
881.988	9000.46
882.306	8952.55
882.624	8959.78
882.941	8895.15
883.259	8960
883.577	8775.15
883.894	8822.61
884.212	8870.29
884.529	8819.9
884.846	8775.83
885.164	8785.55
885.481	8786.45
885.798	8802.95
886.115	8736.06
886.432	8750.29
886.75	8607.02
887.067	8636.4
887.383	8664.65
887.7	8675.49
888.017	8537.64
888.334	8626
888.651	8483.41
888.967	8517.53
889.284	8483.18
889.6	8459.68
889.917	8423.52
890.233	8436.4
890.55	8383.52
890.866	8366.8
891.182	8355.95
891.498	8381.04
891.815	8320.7
892.131	8300.81
892.447	8278.44
892.763	8194.83
893.079	8176.52
893.395	8179.46
893.71	8229.85
894.026	8129.97
894.342	8159.8
894.657	8082.06
894.973	8060.37
895.289	8027.83
895.604	8011.78
895.92	7971.78
896.235	7916.87
896.55	7952.35
896.865	7942.63
897.181	7920.71
897.496	7912.12
897.811	7882.29
898.126	7743.31
898.441	7780.6
898.756	7795.74
899.071	7687.27
899.386	7708.96
899.7	7638.68
900.015	7616.76
900.33	7607.72
900.644	7593.49
900.959	7540.83
901.273	7564.56
901.588	7450.89
901.902	7459.93
902.216	7410.21
902.531	7437.11
902.845	7432.81
903.159	7325.02
903.473	7332.25
903.787	7320.05
904.101	7236.43
904.415	7198.24
904.729	7188.53
905.042	7175.42
905.356	7186.94
905.67	7192.14
905.984	7164.35
906.297	7145.59
906.611	7032.6
906.924	7001.19
907.237	7012.94
907.551	6931.13
907.864	6961.41
908.177	6943.56
908.491	6916.44
908.804	6856.56
909.117	6878.48
909.43	6800.74
909.743	6775.66
910.056	6780.4
910.368	6710.57
910.681	6803.9
910.994	6707.86
911.307	6655.21
911.619	6644.13
911.932	6629.22
912.244	6586.28
912.557	6579.05
912.869	6508.77
913.181	6510.58
913.494	6537.02
913.806	6452.95
914.118	6430.13
914.43	6426.06
914.742	6359.39
915.054	6335.67
915.366	6332.05
915.678	6344.93
915.99	6299.28
916.302	6252.28
916.613	6222
916.925	6200.3
917.236	6125.5
917.548	6130.02
917.859	6144.49
918.171	6069.01
918.482	6110.14
918.794	6048.44
919.105	6005.28
919.416	5985.17
919.727	5998.95
920.038	5951.5
920.349	5912.85
920.66	5888.67
920.971	5872.63
921.282	5825.85
921.593	5825.62
921.903	5778.17
922.214	5793.53
922.525	5789.47
922.835	5736.36
923.146	5685.29
923.456	5718.06
923.767	5677.83
924.077	5626.08
924.387	5608.91
924.697	5592.64
925.008	5558.51
925.318	5540.89
925.628	5540.66
925.938	5514.22
926.248	5489.14
926.558	5429.48
926.867	5422.47
927.177	5389.93
927.487	5337.05
927.796	5307.45
928.106	5289.82
928.416	5290.27
928.725	5287.33
929.034	5282.59
929.344	5210.95
929.653	5204.4
929.962	5176.38
930.271	5152.65
930.581	5139.31
930.89	5101.12
931.199	5140.22
931.508	5081.01
931.817	5068.81
932.125	5089.6
932.434	5045.53
932.743	5001.69
933.051	4970.73
933.36	4921.24
933.669	4891.41
933.977	4905.65
934.286	4907.91
934.594	4886.67
934.902	4861.81
935.21	4827.91
935.519	4850.06
935.827	4807.8
936.135	4782.26
936.443	4728.93
936.751	4757.18
937.059	4694.35
937.367	4682.15
937.674	4664.3
937.982	4670.17
938.29	4603.51
938.597	4587.46
938.905	4547.01
939.213	4577.07
939.52	4553.57
939.827	4541.59
940.135	4514.92
940.442	4502.72
940.749	4469.73
941.056	4472.66
941.363	4502.95
941.67	4419.56
941.977	4399.67
942.284	4355.38
942.591	4410.29
942.898	4368.03
943.205	4328.26
943.511	4309.73
943.818	4285.1
944.125	4272.44
944.431	4262.95
944.738	4225.89
945.044	4194.03
945.35	4233.35
945.657	4167.14
945.963	4175.72
946.269	4098.21
946.575	4115.39
946.881	4104.31
947.187	4064.99
947.493	4058.44
947.799	4050.53
948.105	4048.27
948.41	3993.36
948.716	3998.1
949.022	4015.73
949.327	3985.9
949.633	3945.45
949.938	3964.88
950.244	3938.89
950.549	3915.39
950.854	3886.47
951.16	3857.09
951.465	3831.55
951.77	3834.04
952.075	3809.63
952.38	3778.22
952.685	3829.52
952.99	3758.33
953.294	3778.45
953.599	3681.5
953.904	3714.27
954.209	3653.93
954.513	3669.75
954.818	3675.62
955.122	3663.42
955.426	3668.84
955.731	3661.61
956.035	3625.23
956.339	3588.17
956.643	3601.28
956.948	3584.78
957.252	3552.01
957.556	3521.28
957.86	3530.09
958.163	3542.52
958.467	3492.58
958.771	3453.26
959.075	3484.44
959.378	3429.3
959.682	3431.79
959.985	3447.16
960.289	3434.5
960.592	3400.15
960.896	3408.29
961.199	3336.2
961.502	3341.4
961.805	3331.23
962.108	3292.36
962.411	3301.85
962.714	3260.49
963.017	3249.19
963.32	3265.46
963.623	3279.48
963.926	3234.51
964.228	3206.48
964.531	3239.03
964.833	3195.18
965.136	3172.81
965.438	3156.32
965.741	3103.21
966.043	3139.14
966.345	3122.19
966.648	3130.33
966.95	3105.92
967.252	3050.56
967.554	3087.62
967.856	3043.1
968.158	3037
968.46	3054.85
968.761	3022.53
969.063	2974.4
969.365	3017.79
969.666	2974.4
969.968	2973.5
970.269	2948.86
970.571	2919.71
970.872	2908.86
971.174	2899.37
971.475	2924.91
971.776	2868.64
972.077	2880.16
972.378	2838.81
972.679	2849.2
972.98	2819.83
973.281	2828.19
973.582	2787.74
973.883	2794.06
974.183	2792.26
974.484	2796.55
974.785	2765.37
975.085	2745.25
975.386	2757.91
975.686	2710.9
975.986	2721.07
976.287	2726.27
976.587	2691.69
976.887	2686.5
977.187	2660.96
977.487	2669.1
977.787	2634.07
978.087	2645.82
978.387	2618.02
978.687	2625.93
978.987	2579.38
979.286	2591.81
979.586	2583
979.885	2551.81
980.185	2577.35
980.484	2547.97
980.784	2543.22
981.083	2520.17
981.382	2526.5
981.682	2520.4
981.981	2481.76
982.28	2449.67
982.579	2437.46
982.878	2478.37
983.177	2441.08
983.475	2442.89
983.774	2432.04
984.073	2404.7
984.372	2430.46
984.67	2401.31
984.969	2387.07
985.267	2397.47
985.566	2396.56
985.864	2370.8
986.162	2354.08
986.461	2319.73
986.759	2302.1
987.057	2303.68
987.355	2286.73
987.653	2257.58
987.951	2293.74
988.249	2277.02
988.547	2262.78
988.844	2231.59
989.142	2260.29
989.44	2246.73
989.737	2242.89
990.035	2224.81
990.332	2211.48
990.63	2180.3
990.927	2194.76
991.224	2194.53
991.521	2159.28
991.819	2154.76
992.116	2159.51
992.413	2131.26
992.71	2146.17
993.006	2111.82
993.303	2129.45
993.6	2100.3
993.897	2077.47
994.193	2083.12
994.49	2070.24
994.787	2079.51
995.083	2034.31
995.379	2043.8
995.676	2033.63
995.972	2037.02
996.268	2031.83
996.565	2016.68
996.861	1997.93
997.157	1996.35
997.453	1989.11
997.749	1958.38
998.044	1946.18
998.34	1936.23
998.636	1940.75
998.932	1952.28
999.227	1922.45
999.523	1925.84
999.818	1890.36
1000.114	1886.52
1000.409	1858.27
1000.704	1874.32
1001	1857.14
1001.295	1841.32
1001.59	1843.36
1001.885	1823.24
1002.18	1804.71
1002.475	1794.54
1002.77	1797.48
1003.065	1770.36
1003.359	1786.63
1003.654	1786.63
1003.949	1742.12
1004.243	1726.97
1004.538	1757.48
1004.832	1738.5
1005.127	1731.72
1005.421	1724.71
1005.715	1705.73
1006.009	1730.36
1006.304	1684.26
1006.598	1667.77
1006.892	1682.68
1007.186	1650.14
1007.48	1665.28
1007.773	1636.58
1008.067	1628.45
1008.361	1588.45
1008.655	1641.33
1008.948	1611.5
1009.242	1611.05
1009.535	1601.55
1009.829	1586.87
1010.122	1584.38
1010.415	1585.06
1010.708	1570.82
1011.001	1568.33
1011.295	1524.72
1011.588	1531.73
1011.881	1526.3
1012.173	1522.69
1012.466	1493.08
1012.759	1504.61
1013.052	1531.95
1013.344	1484.27
1013.637	1479.3
1013.93	1458.96
1014.222	1487.66
1014.514	1449.24
1014.807	1438.85
1015.099	1447.21
1015.391	1425.97
1015.683	1392.29
1015.976	1414.44
1016.268	1391.62
1016.56	1391.39
1016.851	1417.83
1017.143	1350.49
1017.435	1374.44
1017.727	1352.29
1018.018	1349.13
1018.31	1329.02
1018.602	1355.91
1018.893	1354.1
1019.185	1322.24
1019.476	1306.65
1019.767	1319.3
1020.058	1313.2
1020.35	1278.62
1020.641	1282.24
1020.932	1275.46
1021.223	1256.48
1021.514	1279.98
1021.804	1256.93
1022.095	1233.65
1022.386	1226.65
1022.677	1236.37
1022.967	1223.71
1023.258	1232.07
1023.548	1205.18
1023.839	1178.29
1024.129	1205.18
1024.419	1187.55
1024.709	1183.71
1025	1159.53
1025.29	1161.79
1025.58	1164.5
1025.87	1141
1026.16	1123.37
1026.449	1137.84
1026.739	1111.62
1027.029	1109.82
1027.319	1123.15
1027.608	1132.87
1027.898	1080.89
1028.187	1090.38
1028.477	1068.46
1028.766	1076.82
1029.055	1051.29
1029.344	1068.23
1029.634	1064.62
1029.923	1028.01
1030.212	1048.12
1030.501	1049.48
1030.79	1025.75
1031.078	1037.5
1031.367	1026.2
1031.656	1019.87
1031.945	1006.54
1032.233	1011.74
1032.522	987.33
1032.81	956.15
1033.099	967.45
1033.387	990.04
1033.675	985.75
1033.963	967.45
1034.251	982.36
1034.54	961.8
1034.828	951.85
1035.116	931.74
1035.403	936.94
1035.691	899.43
1035.979	928.58
1036.267	936.49
1036.554	936.03
1036.842	908.92
1037.129	896.49
1037.417	883.15
1037.704	918.41
1037.992	905.08
1038.279	905.75
1038.566	891.06
1038.853	891.06
1039.14	891.06
